
Integration time [ms]: 100.000
Averaging Nr. [scans]: 40
Smoothing Nr. [pixels]: 0
Data measured with spectrometer [name]: 2101013U2
Wave   ;Sample   ;Dark     ;Reference
[nm]   ;[counts] ;[counts] ;[counts] 

394.013;   50.034; -450.257; -315.536
394.305;  207.657; -461.258; -419.536
394.596;  861.988; -676.269; -527.514
394.887; 2024.003; -796.268; -654.518
395.178;  837.556;  145.736;   11.476
395.470;   96.941; -210.263; -356.526
395.761;  240.192;  305.734;  394.479
396.052;  331.773; -545.284; -306.489
396.343;  348.962; -557.276; -454.503
396.634;  171.658; -200.279; -290.497
396.926;  189.376; -618.268; -565.517
397.217;  167.041;   11.725;  -17.504
397.508;   83.506; -366.273; -154.507
397.799;   80.233; -555.279; -571.497
398.090;   13.803; -973.280; -902.495
398.381;  168.229;   11.708;  -11.473
398.672;   19.655; -585.292; -742.473
398.963;   91.164; -348.279; -373.498
399.254;  136.539;   54.709; -209.475
399.545;   -7.636;-1017.266; -883.520
399.836;  102.152; -407.277; -343.501
400.127;   73.683; -205.295; -209.468
400.418;   75.651; -423.274; -392.506
400.709;  104.141; -359.281; -333.493
401.000;   78.092; -268.291; -309.476
401.290;  125.174;  225.698;  115.545
401.581;   79.207; -166.286; -228.485
401.872;   41.957; -542.298; -486.462
402.163;   77.701; -313.296; -252.467
402.454;  136.189; -123.291; -163.475
402.744;  121.993; -844.297; -813.465
403.035;  584.271; -226.293;  -86.471
403.326;  772.383; -366.292; -384.474
403.617;  483.677;  204.701;  165.539
403.907;  240.928; -593.283; -679.490
404.198; 1883.682; -545.307; -599.446
404.489; 4971.083; -618.283; -588.491
404.779; 1908.503; -618.302; -660.456
405.070;  250.983;  -67.304; -174.451
405.360;  300.048; -259.293; -238.472
405.651;  331.788;  125.699;   98.542
405.942;  226.653;  209.714;  127.516
406.232;  395.691; -432.285; -413.487
406.523;  650.217;  641.706;  758.530
406.813;  147.255; -579.286; -644.484
407.104;  464.778;  261.708;  144.527
407.394;  271.728; -604.299; -591.462
407.685;  195.715;  336.715;  222.513
407.975;   83.682; -400.283; -382.490
408.265;  150.153; -134.289; -190.478
408.556;   84.536; -472.291; -459.475
408.846;  172.867;  474.706;  429.530
409.137;  103.010;   -1.288; -216.480
409.427;   64.666; -193.285; -271.487
409.717;   51.859; -776.273; -692.508
410.007;  158.560;    4.715; -170.486
410.298;   97.110; -360.295; -342.469
410.588;   87.089; -495.285; -510.486
410.878;   36.970; -792.287; -873.482
411.168;  126.734; -481.298; -478.463
411.459;  132.552; -295.283; -242.489
411.749;   60.560; -609.292; -507.474
412.039;   66.859; -755.289; -386.480
412.329;  244.296;   40.722;  132.501
412.619;  211.780;  -62.286; -148.485
412.909;  393.555;  639.711;  594.521
413.199;  395.953; -130.280; -251.495
413.490;  469.021;  521.710;  352.523
413.780;  138.757;-1013.279; -913.496
414.070;  335.088;  -46.276;  235.497
414.360;  392.892; -729.278; -666.498
414.650;  397.142; -726.288; -688.482
414.940;  466.582; -538.280; -441.496
415.230;  823.864;   50.712;   74.519
415.520; 5084.687;  155.730;   66.486
415.809;19519.466; -305.281; -125.493
416.099;15180.604; -388.277; -229.501
416.389; 3935.624;  435.726;  236.494
416.679; 2335.470;   91.738;   85.473
416.969;  450.225; -527.287; -503.483
417.259;  528.384;  341.721;  171.503
417.549;  641.790;  522.718;  318.508
417.838; 1307.253; -205.268; -147.518
418.128; 4194.101;  650.710;  492.522
418.418; 3530.615; -491.272; -579.509
418.708; 2412.499;    9.726;  -48.506
418.997; 8676.270; -474.275; -480.505
419.287; 9070.005; -733.273; -790.507
419.577; 8148.751; -160.283; -123.489
419.866;27614.002; -588.277; -498.501
420.156;29947.958; -242.270;  -55.513
420.446; 5746.238; -112.263;  -26.526
420.735;  977.953; -376.271; -446.512
421.025;  826.966; 1830.722;  315.502
421.314;  861.201; -203.271; -226.512
421.604; 2123.896;   89.732;  233.484
421.893; 1248.773; -705.271; -602.511
422.183;  236.838; -487.263; -461.526
422.472;  374.324;  -36.271; -107.511
422.762;  462.194; -416.266; -379.521
423.051;  235.438; -916.276; -916.503
423.341;  338.857; -491.273; -439.507
423.630;  432.024; -121.265;   15.477
423.919;  387.369;   58.725;   49.495
424.209;  351.668;  -31.263;   56.473
424.498;  441.400;   68.732;  161.483
424.787;  910.156; -535.267; -601.518
425.077; 2930.873;   34.735;   29.478
425.366; 4757.198; -734.262; -744.528
425.655; 7862.057;  639.727;  259.493
425.945;14163.741; -313.247; -268.554
426.234; 8190.319;  117.741;  300.467
426.523; 4121.049;  -86.259; -350.534
426.812; 5687.890;  107.734;  159.480
427.101; 7997.643; -127.269; -323.515
427.390;10681.712;  -55.270;  -86.514
427.680; 3209.617; -624.257; -411.538
427.969;  538.927; -330.255; -301.540
428.258;  331.684; -385.257; -477.536
428.547;  590.043;  449.728;  397.490
428.836; 1589.966; -421.253; -398.543
429.125; 2339.450; -199.259;  -72.534
429.414;  931.137; -330.251; -294.548
429.703; 2523.037; -231.251; -213.548
429.992; 7233.515; -938.250; -828.549
430.281; 4818.906; -397.264; -331.524
430.570;  609.603;  -21.252;   32.454
430.859;  709.523;  279.741;  352.466
431.148;  536.587;  636.752;  631.446
431.437;  351.753;  391.748;  367.454
431.725;  163.185; -544.257; -481.536
432.014;  115.523; -845.253; -756.545
432.303;  391.107; -149.239; -105.569
432.592;  713.087; -460.263; -178.525
432.881;  912.038; -601.248; -437.554
433.169; 4571.202; -343.255;  -61.540
433.458; 9272.113;  445.765;  540.424
433.747; 4258.653; -397.261; -289.529
434.036; 1099.160; -275.242; -280.564
434.324; 1822.727; -395.249; -379.551
434.613; 2978.529;   40.757;  159.437
434.902; 1202.673;  333.760;  439.433
435.190;  933.556;   75.761;  295.431
435.479;  546.462;  -52.245;   83.441
435.767;  180.319; -411.244; -427.561
436.056;  291.556; -340.242; -294.563
436.345;  363.025; -372.240; -223.568
436.633;  393.172;   60.750;  383.450
436.922;  391.102;  208.760;  414.432
437.210; 1020.978; -194.236;    1.426
437.499; 3359.861; -583.235; -432.576
437.787; 3716.753; -339.236;  -10.574
438.075;  864.336;   56.761;  162.430
438.364; 1109.213;  -44.238;  250.429
438.652;  692.934; -286.226; -138.592
438.941;  187.251;    3.770;  269.415
439.229;   55.301; -665.252; -466.545
439.517;   60.894; -160.234;  -85.577
439.806;   26.998; -501.225; -290.595
440.094;  251.251;  377.766;  650.421
440.382;  290.679; -653.233; -302.580
440.670;  315.536; -361.235; -285.576
440.959;   59.939; -347.223; -170.599
441.247;   96.911; -151.229; -109.587
441.535;  148.967; -266.235;   31.423
441.823;   84.823; -497.234; -305.578
442.111;  232.940;  173.771;  327.412
442.400;  766.661; -628.245; -335.559
442.688; 2232.200; -111.234; -620.579
442.976; 1748.595; -786.213; -450.617
443.264;  181.879; -324.224; -364.597
443.552;  148.460; -258.226;   51.408
443.840;  201.391;  602.765;  876.423
444.128;  143.903;  265.767;  269.420
444.416;   30.093; -694.228; -312.588
444.704;   53.666; -465.219;  -92.605
444.992;   87.237;   -0.226;  240.407
445.280;   82.952; -517.230;  -94.585
445.568;   73.948; -694.212; -396.618
445.856;  478.702; -174.221;  357.398
446.143; 1128.938;  -54.220;   -7.604
446.431;  942.021;  -25.228;  625.411
446.719;  307.034;  489.783;  675.391
447.007;  222.721;  481.769;  705.416
447.295;  203.911;  597.777;  871.402
447.583;  102.809; -464.229;  -34.587
447.870;  162.399; -434.221; -202.601
448.158;  548.275; -104.230;  129.415
448.446;  444.014; -800.219; -338.604
448.733;  203.781;   13.776;  269.403
449.021;  298.372;   60.788;  341.382
449.309;  207.286; -296.210;  208.379
449.596;  230.005;  128.783;   59.392
449.884;  164.718; -571.222; -325.600
450.172;  122.051; -756.227; -406.590
450.459;  355.679;  645.786;  780.387
450.747; 1640.454; -411.218; -147.608
451.034; 5305.922;  493.772;  889.411
451.322; 4404.407; -413.214; -170.614
451.609;  428.082;  292.777;  508.403
451.897;  434.094; -550.203; -183.634
452.184; 1355.687; -622.223; -400.598
452.472; 1303.431;   97.792;  269.375
452.759;  370.039;  512.781;  864.395
453.047;  148.695; -407.212; -125.617
453.334;  109.572; -732.219; -216.606
453.621;  136.534; -438.214; -161.615
453.909;  140.836;   13.796;  384.368
454.196;  144.453; -299.199; -123.641
454.483;  261.906;  317.798;  540.364
454.771;  176.458; -215.208;  196.374
455.058;   50.836; -316.207;  102.374
455.345;  111.803;   71.807;  344.347
455.632;   77.539; -128.207;  235.373
455.919;   60.349;  -82.196;  182.354
456.207;  -49.468; -774.198; -450.642
456.494;   -4.658; -475.200;  -66.639
456.781;   20.227; -399.202; -198.635
457.068;   68.145; -253.206;  -29.628
457.355;   11.171; -698.206; -401.629
457.642;   13.526; -552.205; -290.630
457.929;   31.320; -778.194; -417.651
458.216;   59.120; -575.212; -354.617
458.503;  172.950; -173.193;  -19.652
458.790;  148.106; -864.208; -630.625
459.077;  279.056;  -77.202;  110.364
459.364;  613.414; -350.195; -210.649
459.651; 1289.219;  -46.206;  220.372
459.938;  616.023; -864.209; -665.623
460.225;  198.059;  132.799;  276.363
460.512;  -25.804; -836.197; -688.645
460.799;  131.878;  -32.218;  320.392
461.086;  108.596; -370.200; -251.640
461.372;   88.807; -509.198; -279.642
461.659;  168.500; -165.196;  108.354
461.946;  101.823; -445.193;  -54.651
462.233;  280.969;  842.800;  888.361
462.519;  322.866; -814.201; -464.639
462.806;  789.321; -768.197; -497.645
463.093;  681.792; -445.191;  -66.656
463.380;  -16.720; -920.186; -824.664
463.666;   80.648; -259.197;  -18.646
463.953;  102.059; -406.195; -243.648
464.239;  174.159; -173.195;  -77.648
464.526;  435.644;  413.806;  743.350
464.813;  411.853; -565.190; -304.658
465.099;  401.249;  606.807;  607.348
465.386;  409.603;  903.807;  921.348
465.672;   76.396; -694.197; -522.645
465.959;   79.544; -598.188; -520.662
466.245;   40.028; -468.193; -359.652
466.532;  148.482; -109.195;   63.352
466.818;  112.905; -357.186; -216.664
467.104;   26.716; -488.182; -415.672
467.391;  -11.846; -628.189; -459.658
467.677;   60.383; -289.186;    9.335
467.964;   24.535; -682.189; -471.660
468.250;   95.485; -331.186; -160.665
468.536;   86.456;   90.811;  180.341
468.822;  -24.829; -821.184; -574.668
469.109;  153.290;  351.827;  471.311
469.395;  214.362;  729.808;  787.346
469.681;  197.933;   46.811;  156.341
469.967;  947.713; -699.188; -382.660
470.254; 2033.095; -494.188; -306.662
470.540; 1307.273; -601.196; -476.646
470.826;  189.127; -488.181; -397.675
471.112;  256.724;  288.816;  113.331
471.398;   97.354; -253.183;  -58.670
471.684;   62.277; -626.177; -447.680
471.970;    2.555; -918.180; -981.675
472.256;   38.661; -521.192; -441.654
472.542;   49.650; -499.171; -434.691
472.828;   49.963; -743.182; -607.672
473.114;   60.365; -380.166; -283.700
473.400;   58.542; -504.175; -293.684
473.686;   77.396; -452.166; -400.701
473.972;   69.181; -230.174; -131.687
474.258;  -58.110; -925.173; -843.689
474.544;  134.270; -183.178;   -2.679
474.830;  207.644;  -65.175;   45.316
475.116;  317.779; -123.190; -196.658
475.401;  431.957; -558.180; -467.676
475.687;  154.581; -725.180; -718.676
475.973;   28.545; -673.181; -770.673
476.259;  306.646;  736.825;  764.315
476.544;  334.585; -539.176; -437.682
476.830;  552.472; -398.172; -322.690
477.116;  451.233; -430.177; -336.682
477.401;  143.407;  346.820;  358.324
477.687;   -8.532; -289.175; -405.684
477.973;   49.773;   21.819;   28.326
478.258;    2.139; -448.163; -348.706
478.544;   54.940;   21.815;   61.334
478.829;  -49.745; -818.171; -738.692
479.115;  -22.604; -749.172; -651.690
479.401;   -4.548; -444.174; -449.686
479.686;   30.031; -253.180;  -74.676
479.972;  -41.376; -886.178; -776.680
480.257;   47.641; -258.166;  -65.700
480.542;   24.059; -614.170; -469.693
480.828;  272.466; 1288.824; 1392.317
481.113;  -27.486; -464.176; -426.683
481.399;    4.786; -236.161; -202.711
481.684;  -43.384; -620.166; -462.700
481.969;   35.548; -158.159;  -73.713
482.255;  -13.556; -439.169; -285.695
482.540;    5.375; -569.178; -441.680
482.825;  -16.075; -395.187; -404.663
483.110;   66.047;  -85.169; -105.696
483.396;  100.343; -840.157; -652.718
483.681;  356.756;  543.826;  730.313
483.966;   80.743; -696.160; -700.712
484.251;   12.180; -404.174; -310.687
484.536;   13.076; -356.165; -378.703
484.822;   33.808; -205.173; -218.687
485.107;  -15.122; -599.152; -502.726
485.392;  137.206;  662.836;  541.296
485.677;   85.881;  354.832;  163.302
485.962;  110.741;  160.843;  270.283
486.247;   91.222;  -14.162;   -8.707
486.532;   58.042; -178.166; -325.701
486.817;  165.006;  381.839;  431.291
487.102;  106.288; -453.154; -514.722
487.387;  426.045; -637.156; -652.718
487.672;  737.486; -154.164;  -38.705
487.957;  504.038; -394.160; -286.711
488.241;  166.293; -290.150; -314.729
488.526;  477.854; -280.152; -148.726
488.811;  778.276; -881.177; -818.680
489.096;  608.215; -666.154; -702.723
489.381;  381.376;    3.847;  162.275
489.666;  218.011; -428.161; -510.710
489.950;  162.693;  558.846;  627.277
490.235;  -36.186; -480.151; -458.728
490.520;  -31.015; -756.161; -723.710
490.804;  -61.203; -827.156; -736.719
491.089;   -8.067; -469.149; -299.732
491.374;   43.409; -132.164;  -75.704
491.658;   -6.407; -817.147; -717.735
491.943;  187.258; -657.152; -609.727
492.227;  302.709; -178.155;  -38.721
492.512;   63.541; -294.157; -341.717
492.797;  -56.848; -713.149; -716.731
493.081;  -40.229; -588.147; -598.735
493.366;  -29.839; -751.161; -635.711
493.650;  200.794;  831.859;  917.254
493.935;   21.968; -648.147; -447.734
494.219;  -43.042; -778.142; -687.743
494.503;  -45.402; -585.150; -487.730
494.788;   54.508;   46.842;   74.285
495.072;  102.670;  184.850;  434.271
495.356;  131.811; -463.148; -343.733
495.641;  411.952; -812.146; -736.736
495.925;  420.551; -976.156; -903.719
496.209;   73.632; -599.149; -451.732
496.494;  -36.767; -763.142; -544.744
496.778;   28.988; -364.154; -360.722
497.062;  -55.074; -819.156; -627.719
497.346;  -43.536; -869.160; -640.711
497.631;  124.514;  580.852;  560.266
497.915;   65.811;  -64.145;  175.261
498.199;   60.343; -341.157; -277.718
498.483;   58.203; -562.152; -508.725
498.767;  150.171;  301.850;  300.271
499.051;  142.730; -126.149; -100.732
499.335;   -7.897; -693.149; -739.731
499.619;  -32.088; -381.129; -423.767
499.903;   33.383; -272.155;  -65.721
500.187;   50.269; -588.153; -316.724
500.471;   16.683; -796.152; -595.727
500.755;  126.785;   62.839;  -96.710
501.039;   38.533; -270.155; -357.721
501.323;  103.096;  -21.141;  264.254
501.607;   62.440; -447.163; -503.706
501.891;   21.845; -607.156; -512.718
502.174;  -26.028; -726.144; -585.741
502.458;   72.161;   89.849;  370.273
502.742;   36.593; -180.138; -191.751
503.026;   54.492; -412.147; -254.734
503.310;   87.972; -437.159; -375.713
503.593;   77.944; -464.147; -325.735
503.877;  106.405; -232.133; -156.760
504.161;  194.571;    2.847;  -50.724
504.444;  117.185; -841.158; -710.716
504.728;  305.808; -487.164; -522.704
505.012;  482.893; -257.150;  -76.729
505.295;  387.236; -417.161; -212.711
505.579;  368.926; -256.156; -496.719
505.862;  470.108; -555.145; -333.738
506.146;  446.775; -681.159; -758.714
506.429;  311.775;  568.841;  461.286
506.713;   29.390; -732.151; -667.728
506.996;  242.212;   90.846;  295.278
507.280;  240.154; -633.165; -474.703
507.563;  162.881; -469.155; -261.721
507.847;   52.045; -423.153; -112.724
508.130;   34.537; -665.161; -456.711
508.413;   58.512; -758.167; -577.700
508.697;  184.588; -151.167;   12.300
508.980;   84.021; -422.153; -312.724
509.263;   -1.247; -466.155; -450.720
509.547;   32.718; -124.150;   82.271
509.830;   55.089; -172.160;  140.289
510.113;   80.500;  128.844;  298.281
510.396;   29.926; -530.152; -300.725
510.680;  295.759; -818.145; -812.738
510.963; 1060.216;  184.846;  180.277
511.246; 1000.150; -493.150; -357.730
511.529;  296.614; -482.145;  -83.739
511.812;  235.826; -250.134;   10.241
512.095;  158.262; -740.151; -396.728
512.378;   70.898; -317.147; -245.736
512.661;    3.475; -703.137; -623.753
512.944;   -8.115; -750.142; -637.744
513.227;   72.747; -170.137; -171.752
513.510;   27.022; -479.144; -671.741
513.793;   35.050; -485.140; -435.747
514.076;  122.256;  -43.127;  -39.771
514.359;  105.408; -294.149; -135.732
514.642;   57.287; -442.142; -567.744
514.925;  528.923;  581.860;  561.253
515.208;  631.048; -498.134; -443.758
515.491;  444.836; -276.133; -182.761
515.773;  249.800; -410.143; -337.742
516.056; 1378.131;  249.864;  409.246
516.339; 2006.159; -754.136; -652.755
516.622; 1991.972; -518.150; -488.730
516.904; 1826.706;  882.857;  975.257
517.187;  840.696; -730.138; -523.752
517.470;  368.255; -568.143; -510.743
517.752;  280.162; -624.136; -470.756
518.035;  210.085; -708.139; -725.749
518.318;  202.334; -799.136; -744.755
518.600; 1487.239; -300.132; -325.762
518.883; 2130.587;  310.858;   88.256
519.165; 1050.539; -585.138; -426.751
519.448;  368.464;  -61.132;  -19.762
519.730;  203.288; -573.126; -415.773
520.013;  368.682;  588.867;  664.240
520.295; 1253.953;  -94.134;  -15.759
520.578; 2798.576; -335.131; -305.764
520.860; 3049.489; -254.132;   56.238
521.143; 1521.439; -763.135; -584.756
521.425;  434.974; -251.125; -279.775
521.707;  513.706; -622.127; -380.771
521.990; 1204.032; -199.127;  167.229
522.272; 1345.376; -116.140;   -4.748
522.554;  777.751; -237.143; -157.742
522.836;  466.551;  -24.134;   99.241
523.119;  241.441; -496.148; -189.734
523.401;  149.807; -448.130; -314.766
523.683;   38.075; -865.137; -693.753
523.965;  191.194;  408.862;  260.248
524.247;  181.369;   54.878;  170.220
524.529;  141.153; -451.134; -367.759
524.812;  281.309;   -3.130;  191.234
525.094;  549.769; -773.138; -631.751
525.376;  883.833; -143.124;   78.223
525.658;  524.782; -441.136; -339.754
525.940;   -7.727; -805.131; -671.764
526.222;   65.360; -188.136;  -88.755
526.504;  158.146; -190.131;   32.237
526.786;  315.405; -960.133; -647.760
527.068;  460.063; -124.123;  -67.778
527.349;  229.854; -865.137; -774.754
527.631;  143.639; -137.132;   22.238
527.913;   68.905; -664.127; -450.771
528.195;   80.868; -761.125; -639.774
528.477;  174.148;  -93.134;  -30.758
528.759;   65.933; -648.130; -522.766
529.040;   19.187; -569.123; -293.778
529.322;   44.021; -235.125;  -10.774
529.604;  178.710;  -47.130;   93.233
529.886;  168.987; -546.126; -302.773
530.167;  164.528;  232.870;  192.235
530.449;   41.022;    1.853;   63.265
530.731;    1.268; -572.122; -459.779
531.012;   24.037; -513.120; -216.784
531.294;   54.348; -118.116;  -43.792
531.575;  114.499;  290.875;  538.225
531.857;    3.144; -548.135; -266.757
532.138;   71.920; -113.141;   40.254
532.420;  201.790;  294.865;  403.244
532.701;  279.907; -722.133; -751.760
532.983;  435.135;  232.867;  182.239
533.264;  154.136; -243.126;  175.228
533.546;  -20.640; -491.136; -508.755
533.827;   62.754;  173.867;   -1.759
534.109;   69.843; -352.135;  -80.757
534.390;  115.567; -725.132; -582.762
534.671;  250.040; -270.135;  -82.756
534.953;  106.114; -751.123; -611.779
535.234;   22.309; -426.117; -255.789
535.515;  -96.505; -891.119; -735.785
535.796;   -8.248; -431.128; -193.770
536.078; -118.518;-1050.124; -904.777
536.359;   12.865;  -22.123;    3.221
536.640;  -10.056; -480.125; -197.774
536.921;  144.765;  225.871;  143.232
537.202;  291.316;  -87.138;  -16.751
537.483;  329.225;  251.869;  377.236
537.764;  129.053;   17.870;   98.235
538.045;  -44.953; -543.134; -371.758
538.326;  -38.308; -596.129; -447.768
538.607;  -24.093; -686.127; -476.771
538.888;  120.529;   98.879;    5.218
539.169;  109.024; -704.122; -535.781
539.450;  286.939;  236.871;   16.233
539.731;  177.707; -361.121; -182.783
540.012;  131.812;  199.880;  412.216
540.293;   89.928;   82.876;  158.224
540.574;   23.917; -895.113; -717.796
540.855;  435.731;  435.879;  377.218
541.136;  473.846;   47.878;  139.220
541.416;  231.034; -161.130; -220.766
541.697;  135.021; -274.131; -170.763
541.978;  683.642; -270.135; -315.757
542.259;  848.307; -211.127; -236.771
542.539;  436.067; -191.116; -186.790
542.820;  169.474;  461.875;  480.225
543.101;  129.311;  -52.145;  -77.738
543.381;   26.206; -638.127; -591.771
543.662;  203.554;  159.873; -254.771
543.942;  374.828; -751.127; -830.770
544.223;  717.373;  193.878;  161.219
544.504;  444.557; -275.124; -182.777
544.784;  400.312; -592.126; -408.773
545.065; 1155.995;  104.884; -254.791
545.345; 1387.670;  227.881;   14.215
545.626;  870.841;  -14.113; -108.796
545.906;  576.377;   77.869;   98.235
546.186;  223.216;   92.874;  -95.773
546.467;  137.160;   99.877;  -95.778
546.747;  221.567;  264.884;  327.210
547.027;  253.681;   91.876;  111.223
547.308;  193.777; -376.127; -530.770
547.588;  290.218;  299.871;  371.232
547.868;  154.329;  458.870;  588.235
548.149;  169.727;  609.885;  593.207
548.429;   69.930; -347.127; -299.771
548.709;   88.412; -645.120; -461.784
548.989;  293.454;   84.882;   88.213
549.269; 1375.487;   10.868;  139.239
549.550; 3125.338;  215.877;  117.222
549.830; 2808.057; -758.111; -556.799
550.110;  560.039; -468.110; -320.801
550.390;  549.643; -128.122;  -56.779
550.670;  721.062; -868.114; -783.795
550.950;  520.306; -509.121; -471.782
551.230;  150.752;  549.879;  460.218
551.510;  -17.545; -381.121; -326.782
551.790;    6.796; -173.109; -127.803
552.070;  234.259;  940.877; 1181.223
552.350;  241.848; -492.119; -377.786
552.630;  379.025;   -2.121;   77.219
552.909;  170.846;  181.884;   73.209
553.189;  147.193;  -49.132;   33.237
553.469;   88.348; -703.119; -514.786
553.749;   88.983; -469.127; -357.772
554.029;  100.113;   33.883;  -24.790
554.308;   80.081; -154.115;  -37.794
554.588;   18.526; -196.128; -204.770
554.868;   21.231; -366.121;  -47.782
555.147;   80.379; -114.115;  -46.793
555.427;  378.173; -260.116; -250.792
555.707; 2498.127; -284.115; -200.793
555.986; 2960.110; -719.111; -538.800
556.266; 1592.841;   23.884;   72.210
556.546;   28.030; -888.121; -675.782
556.825;  140.260; -657.114; -556.794
557.105; 1139.324; -125.128;   17.230
557.384; 1339.170;  122.884;  187.209
557.664;  492.622; -717.116; -508.792
557.943;   51.831; -557.121; -411.782
558.222;  101.181; -345.118; -344.788
558.502;  186.955; -116.115;  -76.793
558.781;  353.351;  194.885;  499.208
559.061;  242.931; -232.118; -227.788
559.340;  205.011;  302.883;  353.211
559.619;  428.716;   93.884;  148.210
559.899;  605.587; -239.117; -266.789
560.178;  563.879; -778.115; -593.793
560.457; 1965.914; -623.117; -562.790
560.736; 2746.411; -472.111; -482.800
561.015; 1820.672; -500.128; -502.769
561.295;  272.739;  180.893;  215.193
561.574;  269.527;  119.885;  116.207
561.853;  372.825;  274.891;  303.197
562.132;  323.582;  -45.114;  182.206
562.411;  304.451;  396.879;  553.219
562.690;   66.925; -592.115; -458.792
562.969;  124.322;  472.888;  630.203
563.248;  488.199; 2966.878; 2487.219
563.527;  150.011; -290.111; -408.800
563.806;  200.905; -650.127; -521.771
564.085;  245.353; -297.105; -206.810
564.364;  109.940; -594.117; -405.790
564.643;  305.701; -276.121; -223.781
564.922; 1155.695;  221.890;  397.198
565.201; 1135.023; -640.109; -700.803
565.479;  496.599; -297.115; -219.792
565.758;  167.499; -810.128; -712.770
566.037;  308.024; -155.109; -100.803
566.316;  143.870; -286.116;  -28.791
566.595;   23.927;  -17.115;  -12.793
566.873;   76.488; -166.111;  -79.801
567.152;  -68.553; -490.113; -590.797
567.431;   -5.483; -113.116;    6.210
567.709;   -6.660; -344.107; -212.807
567.988;  140.835; -810.114; -769.794
568.266;  357.927; -160.115;  -68.793
568.545;  229.921; -644.100; -514.819
568.824;  362.024;  160.885;  356.208
569.102;  295.910; -351.114; -235.794
569.381;  103.223; -492.116; -407.792
569.659;  -60.006; -553.113; -553.796
569.938;   -3.128; -743.122; -465.780
570.216;   53.551; -225.109; -225.804
570.494;  -45.787; -632.114; -572.795
570.773;   28.180;  202.879;  114.218
571.051;   -7.913; -373.123; -357.778
571.330;   26.916; -221.113; -174.796
571.608;   19.962; -181.098; -173.823
571.886;  -96.344; -671.111; -581.799
572.164;  -81.369; -739.121; -621.782
572.443;  -57.118; -562.105; -512.811
572.721;  -34.311; -399.117; -289.790
572.999;  -28.417; -280.117; -168.788
573.277;   78.351;  379.894;  620.191
573.555;  171.703;   94.894;   37.190
573.834;  824.733;  -86.117; -114.788
574.112;  995.392;  880.893;  811.193
574.390;  292.762; -143.111;  -96.801
574.668;   -2.727;  -91.112;  -61.797
574.946;  -16.597; -165.106; -187.810
575.224;    2.698;   71.891;  -16.803
575.502;  -14.007; -200.116; -204.791
575.780;  -98.801; -767.112; -829.798
576.058;  199.736; 1589.889; 1004.200
576.336;  -27.359; -210.110; -129.801
576.614;  -58.026; -511.112; -340.798
576.891;  -14.519; -711.115; -823.794
577.169;  290.184; -158.108; -285.805
577.447;  382.291;  169.893;  202.193
577.725;  217.403;  629.888;  854.201
578.003;    0.476;  -71.112; -371.798
578.280;   69.140; -208.104; -242.812
578.558;   45.805; -450.115; -422.793
578.836;  116.612; -210.114; -145.795
579.114;   28.323; -630.112; -670.797
579.391;   58.334;   -6.117;  -18.789
579.669;  -80.793; -595.114; -704.794
579.947;  113.738; -326.107; -127.806
580.224;  179.588; -692.107; -524.806
580.502;  215.492;  127.893;   76.193
580.779;    7.715;  -42.117;   75.210
581.057;  -60.073; -584.109; -470.804
581.334;  -86.347; -726.102; -695.815
581.612;   44.704;   54.895;  511.190
581.889;  -30.759;  -83.101; -129.818
582.167;  -33.797; -298.099; -190.821
582.444;  -93.864; -845.102; -814.817
582.721;  107.561;  657.899;  715.183
582.999;   14.226; -326.100; -167.821
583.276;  282.341; -812.123; -713.779
583.553;  406.906; -364.102; -294.816
583.831;  101.412; -607.104; -631.812
584.108;   45.607;  349.892;  174.195
584.385;   11.253; -122.102;  -98.815
584.662;  -91.962; -651.111; -828.801
584.940;   22.562;  204.889;  204.199
585.217;  -22.457;  -73.113; -303.796
585.494;   30.120;   71.890;  118.198
585.771;  109.677; -250.109; -354.804
586.048;  324.118; -196.113;  -76.796
586.325;  175.240; -721.110; -773.801
586.602;   64.640;  230.896;  213.188
586.879;  -56.902; -499.100; -580.820
587.156;   20.954; -156.105; -331.810
587.433;  -65.691; -701.102; -667.817
587.710;   51.350;  152.888;  234.202
587.987;  208.959; -264.105; -236.811
588.264;  587.276;  315.888;  387.202
588.541;  979.367;  -61.104;   26.187
588.818; 1889.404;   72.892;  171.196
589.095; 1626.188; -163.104; -174.812
589.371;  253.351; -459.109; -414.804
589.648;  -18.808; -581.107; -437.807
589.925;   -0.287; -517.114; -621.795
590.202;  -35.301; -741.112; -607.798
590.478;   56.661; -166.105;  -73.811
590.755;  149.410; -241.108; -132.806
591.032; 1517.192; -741.110; -699.802
591.308; 2109.924; -732.094; -790.831
591.585; 1075.292; -573.110; -560.802
591.862;   45.885;-1056.102; -950.817
592.138;   21.958; -475.108; -474.805
592.415;   68.041; -486.104; -495.813
592.691; 1023.789;  460.896;  518.188
592.968; 1283.639; -208.098; -123.824
593.244;  590.542; -695.116; -595.790
593.521;   38.485; -105.102;  -42.817
593.797;  -42.931; -810.122; -720.780
594.074;  189.826; -611.096; -588.826
594.350;  497.136;  828.905;  729.172
594.626;  170.663; -303.111; -283.801
594.903;   28.711; -643.101; -645.817
595.179;  121.969;  243.896;  418.187
595.455;   -1.982; -136.107; -150.807
595.731;   -7.204;  -19.103;  -38.814
596.008;  -46.392; -464.111; -434.800
596.284;   -2.825; -187.100; -242.820
596.560;   17.105; -501.093; -493.833
596.836;  107.856; -173.105;  -70.810
597.112;  192.258; -582.108; -437.805
597.388;  173.299;  -49.097;  -48.826
597.665;   91.446;  437.887;  530.203
597.941;  -82.093; -572.089; -658.839
598.217;  -20.930; -323.110; -293.802
598.493;  146.579;   61.891; -204.804
598.769;  327.270; -175.100;  -50.819
599.045;  175.886; -490.108; -562.806
599.321;   14.549; -193.100; -261.820
599.597;   59.553; -355.109; -476.804
599.872;  330.492;  409.896;  429.187
600.148;  216.700;  -61.097; -172.826
600.424;  213.691;   91.893;  202.193
600.700;  132.393; -170.107; -280.807
600.976;   61.495; -442.097; -464.825
601.252;  132.475; -226.109; -272.803
601.527;   91.993; -833.104; -840.813
601.803;   72.161; -453.105; -404.812
602.079;  110.795; -124.100; -118.819
602.354;  345.064; -620.092; -531.835
602.630;  527.268; -140.113; -482.796
602.906; 1520.291; -910.101; -863.818
603.181; 4393.698; -627.119; -534.786
603.457; 3756.698;   98.903; -278.826
603.733;  528.183; -605.120; -626.783
604.008;  633.453; -245.106; -164.810
604.284; 2044.612; -636.101; -580.817
604.559; 1775.903;   -3.112;  -42.799
604.835;  319.056; -163.105; -225.810
605.110;  243.154; -732.099; -892.821
605.385;  484.007;  224.907;  267.167
605.661;  380.138; -625.095; -729.829
605.936;  687.811; -664.108; -737.806
606.211;  609.002;  -17.103; -170.815
606.487;  107.858; -329.114; -376.794
606.762;  -32.377; -791.119; -745.786
607.037;  -43.344; -501.105; -433.810
607.313;  -82.618; -589.096; -574.828
607.588;  -30.422; -375.106; -137.810
607.863;    7.565;  -28.101; -143.818
608.138;  138.269;  513.890;  516.198
608.413;  -15.367; -576.099; -592.822
608.688;   -6.092; -203.108; -267.805
608.964;   91.548; -509.106; -218.809
609.239;  129.254; -107.105; -212.810
609.514;  167.561;  281.895;  240.188
609.789;  402.615; -187.104; -716.812
610.064;  564.531; -435.096; -609.827
610.339;  520.176; -855.109; -799.804
610.614;  694.850; -131.100; -315.820
610.889;  410.061;  215.895;  107.188
611.163;   -9.863; -407.104; -591.812
611.438;   43.985;   81.886; -167.794
611.713;  -19.063; -467.101; -499.817
611.988;   10.664; -144.101; -328.818
612.263;  -79.847; -771.102; -717.815
612.538;  141.218;  385.887;  251.204
612.812;   44.351; -832.100; -911.820
613.087;   73.787; -358.098; -338.823
613.362;  -71.532; -497.107; -557.807
613.637;   27.223;  261.897;  138.186
613.911;  -36.360; -256.092; -345.835
614.186;   52.841; -249.107; -292.807
614.460;  371.950; -842.081; -758.854
614.735;  470.503;  -55.087;  -17.843
615.010;   88.444;   43.912;  -82.841
615.284;  174.707;  360.892;  246.195
615.559;  204.538; -792.092; -955.835
615.833;  199.106;  -76.099;  -87.822
616.108;  -34.126; -225.090; -390.837
616.382;   87.754;  274.913;  402.156
616.656;   73.825; -241.090; -232.837
616.931;  298.256; -785.099; -700.822
617.205;  669.444; -973.104; -979.813
617.480;  620.947;  -91.125;    6.225
617.754;   74.095; -396.125; -128.774
618.028;  -16.682; -369.129; -382.768
618.302;   35.506;   73.892;  -25.805
618.577;  -69.251; -371.103; -518.815
618.851;  -72.003; -399.109; -600.803
619.125;  -62.822; -335.134; -378.759
619.399;  -53.181; -244.104; -374.813
619.673;  -48.976; -330.115; -515.792
619.947;  -55.413; -333.114; -448.795
620.222;  -29.711; -198.110; -204.801
620.496;  -25.119;  -47.121;  -96.782
620.770;  -10.801; -187.122;  -93.781
621.044;  153.304;  323.895;  346.190
621.318;  464.409; -653.120; -614.783
621.592;  408.857; -430.121; -409.783
621.866;  180.554; -476.112; -572.799
622.140;  -12.507; -207.116; -356.791
622.413;   41.533;  138.889;  112.200
622.687;  -64.263; -746.101; -492.817
622.961;   -8.419; -130.108; -143.805
623.235;  -86.466; -633.111; -661.800
623.509; -115.789; -816.105; -848.811
623.783;  -16.061;  -12.107;   48.193
624.056;  -50.840; -254.120; -280.783
624.330;   26.373;   63.888;   -3.797
624.604;   18.090; -271.116; -355.790
624.877;   49.743;  180.890;   26.198
625.151;   13.307; -249.114; -238.794
625.425;  -50.304; -150.103; -283.814
625.698;  -64.682; -367.119; -374.785
625.972; -115.880; -799.110; -765.802
626.245;   70.292;  685.884;  484.210
626.519;  -61.112; -426.120; -340.784
626.792;  -35.483; -192.107; -380.807
627.066; -104.708; -485.122; -662.779
627.339; -104.208; -736.110; -663.802
627.613;   32.587;  351.880;  148.216
627.886;  -74.428;  187.891; -612.803
628.160;  -29.817;  312.880; -161.783
628.433;  -97.800; -695.125; -703.775
628.706; -102.012; -517.120; -615.784
628.979;   15.281;  296.876;  117.223
629.253;  -99.052; -785.119; -833.786
629.526;  180.686; -334.126; -253.772
629.799;  170.062; -641.123; -479.778
630.072;   59.220; -497.128; -516.769
630.346;  -98.058;-1115.116;-1080.790
630.619;  270.668; -467.107; -545.808
630.892;  407.959;  709.889;  593.200
631.165;  236.569;  790.896;  679.187
631.438; -123.349;-1092.112;-1055.798
631.711;   51.365;  453.877;  257.221
631.984;  -70.412; -523.117; -624.789
632.257;  -80.491; -636.117; -681.789
632.530;  -57.382; -412.119; -433.785
632.803;   30.756; -109.115;    7.207
633.076;  -91.691; -360.123; -422.777
633.349;    9.948;  173.872;  121.231
633.622;  -43.433; -187.119; -240.785
633.895; -130.390; -903.120; -823.783
634.167;  -86.287; -496.126; -525.773
634.440;  -20.577;  -19.116; -137.792
634.713;  -19.903;  -22.119; -120.786
634.986;   78.839;  593.871;  453.233
635.258;  -89.121; -507.115; -597.793
635.531;  100.506;  742.882; -343.788
635.804;  -30.864; -303.117; -318.789
636.077;  -85.031; -830.116; -852.791
636.349;  -45.648; -586.115; -474.793
636.622;  344.160; 1695.874; 1392.228
636.894;  121.939; -474.120; -909.784
637.167;   53.155; -836.127; -789.771
637.439;    9.101; -278.128; -213.770
637.712;  -51.863; -312.126; -293.772
637.984; -100.305; -635.116; -707.791
638.257;  312.810;  515.877;  488.222
638.529;  381.476; -881.125; -924.776
638.802;  147.320; -508.128; -449.769
639.074; -142.427; -927.122; -952.781
639.346; -134.880; -942.135; -930.757
639.619;  -14.389;  -79.142; -319.744
639.891;  -16.358;  -83.122; -168.779
640.163;  -83.431; -689.122; -756.780
640.435;   44.745;  273.878;  103.220
640.708;  -12.803;  -72.122; -132.780
640.980;  -32.726; -366.122; -362.781
641.252;  152.675;  -25.121;  -71.781
641.524; 1402.577;  580.879;  573.219
641.796; 1374.979;-1094.121; -907.782
642.068;  246.830; -191.121; -300.782
642.340;  -71.643; -486.121; -566.783
642.613;   16.934;  294.880;  323.217
642.885; -106.465; -787.120; -878.783
643.157;  -66.063; -810.120; -658.784
643.428;   44.189;  170.880;  218.216
643.700;  -80.360; -498.120; -425.784
643.972;  -45.208;  -16.119; -133.785
644.244;  -98.831; -474.119; -559.785
644.516;  -53.229; -250.119; -114.786
644.788;   74.222;  662.881;  548.214
645.060;  -27.851;  -12.119; -124.786
645.332; -101.424; -525.118; -535.787
645.603;   30.652;  479.882;  342.213
645.875;  -88.521; -334.118; -369.787
646.147;  164.456; 1487.882; 1242.212
646.418; -108.268; -931.117; -918.788
646.690;    4.709; -714.117; -715.789
646.962;  -22.239; -413.117; -451.789
647.233;  -40.113;   15.883;   11.211
647.505; -104.561; -595.117; -475.790
647.776;   22.666;  328.884;  229.210
648.048;  -20.783; -248.116; -418.790
648.320;  -91.306; -752.116; -679.791
648.591; -146.879;-1055.116; -958.791
648.862;  -97.178; -505.116; -577.792
649.134;    0.349;  115.885;  198.208
649.405;  -63.024; -661.115; -618.792
649.677;  -73.373; -475.115; -598.793
649.948;  -21.321; -181.115; -296.793
650.219;   -3.044;  -37.115; -147.793
650.491;  -76.893; -431.114; -520.794
650.762; -116.191; -705.114; -731.794
651.033;  -86.339; -437.114; -424.795
651.304; -100.413; -743.114; -728.795
651.576;  -76.336; -680.114; -645.795
651.847;  -45.534; -250.113; -140.796
652.118;  -28.483;  -32.113; -189.796
652.389; -111.831; -639.113; -722.796
652.660;  -45.829; -147.113;  -89.797
652.931; -137.053; -897.112; -871.797
653.202;  -86.451; -382.112; -541.798
653.473;  -74.724; -633.112; -533.798
653.744;   64.352; -595.112; -590.798
654.015;   64.879; -356.112; -303.799
654.286;  -86.494; -642.111; -663.799
654.557;  -80.343; -586.111; -521.799
654.828; -175.141;-1114.111;-1088.800
655.099;  -84.639; -404.111; -291.800
655.370; -110.188; -427.111; -543.801
655.641; -134.586; -656.110; -714.801
655.911; -103.059; -618.110; -638.801
656.182;   66.192;  437.890;  387.198
656.453;  117.794;  830.890;  746.198
656.724;  -82.254; -466.110; -426.802
656.994;  -94.978; -553.109; -568.803
657.265; -114.201; -862.109; -873.803
657.536;  -92.524; -500.109; -377.804
657.806; -114.423; -561.109; -593.804
658.077; -147.696; -866.109; -950.804
658.347;  -82.769; -523.108; -598.805
658.618; -117.318; -646.108; -694.805
658.888;  -30.491;  -41.108;  112.195
659.159;  -85.139; -432.108; -548.806
659.429;  -38.313; -292.108; -349.806
659.700;  -16.461; -435.107; -390.807
659.970;  -26.884; -370.107; -359.807
660.241;  -37.233; -754.107; -921.807
660.511;  342.594; -147.107; -174.808
660.781;   30.721; -793.106; -748.808
661.052;  -53.253; -222.106; -381.808
661.322;  -13.651;   21.894;   -9.809
661.592;    0.551;  257.894;  148.191
661.862;  -79.223; -369.106; -382.810
662.133;  -99.121; -551.105; -502.810
662.403; -133.119; -770.105; -676.810
662.673;  -47.043; -256.105; -213.811
662.943; -112.066; -612.105; -551.811
663.213;  -21.089;  -85.105;  -81.811
663.483;  -83.913; -593.104; -568.812
663.753;  -52.836; -194.104; -152.812
664.023;   -7.684;   68.896;  -32.813
664.293;  -64.233; -319.104; -126.813
664.563; -106.631; -694.104; -648.813
664.833; -123.929; -743.103; -608.814
665.103; -149.003; -730.103; -793.814
665.373; -129.576; -766.103; -806.814
665.643; -115.099; -863.103; -918.815
665.913;   -1.273; -534.103; -714.815
666.182;   63.704; -685.102; -719.816
666.452;  163.631;  -22.102;  -89.816
666.722;  -63.668; -724.102; -784.816
666.992; -136.841; -948.102; -921.817
667.261; -122.664; -824.102; -808.817
667.531;  185.662;  134.899;   45.183
667.801;  439.264; -440.101; -412.818
668.070;  217.016;  714.899;  697.182
668.340; -119.283; -883.101; -840.819
668.609;   76.669;  588.900;  301.181
668.879;  -89.504; -490.100; -558.819
669.149;  -79.828; -539.100; -516.820
669.418; -126.526; -698.100; -726.820
669.688;  -50.774; -482.100; -666.820
669.957;    8.202; -423.099; -546.821
670.226;  -41.021; -268.099; -331.821
670.496; -101.794; -431.099; -635.822
670.765;  -85.193; -418.099; -501.822
671.034; -144.116; -872.099; -828.822
671.304;  -33.739;   55.902; -111.823
671.573; -162.913;-1085.098; -957.823
671.842;   21.189; -380.098; -294.823
672.112;  -36.809; -692.098; -586.824
672.381;  -14.558; -239.098; -214.824
672.650; -145.581;-1005.097;-1021.825
672.919;  -95.129; -631.097; -507.825
673.188; -113.728; -681.097; -878.825
673.457; -153.401;-1101.097;-1143.826
673.726;  -94.974; -579.096; -646.826
673.995;  -47.248; -533.096; -479.826
674.265;  -40.521; -263.096; -333.827
674.534;  -21.869; -183.096; -235.827
674.802;  -28.943; -618.096; -703.828
675.071;  661.834; -886.095; -801.828
675.340; 2620.486; -464.095; -339.828
675.609;  876.112;  103.905;   82.171
675.878;  -32.236; -949.095; -893.829
676.147;   -4.059;  -26.095;   -8.829
676.416;   44.567; -210.094; -294.830
676.685;  512.844; 1000.906; -622.830
676.953;   26.846; -603.094; -452.831
677.222;  -38.553; -193.094; -273.831
677.491;  -33.726;  -24.094; -127.831
677.759;  -19.249;   11.907;  172.168
678.028;  -39.973; -279.093; -222.832
678.297;  -17.396;   71.907;  197.168
678.565; -144.669; -898.093; -944.833
678.834;  -54.768; -311.093; -268.833
679.102;  -86.416; -411.092; -391.834
679.371; -141.164; -898.092; -727.834
679.639; -149.938; -797.092; -786.834
679.908; -128.711; -794.092; -724.835
680.176; -180.709; -895.091; -941.835
680.445;  -69.083; -346.091; -352.835
680.713;  -12.181;  -58.091;  -23.836
680.982; -108.129; -523.091; -525.836
681.250; -115.278; -578.091; -507.837
681.518; -105.626; -534.090; -751.837
681.787;  -46.299; -204.090; -167.837
682.055;  -76.123; -490.090; -422.838
682.323; -158.471; -993.090; -992.838
682.591;   15.156; -216.090; -538.838
682.859;   39.882;    9.911;  -35.839
683.128;    5.709;  232.911;  497.161
683.396; -180.689;-1102.089;-1122.840
683.664;  -39.463; -241.089;   21.160
683.932;  -11.786;  144.911;  -76.840
684.200;  -83.384; -576.088; -320.841
684.468;  -45.683;  -73.088; -124.841
684.736;  -36.756; -214.088; -175.841
685.004; -146.229;-1024.088; -982.842
685.272;  -86.403; -880.088; -774.842
685.540;  -85.776; -499.087; -557.843
685.808; -101.699; -651.087; -682.843
686.076; -133.648; -894.087; -969.843
686.343;  -98.746; -601.087; -815.844
686.611;    6.681; -195.087; -224.844
686.879;  294.682; -530.086; -553.844
687.147; 2224.359; -483.086; -480.845
687.414;  627.511;  -12.086; -169.845
687.682;  -48.363; -658.086; -757.846
687.950;  197.964;  259.915;  263.154
688.217;  -38.334; -792.085; -760.846
688.485;  -32.682; -632.085; -636.847
688.753;  315.819;  -11.085; -102.847
689.020;   43.546; -820.085; -851.847
689.288; -133.977; -853.084; -787.848
689.555;  -28.176; -195.084; -148.848
689.823;  -42.624; -241.084; -345.849
690.090;  -90.922; -546.084; -651.849
690.358; -166.046; -877.084; -897.849
690.625;   -4.394;  120.917;   45.150
690.892;  -91.067; -403.083; -369.850
691.160;  -15.291;   72.917;  -35.850
691.427;   -0.489;  141.917;  130.149
691.694; -146.487; -855.083; -929.851
691.962; -164.111;-1177.082;-1060.852
692.229;    9.416;  127.918;   56.148
692.496;   51.968;  130.918;  -49.852
692.763;    3.469; -164.082; -201.853
693.031;  -88.354; -739.082; -716.853
693.298;  -50.427; -509.081; -368.853
693.565;  191.699; -155.081; -163.854
693.832;  842.351;   -5.081;   -9.854
694.099;   50.903; -643.081; -642.855
694.366;  -82.371; -882.081; -896.855
694.633;  -69.744; -920.080; -633.855
694.900;  739.933; 4367.920; -114.856
695.167;  311.159; -214.080; -380.856
695.434;   48.861; -646.080; -623.856
695.701;  180.288;  121.921;  -61.857
695.968;  352.614; -365.079; -361.857
696.234;  897.341; -415.079; -646.858
696.501; 9708.393; -776.079; -614.858
696.768; 4768.419; -554.079; -617.858
697.035;  279.021; -632.078; -667.859
697.302;    8.573; -448.078; -552.859
697.568;   17.049; -458.078; -497.859
697.835;  -59.949; -683.078; -624.860
698.102;  -37.772; -498.078; -407.860
698.368;   62.029;  384.923;  396.139
698.635;  -46.994;  -47.077; -424.861
698.901;  -35.092; -240.077; -348.861
699.168;   17.984; -534.077; -456.862
699.435;   55.011;  -72.077;  -13.862
699.701; -126.812; -868.076; -764.862
699.968;  -44.736;  144.924; -441.863
700.234; -112.484; -783.076; -822.863
700.500;  -57.557; -448.076; -539.864
700.767;  -13.781;   -1.075;   26.136
701.033; -137.129;-1015.075; -963.864
701.299;  -58.452; -450.075; -483.865
701.566;  102.499;  950.925;  763.135
701.832;   26.701;  -31.075;  -76.865
702.098; -118.072;-1054.074;-1034.866
702.365;  -99.546;-1098.074;-1030.866
702.631;  -73.444;-1038.074;-1063.867
702.897; 1070.283; -765.074; -676.867
703.163; 1735.334;  348.926;  254.133
703.429;  104.836; -256.073; -273.868
703.695;  -47.562; -796.073; -792.868
703.961;   17.414; -214.073; -210.868
704.227;  -77.109; -630.073; -725.869
704.493;  125.268;  613.927;  510.131
704.759;  -52.106; -565.072; -540.870
705.025;    9.621; -203.072; -194.870
705.291;  -22.227; -666.072; -562.870
705.557;  178.099;  719.928;   34.129
705.823;   13.451; -742.072; -694.871
706.089;  132.328; -307.071; -326.871
706.355;  367.929; -315.071; -244.872
706.620; 5863.781; -776.071; -729.872
706.886; 7427.733; -309.071; -362.873
707.152;  627.384; -818.070; -973.873
707.418;  -26.739;-1153.070;-1186.873
707.683;  -12.287; -550.070; -530.874
707.949;  -53.486; -547.070; -578.874
708.215;  -13.759; -129.070; -207.874
708.480;  -29.607; -520.069; -420.875
708.746;   64.044;   68.931;   28.125
709.011;  -77.729; -578.069; -612.876
709.277;  -70.227; -538.069; -543.876
709.542;  -50.101; -428.069; -387.876
709.808;   -7.374;  -59.068;   89.123
710.073;  -80.747; -577.068; -695.877
710.339;  -24.071; -242.068; -228.877
710.604;   24.731; -780.068; -845.878
710.869;  237.533; -277.068; -366.878
711.135;  -87.291; -715.067; -628.879
711.400;  -88.639; -507.067; -608.879
711.665;  -93.962; -404.067; -479.879
711.931;  -94.286; -661.067; -677.880
712.196; -115.209; -876.067; -954.880
712.461;   57.943; -402.066; -490.880
712.726;   49.169; -727.066; -771.881
712.991;  -88.729; -647.066; -664.881
713.256;  -50.852; -350.066; -332.882
713.521;  -72.501; -417.065; -381.882
713.787;  -67.299; -454.065; -472.882
714.052;  -39.097; -214.065; -400.883
714.317;  -92.246;-1045.065; -981.883
714.581; 1089.706; -374.065; -268.883
714.846; 1347.408; -822.064; -888.884
715.111;  129.259;  261.936;  257.116
715.376;  -37.914;  -86.064; -223.885
715.641;  -30.212; -365.064; -367.885
715.906;  188.414;   15.936; -551.885
716.171;   96.266;  221.937;  209.114
716.436;    8.143;  -78.063; -104.886
716.700; -106.431; -818.063; -692.886
716.965; -125.029; -794.063; -807.887
717.230;  -78.877; -339.063; -392.887
717.494;  -26.601;  -40.062; -134.888
717.759; -119.599; -784.062; -640.888
718.024;   -6.022;  269.938;  250.112
718.288;   47.104;  685.938;  395.111
718.553; -156.344; -803.062; -977.889
718.817; -140.167; -883.061; -899.889
719.082;  -37.391; -115.061; -125.890
719.346; -143.914;-1000.061; -947.890
719.611;  -46.562; -300.061; -255.891
719.875;  -99.836; -568.060; -537.891
720.140;  -69.934; -453.060; -603.891
720.404;   -7.532; -136.060; -249.892
720.668;  552.619; -475.060; -411.892
720.933;  221.121;  146.940;  137.108
721.197; -104.402; -667.059; -600.893
721.461; -156.951; -851.059; -826.893
721.725;  -27.174;  -21.059; -250.894
721.990;  -59.047; -284.059; -204.894
722.254;  -49.321;  -26.059; -108.894
722.518;  -83.069; -286.058; -442.895
722.782; -100.717; -743.058; -594.895
723.046;  120.859;  614.942;  570.105
723.310;   22.361;  374.942;  210.104
723.574; -107.287; -654.058; -614.896
723.838; -108.011; -576.057; -642.897
724.102;  -49.859; -226.057; -239.897
724.366; -143.157;-1032.057; -978.897
724.630; -107.556; -749.057; -571.898
724.894;  -96.454; -722.057; -514.898
725.158;   -9.327;   38.944; -295.898
725.422;  -63.651; -394.056; -327.899
725.685;  -67.649; -441.056; -349.899
725.949;  -95.722; -566.056; -519.900
726.213;  -84.971; -732.056; -811.900
726.477;   51.506;-1020.055; -933.900
726.740;   87.558; -274.055; -104.901
727.004;  292.534; -384.055; -510.901
727.268; 3234.336; -442.055; -400.901
727.531;  820.513; -961.055; -775.902
727.795;  -51.386; -713.054; -673.902
728.059;  -77.509; -552.054; -557.903
728.322;  -93.682; -841.054; -669.903
728.586;  -28.606; -692.054; -701.903
728.849;  -96.954; -695.053; -756.904
729.112; -133.302; -812.053; -912.904
729.376; -128.001; -959.053; -905.904
729.639;  -74.849; -536.053; -536.905
729.903; -116.247; -733.053; -699.905
730.166;  -68.346; -437.052; -399.906
730.429;  -30.719; -317.052; -468.906
730.693;  -79.067; -355.052; -894.906
730.956;  180.809;  810.948;  651.093
731.219;  501.536; -310.052; -103.907
731.482;   25.938;-1003.051; -894.907
731.745;   10.789; -794.051; -935.908
732.009;    3.566;  -30.051;   50.092
732.272; -114.307; -904.051; -771.909
732.535;  -53.930; -300.051; -310.909
732.798; -175.954;-1083.050;-1166.909
733.061;  -72.627; -430.050; -456.910
733.324;   -7.200;   31.950; -180.910
733.587;   62.426;  290.950;  365.090
733.850;  -90.197; -973.049;-1050.911
734.113;   17.605;   33.951;   32.089
734.376;  -20.919; -328.049; -447.912
734.639;  190.958; 1188.951; 1011.088
734.901;   30.185; -180.049; -402.912
735.164;  353.661; -883.048; -837.913
735.427;  922.513; -166.048; -355.913
735.690;   76.915; -205.048; -234.913
735.952;  -63.334; -923.048; -925.914
736.215;  -58.757;-1113.048;-1009.914
736.478;   -4.055; -771.047; -774.915
736.740;  153.771;   33.953;  129.085
737.003;  490.023; -658.047; -672.915
737.266; 2935.075;  -94.047;   46.084
737.528;  306.951; -682.047; -660.916
737.791;  263.553; -316.046; -327.916
738.053;  743.830;  465.954;  649.083
738.316; 9830.906; -162.046; -136.917
738.578; 6476.858; -770.046; -736.918
738.841;  368.610; -382.046; -446.918
739.103;  120.961; -875.045; -777.918
739.365;  388.163;   79.955;  -69.919
739.628;  -40.135; -884.045; -805.919
739.890;  -48.259; -758.045; -710.919
740.152;  -65.457; -692.044; -754.920
740.414;  -28.155; -408.044; -359.920
740.677;  -71.279; -785.044; -634.921
740.939;  -66.427; -587.044; -487.921
741.201;  151.650; -432.044; -572.921
741.463;   -4.474; -689.043; -745.922
741.725;    0.153;  -21.043; -199.922
741.987;   34.680;  220.957;  116.078
742.249;  -48.119; -751.043; -859.923
742.511;  116.958; -703.043; -794.923
742.773;  -23.165; -546.042; -546.924
743.035;  132.386;  796.958;  533.076
743.297;  -70.362; -963.042;-1013.924
743.559;  567.790; -278.042; -262.925
743.821;    2.116; -735.042; -744.925
744.083;    6.118;  -44.041; -149.925
744.345; -112.530; -869.041; -892.926
744.607;   40.046;   75.959;  122.074
744.868;  -79.027; -490.041; -554.927
745.130; -141.725; -994.041;-1008.927
745.392;   29.476;   -1.040;  -44.927
745.653;  -25.647; -411.040; -378.928
745.915;  136.905;  896.960;  631.072
746.177;   31.506;   35.960;  -43.928
746.438;  -32.592; -428.040; -543.929
746.700;  -67.540; -947.039; -988.929
746.961;   -9.464; -659.039; -740.930
747.223;  108.888; -190.039;  -74.930
747.484;   49.165; -391.039; -471.930
747.746;  117.816;  -23.038; -106.931
748.007;   59.293; -647.038; -689.931
748.269;  223.445; -468.038; -440.931
748.530;  322.996; -852.038; -638.932
748.791;  186.948; -354.038; -420.932
749.053;  343.675;  286.963;  163.067
749.314;  358.501; -236.037; -169.933
749.575;  381.228; -945.037; -905.933
749.836;  687.730; -217.037;   86.066
750.098; 2088.881;  -60.037;  -21.934
750.359;30009.683;  414.964;  555.066
750.620; 7134.560; -121.036; -220.935
750.881;  826.361; -585.036; -513.935
751.142; 1123.538; -950.036; -938.936
751.403;15334.340; -789.036; -705.936
751.664; 6214.491;-1034.035; -999.936
751.925;  408.093; -175.035; -262.937
752.186;  230.670; -298.035; -278.937
752.447;   76.021; -590.035; -445.937
752.708;    1.748; -532.035; -648.938
752.969;  -23.550; -566.034; -576.938
753.230;  -35.774; -777.034; -672.939
753.491;  -25.997; -650.034; -631.939
753.751;   54.880;  109.966;   19.061
754.012;   67.506;  258.967;  181.060
754.273;   31.808; -174.033;  -71.940
754.534;  -17.865; -487.033; -580.940
754.794; -111.939; -926.033; -911.941
755.055;  143.588; 1051.967;  881.059
755.316;  -73.485; -700.032; -566.942
755.576;  -44.209; -606.032; -576.942
755.837;  -73.882; -527.032; -695.942
756.097;  -55.355; -530.032; -564.943
756.358; -100.429; -725.032; -770.943
756.618;  -67.027; -705.031; -641.943
756.879;  -20.850; -254.031; -349.944
757.139; -132.074;-1098.031;-1116.944
757.400;  -66.072; -538.031; -553.945
757.660;  -37.095; -365.031; -401.945
757.920;  -12.969; -266.030; -228.945
758.181;  -33.867; -468.030; -351.946
758.441; -110.090; -870.030; -809.946
758.701;  -42.214; -308.030; -215.946
758.961;  -28.187; -220.030; -278.947
759.222;  -52.285; -574.029; -502.947
759.482;  -88.509; -683.029; -723.948
759.742; -109.307; -706.029; -547.948
760.002;    0.170;  -83.029; -143.948
760.262;   11.071;   50.972;  182.051
760.522;  -58.977; -498.028; -574.949
760.782;  -51.000; -738.028; -612.949
761.042;  -49.899; -618.028; -573.950
761.302;   43.303;   55.972;  -18.950
761.562;   27.105; -164.027; -154.951
761.822;   42.356; -710.027; -551.951
762.082;  -71.592;-1104.027;-1093.951
762.342;   51.985; -328.027; -403.952
762.601;   45.986; -567.027; -506.952
762.861;  264.938; -281.026; -207.952
763.121;  363.640; -406.026; -411.953
763.381; 7098.891; -499.026; -485.953
763.640; 7232.643; -139.026; -307.954
763.900;  321.145; -242.026; -203.954
764.160;   71.596; -458.025; -491.954
764.419;  -39.252; -726.025; -782.955
764.679;  -91.675; -795.025; -726.955
764.939;  -18.699; -124.025; -210.955
765.198;  -99.697; -608.025; -563.956
765.458;  -92.470; -710.024; -612.956
765.717;  -95.194; -454.024; -590.957
765.976;  -71.967; -428.024; -411.957
766.236; -101.115; -475.024; -610.957
766.495;   14.536;  260.977;   73.042
766.755; -129.412;-1090.023; -987.958
767.014;  -40.260; -594.023; -665.958
767.273;  -74.084; -373.023; -397.959
767.533;  -49.632; -228.023; -307.959
767.792;  -34.580; -151.022; -188.960
768.051;  -57.404; -228.022; -276.960
768.310;  -85.702; -546.022; -650.960
768.569;  -14.350; -161.022;    4.039
768.828;  -42.274; -285.022; -363.961
769.088; -126.722;-1050.021; -942.961
769.347;  -85.220; -755.021; -599.962
769.606; -104.019; -876.021; -857.962
769.865; -126.717;-1016.021;-1033.963
770.124;   -5.015; -411.021; -336.963
770.383;  -63.589; -778.020; -910.963
770.641;   -5.262; -398.020; -400.964
770.900;  -67.110; -953.020; -846.964
771.159;  -48.509; -851.020; -951.964
771.418;  -17.257; -917.020; -779.965
771.677;  139.870; -224.019; -293.965
771.936;  145.946; -794.019; -865.966
772.194; 2572.073; -465.019; -437.966
772.453;11048.550; -213.019; -391.966
772.712;  748.501;  416.982;  329.033
772.970;  105.378;   32.982;   63.033
773.229;   86.180;  -22.018;  102.033
773.488;  -93.469; -814.018; -770.968
773.746;   44.633;  296.982;  335.032
774.005;   -1.265;  190.983;  -22.969
774.263;   21.436;  243.983;  177.031
774.522;  -98.162; -422.017; -548.969
774.780;  -73.410; -484.017; -417.970
775.039; -102.908; -551.017; -531.970
775.297;  -31.282; -135.016; -351.970
775.555; -107.480; -489.016; -612.971
775.814; -123.678; -618.016; -570.971
776.072; -144.652; -749.016; -740.971
776.330; -102.175; -630.016; -520.972
776.589; -118.623; -703.015; -721.972
776.847; -125.297; -645.015; -624.973
777.105; -183.770;-1016.015;-1032.973
777.363;  -83.793; -459.015; -454.973
777.621; -149.167; -660.015; -717.974
777.879;  -22.640;  -42.014;   32.026
778.138; -109.738; -554.014; -717.974
778.396; -104.262; -585.014; -526.975
778.654; -172.610;-1015.014; -970.975
778.912;  -73.333; -269.014; -371.976
779.170; -146.082; -880.013; -803.976
779.427; -160.255; -922.013; -897.976
779.685; -145.503; -880.013; -832.977
779.943;  -99.502; -654.013; -593.977
780.201; -178.350; -964.012; -883.978
780.459; -115.498; -651.012; -610.978
780.717;  -90.197; -440.012; -390.978
780.974; -104.120; -449.012; -490.979
781.232;  -86.568; -358.012; -338.979
781.490;  -90.467; -551.011; -472.979
781.747; -102.165; -555.011; -476.980
782.005;    5.862;  462.989;  254.020
782.263; -172.137; -542.011;-1004.981
782.520;  -77.285; -326.011; -501.981
782.778; -184.783;-1013.010;-1051.981
783.035; -159.557; -962.010; -938.982
783.293;  -77.605; -248.010; -206.982
783.550;  -48.053; -134.010; -198.982
783.808; -143.977; -764.010; -776.983
784.065; -168.925; -745.009; -874.983
784.322;  -59.548;   25.991;  -86.984
784.580; -155.872; -915.009; -771.984
784.837; -105.345; -392.009; -466.984
785.094; -142.068; -783.009; -762.985
785.352;  -88.292; -304.008; -404.985
785.609; -124.090; -934.008; -839.985
785.866;  -86.713; -345.008; -401.986
786.123;  -97.512; -639.008; -583.986
786.380; -115.310; -665.008; -604.987
786.637;  -56.133; -225.007; -380.987
786.895;  -48.582; -456.007; -543.987
787.152;  -44.780; -135.007; -267.988
787.409;  -59.053; -123.007; -225.988
787.666;  -95.677; -299.006; -378.988
787.923; -118.475; -616.006; -695.989
788.179; -110.323; -551.006; -584.989
788.436; -129.947; -585.006; -585.990
788.693;  -42.720;  -92.006;  -87.990
788.950;   86.732; -125.005; -112.990
789.207;   91.983; -381.005; -372.991
789.464;  -66.715; -161.005; -301.991
789.720;   -1.963;  150.995;  110.009
789.977; -175.487;-1003.005; -671.992
790.234;  -43.935;   44.996;  -66.992
790.490; -166.008; -884.004;-1031.993
790.747;  -37.457;  -85.004;   22.007
791.004;  -48.905; -426.004; -348.993
791.260;  -76.228; -430.004; -560.994
791.517; -116.227; -843.003; -788.994
791.773;  -48.600; -379.003; -342.994
792.030; -115.248; -596.003; -660.995
792.286; -112.347; -686.003; -636.995
792.543;  -36.495;  -74.002; -159.995
792.799;  -56.743; -584.002; -382.996
793.055; -178.942;-1179.002;-1210.996
793.312; -106.815; -827.002; -816.997
793.568;  -78.363; -746.002; -599.997
793.824;   -1.437; -226.001; -284.997
794.081;  -12.385; -447.001; -508.998
794.337;   48.942; -664.001; -561.998
794.593; 1249.993; -319.001; -271.999
794.849; 5675.520; -746.001; -772.999
795.105;  244.897; -270.000; -261.999
795.361;    1.198; -490.000; -457.000
795.617;  -94.625; -875.000; -945.000
795.873;  -71.725; -360.000; -407.000
796.129;  -50.800; -368.000; -306.000
796.385;  -21.825; -124.000; -156.000
796.641;   61.825;  412.000;  550.000
796.897;  -80.575; -666.000; -635.000
797.153;   63.175;  453.000;  357.000
797.409; -100.800; -785.000; -868.000
797.665;  -96.275; -625.000; -732.000
797.921; -101.725; -775.000; -762.000
798.176;  -57.400; -744.000; -747.000
798.432;  -58.700; -824.000; -596.000
798.688;  -97.100;-1174.000;-1078.000
798.943;   74.625; -165.000; -147.000
799.199;  -22.675;-1005.000; -959.000
799.455;  212.100;  369.000;  316.000
799.710;  107.975; -813.000; -380.000
799.966;  272.000; -162.000; -160.000
800.221;  436.825; -638.000; -721.000
800.477;10035.850; -743.000; -710.000
800.732; 8046.550; -773.000; -800.000
800.988;  622.200;  205.000;  -19.000
801.243; 2250.000; -454.000; -344.000
801.498; 8934.375; -814.000; -739.000
801.754;  475.050; -289.000; -163.000
802.009;   89.400; -257.000; -335.000
802.264;  -49.400; -967.000;-1033.000
802.520;    7.475;  222.000;   -3.000
802.775;  -51.000; -524.000; -359.000
803.030;   50.625;  395.000;  356.000
803.285; -128.600; -840.000; -903.000
803.540;  -74.050; -686.000; -699.000
803.795;  -59.900; -648.000; -583.000
804.051;  -36.825; -279.000; -346.000
804.306;    3.775;  168.000;  128.000
804.561;  105.275;  451.000;  362.000
804.816;  130.175;  714.000;  861.000
805.071;   -9.750; -185.000; -280.000
805.325;  111.650; -257.000; -427.000
805.580; -126.725; -841.000; -877.000
805.835;  -34.075; -204.000; -297.000
806.090;  -86.925; -760.000; -676.000
806.345;  -36.150; -344.000; -264.000
806.600;  -49.825; -549.000; -632.000
806.854;  -46.850; -408.000; -538.000
807.109;  -26.425; -493.000; -577.000
807.364;  -15.950; -407.000; -328.000
807.618;  -19.800; -415.000; -381.000
807.873;    2.425; -470.000; -494.000
808.128;   71.225; -257.000; -518.000
808.382;   66.800; -224.000; -332.000
808.637;   60.775; -440.000; -511.000
808.891;  149.825; -257.000; -180.000
809.146;   58.250; -902.000; -794.000
809.400;  186.825; -848.000; -923.000
809.654;  264.875; -779.000; -551.000
809.909;  400.075; -841.000; -927.000
810.163; 5797.425; -813.000; -651.000
810.418;13608.600; -940.000; -861.000
810.672;  845.175; -685.000; -690.000
810.926;  623.425; -993.000; -973.000
811.180; 1330.250; -439.000; -372.000
811.434;30584.975;  240.000;  135.000
811.689;11131.325; -231.000; -365.000
811.943;  528.375; -936.000; -953.000
812.197;  274.350; -893.000; -671.000
812.451;   88.625; -379.000; -514.000
812.705;  -31.825; -809.000; -619.000
812.959;   -0.775; -263.000; -388.000
813.213;  -16.200; -283.000; -209.000
813.467;   59.550;  470.000;  253.000
813.721; -104.825; -764.000; -792.000
813.975; -122.850; -826.000; -877.000
814.229;   43.200;  430.000;  353.000
814.482; -100.100; -517.000; -566.000
814.736; -137.900; -766.000; -744.000
814.990; -150.550; -779.000; -872.000
815.244;  -65.850; -228.000; -285.000
815.497; -115.925; -636.000; -601.000
815.751;  -23.550; -141.000;   82.000
816.005;  -89.025; -470.000; -586.000
816.258;  -69.750; -510.000; -363.000
816.512; -123.500; -693.000; -610.000
816.766;   -2.250;  121.000;  157.000
817.019;    4.650;  148.000;  149.000
817.273; -133.850;-1000.000; -802.000
817.526;  -41.425; -206.000; -173.000
817.779;  -91.175;-1049.000; -960.000
818.033;  -97.750; -693.000; -807.000
818.286; -136.000; -725.000; -792.000
818.540;  -94.025; -403.000; -403.000
818.793;  -86.025; -402.000; -489.000
819.046; -116.425; -582.000; -520.000
819.299;  -45.350; -157.000; -166.000
819.553; -117.100; -552.000; -592.000
819.806; -177.800;-1016.000; -838.000
820.059;  -79.825; -334.000; -354.000
820.312;    3.000;  152.000;  185.000
820.565;  -29.100;  110.000;  -27.000
820.818;  -66.200;  -59.000; -173.000
821.071; -178.225;-1041.000; -957.000
821.324; -109.700; -536.000; -540.000
821.577; -116.075; -457.000; -483.000
821.830;  -72.875; -270.000; -172.000
822.083; -147.850; -733.000; -288.000
822.336;  -55.425; -261.000; -167.000
822.589; -152.150; -805.000; -688.000
822.842; -140.850; -875.000; -770.000
823.094; -195.275;-1076.000;-1114.000
823.347; -134.975; -925.000; -729.000
823.600;   -1.450;  402.000;  187.000
823.853;  -68.725; -311.000; -267.000
824.105;  -76.650; -331.000; -575.000
824.358; -127.025; -617.000; -716.000
824.611;   12.225;  234.000;   40.000
824.863;  -69.425; -612.000; -591.000
825.116;   25.925;  -33.000;   27.000
825.368;   33.625; -366.000; -372.000
825.621;  124.325; -186.000; -240.000
825.873;   61.300; -704.000; -737.000
826.126;  572.750; -669.000; -641.000
826.378;10892.575; -389.000; -505.000
826.630; 2341.875; -890.000; -898.000
826.883;   27.500; -754.000; -693.000
827.135;   17.075; -279.000; -270.000
827.387; -127.300; -893.000; -839.000
827.639;  -37.250;  -86.000;   32.000
827.892; -136.300; -742.000; -582.000
828.144; -140.175; -848.000; -804.000
828.396;  -47.050;  104.000;  -80.000
828.648; -114.600; -440.000; -333.000
828.900; -139.975; -702.000; -795.000
829.152; -126.900; -684.000; -683.000
829.404;  -82.200; -215.000; -267.000
829.656;  -67.525;  321.000;  214.000
829.908;  -30.325;  393.000;  229.000
830.160; -168.400;-1064.000;-1047.000
830.412;  -94.675; -481.000; -430.000
830.664; -135.000; -557.000; -665.000
830.916;  -83.800; -268.000; -206.000
831.167; -207.800;-1073.000; -951.000
831.419; -108.475; -623.000; -566.000
831.671; -161.625; -764.000; -809.000
831.923;  -95.650; -311.000; -447.000
832.174;  -90.725; -273.000; -331.000
832.426; -118.600; -493.000; -582.000
832.678; -197.450;-1043.000;-1091.000
832.929; -174.475; -947.000; -935.000
833.181;  -97.500; -575.000; -677.000
833.432;  -59.375;  -59.000; -186.000
833.684;  -29.025;  112.000;  -27.000
833.935; -116.600; -610.000; -566.000
834.187; -148.400; -829.000; -823.000
834.438;  -45.700;  -58.000;  -25.000
834.689;  -76.700; -255.000; -123.000
834.941;  -62.150; -343.000; -244.000
835.192; -117.600; -590.000; -533.000
835.443; -118.725; -419.000; -506.000
835.695;  -25.150;  138.000;  -16.000
835.946; -106.200; -608.000; -378.000
836.197; -111.025; -599.000; -622.000
836.448;  -85.700; -528.000; -395.000
836.699;  -81.375; -253.000; -341.000
836.950;  -13.775;   72.000;    7.000
837.201; -163.175;-1003.000; -987.000
837.452;  -55.600; -356.000; -170.000
837.703; -141.300; -791.000; -737.000
837.954;  -44.425; -205.000; -365.000
838.205; -112.300;-1029.000;-1008.000
838.456;   99.300; -196.000; -282.000
838.707;  -17.400; -423.000; -519.000
838.958;  -25.675; -634.000; -647.000
839.209;  199.150;   18.000;   40.000
839.460;   87.550; -439.000; -201.000
839.710;  127.975; -135.000; -297.000
839.961;  370.825;  730.000;  612.000
840.212;  275.950; -382.000; -497.000
840.462; 1106.000; -328.000; -277.000
840.713;17389.900; -571.000; -536.000
840.964; 6292.275;  -62.000; -143.000
841.214;  420.500; -384.000; -624.000
841.465;  461.250; -214.000; -141.000
841.715;  398.050; -417.000; -380.000
841.966;  489.900; -746.000; -685.000
842.216; 7742.775; -330.000; -431.000
842.466;26818.750; -169.000; -313.000
842.717; 1309.025; -964.000; -952.000
842.967;  220.525; -635.000; -641.000
843.217;  186.725;   20.000;   28.000
843.468;   38.850; -104.000; -132.000
843.718;  -75.200; -718.000; -726.000
843.968; -114.750; -837.000; -765.000
844.218;  -25.825; -315.000; -262.000
844.469;  -73.425; -577.000; -561.000
844.719; -126.200; -537.000; -682.000
844.969; -112.450; -550.000; -580.000
845.219; -157.400; -814.000; -862.000
845.469;  -81.975; -392.000; -342.000
845.719; -150.850; -792.000; -884.000
845.969;  -18.725;  119.000;  174.000
846.219; -150.525; -738.000; -720.000
846.469;   10.625;  464.000;  432.000
846.718;  -66.500; -115.000;   31.000
846.968; -152.800; -827.000; -827.000
847.218;  -67.975; -224.000; -371.000
847.468;   -8.700; -586.000; -555.000
847.718; -150.725; -827.000; -798.000
847.967; -158.000; -826.000; -915.000
848.217;  -97.725; -449.000; -569.000
848.467;  -84.850; -405.000; -376.000
848.716; -125.025; -708.000; -725.000
848.966;  -44.425; -372.000; -358.000
849.215;  -91.225; -428.000; -419.000
849.465; -110.575; -785.000; -615.000
849.714; -162.325;-1132.000;-1150.000
849.964;  -73.625; -551.000; -613.000
850.213;  -49.950; -393.000; -355.000
850.463;   70.675;  137.000;  340.000
850.712;  -22.525; -542.000; -567.000
850.961;   -1.675; -739.000; -678.000
851.211;   72.600; -513.000; -504.000
851.460;  123.825; -635.000; -650.000
851.709;  505.400;  -25.000;   18.000
851.958; 9983.225; -912.000; -750.000
852.208;11034.875; -859.000; -879.000
852.457;  388.175; -181.000;  -13.000
852.706;   45.000; -791.000; -823.000
852.955;    1.750; -507.000; -528.000
853.204;  -86.075; -521.000; -461.000
853.453;  -91.625; -418.000; -458.000
853.702; -139.425; -660.000; -750.000
853.951; -108.875; -532.000; -520.000
854.200; -132.075; -613.000; -562.000
854.449; -135.900; -695.000; -661.000
854.698; -116.875; -340.000; -279.000
854.946;  -70.050; -181.000; -284.000
855.195; -162.350; -843.000; -868.000
855.444; -100.050; -395.000; -420.000
855.693; -142.775; -345.000; -432.000
855.941; -108.350; -387.000; -516.000
856.190;  -88.150; -256.000; -382.000
856.439; -130.925; -652.000; -703.000
856.687;  -74.125;  -99.000;  -72.000
856.936; -114.700; -621.000; -323.000
857.184; -205.975;-1067.000;-1020.000
857.433; -105.425; -423.000; -512.000
857.681; -181.350; -989.000; -953.000
857.930;  -82.875; -282.000; -433.000
858.178; -180.075; -856.000; -929.000
858.427; -163.475; -802.000; -781.000
858.675; -126.350; -377.000; -544.000
858.923; -116.725; -527.000; -819.000
859.172; -187.275;-1094.000;-1070.000
859.420;  -95.750; -339.000; -239.000
859.668; -146.450; -624.000; -628.000
859.916;  -28.775;  109.000;  115.000
860.164; -137.250; -699.000; -603.000
860.413;  140.625; -878.000; -696.000
860.661;   79.500; -709.000; -577.000
860.909; -100.475; -339.000; -325.000
861.157;  -82.075; -277.000; -444.000
861.405; -139.550; -534.000; -670.000
861.653;   -0.500;  310.000;  310.000
861.901;   76.650; -543.000; -613.000
862.149;  -84.375; -801.000; -824.000
862.396;  -86.350; -297.000; -187.000
862.644; -105.300; -368.000; -347.000
862.892;  -36.800;   98.000;  138.000
863.140; -122.650; -549.000; -530.000
863.388; -163.700; -815.000; -759.000
863.635; -136.550; -642.000; -601.000
863.883;   -5.075;  231.000;  190.000
864.131;  -89.125; -288.000; -357.000
864.378; -134.450; -675.000; -540.000
864.626;  -94.250; -347.000; -415.000
864.873; -113.400; -556.000; -505.000
865.121; -145.925; -714.000; -799.000
865.368;  -46.900; -173.000;   75.000
865.616;  -37.200;  -33.000;  -40.000
865.863;  -73.675; -462.000; -506.000
866.111;  -91.575; -795.000; -824.000
866.358;   62.825; -426.000; -420.000
866.605; 2867.000;  -64.000; -804.000
866.853; 2681.350; -621.000; -537.000
867.100;  -43.125; -728.000; -775.000
867.347;  -94.025; -672.000; -611.000
867.594;  -96.675; -740.000; -714.000
867.841;   44.750;   97.000;   17.000
868.089; -163.200; -746.000; -698.000
868.336; -127.675; -477.000; -420.000
868.583; -153.750; -637.000; -741.000
868.830;  -54.450; -131.000; -170.000
869.077; -173.150; -859.000; -787.000
869.324; -133.325; -502.000; -458.000
869.571; -139.025; -398.000; -430.000
869.818; -144.000; -485.000; -439.000
870.065; -134.225; -439.000; -513.000
870.311; -114.675; -456.000; -542.000
870.558; -113.725; -332.000; -311.000
870.805;  -90.900; -320.000; -384.000
871.052; -109.050; -494.000; -369.000
871.298;  -85.450; -204.000; -131.000
871.545;  -72.775; -151.000; -185.000
871.792;  -82.625; -173.000; -222.000
872.038;  -66.475;   43.000; -126.000
872.285; -116.175; -496.000; -387.000
872.532; -116.950; -357.000; -387.000
872.778;   13.375;  556.000;  403.000
873.025; -103.825; -384.000; -359.000
873.271;    8.625;  501.000;  578.000
873.517;  -47.125; -133.000; -209.000
873.764;  -46.950; -193.000;  -80.000
874.010;  -74.900; -143.000; -230.000
874.257;  -37.950;  123.000;   90.000
874.503; -145.225; -579.000; -479.000
874.749;  -71.875;   31.000;  275.000
874.995;  -90.625;  -80.000;  -20.000
875.242; -143.100; -540.000; -478.000
875.488; -137.850; -414.000; -439.000
875.734;  -66.850; -106.000; -234.000
875.980;   53.125; -872.000;-1032.000
876.226;  188.575; -157.000; -255.000
876.472;  -21.425;  343.000;  237.000
876.718;  -43.325;  184.000;  158.000
876.964;  -41.525;   56.000;   55.000
877.210; -175.475; -547.000; -677.000
877.456; -152.575; -630.000; -557.000
877.702; -179.350; -821.000; -832.000
877.948; -128.775; -377.000; -497.000
878.193;   10.200;  361.000;  255.000
878.439; -130.600; -487.000; -472.000
878.685; -104.675; -272.000; -343.000
878.931; -140.550; -618.000; -676.000
879.176; -103.125; -201.000; -201.000
879.422; -195.675; -933.000; -820.000
879.668;    0.225;   10.000;   79.000
879.913;   87.875;   53.000;  137.000
880.159;  -76.225; -112.000;  -17.000
880.404;  -77.875; -152.000; -162.000
880.650;  -37.825;   91.000;  141.000
880.895; -176.925; -670.000; -710.000
881.141; -128.825; -454.000; -428.000
881.386; -148.075; -503.000; -658.000
881.631; -106.875; -311.000; -166.000
881.877;  -45.375;  112.000;  -13.000
882.122; -124.300; -684.000; -600.000
882.367;  -90.750; -136.000; -186.000
882.612;  -82.950;  -80.000; -176.000
882.858; -191.200; -877.000; -823.000
883.103; -108.875; -297.000; -267.000
883.348; -159.650; -759.000; -852.000
883.593; -163.075; -677.000; -602.000
883.838;  -61.700; -311.000;  -24.000
884.083;    4.950;  353.000;  288.000
884.328; -112.500; -564.000; -545.000
884.573;  -63.625; -196.000; -143.000
884.818;   85.350; -694.000; -531.000
885.063;   85.775; -348.000; -315.000
885.308; -105.700; -475.000; -398.000
885.553;   -7.850;  245.000;  325.000
885.797; -136.000; -545.000; -615.000
886.042;  -48.750;    8.000;   58.000
886.287; -104.950; -253.000; -211.000
886.532;  -55.600;   26.000;  204.000
886.776; -106.700; -407.000; -525.000
887.021; -152.950; -621.000; -574.000
887.265; -173.050; -685.000; -689.000
887.510; -135.275; -557.000; -496.000
887.755; -101.225; -194.000; -164.000
887.999; -144.725; -552.000; -575.000
888.244;  -68.400;  -58.000;  161.000
888.488;  -11.625;  371.000;  393.000
888.732; -133.100; -368.000; -520.000
888.977; -135.125; -622.000; -567.000
889.221; -167.875; -683.000; -659.000
889.465; -135.650; -422.000; -566.000
889.710;  -91.625;  -56.000; -299.000
889.954;    2.675;  579.000;  467.000
890.198; -158.050; -584.000; -707.000
890.442; -166.525; -716.000; -712.000
890.687; -178.775; -800.000; -753.000
890.931; -104.350; -273.000; -210.000
891.175; -152.075; -502.000; -500.000
891.419;  -80.500; -105.000; -110.000
891.663;  -89.500; -239.000; -112.000
891.907; -172.150; -801.000; -545.000
892.151; -181.250; -920.000; -815.000
892.395; -111.700; -274.000; -387.000
892.638;  -18.400;  408.000;  291.000
892.882; -188.975; -780.000; -867.000
893.126;   17.425;  758.000;  558.000
893.370;  -94.275; -167.000; -168.000
893.614; -164.475; -714.000; -715.000
893.857; -110.700; -183.000; -197.000
894.101; -151.775; -527.000; -631.000
894.345;  -51.125;  300.000;  150.000
894.588;    7.950;  569.000;  380.000
894.832;  -97.850; -178.000;  -84.000
895.075;  -97.500;   15.000;  -92.000
895.319; -123.400; -552.000; -420.000
895.563; -128.900; -413.000; -353.000
895.806; -156.850; -628.000; -741.000
896.049;  -99.500; -576.000; -368.000
896.293;   53.650;  527.000;  405.000
896.536;  -94.850; -465.000; -468.000
896.779;  -73.325; -149.000;   -1.000
897.023; -161.150; -751.000; -714.000
897.266;  -37.175;  325.000;  269.000
897.509; -194.300; -900.000; -901.000
897.752;  -66.700;  149.000;  171.000
897.996; -209.200; -972.000; -864.000
898.239;  -50.975;  168.000;  102.000
898.482; -129.975; -431.000; -453.000
898.725;  -40.725;  101.000;   53.000
898.968; -184.250; -609.000; -744.000
899.211; -106.575; -513.000; -361.000
899.454; -141.250; -633.000; -539.000
899.697;  -77.850;   90.000;  -43.000
899.940; -182.500; -761.000; -757.000
900.182; -115.225; -335.000; -405.000
900.425; -101.525; -150.000; -298.000
900.668;  -34.550;  491.000;  350.000
900.911; -115.750; -292.000; -345.000
901.154;  -56.800;  141.000;   -3.000
901.396; -143.850; -407.000; -412.000
901.639; -149.950; -430.000; -496.000
901.882; -196.250; -790.000; -809.000
902.124;  -86.625;  -29.000; -143.000
902.367; -121.650; -315.000; -361.000
902.609; -143.675; -476.000; -453.000
902.852;  -95.525; -108.000; -260.000
903.094; -134.700; -458.000; -337.000
903.337;  -57.375;  -26.000;   53.000
903.579; -111.525; -228.000; -441.000
903.821; -162.375; -597.000; -744.000
904.064;  -74.575;   85.000;  127.000
904.306;  -92.375; -126.000; -166.000
904.548; -101.000; -152.000; -366.000
904.790; -110.125; -195.000; -340.000
905.033; -134.500; -625.000; -577.000
905.275; -139.675; -513.000; -524.000
905.517;   17.275;  468.000;  256.000
905.759; -111.325; -667.000; -761.000
906.001; -107.850; -322.000; -369.000
906.243;  -83.275; -162.000; -224.000
906.485;   52.875; -265.000; -207.000
906.727;   -2.450; -499.000; -542.000
906.969;  -59.850;  -30.000; -135.000
907.211;   42.000; -316.000; -382.000
907.453;  157.275; -188.000; -237.000
907.695;  -36.400; -158.000; -385.000
907.936;   37.175;  818.000;  706.000
908.178;  -81.050;   92.000; -135.000
908.420;  -79.700; -111.000; -162.000
908.662; -147.900; -633.000; -682.000
908.903; -100.000; -208.000; -123.000
909.145;  -72.625; -240.000; -305.000
909.386;   -1.600;  315.000;  280.000
909.628;   15.700;  363.000;  397.000
909.870;   -8.675;   29.000;  264.000
910.111; -121.150; -809.000; -949.000
910.353;    4.175; -123.000; -161.000
910.594;   -5.375; -574.000; -606.000
910.835;   57.900; -265.000; -326.000
911.077;  101.675; -503.000; -604.000
911.318;  249.175; -505.000; -471.000
911.559;  412.600; -577.000; -880.000
911.801; 1309.850; -284.000; -280.000
912.042;10464.150;  -50.000; -159.000
912.283;25138.025;  404.000;  371.000
912.524; 3462.075; -396.000; -457.000
912.765;  431.925; -193.000;   79.000
913.006;  200.750; -307.000; -338.000
913.247;   18.925; -270.000; -290.000
913.488;  -26.275;  -43.000;   30.000
913.729;  -99.700; -373.000; -373.000
913.970;  -98.675;  -96.000; -292.000
914.211;  -88.450; -160.000; -198.000
914.452;  -78.575; -118.000;  -11.000
914.693;   -4.350;  510.000;  592.000
914.934;    0.700;  510.000;  440.000
915.175;  -57.900;   53.000;  -95.000
915.415;  -86.900; -137.000;   27.000
915.656;  -76.875;  -28.000;  192.000
915.897; -103.850; -252.000;  -82.000
916.137;  -65.950;   74.000;   -9.000
916.378; -138.350; -573.000; -517.000
916.619;  -88.600; -159.000;  -63.000
916.859;  -42.350;  303.000;  330.000
917.100;  127.325; 1655.000; 1070.000
917.340;   45.275;  930.000;  728.000
917.581;   38.725;  965.000;  789.000
917.821;  -58.125; -171.000;  143.000
918.061;  -29.875; -199.000;  -72.000
918.302;  -69.375; -152.000; -211.000
918.542;  -46.200;  -22.000;    3.000
918.782;    1.950;  369.000;  377.000
919.023;  111.250;  360.000;  427.000
919.263; 1249.350; 8131.000;  202.000
919.503;  832.875; -137.000;  -54.000
919.743;  446.175;  390.000;  266.000
919.983;  156.425; -134.000;  -26.000
920.223;   54.050;  135.000;   14.000
920.463;  143.575;  631.000;  554.000
920.703;  126.000;   84.000;   39.000
920.943;  167.075; -110.000;   90.000
921.183;  217.850; -414.000; -405.000
921.423;  503.350;  307.000;  546.000
921.663;  738.475; -174.000; -257.000
921.903; 1616.450;  237.000;  173.000
922.143; 9149.100;  372.000;  389.000
922.383;33871.975;  158.000;  115.000
922.622;10261.575; -120.000;  -15.000
922.862; 1139.525;  796.000;  785.000
923.102;  429.450;  -51.000;   33.000
923.341;  180.350;   59.000;   74.000
923.581;   78.500;  450.000;  360.000
923.821;   21.875;  301.000;  398.000
924.060;    6.225;  351.000;  193.000
924.300;  -73.325;  -16.000; -128.000
924.539;  -36.800;  584.000;  473.000
924.779;    4.325;  812.000;  597.000
925.018;  -50.725;  247.000;  353.000
925.257;  -16.975;  595.000;  666.000
925.497;  -34.875;  447.000;  412.000
925.736;  -83.050;  -35.000;  102.000
925.975;    0.675;  687.000;  669.000
926.214;   28.525;  907.000;  850.000
926.454;    5.275;  706.000;  757.000
926.693;  -39.450;  419.000;  543.000
926.932;   29.650; 1021.000;  825.000
927.171;   61.450; 1107.000; 1044.000
927.410;   58.950; 1144.000;  967.000
927.649;   20.500;  924.000;  742.000
927.888;  -18.025;  590.000;  564.000
928.127;  -23.775;  680.000;  678.000
928.366;   10.325;  842.000;  826.000
928.605;   11.325;  831.000;  737.000
928.844;  207.825; 1451.000; 1393.000
929.083;  490.725;  770.000;  613.000
929.321;  263.375; 1335.000; 1359.000
929.560;   75.825; 1158.000; 1122.000
929.799;  -40.775;  574.000;  475.000
930.038;   79.650; 1025.000; 1394.000
930.276;  -66.650;  334.000;  397.000
930.515;    1.225;  827.000;  681.000
930.753;  -29.200;  614.000;  589.000
930.992;  -13.425;  664.000;  717.000
931.230;    1.250;  847.000;  847.000
931.469;  163.550; 2162.000;  892.000
931.707;   76.325;  840.000;  751.000
931.946;   65.075; 1278.000; 1344.000
932.184;   44.375; 1437.000; 1175.000
932.423;   53.425; 1265.000;  963.000
932.661;   85.100; 1296.000; 1428.000
932.899;    9.300;  987.000;  821.000
933.137;    2.175;  754.000;  564.000
933.376;  125.325; 1664.000; 1335.000
933.614;  146.425; 1759.000; 1196.000
933.852;   47.150; 1357.000; 1171.000
934.090;  152.050; 1722.000; 1747.000
934.328;  121.800; 1252.000; 1457.000
934.566;   87.750; 1431.000; 1110.000
934.804;  147.750; 1263.000; 1309.000
935.042;  549.050; 1861.000; 1850.000
935.280; 2350.225; 2088.000; 2063.000
935.518; 2002.525; 2113.000; 2007.000
935.756;  386.700; 2481.000; 2316.000
935.994;  153.000; 1808.000; 1751.000
936.231;  307.725; 2890.000; 2950.000
936.469;  194.225; 2367.000; 2378.000
936.707;  171.050; 2220.000; 2167.000
936.945;  232.150; 2825.000; 2882.000
937.182;  193.675; 2679.000; 2741.000
937.420;  303.775; 3602.000; 3031.000
937.657;  377.550; 3365.000; 3478.000
937.895;  334.075; 3331.000; 3488.000
938.133;  304.975; 3540.000; 3528.000
938.370;  339.600; 3896.000; 4191.000
938.607;  385.025; 4488.000; 4205.000
938.845;  550.575; 5587.000; 5549.000
939.082;  494.525; 5387.000; 5177.000
939.320;  535.325; 5799.000; 5728.000
939.557;  632.625; 6549.000; 6491.000
939.794;  733.950; 7285.000; 7097.000
940.031;  877.100; 8421.000; 8368.000
940.269; 1052.950; 9552.000; 9107.000
940.506; 1108.675;10901.000;10507.000

