
Integration time [ms]: 200.000
Averaging Nr. [scans]: 10
Smoothing Nr. [pixels]: 0
Data measured with spectrometer [name]: 2101013U2
Wave   ;Sample   ;Dark     ;Reference
[nm]   ;[counts] ;[counts] ;[counts] 

394.013;   79.317; -450.257; -315.536
394.305;  405.614; -461.258; -419.536
394.596; 2115.364; -676.269; -527.514
394.887; 5228.888; -796.268; -654.518
395.178; 2091.533;  145.736;   11.476
395.470;  154.649; -210.263; -356.526
395.761;  373.310;  305.734;  394.479
396.052;  572.381; -545.284; -306.489
396.343;  533.383; -557.276; -454.503
396.634;  168.338; -200.279; -290.497
396.926;  121.984; -618.268; -565.517
397.217;  141.890;   11.725;  -17.504
397.508;   53.913; -366.273; -154.507
397.799;   63.438; -555.279; -571.497
398.090;  -74.771; -973.280; -902.495
398.381;  192.172;   11.708;  -11.473
398.672;  -90.526; -585.292; -742.473
398.963;   79.446; -348.279; -373.498
399.254;  157.487;   54.709; -209.475
399.545;  -84.995;-1017.266; -883.520
399.836;   79.267; -407.277; -343.501
400.127;  100.038; -205.295; -209.468
400.418;   78.405; -423.274; -392.506
400.709;   71.611; -359.281; -333.493
401.000;   89.693; -268.291; -309.476
401.290;  208.145;  225.698;  115.545
401.581;  150.956; -166.286; -228.485
401.872;   43.697; -542.298; -486.462
402.163;   99.027; -313.296; -252.467
402.454;  147.088; -123.291; -163.475
402.744;   53.314; -844.297; -813.465
403.035;  626.960; -226.293;  -86.471
403.326;  761.078; -366.292; -384.474
403.617;  590.989;  204.701;  165.539
403.907;  432.890; -593.283; -679.490
404.198; 4532.378; -545.307; -599.446
404.489;11740.197; -618.283; -588.491
404.779; 3849.350; -618.302; -660.456
405.070;  455.319;  -67.304; -174.451
405.360;  589.562; -259.293; -238.472
405.651;  687.267;  125.699;   98.542
405.942;  315.849;  209.714;  127.516
406.232;  384.371; -432.285; -413.487
406.523;  757.152;  641.706;  758.530
406.813;  115.453; -579.286; -644.484
407.104;  550.771;  261.708;  144.527
407.394;  230.591; -604.299; -591.462
407.685;  274.969;  336.715;  222.513
407.975;   97.195; -400.283; -382.490
408.265;  202.509; -134.289; -190.478
408.556;   94.484; -472.291; -459.475
408.846;  335.353;  474.706;  429.530
409.137;  176.121;   -1.288; -216.480
409.427;   93.970; -193.285; -271.487
409.717;   61.317; -776.273; -692.508
410.007;  196.761;    4.715; -170.486
410.298;  171.841; -360.295; -342.469
410.588;  104.566; -495.285; -510.486
410.878;   15.737; -792.287; -873.482
411.168;  162.400; -481.298; -478.463
411.459;  211.487; -295.283; -242.489
411.749;  109.081; -609.292; -507.474
412.039;   84.219; -755.289; -386.480
412.329;  377.257;   40.722;  132.501
412.619;  347.053;  -62.286; -148.485
412.909;  672.613;  639.711;  594.521
413.199;  552.030; -130.280; -251.495
413.490;  726.499;  521.710;  352.523
413.780;  256.336;-1013.279; -913.496
414.070;  588.485;  -46.276;  235.497
414.360;  607.551; -729.278; -666.498
414.650;  715.232; -726.288; -688.482
414.940;  926.835; -538.280; -441.496
415.230; 1627.527;   50.712;   74.519
415.520;11149.163;  155.730;   66.486
415.809;43488.110; -305.281; -125.493
416.099;34812.370; -388.277; -229.501
416.389; 9651.002;  435.726;  236.494
416.679; 5851.254;   91.738;   85.473
416.969;  996.044; -527.287; -503.483
417.259; 1069.038;  341.721;  171.503
417.549; 1254.708;  522.718;  318.508
417.838; 3084.287; -205.268; -147.518
418.128;10304.007;  650.710;  492.522
418.418; 8678.227; -491.272; -579.509
418.708; 5727.502;    9.726;  -48.506
418.997;21573.596; -474.275; -480.505
419.287;22753.412; -733.273; -790.507
419.577;21453.986; -160.283; -123.489
419.866;64329.268; -588.277; -498.501
420.156;64293.057; -242.270;  -55.513
420.446;13111.143; -112.263;  -26.526
420.735; 1375.448; -376.271; -446.512
421.025; 1536.950; 1830.722;  315.502
421.314; 1065.345; -203.271; -226.512
421.604; 1836.377;   89.732;  233.484
421.893; 1085.840; -705.271; -602.511
422.183;  384.443; -487.263; -461.526
422.472;  672.642;  -36.271; -107.511
422.762;  732.013; -416.266; -379.521
423.051;  354.985; -916.276; -916.503
423.341;  534.014; -491.273; -439.507
423.630;  678.722; -121.265;   15.477
423.919;  615.095;   58.725;   49.495
424.209;  655.651;  -31.263;   56.473
424.498;  875.984;   68.732;  161.483
424.787; 1939.393; -535.267; -601.518
425.077; 5791.020;   34.735;   29.478
425.366; 7450.860; -734.262; -744.528
425.655;17381.815;  639.727;  259.493
425.945;40113.647; -313.247; -268.554
426.234;22904.093;  117.741;  300.467
426.523; 9015.800;  -86.259; -350.534
426.812;12590.207;  107.734;  159.480
427.101;18478.471; -127.269; -323.515
427.390;23053.362;  -55.270;  -86.514
427.680; 4556.429; -624.257; -411.538
427.969;  813.945; -330.255; -301.540
428.258;  506.516; -385.257; -477.536
428.547;  898.033;  449.728;  397.490
428.836; 1662.868; -421.253; -398.543
429.125; 2361.303; -199.259;  -72.534
429.414; 1252.101; -330.251; -294.548
429.703; 5588.901; -231.251; -213.548
429.992;16630.106; -938.250; -828.549
430.281;11382.033; -397.264; -331.524
430.570; 1035.887;  -21.252;   32.454
430.859;  863.499;  279.741;  352.466
431.148;  814.641;  636.752;  631.446
431.437;  530.886;  391.748;  367.454
431.725;  239.919; -544.257; -481.536
432.014;  212.379; -845.253; -756.545
432.303;  602.551; -149.239; -105.569
432.592;  870.343; -460.263; -178.525
432.881; 1750.043; -601.248; -437.554
433.169;11178.046; -343.255;  -61.540
433.458;22805.501;  445.765;  540.424
433.747; 9748.468; -397.261; -289.529
434.036; 1414.216; -275.242; -280.564
434.324; 3592.024; -395.249; -379.551
434.613; 6529.307;   40.757;  159.437
434.902; 2152.037;  333.760;  439.433
435.190;  719.650;   75.761;  295.431
435.479;  413.980;  -52.245;   83.441
435.767;  123.292; -411.244; -427.561
436.056;  308.810; -340.242; -294.563
436.345;  592.240; -372.240; -223.568
436.633;  697.817;   60.750;  383.450
436.922;  436.144;  208.760;  414.432
437.210;  716.786; -194.236;    1.426
437.499; 2047.198; -583.235; -432.576
437.787; 2358.285; -339.236;  -10.574
438.075;  718.158;   56.761;  162.430
438.364;  928.661;  -44.238;  250.429
438.652;  559.614; -286.226; -138.592
438.941;  200.462;    3.770;  269.415
439.229;  -28.217; -665.252; -466.545
439.517;   68.610; -160.234;  -85.577
439.806;  -30.663; -501.225; -290.595
440.094;  313.721;  377.766;  650.421
440.382;  221.027; -653.233; -302.580
440.670;  208.197; -361.235; -285.576
440.959;   14.762; -347.223; -170.599
441.247;  100.378; -151.229; -109.587
441.535;  134.508; -266.235;   31.423
441.823;   -7.383; -497.234; -305.578
442.111;  304.784;  173.771;  327.412
442.400;  601.579; -628.245; -335.559
442.688; 1650.620; -111.234; -620.579
442.976; 1060.990; -786.213; -450.617
443.264;  102.446; -324.224; -364.597
443.552;  123.115; -258.226;   51.408
443.840;  281.606;  602.765;  876.423
444.128;  188.425;  265.767;  269.420
444.416;  -22.912; -694.228; -312.588
444.704;  -14.195; -465.219;  -92.605
444.992;   95.519;   -0.226;  240.407
445.280;   53.362; -517.230;  -94.585
445.568;   16.995; -694.212; -396.618
445.856;  423.382; -174.221;  357.398
446.143;  901.400;  -54.220;   -7.604
446.431;  832.093;  -25.228;  625.411
446.719;  381.233;  489.783;  675.391
447.007;  314.554;  481.769;  705.416
447.295;  309.658;  597.777;  871.402
447.583;  111.475; -464.229;  -34.587
447.870;  178.077; -434.221; -202.601
448.158;  567.561; -104.230;  129.415
448.446;  372.601; -800.219; -338.604
448.733;  274.248;   13.776;  269.403
449.021;  383.894;   60.788;  341.382
449.309;  296.216; -296.210;  208.379
449.596;  353.428;  128.783;   59.392
449.884;  240.068; -571.222; -325.600
450.172;  231.801; -756.227; -406.590
450.459;  838.265;  645.786;  780.387
450.747; 4193.625; -411.218; -147.608
451.034;13674.795;  493.772;  889.411
451.322;11406.470; -413.214; -170.614
451.609;  998.551;  292.777;  508.403
451.897; 1061.708; -550.203; -183.634
452.184; 3112.858; -622.223; -400.598
452.472; 3068.847;   97.792;  269.375
452.759;  645.602;  512.781;  864.395
453.047;  170.091; -407.212; -125.617
453.334;   71.413; -732.219; -216.606
453.621;   86.173; -438.214; -161.615
453.909;  235.496;   13.796;  384.368
454.196;  165.662; -299.199; -123.641
454.483;  364.527;  317.798;  540.364
454.771;  257.351; -215.208;  196.374
455.058;  121.456; -316.207;  102.374
455.345;  237.242;   71.807;  344.347
455.632;  169.561; -128.207;  235.373
455.919;  117.395;  -82.196;  182.354
456.207; -110.132; -774.198; -450.642
456.494;  -15.356; -475.200;  -66.639
456.781;   -2.680; -399.202; -198.635
457.068;  102.871; -253.206;  -29.628
457.355;  -36.128; -698.206; -401.629
457.642;  -26.820; -552.205; -290.630
457.929;  -28.371; -778.194; -417.651
458.216;  104.491; -575.212; -354.617
458.503;  429.736; -173.193;  -19.652
458.790;  339.648; -864.208; -630.625
459.077;  474.627;  -77.202;  110.364
459.364; 1408.819; -350.195; -210.649
459.651; 2946.767;  -46.206;  220.372
459.938; 1325.834; -864.209; -665.623
460.225;  261.632;  132.799;  276.363
460.512; -137.109; -836.197; -688.645
460.799;  209.924;  -32.218;  320.392
461.086;   98.951; -370.200; -251.640
461.372;   20.069; -509.198; -279.642
461.659;  178.696; -165.196;  108.354
461.946;   94.834; -445.193;  -54.651
462.233;  482.247;  842.800;  888.361
462.519;  575.443; -814.201; -464.639
462.806; 1675.291; -768.197; -497.645
463.093; 1531.864; -445.191;  -66.656
463.380;  -77.276; -920.186; -824.664
463.666;  121.894; -259.197;  -18.646
463.953;  163.211; -406.195; -243.648
464.239;  302.411; -173.195;  -77.648
464.526;  653.027;  413.806;  743.350
464.813;  476.881; -565.190; -304.658
465.099;  579.135;  606.807;  607.348
465.386;  560.241;  903.807;  921.348
465.672;   13.391; -694.197; -522.645
465.959;    1.207; -598.188; -520.662
466.245;    4.041; -468.193; -359.652
466.532;  138.308; -109.195;   63.352
466.818;   98.223; -357.186; -216.664
467.104;   -0.018; -488.182; -415.672
467.391;  -44.117; -628.189; -459.658
467.677;   48.329; -289.186;    9.335
467.964;    2.493; -682.189; -471.660
468.250;  108.933; -331.186; -160.665
468.536;  161.985;   90.811;  180.341
468.822;  -58.450; -821.184; -574.668
469.109;  308.299;  351.827;  471.311
469.395;  409.355;  729.808;  787.346
469.681;  333.890;   46.811;  156.341
469.967; 2088.296; -699.188; -382.660
470.254; 4622.208; -494.188; -306.662
470.540; 3003.594; -601.196; -476.646
470.826;  416.798; -488.181; -397.675
471.112;  601.955;  288.816;  113.331
471.398;  158.762; -253.183;  -58.670
471.684;   65.439; -626.177; -447.680
471.970;  -30.097; -918.180; -981.675
472.256;   84.254; -521.192; -441.654
472.542;    2.215; -499.171; -434.691
472.828;   -7.924; -743.182; -607.672
473.114;   35.878; -380.166; -283.700
473.400;   31.463; -504.175; -293.684
473.686;   34.988; -452.166; -400.701
473.972;   97.784; -230.174; -131.687
474.258;  -87.801; -925.173; -843.689
474.544;  384.027; -183.178;   -2.679
474.830;  585.866;  -65.175;   45.316
475.116;  847.283; -123.190; -196.658
475.401; 1157.907; -558.180; -467.676
475.687;  310.805; -725.180; -718.676
475.973;  -43.112; -673.181; -770.673
476.259;  470.669;  736.825;  764.315
476.544;  567.151; -539.176; -437.682
476.830; 1453.109; -398.172; -322.690
477.116; 1334.349; -430.177; -336.682
477.401;  298.506;  346.820;  358.324
477.687;  -43.637; -289.175; -405.684
477.973;  135.193;   21.819;   28.326
478.258;  -15.383; -448.163; -348.706
478.544;   84.340;   21.815;   61.334
478.829; -138.277; -818.171; -738.692
479.115;  -78.891; -749.172; -651.690
479.401;   17.278; -444.174; -449.686
479.686;   64.504; -253.180;  -74.676
479.972;  -97.165; -886.178; -776.680
480.257;   65.381; -258.166;  -65.700
480.542;  -21.471; -614.170; -469.693
480.828;  523.461; 1288.824; 1392.317
481.113;  -24.342; -464.176; -426.683
481.399;   11.152; -236.161; -202.711
481.684; -103.220; -620.166; -462.700
481.969;   88.071; -158.159;  -73.713
482.255;    2.944; -439.169; -285.695
482.540;    2.135; -569.178; -441.680
482.825;    1.917; -395.187; -404.663
483.110;  194.049;  -85.169; -105.696
483.396;  312.703; -840.157; -652.718
483.681;  921.685;  543.826;  730.313
483.966;  271.463; -696.160; -700.712
484.251;   -7.417; -404.174; -310.687
484.536;   -4.405; -356.165; -378.703
484.822;   15.387; -205.173; -218.687
485.107;  -81.742; -599.152; -502.726
485.392;  280.203;  662.836;  541.296
485.677;  161.663;  354.832;  163.302
485.962;  227.799;  160.843;  270.283
486.247;  174.929;  -14.162;   -8.707
486.532;   87.982; -178.166; -325.701
486.817;  304.644;  381.839;  431.291
487.102;  223.133; -453.154; -514.722
487.387; 1144.405; -637.156; -652.718
487.672; 2009.511; -154.164;  -38.705
487.957; 1315.754; -394.160; -286.711
488.241;  366.382; -290.150; -314.729
488.526; 1293.560; -280.152; -148.726
488.811; 1971.938; -881.177; -818.680
489.096; 1564.437; -666.154; -702.723
489.381;  846.655;    3.847;  162.275
489.666;  640.651; -428.161; -510.710
489.950;  409.342;  558.846;  627.277
490.235;  -47.425; -480.151; -458.728
490.520;  -90.850; -756.161; -723.710
490.804; -106.792; -827.156; -736.719
491.089;   40.705; -469.149; -299.732
491.374;   62.709; -132.164;  -75.704
491.658;  -62.178; -817.147; -717.735
491.943;  163.466; -657.152; -609.727
492.227;  328.527; -178.155;  -38.721
492.512;   60.098; -294.157; -341.717
492.797; -148.304; -713.149; -716.731
493.081; -103.374; -588.147; -598.735
493.366;  -58.848; -751.161; -635.711
493.650;  410.303;  831.859;  917.254
493.935;   34.321; -648.147; -447.734
494.219;  -87.315; -778.142; -687.743
494.503;  -95.311; -585.150; -487.730
494.788;  106.086;   46.842;   74.285
495.072;  224.984;  184.850;  434.271
495.356;  234.810; -463.148; -343.733
495.641;  623.735; -812.146; -736.736
495.925;  533.915; -976.156; -903.719
496.209;   23.304; -599.149; -451.732
496.494;  -81.315; -763.142; -544.744
496.778;   30.634; -364.154; -360.722
497.062;  -93.285; -819.156; -627.719
497.346;  -71.843; -869.160; -640.711
497.631;  286.915;  580.852;  560.266
497.915;  133.751;  -64.145;  175.261
498.199;   82.403; -341.157; -277.718
498.483;   20.858; -562.152; -508.725
498.767;  370.486;  301.850;  300.271
499.051;  321.801; -126.149; -100.732
499.335;   27.898; -693.149; -739.731
499.619;  -68.850; -381.129; -423.767
499.903;    2.525; -272.155;  -65.721
500.187;   31.644; -588.153; -316.724
500.471;   -1.835; -796.152; -595.727
500.755;  198.750;   62.839;  -96.710
501.039;    9.326; -270.155; -357.721
501.323;  165.706;  -21.141;  264.254
501.607;    9.618; -447.163; -503.706
501.891;  -22.995; -607.156; -512.718
502.174;  -88.433; -726.144; -585.741
502.458;  130.271;   89.849;  370.273
502.742;   47.940; -180.138; -191.751
503.026;  201.120; -412.147; -254.734
503.310;  272.070; -437.159; -375.713
503.593;  179.323; -464.147; -325.735
503.877;  172.699; -232.133; -156.760
504.161;  250.048;    2.847;  -50.724
504.444;  126.790; -841.158; -710.716
504.728;  757.008; -487.164; -522.704
505.012; 1169.481; -257.150;  -76.729
505.295;  921.552; -417.161; -212.711
505.579;  930.015; -256.156; -496.719
505.862; 1287.845; -555.145; -333.738
506.146; 1243.173; -681.159; -758.714
506.429;  738.674;  568.841;  461.286
506.713;   92.177; -732.151; -667.728
506.996;  547.033;   90.846;  295.278
507.280;  577.201; -633.165; -474.703
507.563;  436.523; -469.155; -261.721
507.847;  148.145; -423.153; -112.724
508.130;  123.353; -665.161; -456.711
508.413;  192.374; -758.167; -577.700
508.697;  444.074; -151.167;   12.300
508.980;  278.147; -422.153; -312.724
509.263;  -38.082; -466.155; -450.720
509.547;   70.781; -124.150;   82.271
509.830;  104.756; -172.160;  140.289
510.113;  141.614;  128.844;  298.281
510.396;   23.055; -530.152; -300.725
510.680;  109.547; -818.145; -812.738
510.963;  727.439;  184.846;  180.277
511.246;  519.692; -493.150; -357.730
511.529;  388.055; -482.145;  -83.739
511.812;  644.594; -250.134;   10.241
512.095;  438.273; -740.151; -396.728
512.378;  129.929; -317.147; -245.736
512.661;   55.451; -703.137; -623.753
512.944;    8.988; -750.142; -637.744
513.227;  116.547; -170.137; -171.752
513.510;   29.567; -479.144; -671.741
513.793;    4.312; -485.140; -435.747
514.076;  259.280;  -43.127;  -39.771
514.359;  204.906; -294.149; -135.732
514.642;  142.592; -442.142; -567.744
514.925; 1331.210;  581.860;  561.253
515.208; 1672.789; -498.134; -443.758
515.491; 1174.009; -276.133; -182.761
515.773;  628.872; -410.143; -337.742
516.056; 3608.261;  249.864;  409.246
516.339; 4634.966; -754.136; -652.755
516.622; 2798.889; -518.150; -488.730
516.904; 1636.982;  882.857;  975.257
517.187;  586.945; -730.138; -523.752
517.470;  632.781; -568.143; -510.743
517.752;  718.470; -624.136; -470.756
518.035;  549.327; -708.139; -725.749
518.318;  615.567; -799.136; -744.755
518.600; 4207.414; -300.132; -325.762
518.883; 5613.591;  310.858;   88.256
519.165; 2719.435; -585.138; -426.751
519.448;  578.713;  -61.132;  -19.762
519.730;  232.391; -573.126; -415.773
520.013;  516.503;  588.867;  664.240
520.295;  968.096;  -94.134;  -15.759
520.578; 2070.232; -335.131; -305.764
520.860; 2438.614; -254.132;   56.238
521.143; 1271.474; -763.135; -584.756
521.425;  746.110; -251.125; -279.775
521.707; 1108.781; -622.127; -380.771
521.990; 3006.681; -199.127;  167.229
522.272; 3393.214; -116.140;   -4.748
522.554; 1510.173; -237.143; -157.742
522.836;  466.093;  -24.134;   99.241
523.119;  259.919; -496.148; -189.734
523.401;  231.842; -448.130; -314.766
523.683;  110.252; -865.137; -693.753
523.965;  475.343;  408.862;  260.248
524.247;  456.441;   54.878;  170.220
524.529;  311.696; -451.134; -367.759
524.812;  639.245;   -3.130;  191.234
525.094; 1435.042; -773.138; -631.751
525.376; 2263.923; -143.124;   78.223
525.658; 1399.462; -441.136; -339.754
525.940;   -0.073; -805.131; -671.764
526.222;   32.368; -188.136;  -88.755
526.504;  114.924; -190.131;   32.237
526.786;  108.100; -960.133; -647.760
527.068;  345.531; -124.123;  -67.778
527.349;   80.557; -865.137; -774.754
527.631;  152.913; -137.132;   22.238
527.913;  196.180; -664.127; -450.771
528.195;  220.300; -761.125; -639.774
528.477;  426.089;  -93.134;  -30.758
528.759;  201.545; -648.130; -522.766
529.040;  100.429; -569.123; -293.778
529.322;   98.004; -235.125;  -10.774
529.604;  181.148;  -47.130;   93.233
529.886;  116.391; -546.126; -302.773
530.167;  176.736;  232.870;  192.235
530.449;   90.628;    1.853;   63.265
530.731;    8.339; -572.122; -459.779
531.012;  102.070; -513.120; -216.784
531.294;  164.826; -118.116;  -43.792
531.575;  310.110;  290.875;  538.225
531.857;   83.481; -548.135; -266.757
532.138;  176.004; -113.141;   40.254
532.420;  254.176;  294.865;  403.244
532.701;  173.703; -722.133; -751.760
532.983;  493.808;  232.867;  182.239
533.264;  152.788; -243.126;  175.228
533.546;  -39.733; -491.136; -508.755
533.827;  107.498;  173.867;   -1.759
534.109;   18.881; -352.135;  -80.757
534.390;   94.919; -725.132; -582.762
534.671;  360.176; -270.135;  -82.756
534.953;  204.833; -751.123; -611.779
535.234;   54.105; -426.117; -255.789
535.515; -153.518; -891.119; -735.785
535.796;  -15.126; -431.128; -193.770
536.078; -226.177;-1050.124; -904.777
536.359;   47.734;  -22.123;    3.221
536.640;  -20.098; -480.125; -197.774
536.921;  255.756;  225.871;  143.232
537.202;  595.237;  -87.138;  -16.751
537.483;  813.232;  251.869;  377.236
537.764;  316.136;   17.870;   98.235
538.045;  -97.812; -543.134; -371.758
538.326;  -52.942; -596.129; -447.768
538.607;    6.482; -686.127; -476.771
538.888;  300.057;   98.879;    5.218
539.169;  293.249; -704.122; -535.781
539.450;  537.654;  236.871;   16.233
539.731;  331.362; -361.121; -182.783
540.012;  236.170;  199.880;  412.216
540.293;  172.715;   82.876;  158.224
540.574;  -20.244; -895.113; -717.796
540.855;  709.260;  435.879;  377.218
541.136;  855.845;   47.878;  139.220
541.416;  409.046; -161.130; -220.766
541.697;  313.825; -274.131; -170.763
541.978; 1709.679; -270.135; -315.757
542.259; 2160.182; -211.127; -236.771
542.539; 1117.117; -191.116; -186.790
542.820;  361.209;  461.875;  480.225
543.101;  186.250;  -52.145;  -77.738
543.381;   -9.719; -638.127; -591.771
543.662;  430.078;  159.873; -254.771
543.942;  906.575; -751.127; -830.770
544.223; 1776.847;  193.878;  161.219
544.504; 1124.022; -275.124; -182.777
544.784; 1001.391; -592.126; -408.773
545.065; 2686.023;  104.884; -254.791
545.345; 3142.082;  227.881;   14.215
545.626; 2142.955;  -14.113; -108.796
545.906; 1461.535;   77.869;   98.235
546.186;  613.697;   92.874;  -95.773
546.467;  370.926;   99.877;  -95.778
546.747;  558.817;  264.884;  327.210
547.027;  667.220;   91.876;  111.223
547.308;  534.074; -376.127; -530.770
547.588;  650.559;  299.871;  371.232
547.868;  387.037;  458.870;  588.235
548.149;  395.834;  609.885;  593.207
548.429;  209.679; -347.127; -299.771
548.709;  297.069; -645.120; -461.784
548.989;  816.896;   84.882;   88.213
549.269; 3666.111;   10.868;  139.239
549.550; 8089.332;  215.877;  117.222
549.830; 7238.581; -758.111; -556.799
550.110; 1475.292; -468.110; -320.801
550.390; 1348.040; -128.122;  -56.779
550.670; 1777.049; -868.114; -783.795
550.950; 1384.360; -509.121; -471.782
551.230;  370.954;  549.879;  460.218
551.510;   -1.842; -381.121; -326.782
551.790;   91.804; -173.109; -127.803
552.070;  515.626;  940.877; 1181.223
552.350;  678.388; -492.119; -377.786
552.630; 1001.251;   -2.121;   77.219
552.909;  667.424;  181.884;   73.209
553.189;  426.321;  -49.132;   33.237
553.469;  299.087; -703.119; -514.786
553.749;  273.784; -469.127; -357.772
554.029;  312.011;   33.883;  -24.790
554.308;  245.240; -154.115;  -37.794
554.588;  114.472; -196.128; -204.770
554.868;  126.661; -366.121;  -47.782
555.147;  293.836; -114.115;  -46.793
555.427; 1096.127; -260.116; -250.792
555.707; 6622.833; -284.115; -200.793
555.986; 7811.886; -719.111; -538.800
556.266; 4309.015;   23.884;   72.210
556.546;  194.058; -888.121; -675.782
556.825;  427.046; -657.114; -556.794
557.105; 3073.669; -125.128;   17.230
557.384; 3534.822;  122.884;  187.209
557.664; 1385.226; -717.116; -508.792
557.943;  194.160; -557.121; -411.782
558.222;  296.500; -345.118; -344.788
558.502;  468.138; -116.115;  -76.793
558.781;  853.031;  194.885;  499.208
559.061;  659.400; -232.118; -227.788
559.340;  547.907;  302.883;  353.211
559.619; 1204.715;   93.884;  148.210
559.899; 1691.710; -239.117; -266.789
560.178; 1621.037; -778.115; -593.793
560.457; 5397.112; -623.117; -562.790
560.736; 7138.288; -472.111; -482.800
561.015; 5015.166; -500.128; -502.769
561.295;  674.232;  180.893;  215.193
561.574;  541.933;  119.885;  116.207
561.853;  838.910;  274.891;  303.197
562.132;  865.041;  -45.114;  182.206
562.411;  772.151;  396.879;  553.219
562.690;  231.731; -592.115; -458.792
562.969;  298.566;  472.888;  630.203
563.248; 1005.148; 2966.878; 2487.219
563.527;  458.287; -290.111; -408.800
563.806;  607.479; -650.127; -521.771
564.085;  754.254; -297.105; -206.810
564.364;  388.514; -594.117; -405.790
564.643;  845.152; -276.121; -223.781
564.922; 3171.501;  221.890;  397.198
565.201; 3148.906; -640.109; -700.803
565.479; 1419.829; -297.115; -219.792
565.758;  498.270; -810.128; -712.770
566.037;  797.808; -155.109; -100.803
566.316;  393.222; -286.116;  -28.791
566.595;  113.633;  -17.115;  -12.793
566.873;  227.090; -166.111;  -79.801
567.152; -122.035; -490.113; -590.797
567.431;   44.317; -113.116;    6.210
567.709;   56.233; -344.107; -212.807
567.988;  417.846; -810.114; -769.794
568.266;  822.333; -160.115;  -68.793
568.545;  669.223; -644.100; -514.819
568.824; 1045.728;  160.885;  356.208
569.102;  909.245; -351.114; -235.794
569.381;  383.427; -492.116; -407.792
569.659;  -88.940; -553.113; -553.796
569.938;   82.445; -743.122; -465.780
570.216;  190.112; -225.109; -225.804
570.494;  -75.250; -632.114; -572.795
570.773;  129.058;  202.879;  114.218
571.051;   26.430; -373.123; -357.778
571.330;  133.456; -221.113; -174.796
571.608;   65.848; -181.098; -173.823
571.886; -143.621; -671.111; -581.799
572.164; -136.739; -739.121; -621.782
572.443;  -74.340; -562.105; -512.811
572.721;  -56.388; -399.117; -289.790
572.999;   -7.397; -280.117; -168.788
573.277;  191.650;  379.894;  620.191
573.555;  519.153;   94.894;   37.190
573.834; 2295.902;  -86.117; -114.788
574.112; 2717.536;  880.893;  811.193
574.390;  856.488; -143.111;  -96.801
574.668;   17.267;  -91.112;  -61.797
574.946;   -2.346; -165.106; -187.810
575.224;   11.106;   71.891;  -16.803
575.502;   -0.581; -200.116; -204.791
575.780; -162.532; -767.112; -829.798
576.058;  317.187; 1589.889; 1004.200
576.336;  -22.405; -210.110; -129.801
576.614;  -73.031; -511.112; -340.798
576.891;   61.539; -711.115; -823.794
577.169;  745.823; -158.108; -285.805
577.447;  975.935;  169.893;  202.193
577.725;  473.775;  629.888;  854.201
578.003;   59.972;  -71.112; -371.798
578.280;  162.873; -208.104; -242.812
578.558;   62.638; -450.115; -422.793
578.836;  180.550; -210.114; -145.795
579.114;   43.066; -630.112; -670.797
579.391;  103.205;   -6.117;  -18.789
579.669; -162.860; -595.114; -704.794
579.947;  315.231; -326.107; -127.806
580.224;  461.530; -692.107; -524.806
580.502;  549.336;  127.893;   76.193
580.779;   84.614;  -42.117;   75.210
581.057; -105.388; -584.109; -470.804
581.334; -173.306; -726.102; -695.815
581.612;   56.555;   54.895;  511.190
581.889;  -49.586;  -83.101; -129.818
582.167;  -46.666; -298.099; -190.821
582.444; -200.394; -845.102; -814.817
582.721;  255.307;  657.899;  715.183
582.999;  109.130; -326.100; -167.821
583.276;  893.136; -812.123; -713.779
583.553; 1168.199; -364.102; -294.816
583.831;  373.168; -607.104; -631.812
584.108;  170.020;  349.892;  174.195
584.385;   25.494; -122.102;  -98.815
584.662; -143.909; -651.111; -828.801
584.940;   92.089;  204.889;  204.199
585.217;  -30.541;  -73.113; -303.796
585.494;   94.702;   71.890;  118.198
585.771;  328.413; -250.109; -354.804
586.048;  802.959; -196.113;  -76.796
586.325;  488.794; -721.110; -773.801
586.602;  205.273;  230.896;  213.188
586.879;  -21.375; -499.100; -580.820
587.156;   96.456; -156.105; -331.810
587.433;  -79.597; -701.102; -667.817
587.710;  101.269;  152.888;  234.202
587.987;  513.964; -264.105; -236.811
588.264; 1305.472;  315.888;  387.202
588.541; 2286.077;  -61.104;   26.187
588.818; 4251.016;   72.892;  171.196
589.095; 3677.470; -163.104; -174.812
589.371;  594.510; -459.109; -414.804
589.648;    0.736; -581.107; -437.807
589.925;   14.551; -517.114; -621.795
590.202;   13.469; -741.112; -607.798
590.478;  150.466; -166.105;  -73.811
590.755;  494.225; -241.108; -132.806
591.032; 4090.397; -741.110; -699.802
591.308; 5416.307; -732.094; -790.831
591.585; 2880.897; -573.110; -560.802
591.862;  185.005;-1056.102; -950.817
592.138;  122.622; -475.108; -474.805
592.415;  226.575; -486.104; -495.813
592.691; 2451.771;  460.896;  518.188
592.968; 2908.451; -208.098; -123.824
593.244; 1466.017; -695.116; -595.790
593.521;  136.805; -105.102;  -42.817
593.797;  -33.858; -810.122; -720.780
594.074;  532.870; -611.096; -588.826
594.350; 1153.086;  828.905;  729.172
594.626;  520.491; -303.111; -283.801
594.903;  123.906; -643.101; -645.817
595.179;  331.180;  243.896;  418.187
595.455;   30.038; -136.107; -150.807
595.731;   23.982;  -19.103;  -38.814
596.008;  -51.918; -464.111; -434.800
596.284;   57.529; -187.100; -242.820
596.560;   76.816; -501.093; -493.833
596.836;  339.059; -173.105;  -70.810
597.112;  543.623; -582.108; -437.805
597.388;  505.667;  -49.097;  -48.826
597.665;  205.563;  437.887;  530.203
597.941; -123.241; -572.089; -658.839
598.217;   51.402; -323.110; -293.802
598.493;  463.615;   61.891; -204.804
598.769;  834.220; -175.100;  -50.819
599.045;  452.727; -490.108; -562.806
599.321;   86.627; -193.100; -261.820
599.597;  273.615; -355.109; -476.804
599.872;  812.977;  409.896;  429.187
600.148;  587.969;  -61.097; -172.826
600.424;  496.734;   91.893;  202.193
600.700;  406.237; -170.107; -280.807
600.976;  194.560; -442.097; -464.825
601.252;  438.210; -226.109; -272.803
601.527;  300.478; -833.104; -840.813
601.803;  235.367; -453.105; -404.812
602.079;  317.420; -124.100; -118.819
602.354;  925.030; -620.092; -531.835
602.630; 1347.959; -140.113; -482.796
602.906; 4038.214; -910.101; -863.818
603.181;10697.387; -627.119; -534.786
603.457; 9303.865;   98.903; -278.826
603.733; 1355.164; -605.120; -626.783
604.008; 1728.154; -245.106; -164.810
604.284; 4733.908; -636.101; -580.817
604.559; 4281.975;   -3.112;  -42.799
604.835;  802.959; -163.105; -225.810
605.110;  672.835; -732.099; -892.821
605.385; 1152.820;  224.907;  267.167
605.661; 1087.890; -625.095; -729.829
605.936; 1861.127; -664.108; -737.806
606.211; 1638.392;  -17.103; -170.815
606.487;  303.943; -329.114; -376.794
606.762;   22.988; -791.119; -745.786
607.037;  -36.841; -501.105; -433.810
607.313;  -68.120; -589.096; -574.828
607.588;   21.554; -375.106; -137.810
607.863;  103.413;  -28.101; -143.818
608.138;  356.200;  513.890;  516.198
608.413;   44.541; -576.099; -592.822
608.688;   77.422; -203.108; -267.805
608.964;  342.245; -509.106; -218.809
609.239;  381.455; -107.105; -212.810
609.514;  478.167;  281.895;  240.188
609.789; 1000.973; -187.104; -716.812
610.064; 1378.178; -435.096; -609.827
610.339; 1470.010; -855.109; -799.804
610.614; 1897.828; -131.100; -315.820
610.889; 1132.367;  215.895;  107.188
611.163;   30.368; -407.104; -591.812
611.438;  123.645;   81.886; -167.794
611.713;   16.508; -467.101; -499.817
611.988;  118.011; -144.101; -328.818
612.263;  -58.006; -771.102; -717.815
612.538;  434.358;  385.887;  251.204
612.812;  245.530; -832.100; -911.820
613.087;  223.448; -358.098; -338.823
613.362;  -94.462; -497.107; -557.807
613.637;   90.986;  261.897;  138.186
613.911;  -11.369; -256.092; -345.835
614.186;  222.035; -249.107; -292.807
614.460; 1068.667; -842.081; -758.854
614.735; 1254.892;  -55.087;  -17.843
615.010;  306.078;   43.912;  -82.841
615.284;  474.521;  360.892;  246.195
615.559;  524.729; -792.092; -955.835
615.833;  485.538;  -76.099;  -87.822
616.108;   29.447; -225.090; -390.837
616.382;  310.495;  274.913;  402.156
616.656;  287.647; -241.090; -232.837
616.931;  807.939; -785.099; -700.822
617.205; 1755.579; -973.104; -979.813
617.480; 1599.707;  -91.125;    6.225
617.754;  241.503; -396.125; -128.774
618.028;   43.860; -369.129; -382.768
618.302;  148.419;   73.892;  -25.805
618.577; -102.012; -371.103; -518.815
618.851; -104.895; -399.109; -600.803
619.125;  -63.004; -335.134; -378.759
619.399;  -32.621; -244.104; -374.813
619.673;  -73.472; -330.115; -515.792
619.947;  -66.551; -333.114; -448.795
620.222;   -4.208; -198.110; -204.801
620.496;   40.060;  -47.121;  -96.782
620.770;   51.548; -187.122;  -93.781
621.044;  373.256;  323.895;  346.190
621.318; 1177.964; -653.120; -614.783
621.592; 1064.561; -430.121; -409.783
621.866;  608.276; -476.112; -572.799
622.140;   57.419; -207.116; -356.791
622.413;  157.182;  138.889;  112.200
622.687;  -67.091; -746.101; -492.817
622.961;   80.119; -130.108; -143.805
623.235; -151.517; -633.111; -661.800
623.509; -214.534; -816.105; -848.811
623.783;   43.332;  -12.107;   48.193
624.056;  -10.034; -254.120; -280.783
624.330;  122.267;   63.888;   -3.797
624.604;  108.614; -271.116; -355.790
624.877;  146.398;  180.890;   26.198
625.151;  107.342; -249.114; -238.794
625.425;  -50.918; -150.103; -283.814
625.698;  -72.720; -367.119; -374.785
625.972; -173.798; -799.110; -765.802
626.245;  198.517;  685.884;  484.210
626.519;  -86.528; -426.120; -340.784
626.792;  -23.063; -192.107; -380.807
627.066; -122.362; -485.122; -662.779
627.339; -161.004; -736.110; -663.802
627.613;  130.670;  351.880;  148.216
627.886;  156.205;  187.891; -612.803
628.160;  -36.336;  312.880; -161.783
628.433; -162.789; -695.125; -703.775
628.706; -132.828; -517.120; -615.784
628.979;  109.120;  296.876;  117.223
629.253; -174.414; -785.119; -833.786
629.526;  669.288; -334.126; -253.772
629.799;  537.631; -641.123; -479.778
630.072;  244.663; -497.128; -516.769
630.346; -136.383;-1115.116;-1080.790
630.619;  750.939; -467.107; -545.808
630.892; 1092.084;  709.889;  593.200
631.165;  636.079;  790.896;  679.187
631.438; -160.528;-1092.112;-1055.798
631.711;  108.735;  453.877;  257.221
631.984;  -85.690; -523.117; -624.789
632.257;  -76.195; -636.117; -681.789
632.530;  -59.920; -412.119; -433.785
632.803;   61.739; -109.115;    7.207
633.076; -116.774; -360.123; -422.777
633.349;   72.268;  173.872;  121.231
633.622;  -69.022; -187.119; -240.785
633.895; -220.234; -903.120; -823.783
634.167; -115.209; -496.126; -525.773
634.440;   13.226;  -19.116; -137.792
634.713;   30.985;  -22.119; -120.786
634.986;  211.954;  593.871;  453.233
635.258; -144.364; -507.115; -597.793
635.531;  227.399;  742.882; -343.788
635.804;  -74.792; -303.117; -318.789
636.077; -159.979; -830.116; -852.791
636.349;  -39.266; -586.115; -474.793
636.622;  809.587; 1695.874; 1392.228
636.894;  394.472; -474.120; -909.784
637.167;  220.779; -836.127; -789.771
637.439;   81.773; -278.128; -213.770
637.712;  -58.510; -312.126; -293.772
637.984; -162.278; -635.116; -707.791
638.257;  724.726;  515.877;  488.222
638.529;  797.112; -881.125; -924.776
638.802;  374.862; -508.128; -449.769
639.074; -218.053; -927.122; -952.781
639.346; -245.316; -942.135; -930.757
639.619;   21.689;  -79.142; -319.744
639.891;   25.838;  -83.122; -168.779
640.163; -143.859; -689.122; -756.780
640.435;  105.743;  273.878;  103.220
640.708;   58.246;  -72.122; -132.780
640.980;  -67.451; -366.122; -362.781
641.252;  342.651;  -25.121;  -71.781
641.524; 2958.354;  580.879;  573.219
641.796; 2767.357;-1094.121; -907.782
642.068;  509.359; -191.121; -300.782
642.340; -113.838; -486.121; -566.783
642.613;  122.865;  294.880;  323.217
642.885; -153.433; -787.120; -878.783
643.157;  -77.030; -810.120; -658.784
643.428;  157.872;  170.880;  218.216
643.700;  -84.125; -498.120; -425.784
643.972;  -42.322;  -16.119; -133.785
644.244; -140.120; -474.119; -559.785
644.516;  -35.317; -250.119; -114.786
644.788;  178.086;  662.881;  548.214
645.060;    7.088;  -12.119; -124.786
645.332; -169.309; -525.118; -535.787
645.603;  103.494;  479.882;  342.213
645.875;  -89.904; -334.118; -369.787
646.147;  364.799; 1487.882; 1242.212
646.418; -113.398; -931.117; -918.788
646.690;  230.504; -714.117; -715.789
646.962;   71.007; -413.117; -451.789
647.233;   20.810;   15.883;   11.211
647.505; -135.288; -595.117; -475.790
647.776;  120.315;  328.884;  229.210
648.048;    8.918; -248.116; -418.790
648.320; -135.880; -752.116; -679.791
648.591; -261.677;-1055.116; -958.791
648.862; -139.874; -505.116; -577.792
649.134;   81.828;  115.885;  198.208
649.405; -103.469; -661.115; -618.792
649.677; -101.467; -475.115; -598.793
649.948;  -19.364; -181.115; -296.793
650.219;   16.639;  -37.115; -147.793
650.491; -140.859; -431.114; -520.794
650.762; -213.556; -705.114; -731.794
651.033; -106.853; -437.114; -424.795
651.304; -180.551; -743.114; -728.795
651.576; -139.848; -680.114; -645.795
651.847;  -30.145; -250.113; -140.796
652.118;   -2.543;  -32.113; -189.796
652.389; -166.640; -639.113; -722.796
652.660;  -25.037; -147.113;  -89.797
652.931; -219.535; -897.112; -871.797
653.202; -125.832; -382.112; -541.798
653.473; -125.729; -633.112; -533.798
653.744;  225.473; -595.112; -590.798
654.015;  262.776; -356.112; -303.799
654.286; -116.421; -642.111; -663.799
654.557;  -95.319; -586.111; -521.799
654.828; -266.216;-1114.111;-1088.800
655.099; -127.213; -404.111; -291.800
655.370; -148.011; -427.111; -543.801
655.641; -204.708; -656.110; -714.801
655.911; -184.406; -618.110; -638.801
656.182;  124.997;  437.890;  387.198
656.453;  268.200;  830.890;  746.198
656.724; -115.898; -466.110; -426.802
656.994; -131.295; -553.109; -568.803
657.265; -193.992; -862.109; -873.803
657.536; -129.490; -500.109; -377.804
657.806; -148.587; -561.109; -593.804
658.077; -223.584; -866.109; -950.804
658.347; -144.682; -523.108; -598.805
658.618; -191.679; -646.108; -694.805
658.888;  -15.676;  -41.108;  112.195
659.159; -136.774; -432.108; -548.806
659.429;  -18.571; -292.108; -349.806
659.700;   28.032; -435.107; -390.807
659.970;  -32.266; -370.107; -359.807
660.241;   -6.863; -754.107; -921.807
660.511;  769.340; -147.107; -174.808
660.781;  144.442; -793.106; -748.808
661.052;  -73.455; -222.106; -381.808
661.322;  -24.652;   21.894;   -9.809
661.592;   68.450;  257.894;  148.191
661.862; -114.947; -369.106; -382.810
662.133; -153.845; -551.105; -502.810
662.403; -205.242; -770.105; -676.810
662.673;  -76.339; -256.105; -213.811
662.943; -146.637; -612.105; -551.811
663.213;   20.366;  -85.105;  -81.811
663.483; -127.131; -593.104; -568.812
663.753;  -45.129; -194.104; -152.812
664.023;   21.874;   68.896;  -32.813
664.293;  -79.023; -319.104; -126.813
664.563; -202.221; -694.104; -648.813
664.833; -247.318; -743.103; -608.814
665.103; -236.415; -730.103; -793.814
665.373; -207.913; -766.103; -806.814
665.643; -160.810; -863.103; -918.815
665.913;   46.093; -534.103; -714.815
666.182;  236.195; -685.102; -719.816
666.452;  437.498;  -22.102;  -89.816
666.722;  -40.799; -724.102; -784.816
666.992; -243.797; -948.102; -921.817
667.261; -166.694; -824.102; -808.817
667.531;  354.608;  134.899;   45.183
667.801;  820.611; -440.101; -412.818
668.070;  491.614;  714.899;  697.182
668.340; -195.784; -883.101; -840.819
668.609;  191.019;  588.900;  301.181
668.879; -154.678; -490.100; -558.819
669.149; -116.576; -539.100; -516.820
669.418; -145.073; -698.100; -726.820
669.688;  -36.870; -482.100; -666.820
669.957;  140.432; -423.099; -546.821
670.226;  -52.265; -268.099; -331.821
670.496; -150.962; -431.099; -635.822
670.765; -126.360; -418.099; -501.822
671.034; -241.857; -872.099; -828.822
671.304;    2.946;   55.902; -111.823
671.573; -265.752;-1085.098; -957.823
671.842;  161.951; -380.098; -294.823
672.112;   32.054; -692.098; -586.824
672.381;    6.756; -239.098; -214.824
672.650; -227.141;-1005.097;-1021.825
672.919; -165.338; -631.097; -507.825
673.188; -142.236; -681.097; -878.825
673.457; -262.733;-1101.097;-1143.826
673.726; -133.231; -579.096; -646.826
673.995;  -60.828; -533.096; -479.826
674.265;  -25.825; -263.096; -333.827
674.534;   20.077; -183.096; -235.827
674.802;   31.880; -618.096; -703.828
675.071; 1771.883; -886.095; -801.828
675.340; 5983.485; -464.095; -339.828
675.609; 2092.488;  103.905;   82.171
675.878;   66.591; -949.095; -893.829
676.147;  113.693;  -26.095;   -8.829
676.416;  184.296; -210.094; -294.830
676.685; 1279.299; 1000.906; -622.830
676.953;  156.001; -603.094; -452.831
677.222;  -31.396; -193.094; -273.831
677.491;  -12.993;  -24.094; -127.831
677.759;   -3.891;   11.907;  172.168
678.028;   13.512; -279.093; -222.832
678.297;   34.415;   71.907;  197.168
678.565; -256.283; -898.093; -944.833
678.834;  -68.880; -311.093; -268.833
679.102; -124.177; -411.092; -391.834
679.371; -234.675; -898.092; -727.834
679.639; -232.072; -797.092; -786.834
679.908; -211.070; -794.092; -724.835
680.176; -259.867; -895.091; -941.835
680.445;  -87.164; -346.091; -352.835
680.713;   -5.862;  -58.091;  -23.836
680.982; -162.159; -523.091; -525.836
681.250; -174.356; -578.091; -507.837
681.518; -164.854; -534.090; -751.837
681.787;   -9.051; -204.090; -167.837
682.055;  -71.448; -490.090; -422.838
682.323; -277.546; -993.090; -992.838
682.591;  105.457; -216.090; -538.838
682.859;  194.960;    9.911;  -35.839
683.128;   96.062;  232.911;  497.161
683.396; -300.035;-1102.089;-1122.840
683.664;  -17.132; -241.089;   21.160
683.932;   48.770;  144.911;  -76.840
684.200; -110.627; -576.088; -320.841
684.468;   22.676;  -73.088; -124.841
684.736;  -49.222; -214.088; -175.841
685.004; -198.719;-1024.088; -982.842
685.272; -103.016; -880.088; -774.842
685.540;  -96.714; -499.087; -557.843
685.808; -138.511; -651.087; -682.843
686.076; -191.509; -894.087; -969.843
686.343; -127.506; -601.087; -815.844
686.611;   95.497; -195.087; -224.844
686.879;  851.099; -530.086; -553.844
687.147; 5129.702; -483.086; -480.845
687.414; 1464.405;  -12.086; -169.845
687.682;   -5.393; -658.086; -757.846
687.950;  546.310;  259.915;  263.154
688.217;    9.413; -792.085; -760.846
688.485;   31.115; -632.085; -636.847
688.753;  868.118;  -11.085; -102.847
689.020;  227.421; -820.085; -851.847
689.288; -165.577; -853.084; -787.848
689.555;  -13.874; -195.084; -148.848
689.823;  -68.771; -241.084; -345.849
690.090; -138.369; -546.084; -651.849
690.358; -291.266; -877.084; -897.849
690.625;   62.637;  120.917;   45.150
690.892;  -90.361; -403.083; -369.850
691.160;   29.542;   72.917;  -35.850
691.427;   76.645;  141.917;  130.149
691.694; -229.153; -855.083; -929.851
691.962; -244.750;-1177.082;-1060.852
692.229;   52.852;  127.918;   56.148
692.496;  157.955;  130.918;  -49.852
692.763;   67.858; -164.082; -201.853
693.031; -151.240; -739.082; -716.853
693.298;  -79.237; -509.081; -368.853
693.565;  593.266; -155.081; -163.854
693.832; 2062.068;   -5.081;   -9.854
694.099;  205.971; -643.081; -642.855
694.366;  -92.626; -882.081; -896.855
694.633; -138.224; -920.080; -633.855
694.900; 1570.879; 4367.920; -114.856
695.167;  675.682; -214.080; -380.856
695.434;  146.084; -646.080; -623.856
695.701;  363.787;  121.921;  -61.857
695.968;  697.090; -365.079; -361.857
696.234; 1720.192; -415.079; -646.858
696.501;15902.295; -776.079; -614.858
696.768; 7657.598; -554.079; -617.858
697.035;  476.900; -632.078; -667.859
697.302;   90.603; -448.078; -552.859
697.568;   68.506; -458.078; -497.859
697.835;  -68.892; -683.078; -624.860
698.102;   16.711; -498.078; -407.860
698.368;  214.913;  384.923;  396.139
698.635;  -18.084;  -47.077; -424.861
698.901;   12.919; -240.077; -348.861
699.168;  127.321; -534.077; -456.862
699.435;  162.824;  -72.077;  -13.862
699.701; -213.573; -868.076; -764.862
699.968;  -74.771;  144.924; -441.863
700.234; -154.368; -783.076; -822.863
700.500; -110.665; -448.076; -539.864
700.767;   28.437;   -1.075;   26.136
701.033; -257.460;-1015.075; -963.864
701.299;  -84.357; -450.075; -483.865
701.566;  272.745;  950.925;  763.135
701.832;   77.348;  -31.075;  -76.865
702.098; -182.049;-1054.074;-1034.866
702.365; -171.347;-1098.074;-1030.866
702.631;  -76.044;-1038.074;-1063.867
702.897; 2323.859; -765.074; -676.867
703.163; 3409.761;  348.926;  254.133
703.429;  253.664; -256.073; -273.868
703.695;  -87.933; -796.073; -792.868
703.961;   80.669; -214.073; -210.868
704.227;  -97.728; -630.073; -725.869
704.493;  316.974;  613.927;  510.131
704.759;  -50.923; -565.072; -540.870
705.025;   88.980; -203.072; -194.870
705.291;  -54.218; -666.072; -562.870
705.557;  390.885;  719.928;   34.129
705.823;   62.388; -742.072; -694.871
706.089;  242.190; -307.071; -326.871
706.355;  649.593; -315.071; -244.872
706.620; 8593.196; -776.071; -729.872
706.886;11119.398; -309.071; -362.873
707.152; 1019.501; -818.070; -973.873
707.418;  -80.796;-1153.070;-1186.873
707.683;   32.006; -550.070; -530.874
707.949;  -31.191; -547.070; -578.874
708.215;   53.112; -129.070; -207.874
708.480;  -21.686; -520.069; -420.875
708.746;  209.917;   68.931;   28.125
709.011;  -98.180; -578.069; -612.876
709.277; -114.278; -538.069; -543.876
709.542;  -64.075; -428.069; -387.876
709.808;   41.728;  -59.068;   89.123
710.073; -123.670; -577.068; -695.877
710.339;  -12.467; -242.068; -228.877
710.604;  128.135; -780.068; -845.878
710.869;  488.538; -277.068; -366.878
711.135; -124.459; -715.067; -628.879
711.400; -149.157; -507.067; -608.879
711.665;  -96.054; -404.067; -479.879
711.931; -163.151; -661.067; -677.880
712.196; -207.349; -876.067; -954.880
712.461;  189.254; -402.066; -490.880
712.726;  212.357; -727.066; -771.881
712.991; -139.841; -647.066; -664.881
713.256;  -43.238; -350.066; -332.882
713.521;  -90.935; -417.065; -381.882
713.787; -114.333; -454.065; -472.882
714.052;  -25.630; -214.065; -400.883
714.317; -212.127;-1045.065; -981.883
714.581; 1651.175; -374.065; -268.883
714.846; 1916.078; -822.064; -888.884
715.111;  263.281;  261.936;  257.116
715.376;   -2.617;  -86.064; -223.885
715.641;    0.986; -365.064; -367.885
715.906;  466.389;   15.936; -551.885
716.171;  273.891;  221.937;  209.114
716.436;   84.394;  -78.063; -104.886
716.700; -181.704; -818.063; -692.886
716.965; -197.801; -794.063; -807.887
717.230;  -95.598; -339.063; -392.887
717.494;   10.404;  -40.062; -134.888
717.759; -145.393; -784.062; -640.888
718.024;   73.810;  269.938;  250.112
718.288;  167.212;  685.938;  395.111
718.553; -254.285; -803.062; -977.889
718.817; -239.382; -883.061; -899.889
719.082;  -13.880; -115.061; -125.890
719.346; -246.377;-1000.061; -947.890
719.611;  -42.474; -300.061; -255.891
719.875; -161.872; -568.060; -537.891
720.140;  -87.169; -453.060; -603.891
720.404;   74.634; -136.060; -249.892
720.668; 1368.136; -475.060; -411.892
720.933;  547.539;  146.940;  137.108
721.197; -156.958; -667.059; -600.893
721.461; -230.556; -851.059; -826.893
721.725;    7.547;  -21.059; -250.894
721.990;  -62.551; -284.059; -204.894
722.254;   -4.548;  -26.059; -108.894
722.518;  -73.945; -286.058; -442.895
722.782; -141.443; -743.058; -594.895
723.046;  317.360;  614.942;  570.105
723.310;   74.363;  374.942;  210.104
723.574; -145.635; -654.058; -614.896
723.838; -148.332; -576.057; -642.897
724.102;  -46.429; -226.057; -239.897
724.366; -219.627;-1032.057; -978.897
724.630; -123.424; -749.057; -571.898
724.894; -111.821; -722.057; -514.898
725.158;   24.281;   38.944; -295.898
725.422;  -50.816; -394.056; -327.899
725.685;  -86.813; -441.056; -349.899
725.949; -137.311; -566.056; -519.900
726.213; -130.108; -732.056; -811.900
726.477;  240.495;-1020.055; -933.900
726.740;  254.697; -274.055; -104.901
727.004;  593.300; -384.055; -510.901
727.268; 5004.703; -442.055; -400.901
727.531; 1230.105; -961.055; -775.902
727.795;  -43.992; -713.054; -673.902
728.059; -104.890; -552.054; -557.903
728.322; -104.287; -841.054; -669.903
728.586;   65.416; -692.054; -701.903
728.849; -147.482; -695.053; -756.904
729.112; -211.779; -812.053; -912.904
729.376; -197.376; -959.053; -905.904
729.639;  -89.174; -536.053; -536.905
729.903; -157.571; -733.053; -699.905
730.166;  -39.468; -437.052; -399.906
730.429;   13.134; -317.052; -468.906
730.693; -101.063; -355.052; -894.906
730.956;  466.540;  810.948;  651.093
731.219; 1035.942; -310.052; -103.907
731.482;  187.845;-1003.051; -894.907
731.745;  138.748; -794.051; -935.908
732.009;   45.750;  -30.051;   50.092
732.272; -165.747; -904.051; -771.909
732.535;  -52.144; -300.051; -310.909
732.798; -284.042;-1083.050;-1166.909
733.061;  -79.539; -430.050; -456.910
733.324;   45.564;   31.950; -180.910
733.587;  179.166;  290.950;  365.090
733.850;  -99.631; -973.049;-1050.911
734.113;  103.671;   33.951;   32.089
734.376;   32.374; -328.049; -447.912
734.639;  483.877; 1188.951; 1011.088
734.901;  175.679; -180.049; -402.912
735.164;  860.882; -883.048; -837.913
735.427; 1955.285; -166.048; -355.913
735.690;  223.087; -205.048; -234.913
735.952;  -80.910; -923.048; -925.914
736.215;  -66.607;-1113.048;-1009.914
736.478;   49.095; -771.047; -774.915
736.740;  375.898;   33.953;  129.085
737.003; 1257.001; -658.047; -672.915
737.266; 6303.203;  -94.047;   46.084
737.528;  634.006; -682.047; -660.916
737.791;  511.509; -316.046; -327.916
738.053; 1469.811;  465.954;  649.083
738.316;17462.814; -162.046; -136.917
738.578;10540.617; -770.046; -736.918
738.841;  743.119; -382.046; -446.918
739.103;  305.522; -875.045; -777.918
739.365;  811.925;   79.955;  -69.919
739.628;  -29.073; -884.045; -805.919
739.890;  -13.770; -758.045; -710.919
740.152;  -62.368; -692.044; -754.920
740.414;  -22.365; -408.044; -359.920
740.677;  -58.362; -785.044; -634.921
740.939;  -20.360; -587.044; -487.921
741.201;  425.843; -432.044; -572.921
741.463;   70.346; -689.043; -745.922
741.725;   71.048;  -21.043; -199.922
741.987;  153.251;  220.957;  116.078
742.249;   -4.546; -751.043; -859.923
742.511;  350.956; -703.043; -794.923
742.773;   46.059; -546.042; -546.924
743.035;  292.462;  796.958;  533.076
743.297;  -63.436; -963.042;-1013.924
743.559; 1181.267; -278.042; -262.925
743.821;   34.470; -735.042; -744.925
744.083;   -0.828;  -44.041; -149.925
744.345; -149.425; -869.041; -892.926
744.607;  166.278;   75.959;  122.074
744.868; -116.820; -490.041; -554.927
745.130; -172.717; -994.041;-1008.927
745.392;  104.486;   -1.040;  -44.927
745.653;  -17.512; -411.040; -378.928
745.915;  353.991;  896.960;  631.072
746.177;  137.693;   35.960;  -43.928
746.438;  -41.904; -428.040; -543.929
746.700;  -75.401; -947.039; -988.929
746.961;   -0.499; -659.039; -740.930
747.223;  248.704; -190.039;  -74.930
747.484;  161.307; -391.039; -471.930
747.746;  299.409;  -23.038; -106.931
748.007;  144.612; -647.038; -689.931
748.269;  516.915; -468.038; -440.931
748.530;  777.517; -852.038; -638.932
748.791;  456.020; -354.038; -420.932
749.053;  791.923;  286.963;  163.067
749.314;  742.225; -236.037; -169.933
749.575;  747.528; -945.037; -905.933
749.836; 1367.031; -217.037;   86.066
750.098; 4542.033;  -60.037;  -21.934
750.359;56314.636;  414.964;  555.066
750.620;12766.539; -121.036; -220.935
750.881; 1644.141; -585.036; -513.935
751.142; 2245.144; -950.036; -938.936
751.403;26967.147; -789.036; -705.936
751.664; 9993.049;-1034.035; -999.936
751.925;  848.052; -175.035; -262.937
752.186;  514.754; -298.035; -278.937
752.447;  245.857; -590.035; -445.937
752.708;   79.160; -532.035; -648.938
752.969;   53.862; -566.034; -576.938
753.230;    9.065; -777.034; -672.939
753.491;   13.368; -650.034; -631.939
753.751;  168.270;  109.966;   19.061
754.012;  186.273;  258.967;  181.060
754.273;  133.876; -174.033;  -71.940
754.534;   -9.922; -487.033; -580.940
754.794; -151.619; -926.033; -911.941
755.055;  353.984; 1051.967;  881.059
755.316;  -82.914; -700.032; -566.942
755.576;  -53.211; -606.032; -576.942
755.837;  -43.208; -527.032; -695.942
756.097;  -34.606; -530.032; -564.943
756.358;  -78.703; -725.032; -770.943
756.618;  -68.400; -705.031; -641.943
756.879;   15.902; -254.031; -349.944
757.139; -221.095;-1098.031;-1116.944
757.400;  -96.092; -538.031; -553.945
757.660;    6.210; -365.031; -401.945
757.920;   61.413; -266.030; -228.945
758.181;   -3.885; -468.030; -351.946
758.441; -154.282; -870.030; -809.946
758.701;  -19.179; -308.030; -215.946
758.961;   10.823; -220.030; -278.947
759.222;  -61.274; -574.029; -502.947
759.482; -143.571; -683.029; -723.948
759.742; -104.269; -706.029; -547.948
760.002;   78.734;  -83.029; -143.948
760.262;   93.937;   50.972;  182.051
760.522;  -80.261; -498.028; -574.949
760.782;  -76.958; -738.028; -612.949
761.042;   -2.355; -618.028; -573.950
761.302;  126.347;   55.972;  -18.950
761.562;  149.050; -164.027; -154.951
761.822;  130.053; -710.027; -551.951
762.082;  -83.845;-1104.027;-1093.951
762.342;  109.958; -328.027; -403.952
762.601;  140.761; -567.027; -506.952
762.861;  587.763; -281.026; -207.952
763.121;  729.766; -406.026; -411.953
763.381;12844.469; -499.026; -485.953
763.640;11616.171; -139.026; -307.954
763.900;  595.174; -242.026; -203.954
764.160;  158.176; -458.025; -491.954
764.419;   13.979; -726.025; -782.955
764.679; -125.818; -795.025; -726.955
764.939;   47.784; -124.025; -210.955
765.198;  -91.713; -608.025; -563.956
765.458; -120.110; -710.024; -612.956
765.717; -146.708; -454.024; -590.957
765.976;  -46.905; -428.024; -411.957
766.236; -126.302; -475.024; -610.957
766.495;   95.700;  260.977;   73.042
766.755; -166.397;-1090.023; -987.958
767.014;   18.606; -594.023; -665.958
767.273;  -60.292; -373.023; -397.959
767.533;  -31.789; -228.023; -307.959
767.792;   -0.486; -151.022; -188.960
768.051;  -61.684; -228.022; -276.960
768.310; -112.381; -546.022; -650.960
768.569;   39.422; -161.022;    4.039
768.828;  -30.876; -285.022; -363.961
769.088; -205.873;-1050.021; -942.961
769.347; -124.870; -755.021; -599.962
769.606; -163.768; -876.021; -857.962
769.865; -216.365;-1016.021;-1033.963
770.124;   27.037; -411.021; -336.963
770.383;  -47.260; -778.020; -910.963
770.641;    7.843; -398.020; -400.964
770.900; -156.155; -953.020; -846.964
771.159;  -84.252; -851.020; -951.964
771.418;  -69.149; -917.020; -779.965
771.677;  248.253; -224.019; -293.965
771.936;  165.756; -794.019; -865.966
772.194; 4103.059; -465.019; -437.966
772.453;15671.261; -213.019; -391.966
772.712; 1163.964;  416.982;  329.033
772.970;  261.967;   32.982;   63.033
773.229;  194.069;  -22.018;  102.033
773.488; -157.328; -814.018; -770.968
773.746;  172.875;  296.982;  335.032
774.005;   57.777;  190.983;  -22.969
774.263;   73.580;  243.983;  177.031
774.522; -127.417; -422.017; -548.969
774.780; -108.615; -484.017; -417.970
775.039; -127.712; -551.017; -531.970
775.297;   31.190; -135.016; -351.970
775.555; -166.107; -489.016; -612.971
775.814; -191.604; -618.016; -570.971
776.072; -179.302; -749.016; -740.971
776.330; -159.099; -630.016; -520.972
776.589; -204.396; -703.015; -721.972
776.847; -197.494; -645.015; -624.973
777.105; -290.191;-1016.015;-1032.973
777.363;  -97.088; -459.015; -454.973
777.621; -249.586; -660.015; -717.974
777.879;   -2.283;  -42.014;   32.026
778.138; -143.780; -554.014; -717.974
778.396; -161.878; -585.014; -526.975
778.654; -287.875;-1015.014; -970.975
778.912;  -87.272; -269.014; -371.976
779.170; -216.270; -880.013; -803.976
779.427; -233.767; -922.013; -897.976
779.685; -240.664; -880.013; -832.977
779.943; -141.162; -654.013; -593.977
780.201; -271.659; -964.012; -883.978
780.459; -160.856; -651.012; -610.978
780.717; -101.854; -440.012; -390.978
780.974; -151.851; -449.012; -490.979
781.232; -103.049; -358.012; -338.979
781.490; -119.546; -551.011; -472.979
781.747; -145.843; -555.011; -476.980
782.005;  128.159;  462.989;  254.020
782.263; -276.538; -542.011;-1004.981
782.520; -120.435; -326.011; -501.981
782.778; -284.433;-1013.010;-1051.981
783.035; -284.930; -962.010; -938.982
783.293;  -99.227; -248.010; -206.982
783.550;  -54.725; -134.010; -198.982
783.808; -221.822; -764.010; -776.983
784.065; -255.719; -745.009; -874.983
784.322;  -36.517;   25.991;  -86.984
784.580; -241.114; -915.009; -771.984
784.837; -171.911; -392.009; -466.984
785.094; -177.309; -783.009; -762.985
785.352; -116.506; -304.008; -404.985
785.609; -173.903; -934.008; -839.985
785.866;  -74.001; -345.008; -401.986
786.123;  -81.598; -639.008; -583.986
786.380; -165.595; -665.008; -604.987
786.637;  -15.793; -225.007; -380.987
786.895;   -9.690; -456.007; -543.987
787.152;    6.512; -135.007; -267.988
787.409;  -37.085; -123.007; -225.988
787.666; -110.582; -299.006; -378.988
787.923; -156.080; -616.006; -695.989
788.179; -135.577; -551.006; -584.989
788.436; -159.074; -585.006; -585.990
788.693;  -13.772;  -92.006;  -87.990
788.950;  321.931; -125.005; -112.990
789.207;  325.334; -381.005; -372.991
789.464;  -60.364; -161.005; -301.991
789.720;   41.339;  150.995;  110.009
789.977; -259.858;-1003.005; -671.992
790.234;   12.144;   44.996;  -66.992
790.490; -257.653; -884.004;-1031.993
790.747;   15.850;  -85.004;   22.007
791.004;   -8.048; -426.004; -348.993
791.260; -109.745; -430.004; -560.994
791.517; -162.342; -843.003; -788.994
791.773;  -44.440; -379.003; -342.994
792.030; -173.937; -596.003; -660.995
792.286; -148.734; -686.003; -636.995
792.543;   41.468;  -74.002; -159.995
792.799;  -57.629; -584.002; -382.996
793.055; -276.127;-1179.002;-1210.996
793.312; -138.224; -827.002; -816.997
793.568;  -77.021; -746.002; -599.997
793.824;   33.781; -226.001; -284.997
794.081;   42.684; -447.001; -508.998
794.337;  129.387; -664.001; -561.998
794.593; 2684.489; -319.001; -271.999
794.849; 9832.692; -746.001; -772.999
795.105;  466.195; -270.000; -261.999
795.361;   26.097; -490.000; -457.000
795.617;  -94.800; -875.000; -945.000
795.873;  -48.600; -360.000; -407.000
796.129;  -27.200; -368.000; -306.000
796.385;   23.400; -124.000; -156.000
796.641;  216.600;  412.000;  550.000
796.897; -123.200; -666.000; -635.000
797.153;  194.400;  453.000;  357.000
797.409; -168.700; -785.000; -868.000
797.665; -110.600; -625.000; -732.000
797.921; -134.900; -775.000; -762.000
798.176; -102.100; -744.000; -747.000
798.432;  -93.400; -824.000; -596.000
798.688; -159.600;-1174.000;-1078.000
798.943;  183.600; -165.000; -147.000
799.199;  -74.000;-1005.000; -959.000
799.455;  429.000;  369.000;  316.000
799.710;  155.900; -813.000; -380.000
799.966;  470.700; -162.000; -160.000
800.221;  732.500; -638.000; -721.000
800.477;17709.700; -743.000; -710.000
800.732;12117.000; -773.000; -800.000
800.988; 1006.100;  205.000;  -19.000
801.243; 3274.700; -454.000; -344.000
801.498;10645.700; -814.000; -739.000
801.754;  587.500; -289.000; -163.000
802.009;  136.100; -257.000; -335.000
802.264;  -95.800; -967.000;-1033.000
802.520;   90.500;  222.000;   -3.000
802.775;  -80.800; -524.000; -359.000
803.030;  182.200;  395.000;  356.000
803.285; -178.000; -840.000; -903.000
803.540;  -91.400; -686.000; -699.000
803.795;  -59.000; -648.000; -583.000
804.051;  -35.300; -279.000; -346.000
804.306;  111.500;  168.000;  128.000
804.561;  304.000;  451.000;  362.000
804.816;  334.800;  714.000;  861.000
805.071;  101.900; -185.000; -280.000
805.325;  353.700; -257.000; -427.000
805.580; -185.800; -841.000; -877.000
805.835;   11.900; -204.000; -297.000
806.090;  -94.300; -760.000; -676.000
806.345;   -4.100; -344.000; -264.000
806.600;   -2.500; -549.000; -632.000
806.854;  -49.200; -408.000; -538.000
807.109;   42.200; -493.000; -577.000
807.364;   49.400; -407.000; -328.000
807.618;   40.700; -415.000; -381.000
807.873;  102.500; -470.000; -494.000
808.128;  207.500; -257.000; -518.000
808.382;  224.300; -224.000; -332.000
808.637;  147.100; -440.000; -511.000
808.891;  336.300; -257.000; -180.000
809.146;  206.900; -902.000; -794.000
809.400;  395.000; -848.000; -923.000
809.654;  536.600; -779.000; -551.000
809.909;  751.500; -841.000; -927.000
810.163;12722.700; -813.000; -651.000
810.418;25098.300; -940.000; -861.000
810.672; 1525.500; -685.000; -690.000
810.926; 1096.100; -993.000; -973.000
811.180; 2375.700; -439.000; -372.000
811.434;50198.000;  240.000;  135.000
811.689;15443.500; -231.000; -365.000
811.943;  887.300; -936.000; -953.000
812.197;  482.900; -893.000; -671.000
812.451;  222.900; -379.000; -514.000
812.705;   -4.800; -809.000; -619.000
812.959;  -77.300; -263.000; -388.000
813.213;   49.600; -283.000; -209.000
813.467;  203.900;  470.000;  253.000
813.721; -152.600; -764.000; -792.000
813.975; -204.000; -826.000; -877.000
814.229;  151.500;  430.000;  353.000
814.482;  -92.800; -517.000; -566.000
814.736; -174.300; -766.000; -744.000
814.990; -176.300; -779.000; -872.000
815.244;  -32.200; -228.000; -285.000
815.497; -159.600; -636.000; -601.000
815.751;    8.800; -141.000;   82.000
816.005; -119.100; -470.000; -586.000
816.258;  -50.500; -510.000; -363.000
816.512; -182.200; -693.000; -610.000
816.766;   70.900;  121.000;  157.000
817.019;   77.300;  148.000;  149.000
817.273; -204.500;-1000.000; -802.000
817.526;   23.400; -206.000; -173.000
817.779;  -31.400;-1049.000; -960.000
818.033; -113.000; -693.000; -807.000
818.286; -215.800; -725.000; -792.000
818.540; -119.000; -403.000; -403.000
818.793;  -98.200; -402.000; -489.000
819.046; -158.700; -582.000; -520.000
819.299;    5.200; -157.000; -166.000
819.553; -165.600; -552.000; -592.000
819.806; -273.100;-1016.000; -838.000
820.059;  -63.800; -334.000; -354.000
820.312;   62.600;  152.000;  185.000
820.565;   40.600;  110.000;  -27.000
820.818;  -31.500;  -59.000; -173.000
821.071; -272.100;-1041.000; -957.000
821.324; -142.400; -536.000; -540.000
821.577; -140.100; -457.000; -483.000
821.830;  -74.600; -270.000; -172.000
822.083; -219.600; -733.000; -288.000
822.336;  -14.500; -261.000; -167.000
822.589; -247.800; -805.000; -688.000
822.842; -253.400; -875.000; -770.000
823.094; -312.500;-1076.000;-1114.000
823.347; -241.400; -925.000; -729.000
823.600;   86.500;  402.000;  187.000
823.853;  -63.700; -311.000; -267.000
824.105; -102.200; -331.000; -575.000
824.358; -189.900; -617.000; -716.000
824.611;   73.500;  234.000;   40.000
824.863;  -82.300; -612.000; -591.000
825.116;  122.800;  -33.000;   27.000
825.368;  153.300; -366.000; -372.000
825.621;  284.200; -186.000; -240.000
825.873;  132.100; -704.000; -737.000
826.126; 1151.700; -669.000; -641.000
826.378;18890.200; -389.000; -505.000
826.630; 3324.300; -890.000; -898.000
826.883;   43.900; -754.000; -693.000
827.135;  122.600; -279.000; -270.000
827.387; -172.200; -893.000; -839.000
827.639;    4.800;  -86.000;   32.000
827.892; -184.500; -742.000; -582.000
828.144; -221.600; -848.000; -804.000
828.396;   -1.500;  104.000;  -80.000
828.648; -150.400; -440.000; -333.000
828.900; -217.500; -702.000; -795.000
829.152; -153.700; -684.000; -683.000
829.404;  -84.500; -215.000; -267.000
829.656;  -28.400;  321.000;  214.000
829.908;   48.500;  393.000;  229.000
830.160; -275.000;-1064.000;-1047.000
830.412; -123.200; -481.000; -430.000
830.664; -180.900; -557.000; -665.000
830.916; -110.100; -268.000; -206.000
831.167; -302.300;-1073.000; -951.000
831.419; -136.000; -623.000; -566.000
831.671; -245.800; -764.000; -809.000
831.923;  -80.500; -311.000; -447.000
832.174;  -89.600; -273.000; -331.000
832.426; -178.700; -493.000; -582.000
832.678; -333.600;-1043.000;-1091.000
832.929; -248.400; -947.000; -935.000
833.181;  -97.700; -575.000; -677.000
833.432;  -40.200;  -59.000; -186.000
833.684;   32.600;  112.000;  -27.000
833.935; -182.400; -610.000; -566.000
834.187; -210.700; -829.000; -823.000
834.438;  -35.400;  -58.000;  -25.000
834.689;  -60.600; -255.000; -123.000
834.941;  -46.200; -343.000; -244.000
835.192; -144.700; -590.000; -533.000
835.443; -115.300; -419.000; -506.000
835.695;   42.300;  138.000;  -16.000
835.946; -107.700; -608.000; -378.000
836.197; -155.400; -599.000; -622.000
836.448; -112.000; -528.000; -395.000
836.699;  -63.300; -253.000; -341.000
836.950;    1.600;   72.000;    7.000
837.201; -259.900;-1003.000; -987.000
837.452;  -35.500; -356.000; -170.000
837.703; -171.400; -791.000; -737.000
837.954;  -25.800; -205.000; -365.000
838.205; -153.900;-1029.000;-1008.000
838.456;  275.700; -196.000; -282.000
838.707;   28.200; -423.000; -519.000
838.958;   48.100; -634.000; -647.000
839.209;  496.400;   18.000;   40.000
839.460;  210.600; -439.000; -201.000
839.710;  342.300; -135.000; -297.000
839.961;  752.700;  730.000;  612.000
840.212;  560.800; -382.000; -497.000
840.462; 2007.400; -328.000; -277.000
840.713;30079.700; -571.000; -536.000
840.964; 9107.000;  -62.000; -143.000
841.214;  794.100; -384.000; -624.000
841.465;  987.100; -214.000; -141.000
841.715;  821.700; -417.000; -380.000
841.966; 1152.000; -746.000; -685.000
842.216;18005.600; -330.000; -431.000
842.466;51138.900; -169.000; -313.000
842.717; 1992.500; -964.000; -952.000
842.967;  535.300; -635.000; -641.000
843.217;  465.800;   20.000;   28.000
843.468;  189.000; -104.000; -132.000
843.718;  -17.600; -718.000; -726.000
843.968; -126.400; -837.000; -765.000
844.218;   70.800; -315.000; -262.000
844.469;  -29.700; -577.000; -561.000
844.719; -164.500; -537.000; -682.000
844.969; -123.900; -550.000; -580.000
845.219; -225.200; -814.000; -862.000
845.469;  -88.400; -392.000; -342.000
845.719; -203.600; -792.000; -884.000
845.969;   75.800;  119.000;  174.000
846.219; -180.400; -738.000; -720.000
846.469;  106.700;  464.000;  432.000
846.718;  -16.300; -115.000;   31.000
846.968; -199.500; -827.000; -827.000
847.218;  -35.300; -224.000; -371.000
847.468; -167.600; -586.000; -555.000
847.718; -219.500; -827.000; -798.000
847.967; -248.100; -826.000; -915.000
848.217; -113.300; -449.000; -569.000
848.467;  -75.200; -405.000; -376.000
848.716; -169.500; -708.000; -725.000
848.966;   42.200; -372.000; -358.000
849.215;  -57.500; -428.000; -419.000
849.465; -130.500; -785.000; -615.000
849.714; -261.400;-1132.000;-1150.000
849.964; -124.200; -551.000; -613.000
850.213;  -27.100; -393.000; -355.000
850.463;  188.200;  137.000;  340.000
850.712;  -25.700; -542.000; -567.000
850.961;   20.800; -739.000; -678.000
851.211;  164.100; -513.000; -504.000
851.460;  252.300; -635.000; -650.000
851.709; 1019.400;  -25.000;   18.000
851.958;18348.800; -912.000; -750.000
852.208;16821.500; -859.000; -879.000
852.457;  664.800; -181.000;  -13.000
852.706;   75.600; -791.000; -823.000
852.955;   24.400; -507.000; -528.000
853.204;  -92.600; -521.000; -461.000
853.453; -106.100; -418.000; -458.000
853.702; -189.700; -660.000; -750.000
853.951; -147.600; -532.000; -520.000
854.200; -186.400; -613.000; -562.000
854.449; -191.800; -695.000; -661.000
854.698; -128.100; -340.000; -279.000
854.946;  -62.100; -181.000; -284.000
855.195; -256.000; -843.000; -868.000
855.444; -110.200; -395.000; -420.000
855.693; -179.600; -345.000; -432.000
855.941; -152.700; -387.000; -516.000
856.190;  -25.300; -256.000; -382.000
856.439; -170.600; -652.000; -703.000
856.687;  -41.700;  -99.000;  -72.000
856.936; -187.100; -621.000; -323.000
857.184; -328.200;-1067.000;-1020.000
857.433; -160.400; -423.000; -512.000
857.681; -248.400; -989.000; -953.000
857.930;  -90.100; -282.000; -433.000
858.178; -277.200; -856.000; -929.000
858.427; -262.000; -802.000; -781.000
858.675; -173.600; -377.000; -544.000
858.923; -156.400; -527.000; -819.000
859.172; -303.700;-1094.000;-1070.000
859.420; -124.900; -339.000; -239.000
859.668; -209.900; -624.000; -628.000
859.916;   16.600;  109.000;  115.000
860.164; -199.300; -699.000; -603.000
860.413;  576.400; -878.000; -696.000
860.661;  237.000; -709.000; -577.000
860.909;  -99.000; -339.000; -325.000
861.157; -123.100; -277.000; -444.000
861.405; -190.600; -534.000; -670.000
861.653;  111.100;  310.000;  310.000
861.901;  359.500; -543.000; -613.000
862.149;  -50.800; -801.000; -824.000
862.396;  -95.300; -297.000; -187.000
862.644; -124.400; -368.000; -347.000
862.892;   -0.400;   98.000;  138.000
863.140; -166.700; -549.000; -530.000
863.388; -235.600; -815.000; -759.000
863.635; -175.000; -642.000; -601.000
863.883;   51.900;  231.000;  190.000
864.131; -116.300; -288.000; -357.000
864.378; -186.500; -675.000; -540.000
864.626; -149.500; -347.000; -415.000
864.873; -185.000; -556.000; -505.000
865.121; -218.700; -714.000; -799.000
865.368;  -26.800; -173.000;   75.000
865.616;   25.400;  -33.000;  -40.000
865.863;  -79.200; -462.000; -506.000
866.111; -181.200; -795.000; -824.000
866.358;   82.800; -426.000; -420.000
866.605; 3931.500;  -64.000; -804.000
866.853; 2881.500; -621.000; -537.000
867.100;  -77.700; -728.000; -775.000
867.347; -123.100; -672.000; -611.000
867.594; -123.200; -740.000; -714.000
867.841;  183.900;   97.000;   17.000
868.089; -255.700; -746.000; -698.000
868.336; -139.900; -477.000; -420.000
868.583; -224.200; -637.000; -741.000
868.830;  -56.500; -131.000; -170.000
869.077; -273.000; -859.000; -787.000
869.324; -185.100; -502.000; -458.000
869.571; -187.100; -398.000; -430.000
869.818; -184.000; -485.000; -439.000
870.065; -152.600; -439.000; -513.000
870.311; -142.000; -456.000; -542.000
870.558; -149.400; -332.000; -311.000
870.805; -121.800; -320.000; -384.000
871.052; -144.800; -494.000; -369.000
871.298;  -31.600; -204.000; -131.000
871.545;  -89.800; -151.000; -185.000
871.792;  -83.500; -173.000; -222.000
872.038;  -75.700;   43.000; -126.000
872.285; -189.200; -496.000; -387.000
872.532; -136.500; -357.000; -387.000
872.778;   99.700;  556.000;  403.000
873.025; -149.100; -384.000; -359.000
873.271;  117.700;  501.000;  578.000
873.517;  -10.200; -133.000; -209.000
873.764;   -4.200; -193.000;  -80.000
874.010;  -70.700; -143.000; -230.000
874.257;  -10.100;  123.000;   90.000
874.503; -218.500; -579.000; -479.000
874.749;  -65.400;   31.000;  275.000
874.995;  -68.200;  -80.000;  -20.000
875.242; -173.100; -540.000; -478.000
875.488; -154.500; -414.000; -439.000
875.734;  -28.400; -106.000; -234.000
875.980;  432.200; -872.000;-1032.000
876.226;  528.300; -157.000; -255.000
876.472;   62.800;  343.000;  237.000
876.718;   29.900;  184.000;  158.000
876.964;   -0.200;   56.000;   55.000
877.210; -200.800; -547.000; -677.000
877.456; -193.900; -630.000; -557.000
877.702; -298.700; -821.000; -832.000
877.948; -144.000; -377.000; -497.000
878.193;   85.100;  361.000;  255.000
878.439; -103.100; -487.000; -472.000
878.685; -131.300; -272.000; -343.000
878.931; -191.300; -618.000; -676.000
879.176;  -93.400; -201.000; -201.000
879.422; -311.400; -933.000; -820.000
879.668;  152.000;   10.000;   79.000
879.913;  294.300;   53.000;  137.000
880.159;  -55.800; -112.000;  -17.000
880.404;  -41.300; -152.000; -162.000
880.650;    2.100;   91.000;  141.000
880.895; -266.500; -670.000; -710.000
881.141; -146.900; -454.000; -428.000
881.386; -260.100; -503.000; -658.000
881.631; -133.500; -311.000; -166.000
881.877;    3.600;  112.000;  -13.000
882.122; -217.400; -684.000; -600.000
882.367;  -85.700; -136.000; -186.000
882.612;  -44.300;  -80.000; -176.000
882.858; -277.600; -877.000; -823.000
883.103; -135.200; -297.000; -267.000
883.348; -257.200; -759.000; -852.000
883.593; -214.700; -677.000; -602.000
883.838;  -25.200; -311.000;  -24.000
884.083;  125.200;  353.000;  288.000
884.328; -153.600; -564.000; -545.000
884.573;  -45.600; -196.000; -143.000
884.818;  384.300; -694.000; -531.000
885.063;  238.200; -348.000; -315.000
885.308; -113.100; -475.000; -398.000
885.553;   70.100;  245.000;  325.000
885.797; -217.300; -545.000; -615.000
886.042;  -36.900;    8.000;   58.000
886.287; -129.500; -253.000; -211.000
886.532;  -31.700;   26.000;  204.000
886.776; -156.600; -407.000; -525.000
887.021; -217.300; -621.000; -574.000
887.265; -249.300; -685.000; -689.000
887.510; -174.400; -557.000; -496.000
887.755; -120.400; -194.000; -164.000
887.999; -215.400; -552.000; -575.000
888.244;  -51.000;  -58.000;  161.000
888.488;  108.600;  371.000;  393.000
888.732; -201.100; -368.000; -520.000
888.977; -209.000; -622.000; -567.000
889.221; -263.200; -683.000; -659.000
889.465; -165.700; -422.000; -566.000
889.710;  -65.900;  -56.000; -299.000
889.954;   97.900;  579.000;  467.000
890.198; -234.100; -584.000; -707.000
890.442; -225.300; -716.000; -712.000
890.687; -258.500; -800.000; -753.000
890.931; -110.100; -273.000; -210.000
891.175; -185.900; -502.000; -500.000
891.419;  -74.900; -105.000; -110.000
891.663; -122.600; -239.000; -112.000
891.907; -262.300; -801.000; -545.000
892.151; -286.100; -920.000; -815.000
892.395; -135.700; -274.000; -387.000
892.638;   59.400;  408.000;  291.000
892.882; -305.300; -780.000; -867.000
893.126;  137.900;  758.000;  558.000
893.370; -106.800; -167.000; -168.000
893.614; -235.000; -714.000; -715.000
893.857; -102.100; -183.000; -197.000
894.101; -206.700; -527.000; -631.000
894.345;  -41.300;  300.000;  150.000
894.588;   94.200;  569.000;  380.000
894.832;  -77.100; -178.000;  -84.000
895.075;  -84.100;   15.000;  -92.000
895.319; -198.000; -552.000; -420.000
895.563; -171.600; -413.000; -353.000
895.806; -251.100; -628.000; -741.000
896.049;  -80.400; -576.000; -368.000
896.293;  252.500;  527.000;  405.000
896.536; -111.000; -465.000; -468.000
896.779;  -63.300; -149.000;   -1.000
897.023; -247.500; -751.000; -714.000
897.266;   17.900;  325.000;  269.000
897.509; -316.600; -900.000; -901.000
897.752;    8.400;  149.000;  171.000
897.996; -329.300; -972.000; -864.000
898.239;    0.100;  168.000;  102.000
898.482; -203.000; -431.000; -453.000
898.725;   23.300;  101.000;   53.000
898.968; -232.100; -609.000; -744.000
899.211; -135.100; -513.000; -361.000
899.454; -178.500; -633.000; -539.000
899.697;  -51.200;   90.000;  -43.000
899.940; -276.100; -761.000; -757.000
900.182; -147.700; -335.000; -405.000
900.425;  -86.800; -150.000; -298.000
900.668;   60.300;  491.000;  350.000
900.911; -168.500; -292.000; -345.000
901.154;   -5.500;  141.000;   -3.000
901.396; -239.400; -407.000; -412.000
901.639; -174.400; -430.000; -496.000
901.882; -281.100; -790.000; -809.000
902.124;  -99.800;  -29.000; -143.000
902.367; -161.800; -315.000; -361.000
902.609; -193.800; -476.000; -453.000
902.852; -106.500; -108.000; -260.000
903.094; -155.800; -458.000; -337.000
903.337;   -9.200;  -26.000;   53.000
903.579; -135.800; -228.000; -441.000
903.821; -245.400; -597.000; -744.000
904.064;  -56.100;   85.000;  127.000
904.306; -116.600; -126.000; -166.000
904.548; -132.400; -152.000; -366.000
904.790; -116.000; -195.000; -340.000
905.033; -202.600; -625.000; -577.000
905.275; -187.400; -513.000; -524.000
905.517;  161.900;  468.000;  256.000
905.759; -126.000; -667.000; -761.000
906.001; -160.500; -322.000; -369.000
906.243;  -40.400; -162.000; -224.000
906.485;  308.800; -265.000; -207.000
906.727;  153.700; -499.000; -542.000
906.969;   14.000;  -30.000; -135.000
907.211;  263.800; -316.000; -382.000
907.453;  538.900; -188.000; -237.000
907.695;  -17.600; -158.000; -385.000
907.936;  194.600;  818.000;  706.000
908.178;  -45.700;   92.000; -135.000
908.420;  -75.300; -111.000; -162.000
908.662; -201.000; -633.000; -682.000
908.903; -109.000; -208.000; -123.000
909.145;  -69.200; -240.000; -305.000
909.386;   81.000;  315.000;  280.000
909.628;  131.400;  363.000;  397.000
909.870;   48.900;   29.000;  264.000
910.111; -178.500; -809.000; -949.000
910.353;   80.700; -123.000; -161.000
910.594;   31.200; -574.000; -606.000
910.835;  187.600; -265.000; -326.000
911.077;  289.200; -503.000; -604.000
911.318;  502.800; -505.000; -471.000
911.559;  746.300; -577.000; -880.000
911.801; 2474.100; -284.000; -280.000
912.042;21352.800;  -50.000; -159.000
912.283;43685.500;  404.000;  371.000
912.524; 5062.600; -396.000; -457.000
912.765;  808.900; -193.000;   79.000
913.006;  441.200; -307.000; -338.000
913.247;  139.900; -270.000; -290.000
913.488;   26.800;  -43.000;   30.000
913.729; -109.800; -373.000; -373.000
913.970;  -77.000;  -96.000; -292.000
914.211;  -68.000; -160.000; -198.000
914.452;  -53.500; -118.000;  -11.000
914.693;   80.900;  510.000;  592.000
914.934;   98.400;  510.000;  440.000
915.175;  -22.000;   53.000;  -95.000
915.415;  -77.100; -137.000;   27.000
915.656;  -30.200;  -28.000;  192.000
915.897; -128.900; -252.000;  -82.000
916.137;  -94.800;   74.000;   -9.000
916.378; -224.700; -573.000; -517.000
916.619;  -88.500; -159.000;  -63.000
916.859;   39.900;  303.000;  330.000
917.100;  386.800; 1655.000; 1070.000
917.340;  179.200;  930.000;  728.000
917.581;  168.100;  965.000;  789.000
917.821;  -12.100; -171.000;  143.000
918.061;   60.600; -199.000;  -72.000
918.302;  -64.700; -152.000; -211.000
918.542;    8.400;  -22.000;    3.000
918.782;  146.300;  369.000;  377.000
919.023;  323.100;  360.000;  427.000
919.263; 2762.500; 8131.000;  202.000
919.503; 1823.700; -137.000;  -54.000
919.743; 1157.100;  390.000;  266.000
919.983;  435.200; -134.000;  -26.000
920.223;  154.000;  135.000;   14.000
920.463;  282.400;  631.000;  554.000
920.703;  233.600;   84.000;   39.000
920.943;  292.300; -110.000;   90.000
921.183;  368.300; -414.000; -405.000
921.423;  885.400;  307.000;  546.000
921.663; 1163.700; -174.000; -257.000
921.903; 2729.500;  237.000;  173.000
922.143;16333.500;  372.000;  389.000
922.383;55085.000;  158.000;  115.000
922.622;13925.300; -120.000;  -15.000
922.862; 1761.100;  796.000;  785.000
923.102;  731.100;  -51.000;   33.000
923.341;  291.500;   59.000;   74.000
923.581;  180.600;  450.000;  360.000
923.821;  103.800;  301.000;  398.000
924.060;  107.300;  351.000;  193.000
924.300;  -67.700;  -16.000; -128.000
924.539;   52.700;  584.000;  473.000
924.779;  124.100;  812.000;  597.000
925.018;  -11.200;  247.000;  353.000
925.257;   88.600;  595.000;  666.000
925.497;    7.900;  447.000;  412.000
925.736;  -79.200;  -35.000;  102.000
925.975;   73.200;  687.000;  669.000
926.214;  137.600;  907.000;  850.000
926.454;  125.900;  706.000;  757.000
926.693;   -2.900;  419.000;  543.000
926.932;  152.000; 1021.000;  825.000
927.171;  222.300; 1107.000; 1044.000
927.410;  218.900; 1144.000;  967.000
927.649;  105.200;  924.000;  742.000
927.888;   61.200;  590.000;  564.000
928.127;   79.100;  680.000;  678.000
928.366;  134.300;  842.000;  826.000
928.605;  167.500;  831.000;  737.000
928.844;  556.700; 1451.000; 1393.000
929.083; 1135.800;  770.000;  613.000
929.321;  575.400; 1335.000; 1359.000
929.560;  252.400; 1158.000; 1122.000
929.799;   18.900;  574.000;  475.000
930.038;  247.300; 1025.000; 1394.000
930.276;  -20.900;  334.000;  397.000
930.515;   75.000;  827.000;  681.000
930.753;   21.000;  614.000;  589.000
930.992;   53.900;  664.000;  717.000
931.230;   73.400;  847.000;  847.000
931.469;  432.200; 2162.000;  892.000
931.707;  229.300;  840.000;  751.000
931.946;  255.200; 1278.000; 1344.000
932.184;  214.800; 1437.000; 1175.000
932.423;  177.100; 1265.000;  963.000
932.661;  242.800; 1296.000; 1428.000
932.899;  128.100;  987.000;  821.000
933.137;  124.700;  754.000;  564.000
933.376;  379.500; 1664.000; 1335.000
933.614;  403.500; 1759.000; 1196.000
933.852;  178.000; 1357.000; 1171.000
934.090;  385.600; 1722.000; 1747.000
934.328;  263.800; 1252.000; 1457.000
934.566;  255.900; 1431.000; 1110.000
934.804;  314.200; 1263.000; 1309.000
935.042;  916.700; 1861.000; 1850.000
935.280; 3351.800; 2088.000; 2063.000
935.518; 2557.100; 2113.000; 2007.000
935.756;  658.800; 2481.000; 2316.000
935.994;  390.700; 1808.000; 1751.000
936.231;  785.300; 2890.000; 2950.000
936.469;  474.600; 2367.000; 2378.000
936.707;  419.300; 2220.000; 2167.000
936.945;  559.000; 2825.000; 2882.000
937.182;  483.500; 2679.000; 2741.000
937.420;  729.200; 3602.000; 3031.000
937.657;  911.100; 3365.000; 3478.000
937.895;  770.600; 3331.000; 3488.000
938.133;  720.000; 3540.000; 3528.000
938.370;  771.600; 3896.000; 4191.000
938.607;  921.600; 4488.000; 4205.000
938.845; 1255.600; 5587.000; 5549.000
939.082; 1053.400; 5387.000; 5177.000
939.320; 1137.500; 5799.000; 5728.000
939.557; 1401.200; 6549.000; 6491.000
939.794; 1559.900; 7285.000; 7097.000
940.031; 1922.100; 8421.000; 8368.000
940.269; 2301.900; 9552.000; 9107.000
940.506; 2307.400;10901.000;10507.000

