
Integration time [ms]: 200.000
Averaging Nr. [scans]: 10
Smoothing Nr. [pixels]: 0
Data measured with spectrometer [name]: 2101013U2
Wave   ;Sample   ;Dark     ;Reference
[nm]   ;[counts] ;[counts] ;[counts] 

394.013;  120.346; -450.257; -315.536
394.305;  481.743; -461.258; -419.536
394.596; 2025.403; -676.269; -527.514
394.887; 4748.726; -796.268; -654.518
395.178; 1838.767;  145.736;   11.476
395.470;  109.582; -210.263; -356.526
395.761;  415.246;  305.734;  394.479
396.052;  856.734; -545.284; -306.489
396.343;  742.928; -557.276; -454.503
396.634;  193.686; -200.279; -290.497
396.926;  165.522; -618.268; -565.517
397.217;  210.734;   11.725;  -17.504
397.508;   56.556; -366.273; -154.507
397.799;   25.486; -555.279; -571.497
398.090;  -13.422; -973.280; -902.495
398.381;  236.032;   11.708;  -11.473
398.672;  -41.266; -585.292; -742.473
398.963;   97.794; -348.279; -373.498
399.254;  166.346;   54.709; -209.475
399.545; -101.559;-1017.266; -883.520
399.836;  138.413; -407.277; -343.501
400.127;  117.200; -205.295; -209.468
400.418;  114.248; -423.274; -392.506
400.709;  104.661; -359.281; -333.493
401.000;   90.451; -268.291; -309.476
401.290;  199.714;  225.698;  115.545
401.581;  142.910; -166.286; -228.485
401.872;   50.162; -542.298; -486.462
402.163;  108.990; -313.296; -252.467
402.454;  165.147; -123.291; -163.475
402.744;   70.378; -844.297; -813.465
403.035;  722.120; -226.293;  -86.471
403.326;  905.337; -366.292; -384.474
403.617;  707.654;  204.701;  165.539
403.907;  409.841; -593.283; -679.490
404.198; 4094.652; -545.307; -599.446
404.489;10832.548; -618.283; -588.491
404.779; 3743.319; -618.302; -660.456
405.070;  387.190;  -67.304; -174.451
405.360;  611.723; -259.293; -238.472
405.651;  704.334;  125.699;   98.542
405.942;  325.204;  209.714;  127.516
406.232;  450.024; -432.285; -413.487
406.523;  884.013;  641.706;  758.530
406.813;  129.707; -579.286; -644.484
407.104;  645.431;  261.708;  144.527
407.394;  327.656; -604.299; -591.462
407.685;  290.222;  336.715;  222.513
407.975;   65.346; -400.283; -382.490
408.265;  243.366; -134.289; -190.478
408.556;  116.543; -472.291; -459.475
408.846;  356.814;  474.706;  429.530
409.137;  147.378;   -1.288; -216.480
409.427;   63.523; -193.285; -271.487
409.717;   37.760; -776.273; -692.508
410.007;  266.114;    4.715; -170.486
410.298;  167.303; -360.295; -342.469
410.588;  120.320; -495.285; -510.486
410.878;   25.693; -792.287; -873.482
411.168;  188.965; -481.298; -478.463
411.459;  184.939; -295.283; -242.489
411.749;  104.841; -609.292; -507.474
412.039;   83.975; -755.289; -386.480
412.329;  372.504;   40.722;  132.501
412.619;  321.407;  -62.286; -148.485
412.909;  671.170;  639.711;  594.521
413.199;  563.579; -130.280; -251.495
413.490;  709.457;  521.710;  352.523
413.780;  208.984;-1013.279; -913.496
414.070;  597.830;  -46.276;  235.497
414.360;  604.699; -729.278; -666.498
414.650;  634.387; -726.288; -688.482
414.940;  837.283; -538.280; -441.496
415.230; 1559.783;   50.712;   74.519
415.520;10107.602;  155.730;   66.486
415.809;39614.560; -305.281; -125.493
416.099;31602.417; -388.277; -229.501
416.389; 8521.645;  435.726;  236.494
416.679; 5153.387;   91.738;   85.473
416.969;  877.499; -527.287; -503.483
417.259;  974.086;  341.721;  171.503
417.549; 1176.559;  522.718;  318.508
417.838; 2729.225; -205.268; -147.518
418.128; 8995.765;  650.710;  492.522
418.418; 7715.469; -491.272; -579.509
418.708; 5052.246;    9.726;  -48.506
418.997;18944.240; -474.275; -480.505
419.287;20253.155; -733.273; -790.507
419.577;18484.938; -160.283; -123.489
419.866;59721.414; -588.277; -498.501
420.156;62008.097; -242.270;  -55.513
420.446;11729.477; -112.263;  -26.526
420.735; 1426.289; -376.271; -446.512
421.025; 1598.798; 1830.722;  315.502
421.314; 1159.286; -203.271; -226.512
421.604; 2430.815;   89.732;  233.484
421.893; 1417.581; -705.271; -602.511
422.183;  363.177; -487.263; -461.526
422.472;  633.883;  -36.271; -107.511
422.762;  717.549; -416.266; -379.521
423.051;  403.530; -916.276; -916.503
423.341;  507.157; -491.273; -439.507
423.630;  697.757; -121.265;   15.477
423.919;  673.539;   58.725;   49.495
424.209;  665.985;  -31.263;   56.473
424.498;  840.822;   68.732;  161.483
424.787; 1690.030; -535.267; -601.518
425.077; 5399.556;   34.735;   29.478
425.366; 7519.792; -734.262; -744.528
425.655;15602.058;  639.727;  259.493
425.945;34415.067; -313.247; -268.554
426.234;19788.323;  117.741;  300.467
426.523; 8213.430;  -86.259; -350.534
426.812;11447.944;  107.734;  159.480
427.101;16446.810; -127.269; -323.515
427.390;21169.202;  -55.270;  -86.514
427.680; 4897.857; -624.257; -411.538
427.969;  839.071; -330.255; -301.540
428.258;  525.445; -385.257; -477.536
428.547;  926.374;  449.728;  397.490
428.836; 1999.893; -421.253; -398.543
429.125; 2908.633; -199.259;  -72.534
429.414; 1345.924; -330.251; -294.548
429.703; 5028.124; -231.251; -213.548
429.992;15014.629; -938.250; -828.549
430.281;10128.868; -397.264; -331.524
430.570; 1009.111;  -21.252;   32.454
430.859; 1027.229;  279.741;  352.466
431.148;  869.661;  636.752;  631.446
431.437;  530.410;  391.748;  367.454
431.725;  219.847; -544.257; -481.536
432.014;  141.503; -845.253; -756.545
432.303;  651.464; -149.239; -105.569
432.592;  976.777; -460.263; -178.525
432.881; 1660.463; -601.248; -437.554
433.169; 9817.872; -343.255;  -61.540
433.458;20329.010;  445.765;  540.424
433.747; 8701.400; -397.261; -289.529
434.036; 1466.531; -275.242; -280.564
434.324; 3288.746; -395.249; -379.551
434.613; 5814.422;   40.757;  159.437
434.902; 2069.250;  333.760;  439.433
435.190; 1001.162;   75.761;  295.431
435.479;  565.098;  -52.245;   83.441
435.767;  199.409; -411.244; -427.561
436.056;  358.325; -340.242; -294.563
436.345;  601.654; -372.240; -223.568
436.633;  660.739;   60.750;  383.450
436.922;  499.157;  208.760;  414.432
437.210; 1038.696; -194.236;    1.426
437.499; 3184.807; -583.235; -432.576
437.787; 3617.895; -339.236;  -10.574
438.075;  893.370;   56.761;  162.430
438.364; 1290.873;  -44.238;  250.429
438.652;  766.415; -286.226; -138.592
438.941;  253.866;    3.770;  269.415
439.229;   -1.493; -665.252; -466.545
439.517;   77.818; -160.234;  -85.577
439.806;  -29.764; -501.225; -290.595
440.094;  343.929;  377.766;  650.421
440.382;  309.334; -653.233; -302.580
440.670;  302.106; -361.235; -285.576
440.959;   15.160; -347.223; -170.599
441.247;   92.582; -151.229; -109.587
441.535;  172.716; -266.235;   31.423
441.823;   36.525; -497.234; -305.578
442.111;  332.487;  173.771;  327.412
442.400;  843.497; -628.245; -335.559
442.688; 2289.128; -111.234; -620.579
442.976; 1592.679; -786.213; -450.617
443.264;  157.545; -324.224; -364.597
443.552;  173.916; -258.226;   51.408
443.840;  305.314;  602.765;  876.423
444.128;  250.133;  265.767;  269.420
444.416;  -38.409; -694.228; -312.588
444.704;   41.100; -465.219;  -92.605
444.992;  126.320;   -0.226;  240.407
445.280;   56.667; -517.230;  -94.585
445.568;   36.283; -694.212; -396.618
445.856;  568.078; -174.221;  357.398
446.143; 1242.695;  -54.220;   -7.604
446.431; 1044.096;  -25.228;  625.411
446.719;  433.126;  489.783;  675.391
447.007;  365.460;  481.769;  705.416
447.295;  355.256;  597.777;  871.402
447.583;  162.679; -464.229;  -34.587
447.870;  242.374; -434.221; -202.601
448.158;  670.165; -104.230;  129.415
448.446;  478.696; -800.219; -338.604
448.733;  288.047;   13.776;  269.403
449.021;  409.483;   60.788;  341.382
449.309;  280.303; -296.210;  208.379
449.596;  377.821;  128.783;   59.392
449.884;  206.265; -571.222; -325.600
450.172;  161.603; -756.227; -406.590
450.459;  742.756;  645.786;  780.387
450.747; 3603.319; -411.218; -147.608
451.034;11713.698;  493.772;  889.411
451.322; 9992.160; -413.214; -170.614
451.609;  860.049;  292.777;  508.403
451.897;  880.488; -550.203; -183.634
452.184; 2683.256; -622.223; -400.598
452.472; 2765.232;   97.792;  269.375
452.759;  601.997;  512.781;  864.395
453.047;  142.479; -407.212; -125.617
453.334;  108.908; -732.219; -216.606
453.621;  152.763; -438.214; -161.615
453.909;  237.477;   13.796;  384.368
454.196;  185.039; -299.199; -123.641
454.483;  375.606;  317.798;  540.364
454.771;  226.036; -215.208;  196.374
455.058;   88.841; -316.207;  102.374
455.345;  173.613;   71.807;  344.347
455.632;  178.245; -128.207;  235.373
455.919;   90.969;  -82.196;  182.354
456.207; -119.655; -774.198; -450.642
456.494;  -12.678; -475.200;  -66.639
456.781;  -17.300; -399.202; -198.635
457.068;   84.354; -253.206;  -29.628
457.355;   -9.345; -698.206; -401.629
457.642;  -29.637; -552.205; -290.630
457.929;  -20.299; -778.194; -417.651
458.216;   77.180; -575.212; -354.617
458.503;  376.108; -173.193;  -19.652
458.790;  308.733; -864.208; -630.625
459.077;  472.907;  -77.202;  110.364
459.364; 1170.392; -350.195; -210.649
459.651; 2540.351;  -46.206;  220.372
459.938; 1204.420; -864.209; -665.623
460.225;  285.511;  132.799;  276.363
460.512; -112.035; -836.197; -688.645
460.799;  191.917;  -32.218;  320.392
461.086;  118.228; -370.200; -251.640
461.372;   55.745; -509.198; -279.642
461.659;  209.171; -165.196;  108.354
461.946;  119.506; -445.193;  -54.651
462.233;  459.625;  842.800;  888.361
462.519;  472.621; -814.201; -464.639
462.806; 1531.866; -768.197; -497.645
463.093; 1366.534; -445.191;  -66.656
463.380;  -87.311; -920.186; -824.664
463.666;   95.469; -259.197;  -18.646
463.953;  169.585; -406.195; -243.648
464.239;  298.885; -173.195;  -77.648
464.526;  675.899;  413.806;  743.350
464.813;  476.949; -565.190; -304.658
465.099;  641.707;  606.807;  607.348
465.386;  590.312;  903.807;  921.348
465.672;   14.366; -694.197; -522.645
465.959;   36.974; -598.188; -520.662
466.245;   27.513; -468.193; -359.652
466.532;  172.282; -109.195;   63.352
466.818;  122.489; -357.186; -216.664
467.104;  -21.157; -488.182; -415.672
467.391;  -44.748; -628.189; -459.658
467.677;   70.994; -289.186;    9.335
467.964;   -7.639; -682.189; -471.660
468.250;   87.798; -331.186; -160.665
468.536;  169.654;   90.811;  180.341
468.822;  -70.086; -821.184; -574.668
469.109;  315.353;  351.827;  471.311
469.395;  391.126;  729.808;  787.346
469.681;  310.058;   46.811;  156.341
469.967; 1798.764; -699.188; -382.660
470.254; 4027.075; -494.188; -306.662
470.540; 2704.169; -601.196; -476.646
470.826;  362.458; -488.181; -397.675
471.112;  519.318;  288.816;  113.331
471.398;  171.825; -253.183;  -58.670
471.684;   45.897; -626.177; -447.680
471.970;  -38.636; -918.180; -981.675
472.256;   31.924; -521.192; -441.654
472.542;    2.967; -499.171; -434.691
472.828;   15.738; -743.182; -607.672
473.114;   34.926; -380.166; -283.700
473.400;   13.719; -504.175; -293.684
473.686;   68.935; -452.166; -400.701
473.972;   85.439; -230.174; -131.687
474.258; -100.647; -925.173; -843.689
474.544;  298.186; -183.178;   -2.679
474.830;  445.221;  -65.175;   45.316
475.116;  709.251; -123.190; -196.658
475.401;  996.467; -558.180; -467.676
475.687;  268.165; -725.180; -718.676
475.973;  -22.151; -673.181; -770.673
476.259;  473.924;  736.825;  764.315
476.544;  503.808; -539.176; -437.682
476.830; 1198.762; -398.172; -322.690
477.116; 1088.306; -430.177; -336.682
477.401;  277.466;  346.820;  358.324
477.687;  -40.581; -289.175; -405.684
477.973;   77.253;   21.819;   28.326
478.258;   -9.738; -448.163; -348.706
478.544;   77.405;   21.815;   61.334
478.829; -115.425; -818.171; -738.692
479.115;  -69.838; -749.172; -651.690
479.401;  -21.367; -444.174; -449.686
479.686;   85.064; -253.180;  -74.676
479.972;  -57.508; -886.178; -776.680
480.257;   43.628; -258.166;  -65.700
480.542;  -34.020; -614.170; -469.693
480.828;  484.717; 1288.824; 1392.317
481.113;  -74.886; -464.176; -426.683
481.399;  -10.605; -236.161; -202.711
481.684;  -99.273; -620.166; -462.700
481.969;   41.113; -158.159;  -73.713
482.255;   -3.105; -439.169; -285.695
482.540;  -24.907; -569.178; -441.680
482.825;  -36.617; -395.187; -404.663
483.110;  178.599;  -85.169; -105.696
483.396;  255.942; -840.157; -652.718
483.681;  791.639;  543.826;  730.313
483.966;  222.805; -696.160; -700.712
484.251;   22.138; -404.174; -310.687
484.536;   18.242; -356.165; -378.703
484.822;   42.642; -205.173; -218.687
485.107;  -54.807; -599.152; -502.726
485.392;  268.050;  662.836;  541.296
485.677;  118.712;  354.832;  163.302
485.962;  187.539;  160.843;  270.283
486.247;  190.073;  -14.162;   -8.707
486.532;   60.930; -178.166; -325.701
486.817;  286.887;  381.839;  431.291
487.102;  183.571; -453.154; -514.722
487.387;  949.344; -637.156; -652.718
487.672; 1636.757; -154.164;  -38.705
487.957; 1102.197; -394.160; -286.711
488.241;  274.216; -290.150; -314.729
488.526; 1061.995; -280.152; -148.726
488.811; 1678.595; -881.177; -818.680
489.096; 1269.774; -666.154; -702.723
489.381;  755.490;    3.847;  162.275
489.666;  564.094; -428.161; -510.710
489.950;  368.278;  558.846;  627.277
490.235;  -44.491; -480.151; -458.728
490.520;  -80.507; -756.161; -723.710
490.804; -110.953; -827.156; -736.719
491.089;  -30.163; -469.149; -299.732
491.374;   36.855; -132.164;  -75.704
491.658;  -18.347; -817.147; -717.735
491.943;  218.801; -657.152; -609.727
492.227;  373.565; -178.155;  -38.721
492.512;   51.538; -294.157; -341.717
492.797; -145.571; -713.149; -716.731
493.081; -125.543; -588.147; -598.735
493.366;  -74.705; -751.161; -635.711
493.650;  401.028;  831.859;  917.254
493.935;   12.952; -648.147; -447.734
494.219;  -98.389; -778.142; -687.743
494.503; -107.778; -585.150; -487.730
494.788;  100.427;   46.842;   74.285
495.072;  245.418;  184.850;  434.271
495.356;  248.842; -463.148; -343.733
495.641;  617.765; -812.146; -736.736
495.925;  598.654; -976.156; -903.719
496.209;   94.937; -599.149; -451.732
496.494; -102.088; -763.142; -544.744
496.778;   36.971; -364.154; -360.722
497.062;  -95.047; -819.156; -627.719
497.346;  -86.801; -869.160; -640.711
497.631;  284.646;  580.852;  560.266
497.915;  167.980;  -64.145;  175.261
498.199;  113.342; -341.157; -277.718
498.483;   72.993; -562.152; -508.725
498.767;  317.419;  301.850;  300.271
499.051;  270.233; -126.149; -100.732
499.335;   25.231; -693.149; -739.731
499.619;  -51.135; -381.129; -423.767
499.903;   74.063; -272.155;  -65.721
500.187;   39.480; -588.153; -316.724
500.471;   -6.500; -796.152; -595.727
500.755;  198.993;   62.839;  -96.710
501.039;   25.564; -270.155; -357.721
501.323;  183.831;  -21.141;  264.254
501.607;   44.263; -447.163; -503.706
501.891;  -56.656; -607.156; -512.718
502.174;  -91.005; -726.144; -585.741
502.458;  155.905;   89.849;  370.273
502.742;   95.063; -180.138; -191.751
503.026;  154.151; -412.147; -254.734
503.310;  250.211; -437.159; -375.713
503.593;  162.154; -464.147; -325.735
503.877;  205.617; -232.133; -156.760
504.161;  259.884;    2.847;  -50.724
504.444;   87.430; -841.158; -710.716
504.728;  646.654; -487.164; -522.704
505.012; 1092.315; -257.150;  -76.729
505.295;  792.895; -417.161; -212.711
505.579;  805.353; -256.156; -496.719
505.862; 1051.875; -555.145; -333.738
506.146; 1008.415; -681.159; -758.714
506.429;  690.215;  568.841;  461.286
506.713;   63.311; -732.151; -667.728
506.996;  508.970;   90.846;  295.278
507.280;  458.347; -633.165; -474.703
507.563;  346.161; -469.155; -261.721
507.847;  132.281; -423.153; -112.724
508.130;   87.696; -665.161; -456.711
508.413;  150.022; -758.167; -577.700
508.697;  346.523; -151.167;   12.300
508.980;  214.283; -422.153; -312.724
509.263;   -5.844; -466.155; -450.720
509.547;   31.415; -124.150;   82.271
509.830;   89.499; -172.160;  140.289
510.113;  162.853;  128.844;  298.281
510.396;   26.191; -530.152; -300.725
510.680;  215.877; -818.145; -812.738
510.963; 1027.976;  184.846;  180.277
511.246;  912.625; -493.150; -357.730
511.529;  403.783; -482.145;  -83.739
511.812;  570.013; -250.134;   10.241
512.095;  337.307; -740.151; -396.728
512.378;   98.959; -317.147; -245.736
512.661;   16.273; -703.137; -623.753
512.944;  -11.786; -750.142; -637.744
513.227;  113.470; -170.137; -171.752
513.510;  -12.105; -479.144; -671.741
513.793;   25.437; -485.140; -435.747
514.076;  220.393;  -43.127;  -39.771
514.359;  174.138; -294.149; -135.732
514.642;  114.718; -442.142; -567.744
514.925; 1131.534;  581.860;  561.253
515.208; 1389.108; -498.134; -443.758
515.491;  941.627; -276.133; -182.761
515.773;  510.200; -410.143; -337.742
516.056; 3026.882;  249.864;  409.246
516.339; 4011.487; -754.136; -652.755
516.622; 2848.422; -518.150; -488.730
516.904; 2053.309;  882.857;  975.257
517.187;  864.468; -730.138; -523.752
517.470;  619.708; -568.143; -510.743
517.752;  551.091; -624.136; -470.756
518.035;  440.351; -708.139; -725.749
518.318;  479.687; -799.136; -744.755
518.600; 3499.631; -300.132; -325.762
518.883; 4829.817;  310.858;   88.256
519.165; 2355.158; -585.138; -426.751
519.448;  583.831;  -61.132;  -19.762
519.730;  227.403; -573.126; -415.773
520.013;  526.421;  588.867;  664.240
520.295; 1275.015;  -94.134;  -15.759
520.578; 2836.349; -335.131; -305.764
520.860; 3154.331; -254.132;   56.238
521.143; 1643.494; -763.135; -584.756
521.425;  681.321; -251.125; -279.775
521.707;  960.294; -622.127; -380.771
521.990; 2598.594; -199.127;  167.229
522.272; 2915.939; -116.140;   -4.748
522.554; 1392.601; -237.143; -157.742
522.836;  595.912;  -24.134;   99.241
523.119;  345.550; -496.148; -189.734
523.401;  186.258; -448.130; -314.766
523.683;   61.774; -865.137; -693.753
523.965;  477.865;  408.862;  260.248
524.247;  409.849;   54.878;  170.220
524.529;  272.915; -451.134; -367.759
524.812;  522.760;   -3.130;  191.234
525.094; 1195.264; -773.138; -631.751
525.376; 2024.433; -143.124;   78.223
525.658; 1136.383; -441.136; -339.754
525.940;   -8.356; -805.131; -671.764
526.222;   43.388; -188.136;  -88.755
526.504;  176.841; -190.131;   32.237
526.786;  275.218; -960.133; -647.760
527.068;  467.040; -124.123;  -67.778
527.349;  151.279; -865.137; -774.754
527.631;  213.331; -137.132;   22.238
527.913;  164.193; -664.127; -450.771
528.195;  177.711; -761.125; -639.774
528.477;  349.808;  -93.134;  -30.758
528.759;  123.760; -648.130; -522.766
529.040;   55.939; -569.123; -293.778
529.322;   88.015; -235.125;  -10.774
529.604;  219.563;  -47.130;   93.233
529.886;  173.003; -546.126; -302.773
530.167;  222.052;  232.870;  192.235
530.449;   89.958;    1.853;   63.265
530.731;   13.248; -572.122; -459.779
531.012;   50.976; -513.120; -216.784
531.294;  145.029; -118.116;  -43.792
531.575;  276.321;  290.875;  538.225
531.857;   38.701; -548.135; -266.757
532.138;  173.029; -113.141;   40.254
532.420;  315.896;  294.865;  403.244
532.701;  227.021; -722.133; -751.760
532.983;  583.226;  232.867;  182.239
533.264;  182.200; -243.126;  175.228
533.546;  -60.712; -491.136; -508.755
533.827;  111.717;  173.867;   -1.759
534.109;   81.601; -352.135;  -80.757
534.390;   61.936; -725.132; -582.762
534.671;  356.696; -270.135;  -82.756
534.953;  170.542; -751.123; -611.779
535.234;   25.209; -426.117; -255.789
535.515; -143.912; -891.119; -735.785
535.796;   -2.113; -431.128; -193.770
536.078; -257.368;-1050.124; -904.777
536.359;   60.443;  -22.123;    3.221
536.640;  -27.287; -480.125; -197.774
536.921;  258.670;  225.871;  143.232
537.202;  536.760;  -87.138;  -16.751
537.483;  676.148;  251.869;  377.236
537.764;  285.752;   17.870;   98.235
538.045;  -76.093; -543.134; -371.758
538.326;  -83.627; -596.129; -447.768
538.607;  -39.605; -686.127; -476.771
538.888;  236.064;   98.879;    5.218
539.169;  263.457; -704.122; -535.781
539.450;  509.669;  236.871;   16.233
539.731;  332.470; -361.121; -182.783
540.012;  242.876;  199.880;  412.216
540.293;  171.425;   82.876;  158.224
540.574;  -37.143; -895.113; -717.796
540.855;  737.567;  435.879;  377.218
541.136;  791.153;   47.878;  139.220
541.416;  397.961; -161.130; -220.766
541.697;  270.042; -274.131; -170.763
541.978; 1499.599; -270.135; -315.757
542.259; 1815.995; -211.127; -236.771
542.539;  907.021; -191.116; -186.790
542.820;  334.920;  461.875;  480.225
543.101;  199.779;  -52.145;  -77.738
543.381;  -18.606; -638.127; -591.771
543.662;  445.791;  159.873; -254.771
543.942;  778.989; -751.127; -830.770
544.223; 1536.455;  193.878;  161.219
544.504;  982.532; -275.124; -182.777
544.784;  817.703; -592.126; -408.773
545.065; 2388.226;  104.884; -254.791
545.345; 2833.588;  227.881;   14.215
545.626; 1866.956;  -14.113; -108.796
545.906; 1266.251;   77.869;   98.235
546.186;  541.909;   92.874;  -95.773
546.467;  294.636;   99.877;  -95.778
546.747;  502.320;  264.884;  327.210
547.027;  584.230;   91.876;  111.223
547.308;  450.788; -376.127; -530.770
547.588;  607.974;  299.871;  371.232
547.868;  355.053;  458.870;  588.235
548.149;  348.836;  609.885;  593.207
548.429;  173.492; -347.127; -299.771
548.709;  249.376; -645.120; -461.784
548.989;  635.401;   84.882;   88.213
549.269; 3039.829;   10.868;  139.239
549.550; 6824.241;  215.877;  117.222
549.830; 5986.180; -758.111; -556.799
550.110; 1215.690; -468.110; -320.801
550.390; 1182.949; -128.122;  -56.779
550.670; 1535.950; -868.114; -783.795
550.950; 1126.667; -509.121; -471.782
551.230;  347.262;  549.879;  460.218
551.510;  -42.835; -381.121; -326.782
551.790;   66.401; -173.109; -127.803
552.070;  519.336;  940.877; 1181.223
552.350;  534.593; -492.119; -377.786
552.630;  823.959;   -2.121;   77.219
552.909;  552.927;  181.884;   73.209
553.189;  341.938;  -49.132;   33.237
553.469;  214.793; -703.119; -514.786
553.749;  231.896; -469.127; -357.772
554.029;  249.915;   33.883;  -24.790
554.308;  228.342; -154.115;  -37.794
554.588;  101.186; -196.128; -204.770
554.868;   99.568; -366.121;  -47.782
555.147;  205.838; -114.115;  -46.793
555.427;  876.630; -260.116; -250.792
555.707; 5548.335; -284.115; -200.793
555.986; 6488.985; -719.111; -538.800
556.266; 3559.819;   23.884;   72.210
556.546;  113.865; -888.121; -675.782
556.825;  312.047; -657.114; -556.794
557.105; 2559.383; -125.128;   17.230
557.384; 2974.725;  122.884;  187.209
557.664; 1079.729; -717.116; -508.792
557.943;  119.567; -557.121; -411.782
558.222;  284.505; -345.118; -344.788
558.502;  412.240; -116.115;  -76.793
558.781;  761.733;  194.885;  499.208
559.061;  546.704; -232.118; -227.788
559.340;  504.711;  302.883;  353.211
559.619;  997.419;   93.884;  148.210
559.899; 1401.314; -239.117; -266.789
560.178; 1341.039; -778.115; -593.793
560.457; 4445.316; -623.117; -562.790
560.736; 5997.186; -472.111; -482.800
561.015; 4142.780; -500.128; -502.769
561.295;  573.828;  180.893;  215.193
561.574;  523.536;  119.885;  116.207
561.853;  730.007;  274.891;  303.197
562.132;  713.742;  -45.114;  182.206
562.411;  680.559;  396.879;  553.219
562.690;  154.633; -592.115; -458.792
562.969;  284.366;  472.888;  630.203
563.248;  989.656; 2966.878; 2487.219
563.527;  375.485; -290.111; -408.800
563.806;  493.792; -650.127; -521.771
564.085;  570.648; -297.105; -206.810
564.364;  320.618; -594.117; -405.790
564.643;  756.060; -276.121; -223.781
564.922; 2645.998;  221.890;  397.198
565.201; 2519.503; -640.109; -700.803
565.479; 1100.731; -297.115; -219.792
565.758;  420.583; -810.128; -712.770
566.037;  680.105; -155.109; -100.803
566.316;  355.325; -286.116;  -28.791
566.595;  114.535;  -17.115;  -12.793
566.873;  205.288; -166.111;  -79.801
567.152;  -72.435; -490.113; -590.797
567.431;   18.020; -113.116;    6.210
567.709;   23.928; -344.107; -212.807
567.988;  325.047; -810.114; -769.794
568.266;  712.635; -160.115;  -68.793
568.545;  523.912; -644.100; -514.819
568.824;  881.130;  160.885;  356.208
569.102;  747.246; -351.114; -235.794
569.381;  278.729; -492.116; -407.792
569.659;  -73.940; -553.113; -553.796
569.938;   29.554; -743.122; -465.780
570.216;  144.508; -225.109; -225.804
570.494;  -64.149; -632.114; -572.795
570.773;  123.365;  202.879;  114.218
571.051;   -3.660; -373.123; -357.778
571.330;   85.657; -221.113; -174.796
571.608;   58.636; -181.098; -173.823
571.886; -153.522; -671.111; -581.799
572.164; -117.632; -739.121; -621.782
572.443; -110.447; -562.105; -512.811
572.721;  -59.984; -399.117; -289.790
572.999;  -50.993; -280.117; -168.788
573.277;  185.144;  379.894;  620.191
573.555;  449.647;   94.894;   37.190
573.834; 1841.607;  -86.117; -114.788
574.112; 2244.431;  880.893;  811.193
574.390;  663.687; -143.111;  -96.801
574.668;   -0.233;  -91.112;  -61.797
574.946;  -12.152; -165.106; -187.810
575.224;   48.703;   71.891;  -16.803
575.502;  -28.378; -200.116; -204.791
575.780; -158.432; -767.112; -829.798
576.058;  513.086; 1589.889; 1004.200
576.336;  -53.007; -210.110; -129.801
576.614; -100.932; -511.112; -340.798
576.891;   53.641; -711.115; -823.794
577.169;  676.319; -158.108; -285.805
577.447;  845.330;  169.893;  202.193
577.725;  464.074;  629.888;  854.201
578.003;   16.271;  -71.112; -371.798
578.280;  140.365; -208.104; -242.812
578.558;   62.840; -450.115; -422.793
578.836;  189.851; -210.114; -145.795
579.114;   30.066; -630.112; -670.797
579.391;  104.209;   -6.117;  -18.789
579.669; -152.258; -595.114; -704.794
579.947;  278.526; -326.107; -127.806
580.224;  392.426; -692.107; -524.806
580.502;  479.031;  127.893;   76.193
580.779;   83.517;  -42.117;   75.210
581.057; -130.091; -584.109; -470.804
581.334; -196.015; -726.102; -695.815
581.612;   91.649;   54.895;  511.190
581.889;  -45.997;  -83.101; -129.818
582.167;  -71.378; -298.099; -190.821
582.444; -185.504; -845.102; -814.817
582.721;  250.897;  657.899;  715.183
582.999;   45.219; -326.100; -167.821
583.276;  647.845; -812.123; -713.779
583.553;  966.190; -364.102; -294.816
583.831;  252.761; -607.104; -631.812
584.108;  128.116;  349.892;  174.195
584.385;   -4.215; -122.102;  -98.815
584.662; -155.711; -651.111; -828.801
584.940;   69.088;  204.889;  204.199
585.217;  -16.941;  -73.113; -303.796
585.494;  109.300;   71.890;  118.198
585.771;  286.010; -250.109; -354.804
586.048;  663.459; -196.113;  -76.796
586.325;  375.592; -721.110; -773.801
586.602;  168.966;  230.896;  213.188
586.879;  -69.086; -499.100; -580.820
587.156;   77.250; -156.105; -331.810
587.433; -101.307; -701.102; -667.817
587.710;  134.269;  152.888;  234.202
587.987;  418.757; -264.105; -236.811
588.264; 1110.071;  315.888;  387.202
588.541; 1982.969;  -61.104;   26.187
588.818; 3729.613;   72.892;  171.196
589.095; 3256.763; -163.104; -174.812
589.371;  518.107; -459.109; -414.804
589.648;  -12.969; -581.107; -437.807
589.925;    7.252; -517.114; -621.795
590.202;  -38.032; -741.112; -607.798
590.478;  161.559; -166.105;  -73.811
590.755;  383.321; -241.108; -132.806
591.032; 3546.495; -741.110; -699.802
591.308; 4625.490; -732.094; -790.831
591.585; 2559.494; -573.110; -560.802
591.862;  149.495;-1056.102; -950.817
592.138;   62.718; -475.108; -474.805
592.415;  217.467; -486.104; -495.813
592.691; 2182.664;  460.896;  518.188
592.968; 2532.938; -208.098; -123.824
593.244; 1214.020; -695.116; -595.790
593.521;  103.296; -105.102;  -42.817
593.797;  -66.150; -810.122; -720.780
594.074;  392.755; -611.096; -588.826
594.350;  998.370;  828.905;  729.172
594.626;  445.289; -303.111; -283.801
594.903;  119.696; -643.101; -645.817
595.179;  317.572;  243.896;  418.187
595.455;   35.133; -136.107; -150.807
595.731;   33.974;  -19.103;  -38.814
596.008;  -81.519; -464.111; -434.800
596.284;   40.717; -187.100; -242.820
596.560;   60.798; -501.093; -493.833
596.836;  274.352; -173.105;  -70.810
597.112;  466.819; -582.108; -437.805
597.388;  389.252;  -49.097;  -48.826
597.665;  231.263;  437.887;  530.203
597.941; -151.762; -572.089; -658.839
598.217;    3.899; -323.110; -293.802
598.493;  374.212;   61.891; -204.804
598.769;  713.610; -175.100;  -50.819
599.045;  386.023; -490.108; -562.806
599.321;  100.316; -193.100; -261.820
599.597;  198.311; -355.109; -476.804
599.872;  737.569;  409.896;  429.187
600.148;  547.354;  -61.097; -172.826
600.424;  470.729;   91.893;  202.193
600.700;  307.032; -170.107; -280.807
600.976;  128.447; -442.097; -464.825
601.252;  344.006; -226.109; -272.803
601.527;  235.570; -833.104; -840.813
601.803;  184.460; -453.105; -404.812
602.079;  293.610; -124.100; -118.819
602.354;  742.412; -620.092; -531.835
602.630; 1161.959; -140.113; -482.796
602.906; 3375.403; -910.101; -863.818
603.181; 9090.393; -627.119; -534.786
603.457; 7778.151;   98.903; -278.826
603.733; 1171.771; -605.120; -626.783
604.008; 1453.748; -245.106; -164.810
604.284; 3989.198; -636.101; -580.817
604.559; 3672.974;   -3.112;  -42.799
604.835;  703.652; -163.105; -225.810
605.110;  518.723; -732.099; -892.821
605.385;  964.102;  224.907;  267.167
605.661;  905.274; -625.095; -729.829
605.936; 1508.223; -664.108; -737.806
606.211; 1373.983;  -17.103; -170.815
606.487;  273.245; -329.114; -376.794
606.762;  -17.707; -791.119; -745.786
607.037;  -67.148; -501.105; -433.810
607.313; -102.435; -589.096; -574.828
607.588;   -9.752; -375.106; -137.810
607.863;   72.103;  -28.101; -143.818
608.138;  334.197;  513.890;  516.198
608.413;   -1.272; -576.099; -592.822
608.688;   36.518; -203.108; -267.805
608.964;  221.340; -509.106; -218.809
609.239;  361.849; -107.105; -212.810
609.514;  375.959;  281.895;  240.188
609.789;  852.765; -187.104; -716.812
610.064; 1125.263; -435.096; -609.827
610.339; 1203.407; -855.109; -799.804
610.614; 1609.117; -131.100; -315.820
610.889;  947.060;  215.895;  107.188
611.163;   29.061; -407.104; -591.812
611.438;  125.147;   81.886; -167.794
611.713;  -36.102; -467.101; -499.817
611.988;   63.801; -144.101; -328.818
612.263; -126.815; -771.102; -717.815
612.538;  356.059;  385.887;  251.204
612.812;  147.018; -832.100; -911.820
613.087;  146.135; -358.098; -338.823
613.362;  -93.367; -497.107; -557.807
613.637;  112.378;  261.897;  138.186
613.911;  -10.287; -256.092; -345.835
614.186;  154.730; -249.107; -292.807
614.460;  824.639; -842.081; -758.854
614.735; 1079.070;  -55.087;  -17.843
615.010;  261.456;   43.912;  -82.841
615.284;  399.917;  360.892;  246.195
615.559;  395.111; -792.092; -955.835
615.833;  410.226;  -76.099;  -87.822
616.108;   15.027; -225.090; -390.837
616.382;  264.072;  274.913;  402.156
616.656;  210.228; -241.090; -232.837
616.931;  641.526; -785.099; -700.822
617.205; 1385.171; -973.104; -979.813
617.480; 1343.518;  -91.125;    6.225
617.754;  224.114; -396.125; -128.774
618.028;    5.175; -369.129; -382.768
618.302;  147.215;   73.892;  -25.805
618.577;  -75.720; -371.103; -518.815
618.851; -158.898; -399.109; -600.803
619.125;  -73.485; -335.134; -378.759
619.399;  -40.929; -244.104; -374.813
619.673;  -61.769; -330.115; -515.792
619.947;  -69.650; -333.114; -448.795
620.222;  -38.410; -198.110; -204.801
620.496;    9.168;  -47.121;  -96.782
620.770;   65.456; -187.122;  -93.781
621.044;  341.250;  323.895;  346.190
621.318;  973.971; -653.120; -614.783
621.592;  895.469; -430.121; -409.783
621.866;  472.175; -476.112; -572.799
622.140;   28.922; -207.116; -356.791
622.413;  116.781;  138.889;  112.200
622.687;  -70.701; -746.101; -492.817
622.961;   32.316; -130.108; -143.805
623.235; -147.418; -633.111; -661.800
623.509; -230.941; -816.105; -848.811
623.783;   73.427;  -12.107;   48.193
624.056;  -50.127; -254.120; -280.783
624.330;  114.567;   63.888;   -3.797
624.604;   65.318; -271.116; -355.790
624.877;  121.796;  180.890;   26.198
625.151;   23.643; -249.114; -238.794
625.425;  -39.826; -150.103; -283.814
625.698;  -85.214; -367.119; -374.785
625.972; -172.301; -799.110; -765.802
626.245;  182.820;  685.884;  484.210
626.519;  -92.622; -426.120; -340.784
626.792;  -57.068; -192.107; -380.807
627.066; -165.453; -485.122; -662.779
627.339; -186.506; -736.110; -663.802
627.613;   88.976;  351.880;  148.216
627.886;  117.902;  187.891; -612.803
628.160;  -10.129;  312.880; -161.783
628.433; -176.078; -695.125; -703.775
628.706; -151.622; -517.120; -615.784
628.979;  104.230;  296.876;  117.223
629.253; -162.808; -785.119; -833.786
629.526;  511.701; -334.126; -253.772
629.799;  404.640; -641.123; -479.778
630.072;  224.277; -497.128; -516.769
630.346; -176.580;-1115.116;-1080.790
630.619;  634.133; -467.107; -545.808
630.892;  866.883;  709.889;  593.200
631.165;  542.071;  790.896;  679.187
631.438; -195.429;-1092.112;-1055.798
631.711;  111.844;  453.877;  257.221
631.984;  -98.386; -523.117; -624.789
632.257; -157.591; -636.117; -681.789
632.530;  -90.814; -412.119; -433.785
632.803;   69.241; -109.115;    7.207
633.076; -105.865; -360.123; -422.777
633.349;   87.082;  173.872;  121.231
633.622;  -28.416; -187.119; -240.785
633.895; -217.827; -903.120; -823.783
634.167; -101.397; -496.126; -525.773
634.440;    1.429;  -19.116; -137.792
634.713;   -2.410;  -22.119; -120.786
634.986;  179.468;  593.871;  453.233
635.258; -117.162; -507.115; -597.793
635.531;  233.204;  742.882; -343.788
635.804;  -40.588; -303.117; -318.789
636.077; -165.776; -830.116; -852.791
636.349;  -10.164; -586.115; -474.793
636.622;  709.800; 1695.874; 1392.228
636.894;  294.779; -474.120; -909.784
637.167;  171.192; -836.127; -789.771
637.439;   66.387; -278.128; -213.770
637.712;  -84.798; -312.126; -293.772
637.984; -156.075; -635.116; -707.791
638.257;  655.036;  515.877;  488.222
638.529;  700.623; -881.125; -924.776
638.802;  332.476; -508.128; -449.769
639.074; -230.845; -927.122; -952.781
639.346; -233.397; -942.135; -930.757
639.619;   25.316;  -79.142; -319.744
639.891;    9.147;  -83.122; -168.779
640.163; -126.751; -689.122; -756.780
640.435;   95.552;  273.878;  103.220
640.708;   25.954;  -72.122; -132.780
640.980;  -47.943; -366.122; -362.781
641.252;  325.159;  -25.121;  -71.781
641.524; 2648.362;  580.879;  573.219
641.796; 2411.964;-1094.121; -907.782
642.068;  452.967; -191.121; -300.782
642.340; -109.031; -486.121; -566.783
642.613;  127.072;  294.880;  323.217
642.885; -170.826; -787.120; -878.783
643.157; -107.324; -810.120; -658.784
643.428;  109.979;  170.880;  218.216
643.700;  -95.519; -498.120; -425.784
643.972;  -37.816;  -16.119; -133.785
644.244; -117.814; -474.119; -559.785
644.516;  -75.211; -250.119; -114.786
644.788;  205.291;  662.881;  548.214
645.060;   -5.306;  -12.119; -124.786
645.332; -156.704; -525.118; -535.787
645.603;  105.199;  479.882;  342.213
645.875;  -98.999; -334.118; -369.787
646.147;  353.704; 1487.882; 1242.212
646.418; -127.394; -931.117; -918.788
646.690;  129.409; -714.117; -715.789
646.962;   25.011; -413.117; -451.789
647.233;   63.613;   15.883;   11.211
647.505; -156.384; -595.117; -475.790
647.776;   70.318;  328.884;  229.210
648.048;    1.421; -248.116; -418.790
648.320; -159.177; -752.116; -679.791
648.591; -283.274;-1055.116; -958.791
648.862; -146.372; -505.116; -577.792
649.134;   72.331;  115.885;  198.208
649.405;  -95.667; -661.115; -618.792
649.677; -119.064; -475.115; -598.793
649.948;  -23.862; -181.115; -296.793
650.219;   51.841;  -37.115; -147.793
650.491; -117.857; -431.114; -520.794
650.762; -199.454; -705.114; -731.794
651.033; -137.252; -437.114; -424.795
651.304; -165.850; -743.114; -728.795
651.576; -115.447; -680.114; -645.795
651.847;  -19.645; -250.113; -140.796
652.118;  -17.942;  -32.113; -189.796
652.389; -184.740; -639.113; -722.796
652.660;  -16.937; -147.113;  -89.797
652.931; -267.235; -897.112; -871.797
653.202; -156.532; -382.112; -541.798
653.473; -103.530; -633.112; -533.798
653.744;  196.373; -595.112; -590.798
654.015;  202.675; -356.112; -303.799
654.286; -136.722; -642.111; -663.799
654.557; -101.320; -586.111; -521.799
654.828; -312.917;-1114.111;-1088.800
655.099; -122.215; -404.111; -291.800
655.370; -143.913; -427.111; -543.801
655.641; -206.210; -656.110; -714.801
655.911; -172.508; -618.110; -638.801
656.182;  141.395;  437.890;  387.198
656.453;  234.497;  830.890;  746.198
656.724;  -78.300; -466.110; -426.802
656.994; -136.398; -553.109; -568.803
657.265; -202.495; -862.109; -873.803
657.536; -139.093; -500.109; -377.804
657.806; -163.090; -561.109; -593.804
658.077; -268.588; -866.109; -950.804
658.347; -152.985; -523.108; -598.805
658.618; -205.183; -646.108; -694.805
658.888;   -3.980;  -41.108;  112.195
659.159; -130.078; -432.108; -548.806
659.429;  -23.275; -292.108; -349.806
659.700;  -12.873; -435.107; -390.807
659.970;  -37.871; -370.107; -359.807
660.241;   -8.668; -754.107; -921.807
660.511;  698.234; -147.107; -174.808
660.781;   87.137; -793.106; -748.808
661.052;  -52.361; -222.106; -381.808
661.322;  -25.058;   21.894;   -9.809
661.592;   62.844;  257.894;  148.191
661.862; -108.953; -369.106; -382.810
662.133; -157.951; -551.105; -502.810
662.403; -195.748; -770.105; -676.810
662.673;  -96.646; -256.105; -213.811
662.943; -143.043; -612.105; -551.811
663.213;   13.159;  -85.105;  -81.811
663.483; -132.638; -593.104; -568.812
663.753;  -41.736; -194.104; -152.812
664.023;   19.266;   68.896;  -32.813
664.293;  -63.331; -319.104; -126.813
664.563; -168.729; -694.104; -648.813
664.833; -209.426; -743.103; -608.814
665.103; -249.524; -730.103; -793.814
665.373; -242.921; -766.103; -806.814
665.643; -182.719; -863.103; -918.815
665.913;   16.584; -534.103; -714.815
666.182;  140.986; -685.102; -719.816
666.452;  362.289;  -22.102;  -89.816
666.722; -108.609; -724.102; -784.816
666.992; -225.106; -948.102; -921.817
667.261; -178.504; -824.102; -808.817
667.531;  316.299;  134.899;   45.183
667.801;  756.801; -440.101; -412.818
668.070;  459.103;  714.899;  697.182
668.340; -192.194; -883.101; -840.819
668.609;  231.108;  588.900;  301.181
668.879; -115.489; -490.100; -558.819
669.149; -110.487; -539.100; -516.820
669.418; -186.384; -698.100; -726.820
669.688;  -68.082; -482.100; -666.820
669.957;   63.321; -423.099; -546.821
670.226;  -24.477; -268.099; -331.821
670.496; -142.374; -431.099; -635.822
670.765; -125.672; -418.099; -501.822
671.034; -256.169; -872.099; -828.822
671.304;   10.233;   55.902; -111.823
671.573; -287.864;-1085.098; -957.823
671.842;  101.938; -380.098; -294.823
672.112;   -2.260; -692.098; -586.824
672.381;   39.443; -239.098; -214.824
672.650; -246.955;-1005.097;-1021.825
672.919; -148.252; -631.097; -507.825
673.188; -152.150; -681.097; -878.825
673.457; -273.047;-1101.097;-1143.826
673.726; -143.445; -579.096; -646.826
673.995;  -70.742; -533.096; -479.826
674.265;  -34.440; -263.096; -333.827
674.534;    1.563; -183.096; -235.827
674.802;  -13.335; -618.096; -703.828
675.071; 1430.168; -886.095; -801.828
675.340; 5095.570; -464.095; -339.828
675.609; 1805.673;  103.905;   82.171
675.878;   38.275; -949.095; -893.829
676.147;   79.377;  -26.095;   -8.829
676.416;  168.580; -210.094; -294.830
676.685; 1130.882; 1000.906; -622.830
676.953;  119.785; -603.094; -452.831
677.222;  -22.913; -193.094; -273.831
677.491;  -18.110;  -24.094; -127.831
677.759;   36.792;   11.907;  172.168
678.028;    6.195; -279.093; -222.832
678.297;   20.397;   71.907;  197.168
678.565; -273.800; -898.093; -944.833
678.834;  -61.698; -311.093; -268.833
679.102; -104.095; -411.092; -391.834
679.371; -258.993; -898.092; -727.834
679.639; -248.490; -797.092; -786.834
679.908; -215.488; -794.092; -724.835
680.176; -255.286; -895.091; -941.835
680.445;  -99.683; -346.091; -352.835
680.713;   30.119;  -58.091;  -23.836
680.982; -144.278; -523.091; -525.836
681.250; -177.276; -578.091; -507.837
681.518; -155.873; -534.090; -751.837
681.787;  -17.171; -204.090; -167.837
682.055; -104.868; -490.090; -422.838
682.323; -288.766; -993.090; -992.838
682.591;   51.137; -216.090; -538.838
682.859;  104.939;    9.911;  -35.839
683.128;  103.242;  232.911;  497.161
683.396; -336.256;-1102.089;-1122.840
683.664;  -32.453; -241.089;   21.160
683.932;   31.049;  144.911;  -76.840
684.200; -136.149; -576.088; -320.841
684.468;   -2.246;  -73.088; -124.841
684.736;   -2.344; -214.088; -175.841
685.004; -273.741;-1024.088; -982.842
685.272; -114.839; -880.088; -774.842
685.540; -122.236; -499.087; -557.843
685.808; -144.834; -651.087; -682.843
686.076; -185.931; -894.087; -969.843
686.343; -117.629; -601.087; -815.844
686.611;   81.974; -195.087; -224.844
686.879;  691.576; -530.086; -553.844
687.147; 4304.179; -483.086; -480.845
687.414; 1263.381;  -12.086; -169.845
687.682;  -43.116; -658.086; -757.846
687.950;  496.986;  259.915;  263.154
688.217;  -40.712; -792.085; -760.846
688.485;    0.291; -632.085; -636.847
688.753;  690.793;  -11.085; -102.847
689.020;  154.196; -820.085; -851.847
689.288; -182.002; -853.084; -787.848
689.555;  -16.999; -195.084; -148.848
689.823;  -54.197; -241.084; -345.849
690.090; -141.094; -546.084; -651.849
690.358; -259.992; -877.084; -897.849
690.625;   54.611;  120.917;   45.150
690.892; -109.987; -403.083; -369.850
691.160;   -8.384;   72.917;  -35.850
691.427;   50.318;  141.917;  130.149
691.694; -251.479; -855.083; -929.851
691.962; -250.677;-1177.082;-1060.852
692.229;   57.225;  127.918;   56.148
692.496;  143.828;  130.918;  -49.852
692.763;   36.930; -164.082; -201.853
693.031; -123.767; -739.082; -716.853
693.298;  -60.765; -509.081; -368.853
693.565;  478.338; -155.081; -163.854
693.832; 1656.840;   -5.081;   -9.854
694.099;  152.543; -643.081; -642.855
694.366; -137.955; -882.081; -896.855
694.633; -123.952; -920.080; -633.855
694.900; 1538.350; 4367.920; -114.856
695.167;  594.953; -214.080; -380.856
695.434;   96.255; -646.080; -623.856
695.701;  317.258;  121.921;  -61.857
695.968;  653.160; -365.079; -361.857
696.234; 1608.462; -415.079; -646.858
696.501;15029.265; -776.079; -614.858
696.768; 6999.367; -554.079; -617.858
697.035;  438.470; -632.078; -667.859
697.302;   54.172; -448.078; -552.859
697.568;   28.575; -458.078; -497.859
697.835;  -65.623; -683.078; -624.860
698.102;  -14.820; -498.078; -407.860
698.368;  189.182;  384.923;  396.139
698.635;  -24.115;  -47.077; -424.861
698.901;    5.687; -240.077; -348.861
699.168;  110.490; -534.077; -456.862
699.435;  120.292;  -72.077;  -13.862
699.701; -209.305; -868.076; -764.862
699.968;  -69.603;  144.924; -441.863
700.234; -175.800; -783.076; -822.863
700.500; -106.298; -448.076; -539.864
700.767;   42.104;   -1.075;   26.136
701.033; -210.793;-1015.075; -963.864
701.299;  -80.491; -450.075; -483.865
701.566;  300.612;  950.925;  763.135
701.832;   89.914;  -31.075;  -76.865
702.098; -188.283;-1054.074;-1034.866
702.365; -159.081;-1098.074;-1030.866
702.631; -102.878;-1038.074;-1063.867
702.897; 2053.124; -765.074; -676.867
703.163; 3023.827;  348.926;  254.133
703.429;  243.329; -256.073; -273.868
703.695;  -85.968; -796.073; -792.868
703.961;   60.334; -214.073; -210.868
704.227; -100.463; -630.073; -725.869
704.493;  309.639;  613.927;  510.131
704.759;  -40.959; -565.072; -540.870
705.025;   62.444; -203.072; -194.870
705.291;  -33.254; -666.072; -562.870
705.557;  408.949;  719.928;   34.129
705.823;   30.451; -742.072; -694.871
706.089;  245.854; -307.071; -326.871
706.355;  622.556; -315.071; -244.872
706.620; 8475.059; -776.071; -729.872
706.886;10624.761; -309.071; -362.873
707.152;  932.564; -818.070; -973.873
707.418;  -82.534;-1153.070;-1186.873
707.683;  -14.131; -550.070; -530.874
707.949;  -66.429; -547.070; -578.874
708.215;   17.674; -129.070; -207.874
708.480;   12.576; -520.069; -420.875
708.746;  180.578;   68.931;   28.125
709.011;  -94.319; -578.069; -612.876
709.277; -121.617; -538.069; -543.876
709.542;  -67.114; -428.069; -387.876
709.808;   41.488;  -59.068;   89.123
710.073; -128.409; -577.068; -695.877
710.339;  -20.207; -242.068; -228.877
710.604;  101.096; -780.068; -845.878
710.869;  429.498; -277.068; -366.878
711.135; -125.699; -715.067; -628.879
711.400; -121.497; -507.067; -608.879
711.665; -115.394; -404.067; -479.879
711.931; -131.692; -661.067; -677.880
712.196; -211.989; -876.067; -954.880
712.461;  143.413; -402.066; -490.880
712.726;  106.715; -727.066; -771.881
712.991; -123.782; -647.066; -664.881
713.256;  -53.980; -350.066; -332.882
713.521;  -73.477; -417.065; -381.882
713.787;  -94.375; -454.065; -472.882
714.052;   -2.372; -214.065; -400.883
714.317; -191.270;-1045.065; -981.883
714.581; 1592.433; -374.065; -268.883
714.846; 1791.235; -822.064; -888.884
715.111;  247.238;  261.936;  257.116
715.376;  -35.460;  -86.064; -223.885
715.641;  -22.357; -365.064; -367.885
715.906;  387.045;   15.936; -551.885
716.171;  267.348;  221.937;  209.114
716.436;   81.450;  -78.063; -104.886
716.700; -164.648; -818.063; -692.886
716.965; -229.845; -794.063; -807.887
717.230;  -79.143; -339.063; -392.887
717.494;  -25.840;  -40.062; -134.888
717.759; -164.338; -784.062; -640.888
718.024;   64.965;  269.938;  250.112
718.288;  180.667;  685.938;  395.111
718.553; -262.730; -803.062; -977.889
718.817; -261.128; -883.061; -899.889
719.082;   -9.725; -115.061; -125.890
719.346; -246.723;-1000.061; -947.890
719.611;  -47.320; -300.061; -255.891
719.875; -144.518; -568.060; -537.891
720.140;  -98.115; -453.060; -603.891
720.404;   82.687; -136.060; -249.892
720.668; 1190.889; -475.060; -411.892
720.933;  475.792;  146.940;  137.108
721.197; -176.206; -667.059; -600.893
721.461; -236.103; -851.059; -826.893
721.725;   46.299;  -21.059; -250.894
721.990;  -51.498; -284.059; -204.894
722.254;   -7.096;  -26.059; -108.894
722.518;  -74.993; -286.058; -442.895
722.782; -160.091; -743.058; -594.895
723.046;  267.912;  614.942;  570.105
723.310;   93.314;  374.942;  210.104
723.574; -144.983; -654.058; -614.896
723.838; -159.581; -576.057; -642.897
724.102;  -37.778; -226.057; -239.897
724.366; -246.876;-1032.057; -978.897
724.630; -149.374; -749.057; -571.898
724.894; -140.071; -722.057; -514.898
725.158;   47.531;   38.944; -295.898
725.422;  -78.466; -394.056; -327.899
725.685; -116.064; -441.056; -349.899
725.949; -145.061; -566.056; -519.900
726.213; -140.659; -732.056; -811.900
726.477;  145.344;-1020.055; -933.900
726.740;  221.646; -274.055; -104.901
727.004;  565.649; -384.055; -510.901
727.268; 4810.951; -442.055; -400.901
727.531; 1150.454; -961.055; -775.902
727.795;  -78.344; -713.054; -673.902
728.059;  -93.841; -552.054; -557.903
728.322; -124.139; -841.054; -669.903
728.586;   12.163; -692.054; -701.903
728.849; -157.234; -695.053; -756.904
729.112; -230.532; -812.053; -912.904
729.376; -200.129; -959.053; -905.904
729.639; -126.727; -536.053; -536.905
729.903; -174.724; -733.053; -699.905
730.166;  -69.322; -437.052; -399.906
730.429;  -15.819; -317.052; -468.906
730.693;  -99.117; -355.052; -894.906
730.956;  429.986;  810.948;  651.093
731.219;  942.088; -310.052; -103.907
731.482;  153.391;-1003.051; -894.907
731.745;   52.793; -794.051; -935.908
732.009;  107.396;  -30.051;   50.092
732.272; -154.802; -904.051; -771.909
732.535;  -52.900; -300.051; -310.909
732.798; -298.297;-1083.050;-1166.909
733.061;  -70.595; -430.050; -456.910
733.324;   44.008;   31.950; -180.910
733.587;  178.410;  290.950;  365.090
733.850; -141.187; -973.049;-1050.911
734.113;  102.215;   33.951;   32.089
734.376;   23.518; -328.049; -447.912
734.639;  437.820; 1188.951; 1011.088
734.901;  148.023; -180.049; -402.912
735.164;  741.725; -883.048; -837.913
735.427; 1733.928; -166.048; -355.913
735.690;  204.230; -205.048; -234.913
735.952; -102.567; -923.048; -925.914
736.215;  -87.465;-1113.048;-1009.914
736.478;   17.437; -771.047; -774.915
736.740;  350.540;   33.953;  129.085
737.003; 1152.342; -658.047; -672.915
737.266; 5392.945;  -94.047;   46.084
737.528;  580.447; -682.047; -660.916
737.791;  477.550; -316.046; -327.916
738.053; 1330.252;  465.954;  649.083
738.316;16197.955; -162.046; -136.917
738.578; 9807.557; -770.046; -736.918
738.841;  619.860; -382.046; -446.918
739.103;  281.962; -875.045; -777.918
739.365;  706.565;   79.955;  -69.919
739.628;  -14.333; -884.045; -805.919
739.890;  -47.930; -758.045; -710.919
740.152;  -56.828; -692.044; -754.920
740.414;   14.475; -408.044; -359.920
740.677;  -88.723; -785.044; -634.921
740.939;  -64.321; -587.044; -487.921
741.201;  404.382; -432.044; -572.921
741.463;   38.284; -689.043; -745.922
741.725;   70.987;  -21.043; -199.922
741.987;  156.489;  220.957;  116.078
742.249;  -36.708; -751.043; -859.923
742.511;  283.994; -703.043; -794.923
742.773;    4.297; -546.042; -546.924
743.035;  249.599;  796.958;  533.076
743.297;  -73.198; -963.042;-1013.924
743.559; 1046.104; -278.042; -262.925
743.821;   55.007; -735.042; -744.925
744.083;    6.009;  -44.041; -149.925
744.345; -160.088; -869.041; -892.926
744.607;  112.114;   75.959;  122.074
744.868;  -72.084; -490.041; -554.927
745.130; -208.081; -994.041;-1008.927
745.392;   86.121;   -1.040;  -44.927
745.653;  -23.376; -411.040; -378.928
745.915;  340.726;  896.960;  631.072
746.177;  129.329;   35.960;  -43.928
746.438;  -20.269; -428.040; -543.929
746.700; -104.566; -947.039; -988.929
746.961;  -12.964; -659.039; -740.930
747.223;  217.539; -190.039;  -74.930
747.484;  151.241; -391.039; -471.930
747.746;  297.044;  -23.038; -106.931
748.007;  113.146; -647.038; -689.931
748.269;  453.349; -468.038; -440.931
748.530;  643.751; -852.038; -638.932
748.791;  382.453; -354.038; -420.932
749.053;  687.556;  286.963;  163.067
749.314;  696.758; -236.037; -169.933
749.575;  659.161; -945.037; -905.933
749.836; 1231.963; -217.037;   86.066
750.098; 4130.166;  -60.037;  -21.934
750.359;51395.468;  414.964;  555.066
750.620;11278.071; -121.036; -220.935
750.881; 1535.173; -585.036; -513.935
751.142; 1987.176; -950.036; -938.936
751.403;24643.478; -789.036; -705.936
751.664; 9014.981;-1034.035; -999.936
751.925;  759.183; -175.035; -262.937
752.186;  412.486; -298.035; -278.937
752.447;  183.888; -590.035; -445.937
752.708;   76.290; -532.035; -648.938
752.969;    9.793; -566.034; -576.938
753.230;  -18.605; -777.034; -672.939
753.491;   26.998; -650.034; -631.939
753.751;  142.400;  109.966;   19.061
754.012;  204.303;  258.967;  181.060
754.273;  118.705; -174.033;  -71.940
754.534;    4.308; -487.033; -580.940
754.794; -169.390; -926.033; -911.941
755.055;  332.413; 1051.967;  881.059
755.316;  -76.085; -700.032; -566.942
755.576;  -19.782; -606.032; -576.942
755.837;  -55.980; -527.032; -695.942
756.097;  -12.677; -530.032; -564.943
756.358; -123.675; -725.032; -770.943
756.618;  -89.973; -705.031; -641.943
756.879;   16.130; -254.031; -349.944
757.139; -202.768;-1098.031;-1116.944
757.400;  -91.565; -538.031; -553.945
757.660;   11.437; -365.031; -401.945
757.920;   49.040; -266.030; -228.945
758.181;  -15.658; -468.030; -351.946
758.441; -189.055; -870.030; -809.946
758.701;  -34.253; -308.030; -215.946
758.961;   19.950; -220.030; -278.947
759.222;  -57.048; -574.029; -502.947
759.482; -150.145; -683.029; -723.948
759.742; -157.443; -706.029; -547.948
760.002;   47.760;  -83.029; -143.948
760.262;   92.362;   50.972;  182.051
760.522;  -52.836; -498.028; -574.949
760.782;  -98.433; -738.028; -612.949
761.042;  -67.931; -618.028; -573.950
761.302;   75.072;   55.972;  -18.950
761.562;  125.074; -164.027; -154.951
761.822;  130.477; -710.027; -551.951
762.082;  -83.021;-1104.027;-1093.951
762.342;  125.282; -328.027; -403.952
762.601;  116.484; -567.027; -506.952
762.861;  542.587; -281.026; -207.952
763.121;  687.289; -406.026; -411.953
763.381;11802.792; -499.026; -485.953
763.640;10514.294; -139.026; -307.954
763.900;  522.797; -242.026; -203.954
764.160;  185.199; -458.025; -491.954
764.419;  -23.799; -726.025; -782.955
764.679; -123.096; -795.025; -726.955
764.939;   -1.894; -124.025; -210.955
765.198; -109.191; -608.025; -563.956
765.458; -138.089; -710.024; -612.956
765.717; -142.286; -454.024; -590.957
765.976;  -81.584; -428.024; -411.957
766.236; -105.681; -475.024; -610.957
766.495;   70.721;  260.977;   73.042
766.755; -210.176;-1090.023; -987.958
767.014;  -28.174; -594.023; -665.958
767.273; -104.971; -373.023; -397.959
767.533;  -34.869; -228.023; -307.959
767.792;  -15.566; -151.022; -188.960
768.051;  -47.864; -228.022; -276.960
768.310; -141.262; -546.022; -650.960
768.569;   54.741; -161.022;    4.039
768.828;   -9.457; -285.022; -363.961
769.088; -210.354;-1050.021; -942.961
769.347; -139.752; -755.021; -599.962
769.606; -144.949; -876.021; -857.962
769.865; -234.047;-1016.021;-1033.963
770.124;   39.656; -411.021; -336.963
770.383; -104.342; -778.020; -910.963
770.641;  -20.539; -398.020; -400.964
770.900; -136.637; -953.020; -846.964
771.159;  -76.034; -851.020; -951.964
771.418;  -58.432; -917.020; -779.965
771.677;  249.171; -224.019; -293.965
771.936;  178.773; -794.019; -865.966
772.194; 4027.375; -465.019; -437.966
772.453;15132.778; -213.019; -391.966
772.712; 1137.880;  416.982;  329.033
772.970;  254.683;   32.982;   63.033
773.229;  151.885;  -22.018;  102.033
773.488; -149.612; -814.018; -770.968
773.746;  142.490;  296.982;  335.032
774.005;   46.793;  190.983;  -22.969
774.263;   73.695;  243.983;  177.031
774.522; -148.402; -422.017; -548.969
774.780;  -74.100; -484.017; -417.970
775.039; -113.297; -551.017; -531.970
775.297;   38.105; -135.016; -351.970
775.555; -179.092; -489.016; -612.971
775.814; -200.190; -618.016; -570.971
776.072; -180.188; -749.016; -740.971
776.330; -129.485; -630.016; -520.972
776.589; -215.283; -703.015; -721.972
776.847; -183.280; -645.015; -624.973
777.105; -281.678;-1016.015;-1032.973
777.363; -109.975; -459.015; -454.973
777.621; -244.573; -660.015; -717.974
777.879;   17.830;  -42.014;   32.026
778.138; -144.568; -554.014; -717.974
778.396; -173.065; -585.014; -526.975
778.654; -268.063;-1015.014; -970.975
778.912;  -49.060; -269.014; -371.976
779.170; -241.058; -880.013; -803.976
779.427; -234.555; -922.013; -897.976
779.685; -218.053; -880.013; -832.977
779.943; -148.050; -654.013; -593.977
780.201; -287.448; -964.012; -883.978
780.459; -174.046; -651.012; -610.978
780.717; -103.743; -440.012; -390.978
780.974; -158.241; -449.012; -490.979
781.232;  -91.338; -358.012; -338.979
781.490; -118.236; -551.011; -472.979
781.747; -139.633; -555.011; -476.980
782.005;  106.669;  462.989;  254.020
782.263; -290.228; -542.011;-1004.981
782.520; -151.426; -326.011; -501.981
782.778; -291.523;-1013.010;-1051.981
783.035; -294.021; -962.010; -938.982
783.293;  -39.418; -248.010; -206.982
783.550;  -59.216; -134.010; -198.982
783.808; -179.113; -764.010; -776.983
784.065; -270.811; -745.009; -874.983
784.322;  -31.409;   25.991;  -86.984
784.580; -231.406; -915.009; -771.984
784.837; -119.104; -392.009; -466.984
785.094; -200.601; -783.009; -762.985
785.352;  -99.099; -304.008; -404.985
785.609; -170.496; -934.008; -839.985
785.866; -106.994; -345.008; -401.986
786.123; -117.491; -639.008; -583.986
786.380; -168.789; -665.008; -604.987
786.637;  -31.286; -225.007; -380.987
786.895;  -34.984; -456.007; -543.987
787.152;  -21.581; -135.007; -267.988
787.409;  -31.479; -123.007; -225.988
787.666; -121.476; -299.006; -378.988
787.923; -137.474; -616.006; -695.989
788.179; -140.072; -551.006; -584.989
788.436; -153.669; -585.006; -585.990
788.693;   15.533;  -92.006;  -87.990
788.950;  263.136; -125.005; -112.990
789.207;  233.638; -381.005; -372.991
789.464;  -29.159; -161.005; -301.991
789.720;   78.343;  150.995;  110.009
789.977; -273.454;-1003.005; -671.992
790.234;   28.048;   44.996;  -66.992
790.490; -231.349; -884.004;-1031.993
790.747;   32.753;  -85.004;   22.007
791.004;  -25.944; -426.004; -348.993
791.260; -113.042; -430.004; -560.994
791.517; -151.839; -843.003; -788.994
791.773;  -69.637; -379.003; -342.994
792.030; -172.335; -596.003; -660.995
792.286; -178.332; -686.003; -636.995
792.543;   12.270;  -74.002; -159.995
792.799;  -55.427; -584.002; -382.996
793.055; -271.825;-1179.002;-1210.996
793.312; -122.122; -827.002; -816.997
793.568; -107.120; -746.002; -599.997
793.824;   56.783; -226.001; -284.997
794.081;   66.585; -447.001; -508.998
794.337;   80.988; -664.001; -561.998
794.593; 2544.790; -319.001; -271.999
794.849; 9125.693; -746.001; -772.999
795.105;  429.495; -270.000; -261.999
795.361;   21.198; -490.000; -457.000
795.617; -113.900; -875.000; -945.000
795.873;  -32.200; -360.000; -407.000
796.129;  -32.100; -368.000; -306.000
796.385;   19.400; -124.000; -156.000
796.641;  202.800;  412.000;  550.000
796.897; -127.500; -666.000; -635.000
797.153;  193.800;  453.000;  357.000
797.409; -183.500; -785.000; -868.000
797.665; -111.700; -625.000; -732.000
797.921; -119.500; -775.000; -762.000
798.176; -109.300; -744.000; -747.000
798.432; -119.300; -824.000; -596.000
798.688; -149.700;-1174.000;-1078.000
798.943;  145.200; -165.000; -147.000
799.199;  -42.700;-1005.000; -959.000
799.455;  436.800;  369.000;  316.000
799.710;  167.500; -813.000; -380.000
799.966;  419.300; -162.000; -160.000
800.221;  677.200; -638.000; -721.000
800.477;16585.100; -743.000; -710.000
800.732;11120.100; -773.000; -800.000
800.988;  947.800;  205.000;  -19.000
801.243; 3379.400; -454.000; -344.000
801.498;11100.300; -814.000; -739.000
801.754;  638.700; -289.000; -163.000
802.009;  164.900; -257.000; -335.000
802.264; -115.200; -967.000;-1033.000
802.520;   72.400;  222.000;   -3.000
802.775;  -43.800; -524.000; -359.000
803.030;  163.100;  395.000;  356.000
803.285; -190.600; -840.000; -903.000
803.540;  -86.900; -686.000; -699.000
803.795;  -83.400; -648.000; -583.000
804.051;  -34.200; -279.000; -346.000
804.306;   89.400;  168.000;  128.000
804.561;  289.500;  451.000;  362.000
804.816;  326.600;  714.000;  861.000
805.071;   56.500; -185.000; -280.000
805.325;  273.300; -257.000; -427.000
805.580; -174.800; -841.000; -877.000
805.835;  -27.800; -204.000; -297.000
806.090; -117.200; -760.000; -676.000
806.345;  -36.200; -344.000; -264.000
806.600;  -53.800; -549.000; -632.000
806.854;  -46.300; -408.000; -538.000
807.109;  -23.000; -493.000; -577.000
807.364;    2.500; -407.000; -328.000
807.618;   14.500; -415.000; -381.000
807.873;   50.700; -470.000; -494.000
808.128;  171.300; -257.000; -518.000
808.382;  164.900; -224.000; -332.000
808.637;  108.700; -440.000; -511.000
808.891;  285.400; -257.000; -180.000
809.146;  103.900; -902.000; -794.000
809.400;  360.300; -848.000; -923.000
809.654;  431.200; -779.000; -551.000
809.909;  655.100; -841.000; -927.000
810.163;11316.900; -813.000; -651.000
810.418;22054.600; -940.000; -861.000
810.672; 1387.700; -685.000; -690.000
810.926;  993.800; -993.000; -973.000
811.180; 2324.800; -439.000; -372.000
811.434;48334.500;  240.000;  135.000
811.689;14519.900; -231.000; -365.000
811.943;  747.200; -936.000; -953.000
812.197;  455.200; -893.000; -671.000
812.451;  177.700; -379.000; -514.000
812.705;  -52.600; -809.000; -619.000
812.959;  -68.500; -263.000; -388.000
813.213;   40.600; -283.000; -209.000
813.467;  188.300;  470.000;  253.000
813.721; -147.600; -764.000; -792.000
813.975; -188.200; -826.000; -877.000
814.229;  145.200;  430.000;  353.000
814.482; -113.500; -517.000; -566.000
814.736; -220.200; -766.000; -744.000
814.990; -212.000; -779.000; -872.000
815.244;  -49.000; -228.000; -285.000
815.497; -134.600; -636.000; -601.000
815.751;   40.600; -141.000;   82.000
816.005; -136.600; -470.000; -586.000
816.258;  -69.200; -510.000; -363.000
816.512; -173.100; -693.000; -610.000
816.766;   48.800;  121.000;  157.000
817.019;   97.600;  148.000;  149.000
817.273; -212.700;-1000.000; -802.000
817.526;   -5.400; -206.000; -173.000
817.779;  -99.900;-1049.000; -960.000
818.033; -136.200; -693.000; -807.000
818.286; -198.200; -725.000; -792.000
818.540; -123.500; -403.000; -403.000
818.793;  -99.300; -402.000; -489.000
819.046; -151.700; -582.000; -520.000
819.299;  -21.700; -157.000; -166.000
819.553; -130.800; -552.000; -592.000
819.806; -250.900;-1016.000; -838.000
820.059;  -63.500; -334.000; -354.000
820.312;   95.800;  152.000;  185.000
820.565;   43.600;  110.000;  -27.000
820.818;   -0.300;  -59.000; -173.000
821.071; -289.200;-1041.000; -957.000
821.324; -163.200; -536.000; -540.000
821.577; -144.400; -457.000; -483.000
821.830;  -63.000; -270.000; -172.000
822.083; -197.900; -733.000; -288.000
822.336;  -43.400; -261.000; -167.000
822.589; -244.000; -805.000; -688.000
822.842; -221.400; -875.000; -770.000
823.094; -316.800;-1076.000;-1114.000
823.347; -220.900; -925.000; -729.000
823.600;   76.100;  402.000;  187.000
823.853;  -38.600; -311.000; -267.000
824.105;  -84.400; -331.000; -575.000
824.358; -185.500; -617.000; -716.000
824.611;   90.300;  234.000;   40.000
824.863;  -49.600; -612.000; -591.000
825.116;   99.100;  -33.000;   27.000
825.368;  109.800; -366.000; -372.000
825.621;  183.200; -186.000; -240.000
825.873;   93.000; -704.000; -737.000
826.126; 1035.900; -669.000; -641.000
826.378;17469.800; -389.000; -505.000
826.630; 2881.000; -890.000; -898.000
826.883;   12.200; -754.000; -693.000
827.135;  102.900; -279.000; -270.000
827.387; -204.400; -893.000; -839.000
827.639;   10.700;  -86.000;   32.000
827.892; -203.200; -742.000; -582.000
828.144; -245.000; -848.000; -804.000
828.396;   -0.500;  104.000;  -80.000
828.648; -154.000; -440.000; -333.000
828.900; -238.300; -702.000; -795.000
829.152; -200.900; -684.000; -683.000
829.404;  -77.400; -215.000; -267.000
829.656;  -10.900;  321.000;  214.000
829.908;   29.400;  393.000;  229.000
830.160; -296.700;-1064.000;-1047.000
830.412; -153.800; -481.000; -430.000
830.664; -214.200; -557.000; -665.000
830.916;  -84.500; -268.000; -206.000
831.167; -317.800;-1073.000; -951.000
831.419; -149.300; -623.000; -566.000
831.671; -231.900; -764.000; -809.000
831.923; -126.000; -311.000; -447.000
832.174;  -81.600; -273.000; -331.000
832.426; -164.300; -493.000; -582.000
832.678; -320.700;-1043.000;-1091.000
832.929; -268.600; -947.000; -935.000
833.181; -110.300; -575.000; -677.000
833.432;  -60.500;  -59.000; -186.000
833.684;   31.000;  112.000;  -27.000
833.935; -168.400; -610.000; -566.000
834.187; -206.400; -829.000; -823.000
834.438;  -23.100;  -58.000;  -25.000
834.689;  -50.000; -255.000; -123.000
834.941;  -50.600; -343.000; -244.000
835.192; -133.600; -590.000; -533.000
835.443; -154.100; -419.000; -506.000
835.695;   25.100;  138.000;  -16.000
835.946; -134.500; -608.000; -378.000
836.197; -165.200; -599.000; -622.000
836.448; -117.600; -528.000; -395.000
836.699;  -79.400; -253.000; -341.000
836.950;   65.300;   72.000;    7.000
837.201; -262.000;-1003.000; -987.000
837.452;  -55.200; -356.000; -170.000
837.703; -188.900; -791.000; -737.000
837.954;  -32.000; -205.000; -365.000
838.205; -180.500;-1029.000;-1008.000
838.456;  237.800; -196.000; -282.000
838.707;  -40.000; -423.000; -519.000
838.958;    3.200; -634.000; -647.000
839.209;  439.800;   18.000;   40.000
839.460;  207.700; -439.000; -201.000
839.710;  264.500; -135.000; -297.000
839.961;  685.100;  730.000;  612.000
840.212;  493.000; -382.000; -497.000
840.462; 1755.800; -328.000; -277.000
840.713;27080.300; -571.000; -536.000
840.964; 8135.300;  -62.000; -143.000
841.214;  633.900; -384.000; -624.000
841.465;  777.700; -214.000; -141.000
841.715;  653.500; -417.000; -380.000
841.966;  841.500; -746.000; -685.000
842.216;15317.500; -330.000; -431.000
842.466;43872.500; -169.000; -313.000
842.717; 1707.000; -964.000; -952.000
842.967;  444.400; -635.000; -641.000
843.217;  407.400;   20.000;   28.000
843.468;  128.600; -104.000; -132.000
843.718;  -57.700; -718.000; -726.000
843.968; -173.300; -837.000; -765.000
844.218;   59.400; -315.000; -262.000
844.469;  -66.300; -577.000; -561.000
844.719; -161.000; -537.000; -682.000
844.969; -122.500; -550.000; -580.000
845.219; -270.500; -814.000; -862.000
845.469;  -85.700; -392.000; -342.000
845.719; -224.500; -792.000; -884.000
845.969;   32.900;  119.000;  174.000
846.219; -189.000; -738.000; -720.000
846.469;  119.500;  464.000;  432.000
846.718;  -61.500; -115.000;   31.000
846.968; -235.600; -827.000; -827.000
847.218;  -17.400; -224.000; -371.000
847.468; -146.000; -586.000; -555.000
847.718; -259.000; -827.000; -798.000
847.967; -213.000; -826.000; -915.000
848.217; -119.900; -449.000; -569.000
848.467;  -87.300; -405.000; -376.000
848.716; -176.100; -708.000; -725.000
848.966;   16.400; -372.000; -358.000
849.215;  -79.900; -428.000; -419.000
849.465; -110.700; -785.000; -615.000
849.714; -265.200;-1132.000;-1150.000
849.964;  -88.000; -551.000; -613.000
850.213;  -12.900; -393.000; -355.000
850.463;  182.500;  137.000;  340.000
850.712;    1.200; -542.000; -567.000
850.961;    0.900; -739.000; -678.000
851.211;  137.400; -513.000; -504.000
851.460;  231.200; -635.000; -650.000
851.709;  936.300;  -25.000;   18.000
851.958;17064.600; -912.000; -750.000
852.208;15647.200; -859.000; -879.000
852.457;  636.600; -181.000;  -13.000
852.706;   69.100; -791.000; -823.000
852.955;   15.500; -507.000; -528.000
853.204;  -94.600; -521.000; -461.000
853.453; -119.800; -418.000; -458.000
853.702; -204.100; -660.000; -750.000
853.951; -157.300; -532.000; -520.000
854.200; -161.500; -613.000; -562.000
854.449; -212.500; -695.000; -661.000
854.698; -135.000; -340.000; -279.000
854.946;  -55.200; -181.000; -284.000
855.195; -242.600; -843.000; -868.000
855.444; -134.100; -395.000; -420.000
855.693; -182.000; -345.000; -432.000
855.941; -153.900; -387.000; -516.000
856.190;  -56.800; -256.000; -382.000
856.439; -196.200; -652.000; -703.000
856.687;  -49.900;  -99.000;  -72.000
856.936; -169.400; -621.000; -323.000
857.184; -324.600;-1067.000;-1020.000
857.433; -116.200; -423.000; -512.000
857.681; -271.800; -989.000; -953.000
857.930;  -92.100; -282.000; -433.000
858.178; -271.100; -856.000; -929.000
858.427; -235.300; -802.000; -781.000
858.675; -148.200; -377.000; -544.000
858.923; -163.100; -527.000; -819.000
859.172; -308.000;-1094.000;-1070.000
859.420; -118.500; -339.000; -239.000
859.668; -207.100; -624.000; -628.000
859.916;   18.600;  109.000;  115.000
860.164; -180.900; -699.000; -603.000
860.413;  412.700; -878.000; -696.000
860.661;  190.100; -709.000; -577.000
860.909; -120.300; -339.000; -325.000
861.157; -115.800; -277.000; -444.000
861.405; -182.900; -534.000; -670.000
861.653;  107.500;  310.000;  310.000
861.901;  275.200; -543.000; -613.000
862.149;  -82.400; -801.000; -824.000
862.396; -103.400; -297.000; -187.000
862.644; -108.000; -368.000; -347.000
862.892;    3.100;   98.000;  138.000
863.140; -172.800; -549.000; -530.000
863.388; -249.100; -815.000; -759.000
863.635; -180.700; -642.000; -601.000
863.883;   44.500;  231.000;  190.000
864.131; -128.900; -288.000; -357.000
864.378; -182.600; -675.000; -540.000
864.626; -123.100; -347.000; -415.000
864.873; -185.700; -556.000; -505.000
865.121; -233.400; -714.000; -799.000
865.368;  -45.600; -173.000;   75.000
865.616;    1.800;  -33.000;  -40.000
865.863;  -92.000; -462.000; -506.000
866.111; -172.900; -795.000; -824.000
866.358;   88.200; -426.000; -420.000
866.605; 4002.500;  -64.000; -804.000
866.853; 2886.400; -621.000; -537.000
867.100;  -96.000; -728.000; -775.000
867.347; -168.600; -672.000; -611.000
867.594; -110.900; -740.000; -714.000
867.841;  162.900;   97.000;   17.000
868.089; -248.600; -746.000; -698.000
868.336;  -89.100; -477.000; -420.000
868.583; -215.200; -637.000; -741.000
868.830;  -40.700; -131.000; -170.000
869.077; -268.800; -859.000; -787.000
869.324; -189.100; -502.000; -458.000
869.571; -192.600; -398.000; -430.000
869.818; -177.500; -485.000; -439.000
870.065; -138.400; -439.000; -513.000
870.311; -142.400; -456.000; -542.000
870.558; -133.600; -332.000; -311.000
870.805;  -95.700; -320.000; -384.000
871.052; -155.500; -494.000; -369.000
871.298;  -52.400; -204.000; -131.000
871.545;  -44.100; -151.000; -185.000
871.792;  -76.200; -173.000; -222.000
872.038;  -65.900;   43.000; -126.000
872.285; -165.700; -496.000; -387.000
872.532; -117.200; -357.000; -387.000
872.778;   95.700;  556.000;  403.000
873.025; -114.500; -384.000; -359.000
873.271;  131.100;  501.000;  578.000
873.517;  -29.000; -133.000; -209.000
873.764;  -31.200; -193.000;  -80.000
874.010;  -60.100; -143.000; -230.000
874.257;  -12.300;  123.000;   90.000
874.503; -187.300; -579.000; -479.000
874.749;  -77.300;   31.000;  275.000
874.995;  -30.300;  -80.000;  -20.000
875.242; -213.700; -540.000; -478.000
875.488; -149.700; -414.000; -439.000
875.734;  -31.800; -106.000; -234.000
875.980;  295.500; -872.000;-1032.000
876.226;  435.500; -157.000; -255.000
876.472;   45.100;  343.000;  237.000
876.718;  -11.200;  184.000;  158.000
876.964;  -38.600;   56.000;   55.000
877.210; -237.500; -547.000; -677.000
877.456; -213.300; -630.000; -557.000
877.702; -298.000; -821.000; -832.000
877.948; -152.400; -377.000; -497.000
878.193;  114.400;  361.000;  255.000
878.439; -120.600; -487.000; -472.000
878.685;  -86.300; -272.000; -343.000
878.931; -223.500; -618.000; -676.000
879.176;  -90.500; -201.000; -201.000
879.422; -294.000; -933.000; -820.000
879.668;  137.500;   10.000;   79.000
879.913;  209.900;   53.000;  137.000
880.159;  -76.600; -112.000;  -17.000
880.404;  -48.000; -152.000; -162.000
880.650;    6.000;   91.000;  141.000
880.895; -249.200; -670.000; -710.000
881.141; -186.100; -454.000; -428.000
881.386; -261.400; -503.000; -658.000
881.631; -145.800; -311.000; -166.000
881.877;    7.500;  112.000;  -13.000
882.122; -202.700; -684.000; -600.000
882.367; -110.100; -136.000; -186.000
882.612;  -89.400;  -80.000; -176.000
882.858; -281.100; -877.000; -823.000
883.103; -145.200; -297.000; -267.000
883.348; -247.500; -759.000; -852.000
883.593; -221.900; -677.000; -602.000
883.838;  -19.800; -311.000;  -24.000
884.083;  107.500;  353.000;  288.000
884.328; -115.900; -564.000; -545.000
884.573;  -64.500; -196.000; -143.000
884.818;  367.300; -694.000; -531.000
885.063;  187.600; -348.000; -315.000
885.308; -146.800; -475.000; -398.000
885.553;   39.600;  245.000;  325.000
885.797; -201.900; -545.000; -615.000
886.042;  -31.700;    8.000;   58.000
886.287; -115.400; -253.000; -211.000
886.532;  -56.100;   26.000;  204.000
886.776;  -99.200; -407.000; -525.000
887.021; -209.400; -621.000; -574.000
887.265; -224.400; -685.000; -689.000
887.510; -185.300; -557.000; -496.000
887.755; -103.700; -194.000; -164.000
887.999; -200.300; -552.000; -575.000
888.244;  -52.200;  -58.000;  161.000
888.488;   81.700;  371.000;  393.000
888.732; -213.900; -368.000; -520.000
888.977; -227.600; -622.000; -567.000
889.221; -255.800; -683.000; -659.000
889.465; -198.000; -422.000; -566.000
889.710;  -90.800;  -56.000; -299.000
889.954;  110.700;  579.000;  467.000
890.198; -244.800; -584.000; -707.000
890.442; -263.900; -716.000; -712.000
890.687; -268.900; -800.000; -753.000
890.931; -113.900; -273.000; -210.000
891.175; -217.700; -502.000; -500.000
891.419;  -70.100; -105.000; -110.000
891.663; -133.000; -239.000; -112.000
891.907; -261.200; -801.000; -545.000
892.151; -316.500; -920.000; -815.000
892.395; -115.400; -274.000; -387.000
892.638;   36.700;  408.000;  291.000
892.882; -310.100; -780.000; -867.000
893.126;  129.300;  758.000;  558.000
893.370; -108.700; -167.000; -168.000
893.614; -237.300; -714.000; -715.000
893.857; -152.800; -183.000; -197.000
894.101; -201.200; -527.000; -631.000
894.345;  -35.600;  300.000;  150.000
894.588;   71.900;  569.000;  380.000
894.832; -101.900; -178.000;  -84.000
895.075;  -64.800;   15.000;  -92.000
895.319; -177.300; -552.000; -420.000
895.563; -178.600; -413.000; -353.000
895.806; -225.100; -628.000; -741.000
896.049;  -75.000; -576.000; -368.000
896.293;  211.500;  527.000;  405.000
896.536; -142.800; -465.000; -468.000
896.779;  -75.800; -149.000;   -1.000
897.023; -222.700; -751.000; -714.000
897.266;   29.100;  325.000;  269.000
897.509; -315.600; -900.000; -901.000
897.752;  -16.600;  149.000;  171.000
897.996; -317.900; -972.000; -864.000
898.239;  -20.400;  168.000;  102.000
898.482; -183.500; -431.000; -453.000
898.725;    7.000;  101.000;   53.000
898.968; -227.000; -609.000; -744.000
899.211; -141.700; -513.000; -361.000
899.454; -200.900; -633.000; -539.000
899.697;  -72.700;   90.000;  -43.000
899.940; -283.100; -761.000; -757.000
900.182; -140.700; -335.000; -405.000
900.425; -114.400; -150.000; -298.000
900.668;   15.600;  491.000;  350.000
900.911; -161.500; -292.000; -345.000
901.154;  -12.100;  141.000;   -3.000
901.396; -210.100; -407.000; -412.000
901.639; -215.900; -430.000; -496.000
901.882; -308.300; -790.000; -809.000
902.124; -122.200;  -29.000; -143.000
902.367; -151.800; -315.000; -361.000
902.609; -175.900; -476.000; -453.000
902.852; -112.200; -108.000; -260.000
903.094; -214.900; -458.000; -337.000
903.337;  -49.000;  -26.000;   53.000
903.579; -161.200; -228.000; -441.000
903.821; -229.700; -597.000; -744.000
904.064;  -26.100;   85.000;  127.000
904.306; -109.800; -126.000; -166.000
904.548; -125.000; -152.000; -366.000
904.790; -119.700; -195.000; -340.000
905.033; -190.100; -625.000; -577.000
905.275; -195.400; -513.000; -524.000
905.517;  164.800;  468.000;  256.000
905.759; -125.300; -667.000; -761.000
906.001; -135.300; -322.000; -369.000
906.243;  -79.800; -162.000; -224.000
906.485;  220.700; -265.000; -207.000
906.727;  121.900; -499.000; -542.000
906.969;  -11.800;  -30.000; -135.000
907.211;  190.800; -316.000; -382.000
907.453;  364.300; -188.000; -237.000
907.695;    2.900; -158.000; -385.000
907.936;  139.800;  818.000;  706.000
908.178;  -16.600;   92.000; -135.000
908.420;  -63.500; -111.000; -162.000
908.662; -209.100; -633.000; -682.000
908.903; -105.600; -208.000; -123.000
909.145;  -99.600; -240.000; -305.000
909.386;   61.500;  315.000;  280.000
909.628;  119.200;  363.000;  397.000
909.870;   61.300;   29.000;  264.000
910.111; -165.800; -809.000; -949.000
910.353;   17.900; -123.000; -161.000
910.594;    1.400; -574.000; -606.000
910.835;  157.900; -265.000; -326.000
911.077;  186.200; -503.000; -604.000
911.318;  486.300; -505.000; -471.000
911.559;  637.800; -577.000; -880.000
911.801; 2233.600; -284.000; -280.000
912.042;19505.800;  -50.000; -159.000
912.283;40401.200;  404.000;  371.000
912.524; 4641.100; -396.000; -457.000
912.765;  745.600; -193.000;   79.000
913.006;  364.300; -307.000; -338.000
913.247;   61.600; -270.000; -290.000
913.488;   39.900;  -43.000;   30.000
913.729;  -86.800; -373.000; -373.000
913.970;  -78.500;  -96.000; -292.000
914.211;  -62.400; -160.000; -198.000
914.452;  -59.900; -118.000;  -11.000
914.693;  108.800;  510.000;  592.000
914.934;  110.400;  510.000;  440.000
915.175;  -49.700;   53.000;  -95.000
915.415;  -80.300; -137.000;   27.000
915.656;  -53.700;  -28.000;  192.000
915.897; -125.900; -252.000;  -82.000
916.137;  -95.500;   74.000;   -9.000
916.378; -201.100; -573.000; -517.000
916.619;  -71.300; -159.000;  -63.000
916.859;   15.100;  303.000;  330.000
917.100;  354.800; 1655.000; 1070.000
917.340;  155.700;  930.000;  728.000
917.581;  189.400;  965.000;  789.000
917.821;  -28.900; -171.000;  143.000
918.061;   23.400; -199.000;  -72.000
918.302;  -50.700; -152.000; -211.000
918.542;    5.900;  -22.000;    3.000
918.782;   89.900;  369.000;  377.000
919.023;  290.300;  360.000;  427.000
919.263; 2653.900; 8131.000;  202.000
919.503; 1582.700; -137.000;  -54.000
919.743; 1007.500;  390.000;  266.000
919.983;  365.300; -134.000;  -26.000
920.223;  129.600;  135.000;   14.000
920.463;  295.800;  631.000;  554.000
920.703;  187.900;   84.000;   39.000
920.943;  270.700; -110.000;   90.000
921.183;  359.200; -414.000; -405.000
921.423;  826.600;  307.000;  546.000
921.663; 1088.800; -174.000; -257.000
921.903; 2608.000;  237.000;  173.000
922.143;15771.200;  372.000;  389.000
922.383;53215.700;  158.000;  115.000
922.622;13437.800; -120.000;  -15.000
922.862; 1660.100;  796.000;  785.000
923.102;  686.300;  -51.000;   33.000
923.341;  299.100;   59.000;   74.000
923.581;  179.700;  450.000;  360.000
923.821;   80.400;  301.000;  398.000
924.060;   68.500;  351.000;  193.000
924.300;  -73.200;  -16.000; -128.000
924.539;   39.200;  584.000;  473.000
924.779;  123.800;  812.000;  597.000
925.018;    6.000;  247.000;  353.000
925.257;   65.800;  595.000;  666.000
925.497;    5.100;  447.000;  412.000
925.736;  -99.300;  -35.000;  102.000
925.975;   61.800;  687.000;  669.000
926.214;  135.300;  907.000;  850.000
926.454;  102.600;  706.000;  757.000
926.693;   13.300;  419.000;  543.000
926.932;  152.900; 1021.000;  825.000
927.171;  265.200; 1107.000; 1044.000
927.410;  207.000; 1144.000;  967.000
927.649;  143.700;  924.000;  742.000
927.888;   59.400;  590.000;  564.000
928.127;   56.900;  680.000;  678.000
928.366;  122.400;  842.000;  826.000
928.605;  162.700;  831.000;  737.000
928.844;  529.200; 1451.000; 1393.000
929.083; 1027.300;  770.000;  613.000
929.321;  534.600; 1335.000; 1359.000
929.560;  226.700; 1158.000; 1122.000
929.799;   36.400;  574.000;  475.000
930.038;  257.700; 1025.000; 1394.000
930.276;  -47.200;  334.000;  397.000
930.515;   78.400;  827.000;  681.000
930.753;   42.900;  614.000;  589.000
930.992;   66.500;  664.000;  717.000
931.230;   71.800;  847.000;  847.000
931.469;  450.400; 2162.000;  892.000
931.707;  244.100;  840.000;  751.000
931.946;  195.700; 1278.000; 1344.000
932.184;  176.400; 1437.000; 1175.000
932.423;  197.400; 1265.000;  963.000
932.661;  270.100; 1296.000; 1428.000
932.899;  122.200;  987.000;  821.000
933.137;  105.000;  754.000;  564.000
933.376;  366.300; 1664.000; 1335.000
933.614;  391.900; 1759.000; 1196.000
933.852;  180.100; 1357.000; 1171.000
934.090;  377.300; 1722.000; 1747.000
934.328;  300.900; 1252.000; 1457.000
934.566;  227.900; 1431.000; 1110.000
934.804;  297.100; 1263.000; 1309.000
935.042;  948.500; 1861.000; 1850.000
935.280; 3542.100; 2088.000; 2063.000
935.518; 2550.900; 2113.000; 2007.000
935.756;  687.200; 2481.000; 2316.000
935.994;  366.400; 1808.000; 1751.000
936.231;  769.100; 2890.000; 2950.000
936.469;  470.200; 2367.000; 2378.000
936.707;  424.900; 2220.000; 2167.000
936.945;  561.400; 2825.000; 2882.000
937.182;  500.100; 2679.000; 2741.000
937.420;  704.800; 3602.000; 3031.000
937.657;  894.100; 3365.000; 3478.000
937.895;  725.800; 3331.000; 3488.000
938.133;  726.600; 3540.000; 3528.000
938.370;  759.800; 3896.000; 4191.000
938.607;  890.600; 4488.000; 4205.000
938.845; 1184.300; 5587.000; 5549.000
939.082; 1050.900; 5387.000; 5177.000
939.320; 1179.600; 5799.000; 5728.000
939.557; 1363.000; 6549.000; 6491.000
939.794; 1563.800; 7285.000; 7097.000
940.031; 1935.800; 8421.000; 8368.000
940.269; 2270.600; 9552.000; 9107.000
940.506; 2395.600;10901.000;10507.000

