
Integration time [ms]: 100.000
Averaging Nr. [scans]: 40
Smoothing Nr. [pixels]: 0
Data measured with spectrometer [name]: 2101013U2
Wave   ;Sample   ;Dark     ;Reference
[nm]   ;[counts] ;[counts] ;[counts] 

394.013;   51.335; -450.257; -315.536
394.305;  181.332; -461.258; -419.536
394.596; 1620.331; -676.269; -527.514
394.887; 4261.901; -796.268; -654.518
395.178; 1511.164;  145.736;   11.476
395.470;   80.453; -210.263; -356.526
395.761;  133.995;  305.734;  394.479
396.052;   99.577; -545.284; -306.489
396.343;   64.813; -557.276; -454.503
396.634;   43.775; -200.279; -290.497
396.926;   20.648; -618.268; -565.517
397.217;   63.419;   11.725;  -17.504
397.508;   29.288; -366.273; -154.507
397.799;   23.900; -555.279; -571.497
398.090;   11.143; -973.280; -902.495
398.381;   91.360;   11.708;  -11.473
398.672;  -26.788; -585.292; -742.473
398.963;   23.707; -348.279; -373.498
399.254;   77.223;   54.709; -209.475
399.545;  -16.610;-1017.266; -883.520
399.836;   50.700; -407.277; -343.501
400.127;   49.656; -205.295; -209.468
400.418;   30.531; -423.274; -392.506
400.709;   39.577; -359.281; -333.493
401.000;   52.828; -268.291; -309.476
401.290;  112.353;  225.698;  115.545
401.581;   70.156; -166.286; -228.485
401.872;   37.522; -542.298; -486.462
402.163;   56.922; -313.296; -252.467
402.454;   95.224; -123.291; -163.475
402.744;   57.736; -844.297; -813.465
403.035;  234.100; -226.293;  -86.471
403.326;  307.040; -366.292; -384.474
403.617;  339.115;  204.701;  165.539
403.907;  374.934; -593.283; -679.490
404.198; 3706.697; -545.307; -599.446
404.489; 9367.015; -618.283; -588.491
404.779; 2609.608; -618.302; -660.456
405.070;  299.457;  -67.304; -174.451
405.360;  503.577; -259.293; -238.472
405.651;  487.747;  125.699;   98.542
405.942;  179.100;  209.714;  127.516
406.232;  102.893; -432.285; -413.487
406.523;  259.343;  641.706;  758.530
406.813;   59.278; -579.286; -644.484
407.104;  215.159;  261.708;  144.527
407.394;   84.192; -604.299; -591.462
407.685;  151.692;  336.715;  222.513
407.975;   68.564; -400.283; -382.490
408.265;  121.291; -134.289; -190.478
408.556;   68.295; -472.291; -459.475
408.846;  170.594;  474.706;  429.530
409.137;  109.527;   -1.288; -216.480
409.427;   94.218; -193.285; -271.487
409.717;   57.467; -776.273; -692.508
410.007;  126.710;    4.715; -170.486
410.298;  118.935; -360.295; -342.469
410.588;  117.240; -495.285; -510.486
410.878;   51.065; -792.287; -873.482
411.168;  129.900; -481.298; -478.463
411.459;  133.157; -295.283; -242.489
411.749;  101.468; -609.292; -507.474
412.039;   75.900; -755.289; -386.480
412.329;  240.691;   40.722;  132.501
412.619;  222.779;  -62.286; -148.485
412.909;  365.745;  639.711;  594.521
413.199;  313.793; -130.280; -251.495
413.490;  396.458;  521.710;  352.523
413.780;  229.623;-1013.279; -913.496
414.070;  410.964;  -46.276;  235.497
414.360;  411.436; -729.278; -666.498
414.650;  558.135; -726.288; -688.482
414.940;  781.547; -538.280; -441.496
415.230; 1244.432;   50.712;   74.519
415.520; 8702.855;  155.730;   66.486
415.809;35352.601; -305.281; -125.493
416.099;26362.352; -388.277; -229.501
416.389; 7975.829;  435.726;  236.494
416.679; 4554.532;   91.738;   85.473
416.969;  792.596; -527.287; -503.483
417.259;  671.850;  341.721;  171.503
417.549;  918.800;  522.718;  318.508
417.838; 2460.401; -205.268; -147.518
418.128; 8543.515;  650.710;  492.522
418.418; 6975.650; -491.272; -579.509
418.708; 4613.154;    9.726;  -48.506
418.997;18111.374; -474.275; -480.505
419.287;18307.337; -733.273; -790.507
419.577;18004.856; -160.283; -123.489
419.866;57717.975; -588.277; -498.501
420.156;55897.500; -242.270;  -55.513
420.446; 9242.773; -112.263;  -26.526
420.735;  917.668; -376.271; -446.512
421.025;  921.035; 1830.722;  315.502
421.314;  565.890; -203.271; -226.512
421.604;  688.642;   89.732;  233.484
421.893;  441.836; -705.271; -602.511
422.183;  311.273; -487.263; -461.526
422.472;  412.463;  -36.271; -107.511
422.762;  421.248; -416.266; -379.521
423.051;  272.390; -916.276; -916.503
423.341;  340.389; -491.273; -439.507
423.630;  420.505; -121.265;   15.477
423.919;  431.898;   58.725;   49.495
424.209;  498.305;  -31.263;   56.473
424.498;  650.973;   68.732;  161.483
424.787; 1487.755; -535.267; -601.518
425.077; 4388.953;   34.735;   29.478
425.366; 4728.312; -734.262; -744.528
425.655;13589.590;  639.727;  259.493
425.945;35222.970; -313.247; -268.554
426.234;18509.564;  117.741;  300.467
426.523; 7519.071;  -86.259; -350.534
426.812;10058.668;  107.734;  159.480
427.101;15173.662; -127.269; -323.515
427.390;17708.405;  -55.270;  -86.514
427.680; 2487.620; -624.257; -411.538
427.969;  500.083; -330.255; -301.540
428.258;  387.635; -385.257; -477.536
428.547;  524.405;  449.728;  397.490
428.836;  713.803; -421.253; -398.543
429.125; 1003.198; -199.259;  -72.534
429.414;  790.181; -330.251; -294.548
429.703; 4649.931; -231.251; -213.548
429.992;14391.485; -938.250; -828.549
430.281; 9030.689; -397.264; -331.524
430.570;  644.169;  -21.252;   32.454
430.859;  465.845;  279.741;  352.466
431.148;  462.540;  636.752;  631.446
431.437;  343.343;  391.748;  367.454
431.725;  232.936; -544.257; -481.536
432.014;  224.962; -845.253; -756.545
432.303;  433.782; -149.239; -105.569
432.592;  582.822; -460.263; -178.525
432.881; 1448.791; -601.248; -437.554
433.169; 9774.184; -343.255;  -61.540
433.458;19724.449;  445.765;  540.424
433.747; 7625.568; -397.261; -289.529
434.036;  955.328; -275.242; -280.564
434.324; 2984.725; -395.249; -379.551
434.613; 5380.720;   40.757;  159.437
434.902; 1529.395;  333.760;  439.433
435.190;  300.706;   75.761;  295.431
435.479;  194.823;  -52.245;   83.441
435.767;  115.957; -411.244; -427.561
436.056;  254.723; -340.242; -294.563
436.345;  524.448; -372.240; -223.568
436.633;  469.395;   60.750;  383.450
436.922;  204.901;  208.760;  414.432
437.210;  249.887; -194.236;    1.426
437.499;  487.271; -583.235; -432.576
437.787;  571.761; -339.236;  -10.574
438.075;  182.338;   56.761;  162.430
438.364;  219.891;  -44.238;  250.429
438.652;  124.444; -286.226; -138.592
438.941;   93.800;    3.770;  269.415
439.229;    2.541; -665.252; -466.545
439.517;   47.132; -160.234;  -85.577
439.806;   -0.212; -501.225; -290.595
440.094;  172.391;  377.766;  650.421
440.382;   59.421; -653.233; -302.580
440.670;   57.771; -361.235; -285.576
440.959;   13.835; -347.223; -170.599
441.247;   60.514; -151.229; -109.587
441.535;   54.480; -266.235;   31.423
441.823;   11.688; -497.234; -305.578
442.111;  158.419;  173.771;  327.412
442.400;  303.197; -628.245; -335.559
442.688;  517.291; -111.234; -620.579
442.976;  246.642; -786.213; -450.617
443.264;   44.072; -324.224; -364.597
443.552;   67.495; -258.226;   51.408
443.840;  139.328;  602.765;  876.423
444.128;  113.795;  265.767;  269.420
444.416;   -3.053; -694.228; -312.588
444.704;   34.321; -465.219;  -92.605
444.992;   80.474;   -0.226;  240.407
445.280;   22.926; -517.230;  -94.585
445.568;    2.247; -694.212; -396.618
445.856;  150.027; -174.221;  357.398
446.143;  249.392;  -54.220;   -7.604
446.431;  236.927;  -25.228;  625.411
446.719;  168.020;  489.783;  675.391
447.007;  156.594;  481.769;  705.416
447.295;  178.606;  597.777;  871.402
447.583;   84.611; -464.229;  -34.587
447.870;  134.398; -434.221; -202.601
448.158;  249.924; -104.230;  129.415
448.446;  137.818; -800.219; -338.604
448.733;  155.248;   13.776;  269.403
449.021;  208.946;   60.788;  341.382
449.309;  172.665; -296.210;  208.379
449.596;  256.190;  128.783;   59.392
449.884;  229.865; -571.222; -325.600
450.172;  306.609; -756.227; -406.590
450.459;  661.097;  645.786;  780.387
450.747; 3869.463; -411.218; -147.608
451.034;12447.553;  493.772;  889.411
451.322; 9924.625; -413.214; -170.614
451.609;  773.925;  292.777;  508.403
451.897;  932.142; -550.203; -183.634
452.184; 2805.531; -622.223; -400.598
452.472; 2456.941;   97.792;  269.375
452.759;  353.519;  512.781;  864.395
453.047;  105.943; -407.212; -125.617
453.334;   51.603; -732.219; -216.606
453.621;   58.953; -438.214; -161.615
453.909;  124.607;   13.796;  384.368
454.196;  123.587; -299.199; -123.641
454.483;  247.358;  317.798;  540.364
454.771;  162.694; -215.208;  196.374
455.058;   74.173; -316.207;  102.374
455.345;  169.330;   71.807;  344.347
455.632;  133.652; -128.207;  235.373
455.919;   75.340;  -82.196;  182.354
456.207;  -41.232; -774.198; -450.642
456.494;   19.047; -475.200;  -66.639
456.781;   32.377; -399.202; -198.635
457.068;   82.210; -253.206;  -29.628
457.355;   16.762; -698.206; -401.629
457.642;   27.893; -552.205; -290.630
457.929;   45.669; -778.194; -417.651
458.216;  126.619; -575.212; -354.617
458.503;  407.750; -173.193;  -19.652
458.790;  431.592; -864.208; -630.625
459.077;  399.408;  -77.202;  110.364
459.364; 1264.635; -350.195; -210.649
459.651; 2632.083;  -46.206;  220.372
459.938; 1165.005; -864.209; -665.623
460.225;  127.687;  132.799;  276.363
460.512;  -22.963; -836.197; -688.645
460.799;  148.062;  -32.218;  320.392
461.086;  119.503; -370.200; -251.640
461.372;   40.218; -509.198; -279.642
461.659;   77.491; -165.196;  108.354
461.946;   47.648; -445.193;  -54.651
462.233;  227.925;  842.800;  888.361
462.519;  480.071; -814.201; -464.639
462.806; 1563.737; -768.197; -497.645
463.093; 1340.673; -445.191;  -66.656
463.380;   15.249; -920.186; -824.664
463.666;   59.989; -259.197;  -18.646
463.953;  120.779; -406.195; -243.648
464.239;  290.204; -173.195;  -77.648
464.526;  397.417;  413.806;  743.350
464.813;  334.812; -565.190; -304.658
465.099;  347.374;  606.807;  607.348
465.386;  269.929;  903.807;  921.348
465.672;   28.962; -694.197; -522.645
465.959;   61.684; -598.188; -520.662
466.245;   23.179; -468.193; -359.652
466.532;   78.801; -109.195;   63.352
466.818;   41.723; -357.186; -216.664
467.104;  -11.277; -488.182; -415.672
467.391;    5.490; -628.189; -459.658
467.677;   44.528; -289.186;    9.335
467.964;    6.548; -682.189; -471.660
468.250;   53.906; -331.186; -160.665
468.536;   97.416;   90.811;  180.341
468.822;   -0.229; -821.184; -574.668
469.109;  167.796;  351.827;  471.311
469.395;  217.566;  729.808;  787.346
469.681;  257.720;   46.811;  156.341
469.967; 1867.101; -699.188; -382.660
470.254; 4118.410; -494.188; -306.662
470.540; 2561.265; -601.196; -476.646
470.826;  390.436; -488.181; -397.675
471.112;  415.975;  288.816;  113.331
471.398;  110.856; -253.183;  -58.670
471.684;   57.671; -626.177; -447.680
471.970;   37.266; -918.180; -981.675
472.256;   71.465; -521.192; -441.654
472.542;   34.935; -499.171; -434.691
472.828;   53.293; -743.182; -607.672
473.114;   54.513; -380.166; -283.700
473.400;   51.266; -504.175; -293.684
473.686;   59.171; -452.166; -400.701
473.972;   61.909; -230.174; -131.687
474.258;    0.772; -925.173; -843.689
474.544;  349.536; -183.178;   -2.679
474.830;  512.418;  -65.175;   45.316
475.116;  823.814; -123.190; -196.658
475.401; 1128.194; -558.180; -467.676
475.687;  299.217; -725.180; -718.676
475.973;    3.428; -673.181; -770.673
476.259;  255.271;  736.825;  764.315
476.544;  550.931; -539.176; -437.682
476.830; 1407.905; -398.172; -322.690
477.116; 1214.279; -430.177; -336.682
477.401;  186.318;  346.820;  358.324
477.687;    6.391; -289.175; -405.684
477.973;   54.182;   21.819;   28.326
478.258;   -6.479; -448.163; -348.706
478.544;   53.888;   21.815;   61.334
478.829;  -54.658; -818.171; -738.692
479.115;  -31.620; -749.172; -651.690
479.401;   -0.672; -444.174; -449.686
479.686;   71.517; -253.180;  -74.676
479.972;   17.667; -886.178; -776.680
480.257;   47.565; -258.166;  -65.700
480.542;   52.521; -614.170; -469.693
480.828;  249.039; 1288.824; 1392.317
481.113;  -12.939; -464.176; -426.683
481.399;   -5.425; -236.161; -202.711
481.684;  -34.836; -620.166; -462.700
481.969;   45.366; -158.159;  -73.713
482.255;    6.684; -439.169; -285.695
482.540;   24.792; -569.178; -441.680
482.825;   61.843; -395.187; -404.663
483.110;  178.338;  -85.169; -105.696
483.396;  372.018; -840.157; -652.718
483.681;  772.484;  543.826;  730.313
483.966;  303.784; -696.160; -700.712
484.251;   16.958; -404.174; -310.687
484.536;   22.327; -356.165; -378.703
484.822;   41.262; -205.173; -218.687
485.107;   -4.810; -599.152; -502.726
485.392;  134.059;  662.836;  541.296
485.677;   99.100;  354.832;  163.302
485.962;  124.815;  160.843;  270.283
486.247;  136.581;  -14.162;   -8.707
486.532;   84.691; -178.166; -325.701
486.817;  200.643;  381.839;  431.291
487.102;  163.869; -453.154; -514.722
487.387; 1086.045; -637.156; -652.718
487.672; 1981.666; -154.164;  -38.705
487.957; 1207.077; -394.160; -286.711
488.241;  337.685; -290.150; -314.729
488.526; 1190.641; -280.152; -148.726
488.811; 2017.270; -881.177; -818.680
489.096; 1383.747; -666.154; -702.723
489.381;  719.937;    3.847;  162.275
489.666;  660.250; -428.161; -510.710
489.950;  212.526;  558.846;  627.277
490.235;   -6.146; -480.151; -458.728
490.520;  -21.527; -756.161; -723.710
490.804;  -25.252; -827.156; -736.719
491.089;   31.504; -469.149; -299.732
491.374;   52.164; -132.164;  -75.704
491.658;   -3.882; -817.147; -717.735
491.943;  124.721; -657.152; -609.727
492.227;  212.189; -178.155;  -38.721
492.512;   53.939; -294.157; -341.717
492.797;  -39.903; -713.149; -716.731
493.081;  -40.928; -588.147; -598.735
493.366;  -24.950; -751.161; -635.711
493.650;  217.712;  831.859;  917.254
493.935;   81.743; -648.147; -447.734
494.219;  -10.179; -778.142; -687.743
494.503;   -2.059; -585.150; -487.730
494.788;   64.579;   46.842;   74.285
495.072;  135.787;  184.850;  434.271
495.356;  251.833; -463.148; -343.733
495.641;  554.505; -812.146; -736.736
495.925;  461.854; -976.156; -903.719
496.209;   29.404; -599.149; -451.732
496.494;  -39.303; -763.142; -544.744
496.778;   19.694; -364.154; -360.722
497.062;  -38.047; -819.156; -627.719
497.346;   24.729; -869.160; -640.711
497.631;  173.263;  580.852;  560.266
497.915;   94.193;  -64.145;  175.261
498.199;   38.543; -341.157; -277.718
498.483;   56.014; -562.152; -508.725
498.767;  250.638;  301.850;  300.271
499.051;  297.226; -126.149; -100.732
499.335;   76.923; -693.149; -739.731
499.619;  -10.365; -381.129; -423.767
499.903;   32.787; -272.155;  -65.721
500.187;   43.103; -588.153; -316.724
500.471;   28.121; -796.152; -595.727
500.755;  101.774;   62.839;  -96.710
501.039;   16.013; -270.155; -357.721
501.323;   56.064;  -21.141;  264.254
501.607;   23.146; -447.163; -503.706
501.891;   21.995; -607.156; -512.718
502.174;  -35.494; -726.144; -585.741
502.458;   68.175;   89.849;  370.273
502.742;   54.943; -180.138; -191.751
503.026;  220.917; -412.147; -254.734
503.310;  339.190; -437.159; -375.713
503.593;  218.219; -464.147; -325.735
503.877;  144.492; -232.133; -156.760
504.161;  194.306;    2.847;  -50.724
504.444;  187.157; -841.158; -710.716
504.728;  792.313; -487.164; -522.704
505.012; 1113.709; -257.150;  -76.729
505.295;  814.000; -417.161; -212.711
505.579;  847.428; -256.156; -496.719
505.862; 1259.838; -555.145; -333.738
506.146; 1259.943; -681.159; -758.714
506.429;  586.994;  568.841;  461.286
506.713;  138.881; -732.151; -667.728
506.996;  485.768;   90.846;  295.278
507.280;  577.232; -633.165; -474.703
507.563;  396.185; -469.155; -261.721
507.847;  201.079; -423.153; -112.724
508.130;  182.501; -665.161; -456.711
508.413;  228.610; -758.167; -577.700
508.697;  402.185; -151.167;   12.300
508.980;  279.030; -422.153; -312.724
509.263;   27.356; -466.155; -450.720
509.547;   52.059; -124.150;   82.271
509.830;   61.179; -172.160;  140.289
510.113;   99.928;  128.844;  298.281
510.396;   63.737; -530.152; -300.725
510.680;   49.365; -818.145; -812.738
510.963;  210.274;  184.846;  180.277
511.246;  109.243; -493.150; -357.730
511.529;  284.846; -482.145;  -83.739
511.812;  618.063; -250.134;   10.241
512.095;  479.877; -740.151; -396.728
512.378;  109.424; -317.147; -245.736
512.661;   74.052; -703.137; -623.753
512.944;   87.249; -750.142; -637.744
513.227;  110.524; -170.137; -171.752
513.510;   69.331; -479.144; -671.741
513.793;   59.819; -485.140; -435.747
514.076;  164.961;  -43.127;  -39.771
514.359;  181.755; -294.149; -135.732
514.642;  168.402; -442.142; -567.744
514.925; 1126.717;  581.860;  561.253
515.208; 1689.384; -498.134; -443.758
515.491; 1041.826; -276.133; -182.761
515.773;  599.386; -410.143; -337.742
516.056; 3331.885;  249.864;  409.246
516.339; 4376.740; -754.136; -652.755
516.622; 1988.565; -518.150; -488.730
516.904;  540.769;  882.857;  975.257
517.187;  220.972; -730.138; -523.752
517.470;  440.918; -568.143; -510.743
517.752;  732.743; -624.136; -470.756
518.035;  587.307; -708.139; -725.749
518.318;  632.715; -799.136; -744.755
518.600; 4001.805; -300.132; -325.762
518.883; 5542.176;  310.858;   88.256
519.165; 2509.163; -585.138; -426.751
519.448;  433.554;  -61.132;  -19.762
519.730;  228.320; -573.126; -415.773
520.013;  252.896;  588.867;  664.240
520.295;  298.315;  -94.134;  -15.759
520.578;  611.395; -335.131; -305.764
520.860;  838.155; -254.132;   56.238
521.143;  607.021; -763.135; -584.756
521.425;  586.111; -251.125; -279.775
521.707;  976.886; -622.127; -380.771
521.990; 2810.512; -199.127;  167.229
522.272; 3251.996; -116.140;   -4.748
522.554; 1170.137; -237.143; -157.742
522.836;  254.988;  -24.134;   99.241
523.119;  203.290; -496.148; -189.734
523.401;  183.729; -448.130; -314.766
523.683;  163.828; -865.137; -693.753
523.965;  424.845;  408.862;  260.248
524.247;  448.312;   54.878;  170.220
524.529;  326.315; -451.134; -367.759
524.812;  492.506;   -3.130;  191.234
525.094; 1403.044; -773.138; -631.751
525.376; 2182.922; -143.124;   78.223
525.658; 1344.462; -441.136; -339.754
525.940;  100.541; -805.131; -671.764
526.222;   47.791; -188.136;  -88.755
526.504;   67.889; -190.131;   32.237
526.786;   33.518; -960.133; -647.760
527.068;  116.354; -124.123;  -67.778
527.349;    5.632; -865.137; -774.754
527.631;  111.704; -137.132;   22.238
527.913;  255.135; -664.127; -450.771
528.195;  328.927; -761.125; -639.774
528.477;  399.034;  -93.134;  -30.758
528.759;  267.406; -648.130; -522.766
529.040;  157.002; -569.123; -293.778
529.322;   83.006; -235.125;  -10.774
529.604;  103.234;  -47.130;   93.233
529.886;   44.595; -546.126; -302.773
530.167;   68.224;  232.870;  192.235
530.449;   59.698;    1.853;   63.265
530.731;   79.311; -572.122; -459.779
531.012;  166.061; -513.120; -216.784
531.294;  127.134; -118.116;  -43.792
531.575;  214.786;  290.875;  538.225
531.857;  154.903; -548.135; -266.757
532.138;  133.737; -113.141;   40.254
532.420;  118.773;  294.865;  403.244
532.701;   54.271; -722.133; -751.760
532.983;  199.000;  232.867;  182.239
533.264;   42.592; -243.126;  175.228
533.546;  -39.934; -491.136; -508.755
533.827;   33.117;  173.867;   -1.759
534.109;   13.302; -352.135;  -80.757
534.390;  105.134; -725.132; -582.762
534.671;  315.773; -270.135;  -82.756
534.953;  220.605; -751.123; -611.779
535.234;   58.716; -426.117; -255.789
535.515;  -46.079; -891.119; -735.785
535.796;   18.930; -431.128; -193.770
536.078;  -85.579;-1050.124; -904.777
536.359;   19.481;  -22.123;    3.221
536.640;   -3.421; -480.125; -197.774
536.921;  174.915;  225.871;  143.232
537.202;  550.065;  -87.138;  -16.751
537.483;  682.120;  251.869;  377.236
537.764;  268.224;   17.870;   98.235
538.045;  -27.367; -543.134; -371.758
538.326;  -20.883; -596.129; -447.768
538.607;   75.862; -686.127; -476.771
538.888;  280.075;   98.879;    5.218
539.169;  320.343; -704.122; -535.781
539.450;  417.714;  236.871;   16.233
539.731;  279.905; -361.121; -182.783
540.012;  160.861;  199.880;  412.216
540.293;  105.840;   82.876;  158.224
540.574;   -0.216; -895.113; -717.796
540.855;  516.703;  435.879;  377.218
541.136;  680.840;   47.878;  139.220
541.416;  398.107; -161.130; -220.766
541.697;  318.889; -274.131; -170.763
541.978; 1659.000; -270.135; -315.757
542.259; 2132.737; -211.127; -236.771
542.539;  963.826; -191.116; -186.790
542.820;  210.610;  461.875;  480.225
543.101;  154.567;  -52.145;  -77.738
543.381;   52.262; -638.127; -591.771
543.662;  376.059;  159.873; -254.771
543.942;  983.182; -751.127; -830.770
544.223; 1704.592;  193.878;  161.219
544.504; 1109.521; -275.124; -182.777
544.784;  880.769; -592.126; -408.773
545.065; 2556.331;  104.884; -254.791
545.345; 2977.446;  227.881;   14.215
545.626; 1970.683;  -14.113; -108.796
545.906; 1441.598;   77.869;   98.235
546.186;  590.825;   92.874;  -95.773
546.467;  338.424;   99.877;  -95.778
546.747;  510.576;  264.884;  327.210
547.027;  612.194;   91.876;  111.223
547.308;  581.431; -376.127; -530.770
547.588;  577.843;  299.871;  371.232
547.868;  276.874;  458.870;  588.235
548.149;  258.540;  609.885;  593.207
548.429;  240.610; -347.127; -299.771
548.709;  382.411; -645.120; -461.784
548.989;  781.708;   84.882;   88.213
549.269; 3317.728;   10.868;  139.239
549.550; 7841.254;  215.877;  117.222
549.830; 6989.305; -758.111; -556.799
550.110; 1377.314; -468.110; -320.801
550.390; 1310.436; -128.122;  -56.779
550.670; 1952.328; -868.114; -783.795
550.950; 1313.603; -509.121; -471.782
551.230;  250.248;  549.879;  460.218
551.510;   44.651; -381.121; -326.782
551.790;   88.774; -173.109; -127.803
552.070;  337.724;  940.877; 1181.223
552.350;  725.501; -492.119; -377.786
552.630;  966.870;   -2.121;   77.219
552.909;  580.307;  181.884;   73.209
553.189;  376.811;  -49.132;   33.237
553.469;  397.401; -703.119; -514.786
553.749;  374.664; -469.127; -357.772
554.029;  290.071;   33.883;  -24.790
554.308;  273.820; -154.115;  -37.794
554.588;  148.504; -196.128; -204.770
554.868;  148.854; -366.121;  -47.782
555.147;  258.442; -114.115;  -46.793
555.427;  967.559; -260.116; -250.792
555.707; 6252.164; -284.115; -200.793
555.986; 7790.609; -719.111; -538.800
556.266; 3914.175;   23.884;   72.210
556.546;  256.101; -888.121; -675.782
556.825;  454.200; -657.114; -556.794
557.105; 2905.602; -125.128;   17.230
557.384; 3462.580;  122.884;  187.209
557.664; 1348.584; -717.116; -508.792
557.943;  240.278; -557.121; -411.782
558.222;  344.662; -345.118; -344.788
558.502;  433.868; -116.115;  -76.793
558.781;  751.363;  194.885;  499.208
559.061;  669.912; -232.118; -227.788
559.340;  468.918;  302.883;  353.211
559.619; 1170.774;   93.884;  148.210
559.899; 1754.845; -239.117; -266.789
560.178; 1544.043; -778.115; -593.793
560.457; 4832.397; -623.117; -562.790
560.736; 6942.936; -472.111; -482.800
561.015; 4540.074; -500.128; -502.769
561.295;  551.848;  180.893;  215.193
561.574;  456.365;  119.885;  116.207
561.853;  704.354;  274.891;  303.197
562.132;  816.071;  -45.114;  182.206
562.411;  680.146;  396.879;  553.219
562.690;  299.438; -592.115; -458.792
562.969;  189.692;  472.888;  630.203
563.248;  575.468; 2966.878; 2487.219
563.527;  463.910; -290.111; -408.800
563.806;  676.510; -650.127; -521.771
564.085;  709.542; -297.105; -206.810
564.364;  465.724; -594.117; -405.790
564.643;  801.846; -276.121; -223.781
564.922; 3015.922;  221.890;  397.198
565.201; 3140.401; -640.109; -700.803
565.479; 1307.511; -297.115; -219.792
565.758;  597.027; -810.128; -712.770
566.037;  776.078; -155.109; -100.803
566.316;  400.081; -286.116;  -28.791
566.595;   93.414;  -17.115;  -12.793
566.873;  123.462; -166.111;  -79.801
567.152;  -10.559; -490.113; -590.797
567.431;   42.276; -113.116;    6.210
567.709;   74.099; -344.107; -212.807
567.988;  474.875; -810.114; -769.794
568.266;  877.489; -160.115;  -68.793
568.545;  653.949; -644.100; -514.819
568.824;  966.635;  160.885;  356.208
569.102;  993.150; -351.114; -235.794
569.381;  452.409; -492.116; -407.792
569.659;    9.187; -553.113; -553.796
569.938;  135.441; -743.122; -465.780
570.216;  209.506; -225.109; -225.804
570.494;   30.479; -632.114; -572.795
570.773;   47.851;  202.879;  114.218
571.051;   50.178; -373.123; -357.778
571.330;  133.609; -221.113; -174.796
571.608;   94.221; -181.098; -173.823
571.886;  -17.422; -671.111; -581.799
572.164;   -7.296; -739.121; -621.782
572.443;   -9.429; -562.105; -512.811
572.721;   -9.928; -399.117; -289.790
572.999;  -12.386; -280.117; -168.788
573.277;  118.913;  379.894;  620.191
573.555;  450.266;   94.894;   37.190
573.834; 2268.164;  -86.117; -114.788
574.112; 2531.976;  880.893;  811.193
574.390;  763.186; -143.111;  -96.801
574.668;   38.393;  -91.112;  -61.797
574.946;    6.866; -165.106; -187.810
575.224;   33.901;   71.891;  -16.803
575.502;    2.953; -200.116; -204.791
575.780;  -51.806; -767.112; -829.798
576.058;  227.060; 1589.889; 1004.200
576.336;    4.267; -210.110; -129.801
576.614;  -29.631; -511.112; -340.798
576.891;  155.495; -711.115; -823.794
577.169;  845.241; -158.108; -285.805
577.447;  930.751;  169.893;  202.193
577.725;  372.200;  629.888;  854.201
578.003;   44.597;  -71.112; -371.798
578.280;  155.232; -208.104; -242.812
578.558;  111.568; -450.115; -422.793
578.836;  154.853; -210.114; -145.795
579.114;   86.642; -630.112; -670.797
579.391;   90.066;   -6.117;  -18.789
579.669;  -46.579; -595.114; -704.794
579.947;  290.472; -326.107; -127.806
580.224;  592.596; -692.107; -524.806
580.502;  509.602;  127.893;   76.193
580.779;   55.448;  -42.117;   75.210
581.057;  -49.419; -584.109; -470.804
581.334;  -68.875; -726.102; -695.815
581.612;   48.042;   54.895;  511.190
581.889;  -14.308;  -83.101; -129.818
582.167;  -34.066; -298.099; -190.821
582.444;  -73.815; -845.102; -814.817
582.721;   99.761;  657.899;  715.183
582.999;   95.881; -326.100; -167.821
583.276;  932.358; -812.123; -713.779
583.553; 1230.304; -364.102; -294.816
583.831;  450.678; -607.104; -631.812
584.108;   78.663;  349.892;  174.195
584.385;   51.625; -122.102;  -98.815
584.662;  -37.162; -651.111; -828.801
584.940;   49.562;  204.889;  204.199
585.217;   -1.689;  -73.113; -303.796
585.494;   48.473;   71.890;  118.198
585.771;  358.582; -250.109; -354.804
586.048;  829.186; -196.113;  -76.796
586.325;  537.066; -721.110; -773.801
586.602;  130.508;  230.896;  213.188
586.879;   29.976; -499.100; -580.820
587.156;  116.143; -156.105; -331.810
587.433;   12.357; -701.102; -667.817
587.710;  121.595;  152.888;  234.202
587.987;  469.224; -264.105; -236.811
588.264; 1195.697;  315.888;  387.202
588.541; 1961.711;  -61.104;   26.187
588.818; 4083.485;   72.892;  171.196
589.095; 3502.155; -163.104; -174.812
589.371;  587.755; -459.109; -414.804
589.648;   61.676; -581.107; -437.807
589.925;   94.855; -517.114; -621.795
590.202;  102.620; -741.112; -607.798
590.478;  160.727; -166.105;  -73.811
590.755;  419.642; -241.108; -132.806
591.032; 3851.419; -741.110; -699.802
591.308; 5463.170; -732.094; -790.831
591.585; 2791.068; -573.110; -560.802
591.862;  325.684;-1056.102; -950.817
592.138;  162.389; -475.108; -474.805
592.415;  268.009; -486.104; -495.813
592.691; 2178.281;  460.896;  518.188
592.968; 2969.023; -208.098; -123.824
593.244; 1417.601; -695.116; -595.790
593.521;  120.960; -105.102;  -42.817
593.797;   49.913; -810.122; -720.780
594.074;  561.164; -611.096; -588.826
594.350;  979.402;  828.905;  729.172
594.626;  472.363; -303.111; -283.801
594.903;  255.785; -643.101; -645.817
595.179;  287.588;  243.896;  418.187
595.455;   48.078; -136.107; -150.807
595.731;   19.540;  -19.103;  -38.814
596.008;  -11.219; -464.111; -434.800
596.284;   78.904; -187.100; -242.820
596.560;  142.003; -501.093; -493.833
596.836;  352.621; -173.105;  -70.810
597.112;  605.590; -582.108; -437.805
597.388;  474.711;  -49.097;  -48.826
597.665;  159.764;  437.887;  530.203
597.941;  -24.061; -572.089; -658.839
598.217;   57.122; -323.110; -293.802
598.493;  428.484;   61.891; -204.804
598.769;  832.822; -175.100;  -50.819
599.045;  525.744; -490.108; -562.806
599.321;  124.528; -193.100; -261.820
599.597;  266.308; -355.109; -476.804
599.872;  757.311;  409.896;  429.187
600.148;  599.488;  -61.097; -172.826
600.424;  466.050;   91.893;  202.193
600.700;  418.202; -170.107; -280.807
600.976;  213.056; -442.097; -464.825
601.252;  419.029; -226.109; -272.803
601.527;  438.587; -833.104; -840.813
601.803;  282.227; -453.105; -404.812
602.079;  311.972; -124.100; -118.819
602.354;  926.340; -620.092; -531.835
602.630; 1300.711; -140.113; -482.796
602.906; 3503.267; -910.101; -863.818
603.181;10619.576; -627.119; -534.786
603.457; 8938.485;   98.903; -278.826
603.733; 1318.006; -605.120; -626.783
604.008; 1456.792; -245.106; -164.810
604.284; 4825.737; -636.101; -580.817
604.559; 4168.400;   -3.112;  -42.799
604.835;  769.495; -163.105; -225.810
605.110;  708.210; -732.099; -892.821
605.385; 1069.831;  224.907;  267.167
605.661; 1064.881; -625.095; -729.829
605.936; 1986.294; -664.108; -737.806
606.211; 1599.548;  -17.103; -170.815
606.487;  363.173; -329.114; -376.794
606.762;  111.226; -791.119; -745.786
607.037;   23.771; -501.105; -433.810
607.313;  -11.453; -589.096; -574.828
607.588;   28.591; -375.106; -137.810
607.863;   83.941;  -28.101; -143.818
608.138;  257.846;  513.890;  516.198
608.413;  106.089; -576.099; -592.822
608.688;  128.739; -203.108; -267.805
608.964;  363.284; -509.106; -218.809
609.239;  444.417; -107.105; -212.810
609.514;  378.752;  281.895;  240.188
609.789; 1088.257; -187.104; -716.812
610.064; 1386.721; -435.096; -609.827
610.339; 1434.955; -855.109; -799.804
610.614; 2003.504; -131.100; -315.820
610.889; 1062.202;  215.895;  107.188
611.163;  115.253; -407.104; -591.812
611.438;  165.675;   81.886; -167.794
611.713;   68.412; -467.101; -499.817
611.988;  135.865; -144.101; -328.818
612.263;   63.100; -771.102; -717.815
612.538;  310.511;  385.887;  251.204
612.812;  377.655; -832.100; -911.820
613.087;  287.971; -358.098; -338.823
613.362;   -5.647; -497.107; -557.807
613.637;   64.893;  261.897;  138.186
613.911;   16.066; -256.092; -345.835
614.186;  238.626; -249.107; -292.807
614.460; 1174.080; -842.081; -758.854
614.735; 1301.167;  -55.087;  -17.843
615.010;  273.930;   43.912;  -82.841
615.284;  362.564;  360.892;  246.195
615.559;  660.514; -792.092; -955.835
615.833;  470.262;  -76.099;  -87.822
616.108;   41.304; -225.090; -390.837
616.382;  210.094;  274.913;  402.156
616.656;  272.254; -241.090; -232.837
616.931;  832.838; -785.099; -700.822
617.205; 1715.812; -973.104; -979.813
617.480; 1556.258;  -91.125;    6.225
617.754;  302.155; -396.125; -128.774
618.028;   68.769; -369.129; -382.768
618.302;  112.462;   73.892;  -25.805
618.577;  -13.755; -371.103; -518.815
618.851;  -35.875; -399.109; -600.803
619.125;  -26.785; -335.134; -378.759
619.399;  -20.462; -244.104; -374.813
619.673;  -23.240; -330.115; -515.792
619.947;  -19.172; -333.114; -448.795
620.222;   12.114; -198.110; -204.801
620.496;   31.978;  -47.121;  -96.782
620.770;   45.168; -187.122;  -93.781
621.044;  289.243;  323.895;  346.190
621.318; 1175.957; -653.120; -614.783
621.592; 1078.679; -430.121; -409.783
621.866;  663.476; -476.112; -572.799
622.140;   68.428; -207.116; -356.791
622.413;   90.806;  138.889;  112.200
622.687;   -5.263; -746.101; -492.817
622.961;   43.537; -130.108; -143.805
623.235;  -23.968; -633.111; -661.800
623.509;  -75.474; -816.105; -848.811
623.783;   25.623;  -12.107;   48.193
624.056;   17.208; -254.120; -280.783
624.330;   83.543;   63.888;   -3.797
624.604;  116.024; -271.116; -355.790
624.877;  122.094;  180.890;   26.198
625.151;   87.772; -249.114; -238.794
625.425;  -22.835; -150.103; -283.814
625.698;  -44.356; -367.119; -374.785
625.972;  -70.503; -799.110; -765.802
626.245;   92.676;  685.884;  484.210
626.519;  -34.987; -426.120; -340.784
626.792;  -11.698; -192.107; -380.807
627.066;  -65.116; -485.122; -662.779
627.339;  -74.282; -736.110; -663.802
627.613;   49.236;  351.880;  148.216
627.886;   78.100;  187.891; -612.803
628.160;   10.056;  312.880; -161.783
628.433;  -66.438; -695.125; -703.775
628.706;  -65.462; -517.120; -615.784
628.979;   48.119;  296.876;  117.223
629.253;  -45.825; -785.119; -833.786
629.526;  633.793; -334.126; -253.772
629.799;  651.778; -641.123; -479.778
630.072;  326.271; -497.128; -516.769
630.346;    0.276;-1115.116;-1080.790
630.619;  753.928; -467.107; -545.808
630.892;  952.258;  709.889;  593.200
631.165;  480.913;  790.896;  679.187
631.438;  -19.028;-1092.112;-1055.798
631.711;   65.457;  453.877;  257.221
631.984;  -38.355; -523.117; -624.789
632.257;  -21.284; -636.117; -681.789
632.530;  -24.480; -412.119; -433.785
632.803;   39.069; -109.115;    7.207
633.076;  -52.576; -360.123; -422.777
633.349;   26.601;  173.872;  121.231
633.622;  -39.382; -187.119; -240.785
633.895;  -93.042; -903.120; -823.783
634.167;  -63.930; -496.126; -525.773
634.440;    2.009;  -19.116; -137.792
634.713;   14.899;  -22.119; -120.786
634.986;   97.838;  593.871;  453.233
635.258;  -54.858; -507.115; -597.793
635.531;   90.536;  742.882; -343.788
635.804;  -40.731; -303.117; -318.789
636.077;  -74.771; -830.116; -852.791
636.349;   50.965; -586.115; -474.793
636.622;  465.192; 1695.874; 1392.228
636.894;  406.088; -474.120; -909.784
637.167;  318.509; -836.127; -789.771
637.439;   63.305; -278.128; -213.770
637.712;  -26.956; -312.126; -293.772
637.984;  -63.395; -635.116; -707.791
638.257;  506.000;  515.877;  488.222
638.529;  937.713; -881.125; -924.776
638.802;  417.246; -508.128; -449.769
639.074;  -88.158; -927.122; -952.781
639.346; -104.945; -942.135; -930.757
639.619;   12.850;  -79.142; -319.744
639.891;   -1.691;  -83.122; -168.779
640.163;  -72.888; -689.122; -756.780
640.435;   49.114;  273.878;  103.220
640.708;   26.591;  -72.122; -132.780
640.980;   18.718; -366.122; -362.781
641.252;  235.146;  -25.121;  -71.781
641.524; 2497.048;  580.879;  573.219
641.796; 2748.325;-1094.121; -907.782
642.068;  503.477; -191.121; -300.782
642.340;  -33.670; -486.121; -566.783
642.613;   56.257;  294.880;  323.217
642.885;  -68.216; -787.120; -878.783
643.157;   -1.889; -810.120; -658.784
643.428;   78.114;  170.880;  218.216
643.700;  -55.584; -498.120; -425.784
643.972;  -29.232;  -16.119; -133.785
644.244;  -84.005; -474.119; -559.785
644.516;  -41.303; -250.119; -114.786
644.788;   65.475;  662.881;  548.214
645.060;  -22.523;  -12.119; -124.786
645.332; -101.846; -525.118; -535.787
645.603;   24.206;  479.882;  342.213
645.875;  -66.116; -334.118; -369.787
646.147;  146.486; 1487.882; 1242.212
646.418;    5.763; -931.117; -918.788
646.690;  303.340; -714.117; -715.789
646.962;  126.418; -413.117; -451.789
647.233;   -7.705;   15.883;   11.211
647.505;  -84.178; -595.117; -475.790
647.776;   23.824;  328.884;  229.210
648.048;   28.251; -248.116; -418.790
648.320;  -38.746; -752.116; -679.791
648.591; -139.894;-1055.116; -958.791
648.862;  -82.167; -505.116; -577.792
649.134;   21.960;  115.885;  198.208
649.405;  -13.312; -661.115; -618.792
649.677;  -16.785; -475.115; -598.793
649.948;   23.392; -181.115; -296.793
650.219;    0.019;  -37.115; -147.793
650.491;  -83.078; -431.114; -520.794
650.762; -104.601; -705.114; -731.794
651.033;  -67.174; -437.114; -424.795
651.304;  -66.497; -743.114; -728.795
651.576;  -37.219; -680.114; -645.795
651.847;  -27.642; -250.113; -140.796
652.118;  -25.065;  -32.113; -189.796
652.389; -102.288; -639.113; -722.796
652.660;  -37.736; -147.113;  -89.797
652.931; -133.208; -897.112; -871.797
653.202;  -73.006; -382.112; -541.798
653.473;  -43.804; -633.112; -533.798
653.744;  293.173; -595.112; -590.798
654.015;  259.826; -356.112; -303.799
654.286;  -37.697; -642.111; -663.799
654.557;  -21.145; -586.111; -521.799
654.828; -131.943;-1114.111;-1088.800
655.099;  -79.865; -404.111; -291.800
655.370;  -98.138; -427.111; -543.801
655.641;  -99.886; -656.110; -714.801
655.911; -106.684; -618.110; -638.801
656.182;   51.268;  437.890;  387.198
656.453;   96.646;  830.890;  746.198
656.724;  -53.652; -466.110; -426.802
656.994;  -62.450; -553.109; -568.803
657.265;  -78.223; -862.109; -873.803
657.536;  -85.020; -500.109; -377.804
657.806;  -98.218; -561.109; -593.804
658.077; -121.016; -866.109; -950.804
658.347;  -76.014; -523.108; -598.805
658.618; -112.036; -646.108; -694.805
658.888;  -22.534;  -41.108;  112.195
659.159;  -73.407; -432.108; -548.806
659.429;   19.595; -292.108; -349.806
659.700;   58.148; -435.107; -390.807
659.970;   34.500; -370.107; -359.807
660.241;   88.377; -754.107; -921.807
660.511;  816.854; -147.107; -174.808
660.781;  213.056; -793.106; -748.808
661.052;  -41.741; -222.106; -381.808
661.322;  -30.864;   21.894;   -9.809
661.592;   23.188;  257.894;  148.191
661.862;  -74.835; -369.106; -382.810
662.133;  -80.257; -551.105; -502.810
662.403; -111.930; -770.105; -676.810
662.673;  -62.228; -256.105; -213.811
662.943;  -92.976; -612.105; -551.811
663.213;   -3.323;  -85.105;  -81.811
663.483;  -69.321; -593.104; -568.812
663.753;  -58.519; -194.104; -152.812
664.023;  -22.142;   68.896;  -32.813
664.293;  -59.040; -319.104; -126.813
664.563; -107.162; -694.104; -648.813
664.833; -117.410; -743.103; -608.814
665.103; -123.083; -730.103; -793.814
665.373; -106.206; -766.103; -806.814
665.643;  -39.403; -863.103; -918.815
665.913;  113.024; -534.103; -714.815
666.182;  268.201; -685.102; -719.816
666.452;  450.578;  -22.102;  -89.816
666.722;   48.981; -724.102; -784.816
666.992; -111.342; -948.102; -921.817
667.261;  -67.690; -824.102; -808.817
667.531;  302.512;  134.899;   45.183
667.801;  864.090; -440.101; -412.818
668.070;  319.342;  714.899;  697.182
668.340;  -66.781; -883.101; -840.819
668.609;  118.796;  588.900;  301.181
668.879;  -65.727; -490.100; -558.819
669.149;  -52.249; -539.100; -516.820
669.418;  -96.797; -698.100; -726.820
669.688;    6.055; -482.100; -666.820
669.957;  160.432; -423.099; -546.821
670.226;   -0.665; -268.099; -331.821
670.496;  -85.738; -431.099; -635.822
670.765;  -73.811; -418.099; -501.822
671.034; -132.334; -872.099; -828.822
671.304;   -3.131;   55.902; -111.823
671.573; -129.379;-1085.098; -957.823
671.842;  146.773; -380.098; -294.823
672.112;  100.275; -692.098; -586.824
672.381;   34.302; -239.098; -214.824
672.650; -106.920;-1005.097;-1021.825
672.919;  -70.768; -631.097; -507.825
673.188;  -66.941; -681.097; -878.825
673.457; -111.589;-1101.097;-1143.826
673.726;  -67.436; -579.096; -646.826
673.995;  -18.634; -533.096; -479.826
674.265;    9.243; -263.096; -333.827
674.534;   43.745; -183.096; -235.827
674.802;   78.073; -618.096; -703.828
675.071; 1422.475; -886.095; -801.828
675.340; 6231.552; -464.095; -339.828
675.609; 2036.829;  103.905;   82.171
675.878;  208.682; -949.095; -893.829
676.147;   57.784;  -26.095;   -8.829
676.416;  151.611; -210.094; -294.830
676.685; 1071.963; 1000.906; -622.830
676.953;  240.390; -603.094; -452.831
677.222;   -7.532; -193.094; -273.831
677.491;  -13.655;  -24.094; -127.831
677.759;   -3.778;   11.907;  172.168
678.028;   -3.776; -279.093; -222.832
678.297;   -1.398;   71.907;  197.168
678.565; -124.221; -898.093; -944.833
678.834;  -36.369; -311.093; -268.833
679.102;  -76.717; -411.092; -391.834
679.371; -133.189; -898.092; -727.834
679.639; -129.787; -797.092; -786.834
679.908; -118.110; -794.092; -724.835
680.176; -138.233; -895.091; -941.835
680.445;  -58.481; -346.091; -352.835
680.713;  -17.103;  -58.091;  -23.836
680.982;  -74.076; -523.091; -525.836
681.250; -103.949; -578.091; -507.837
681.518;  -92.847; -534.090; -751.837
681.787;    5.356; -204.090; -167.837
682.055;  -31.767; -490.090; -422.838
682.323; -144.815; -993.090; -992.838
682.591;   78.437; -216.090; -538.838
682.859;  154.615;    9.911;  -35.839
683.128;   28.467;  232.911;  497.161
683.396; -135.106;-1102.089;-1122.840
683.664;  -30.554; -241.089;   21.160
683.932;   -6.026;  144.911;  -76.840
684.200;  -72.724; -576.088; -320.841
684.468;  -15.422;  -73.088; -124.841
684.736;  -18.070; -214.088; -175.841
685.004; -107.993;-1024.088; -982.842
685.272;   11.810; -880.088; -774.842
685.540;  -35.238; -499.087; -557.843
685.808;  -65.061; -651.087; -682.843
686.076;  -77.259; -894.087; -969.843
686.343;  -39.506; -601.087; -815.844
686.611;   79.546; -195.087; -224.844
686.879;  603.348; -530.086; -553.844
687.147; 4954.775; -483.086; -480.845
687.414; 1482.353;  -12.086; -169.845
687.682;   78.330; -658.086; -757.846
687.950;  468.032;  259.915;  263.154
688.217;  102.384; -792.085; -760.846
688.485;   33.037; -632.085; -636.847
688.753;  822.639;  -11.085; -102.847
689.020;  377.341; -820.085; -851.847
689.288;  -67.082; -853.084; -787.848
689.555;   -8.755; -195.084; -148.848
689.823;  -42.927; -241.084; -345.849
690.090;  -74.700; -546.084; -651.849
690.358; -131.998; -877.084; -897.849
690.625;   11.829;  120.917;   45.150
690.892;  -68.693; -403.083; -369.850
691.160;   -1.741;   72.917;  -35.850
691.427;   18.111;  141.917;  130.149
691.694; -111.987; -855.083; -929.851
691.962; -119.284;-1177.082;-1060.852
692.229;   23.468;  127.918;   56.148
692.496;  126.245;  130.918;  -49.852
692.763;   42.647; -164.082; -201.853
693.031;  -32.726; -739.082; -716.853
693.298;   -5.848; -509.081; -368.853
693.565;  421.829; -155.081; -163.854
693.832; 2023.106;   -5.081;   -9.854
694.099;  280.183; -643.081; -642.855
694.366;  -22.589; -882.081; -896.855
694.633;  -10.937; -920.080; -633.855
694.900;  741.165; 4367.920; -114.856
695.167;  634.892; -214.080; -380.856
695.434;  198.920; -646.080; -623.856
695.701;  247.297;  121.921;  -61.857
695.968;  681.749; -365.079; -361.857
696.234; 1143.326; -415.079; -646.858
696.501;12324.629; -776.079; -614.858
696.768; 6947.781; -554.079; -617.858
697.035;  433.783; -632.078; -667.859
697.302;   88.610; -448.078; -552.859
697.568;   45.937; -458.078; -497.859
697.835;   -5.160; -683.078; -624.860
698.102;    0.992; -498.078; -407.860
698.368;   77.769;  384.923;  396.139
698.635;   -4.429;  -47.077; -424.861
698.901;   -1.401; -240.077; -348.861
699.168;  140.651; -534.077; -456.862
699.435;  137.478;  -72.077;  -13.862
699.701;  -85.770; -868.076; -764.862
699.968;   19.783;  144.924; -441.863
700.234;  -85.465; -783.076; -822.863
700.500;  -43.688; -448.076; -539.864
700.767;    9.589;   -1.075;   26.136
701.033; -108.009;-1015.075; -963.864
701.299;  -40.131; -450.075; -483.865
701.566;  130.546;  950.925;  763.135
701.832;   52.873;  -31.075;  -76.865
702.098;  -67.625;-1054.074;-1034.866
702.365;  -31.047;-1098.074;-1030.866
702.631;   28.305;-1038.074;-1063.867
702.897; 1786.132; -765.074; -676.867
703.163; 3342.859;  348.926;  254.133
703.429;  251.037; -256.073; -273.868
703.695;    3.139; -796.073; -792.868
703.961;   58.166; -214.073; -210.868
704.227;  -30.132; -630.073; -725.869
704.493;  150.621;  613.927;  510.131
704.759;    7.548; -565.072; -540.870
705.025;   69.125; -203.072; -194.870
705.291;   22.952; -666.072; -562.870
705.557;  206.529;  719.928;   34.129
705.823;   76.682; -742.072; -694.871
706.089;  201.609; -307.071; -326.871
706.355;  428.186; -315.071; -244.872
706.620; 6277.613; -776.071; -729.872
706.886;10449.316; -309.071; -362.873
707.152; 1149.268; -818.070; -973.873
707.418;   60.720;-1153.070;-1186.873
707.683;   40.597; -550.070; -530.874
707.949;  -18.025; -547.070; -578.874
708.215;   22.327; -129.070; -207.874
708.480;   14.454; -520.069; -420.875
708.746;  146.831;   68.931;   28.125
709.011;  -43.717; -578.069; -612.876
709.277;  -46.739; -538.069; -543.876
709.542;  -38.712; -428.069; -387.876
709.808;   21.840;  -59.068;   89.123
710.073;  -72.883; -577.068; -695.877
710.339;  -17.330; -242.068; -228.877
710.604;  133.222; -780.068; -845.878
710.869;  533.699; -277.068; -366.878
711.135;  -43.324; -715.067; -628.879
711.400;  -80.221; -507.067; -608.879
711.665;  -39.544; -404.067; -479.879
711.931;  -62.892; -661.067; -677.880
712.196;  -94.790; -876.067; -954.880
712.461;  194.088; -402.066; -490.880
712.726;  305.715; -727.066; -771.881
712.991;  -51.158; -647.066; -664.881
713.256;  -42.931; -350.066; -332.882
713.521;  -38.154; -417.065; -381.882
713.787;  -35.376; -454.065; -472.882
714.052;  -14.624; -214.065; -400.883
714.317;  -56.372;-1045.065; -981.883
714.581; 1263.130; -374.065; -268.883
714.846; 2166.583; -822.064; -888.884
715.111;  190.835;  261.936;  257.116
715.376;    1.387;  -86.064; -223.885
715.641;   13.639; -365.064; -367.885
715.906;  481.892;   15.936; -551.885
716.171;  207.469;  221.937;  209.114
716.436;   87.821;  -78.063; -104.886
716.700;  -75.827; -818.063; -692.886
716.965; -122.800; -794.063; -807.887
717.230;  -55.147; -339.063; -392.887
717.494;  -27.945;  -40.062; -134.888
717.759;  -69.518; -784.062; -640.888
718.024;   -1.766;  269.938;  250.112
718.288;   77.687;  685.938;  395.111
718.553; -126.236; -803.062; -977.889
718.817; -122.059; -883.061; -899.889
719.082;  -22.057; -115.061; -125.890
719.346; -123.454;-1000.061; -947.890
719.611;  -44.802; -300.061; -255.891
719.875;  -87.825; -568.060; -537.891
720.140;  -41.148; -453.060; -603.891
720.404;   76.280; -136.060; -249.892
720.668; 1263.382; -475.060; -411.892
720.933;  557.684;  146.940;  137.108
721.197;  -72.114; -667.059; -600.893
721.461; -114.012; -851.059; -826.893
721.725;   -6.709;  -21.059; -250.894
721.990;  -47.232; -284.059; -204.894
722.254;  -34.930;  -26.059; -108.894
722.518;  -62.378; -286.058; -442.895
722.782;  -85.575; -743.058; -594.895
723.046;  149.977;  614.942;  570.105
723.310;   10.029;  374.942;  210.104
723.574;  -80.869; -654.058; -614.896
723.838;  -86.166; -576.057; -642.897
724.102;  -39.664; -226.057; -239.897
724.366; -116.562;-1032.057; -978.897
724.630;  -81.085; -749.057; -571.898
724.894;  -59.683; -722.057; -514.898
725.158;   -2.505;   38.944; -295.898
725.422;  -31.978; -394.056; -327.899
725.685;  -26.351; -441.056; -349.899
725.949;  -72.274; -566.056; -519.900
726.213;  -34.496; -732.056; -811.900
726.477;  335.331;-1020.055; -933.900
726.740;  273.408; -274.055; -104.901
727.004;  450.085; -384.055; -510.901
727.268; 4418.788; -442.055; -400.901
727.531; 1502.840; -961.055; -775.902
727.795;   -4.883; -713.054; -673.902
728.059;  -30.631; -552.054; -557.903
728.322;  -48.478; -841.054; -669.903
728.586;   98.949; -692.054; -701.903
728.849;  -39.649; -695.053; -756.904
729.112;  -98.197; -812.053; -912.904
729.376;  -91.445; -959.053; -905.904
729.639;  -54.392; -536.053; -536.905
729.903;  -97.740; -733.053; -699.905
730.166;  -33.338; -437.052; -399.906
730.429;  -20.661; -317.052; -468.906
730.693;  -59.208; -355.052; -894.906
730.956;  229.119;  810.948;  651.093
731.219; 1066.271; -310.052; -103.907
731.482;  240.498;-1003.051; -894.907
731.745;  262.401; -794.051; -935.908
732.009;   30.303;  -30.051;   50.092
732.272;  -87.745; -904.051; -771.909
732.535;  -22.693; -300.051; -310.909
732.798; -133.641;-1083.050;-1166.909
733.061;  -42.213; -430.050; -456.910
733.324;   20.464;   31.950; -180.910
733.587;   94.966;  290.950;  365.090
733.850;  -42.032; -973.049;-1050.911
734.113;   56.421;   33.951;   32.089
734.376;   53.973; -328.049; -447.912
734.639;  263.575; 1188.951; 1011.088
734.901;  113.327; -180.049; -402.912
735.164;  696.055; -883.048; -837.913
735.427; 2050.107; -166.048; -355.913
735.690;  200.759; -205.048; -234.913
735.952;   40.811; -923.048; -925.914
736.215;   51.389;-1113.048;-1009.914
736.478;  122.241; -771.047; -774.915
736.740;  310.018;   33.953;  129.085
737.003;  854.295; -658.047; -672.915
737.266; 6131.172;  -94.047;   46.084
737.528;  759.200; -682.047; -660.916
737.791;  470.552; -316.046; -327.916
738.053;  971.429;  465.954;  649.083
738.316;13131.731; -162.046; -136.917
738.578;11511.034; -770.046; -736.918
738.841;  678.161; -382.046; -446.918
739.103;  292.838; -875.045; -777.918
739.365;  766.490;   79.955;  -69.919
739.628;   71.868; -884.045; -805.919
739.890;   16.745; -758.045; -710.919
740.152;   -4.603; -692.044; -754.920
740.414;   38.199; -408.044; -359.920
740.677;   -6.299; -785.044; -634.921
740.939;   -2.071; -587.044; -487.921
741.201;  422.281; -432.044; -572.921
741.463;  139.933; -689.043; -745.922
741.725;   42.060;  -21.043; -199.922
741.987;   81.038;  220.957;  116.078
742.249;   75.840; -751.043; -859.923
742.511;  383.917; -703.043; -794.923
742.773;  102.969; -546.042; -546.924
743.035;  156.297;  796.958;  533.076
743.297;   10.449; -963.042;-1013.924
743.559; 1080.776; -278.042; -262.925
743.821;  195.678; -735.042; -744.925
744.083;   44.856;  -44.041; -149.925
744.345;  -53.692; -869.041; -892.926
744.607;   61.210;   75.959;  122.074
744.868;  -17.263; -490.041; -554.927
745.130;  -78.311; -994.041;-1008.927
745.392;   66.042;   -1.040;  -44.927
745.653;   22.994; -411.040; -378.928
745.915;  174.646;  896.960;  631.072
746.177;   95.273;   35.960;  -43.928
746.438;   51.451; -428.040; -543.929
746.700;   16.778; -947.039; -988.929
746.961;   76.730; -659.039; -740.930
747.223;  223.432; -190.039;  -74.930
747.484;  166.285; -391.039; -471.930
747.746;  240.112;  -23.038; -106.931
748.007;  231.164; -647.038; -689.931
748.269;  448.766; -468.038; -440.931
748.530;  804.644; -852.038; -638.932
748.791;  425.671; -354.038; -420.932
749.053;  635.898;  286.963;  163.067
749.314;  689.925; -236.037; -169.933
749.575;  841.602; -945.037; -905.933
749.836; 1219.430; -217.037;   86.066
750.098; 3085.457;  -60.037;  -21.934
750.359;49834.859;  414.964;  555.066
750.620;16213.761; -121.036; -220.935
750.881; 1559.364; -585.036; -513.935
751.142; 1978.616; -950.036; -938.936
751.403;21036.893; -789.036; -705.936
751.664;11996.345;-1034.035; -999.936
751.925;  742.623; -175.035; -262.937
752.186;  443.350; -298.035; -278.937
752.447;  245.977; -590.035; -445.937
752.708;  137.954; -532.035; -648.938
752.969;   81.631; -566.034; -576.938
753.230;   64.359; -777.034; -672.939
753.491;   56.336; -650.034; -631.939
753.751;  102.788;  109.966;   19.061
754.012;  135.940;  258.967;  181.060
754.273;  111.543; -174.033;  -71.940
754.534;   76.570; -487.033; -580.940
754.794;  -34.403; -926.033; -911.941
755.055;  158.449; 1051.967;  881.059
755.316;  -19.448; -700.032; -566.942
755.576;   -9.346; -606.032; -576.942
755.837;   -2.994; -527.032; -695.942
756.097;  -11.167; -530.032; -564.943
756.358;  -48.739; -725.032; -770.943
756.618;   -6.412; -705.031; -641.943
756.879;   39.840; -254.031; -349.944
757.139;  -73.133;-1098.031;-1116.944
757.400;  -36.381; -538.031; -553.945
757.660;   10.097; -365.031; -401.945
757.920;   36.799; -266.030; -228.945
758.181;   11.976; -468.030; -351.946
758.441;  -70.672; -870.030; -809.946
758.701;   -8.169; -308.030; -215.946
758.961;  -18.667; -220.030; -278.947
759.222;  -32.365; -574.029; -502.947
759.482;  -71.138; -683.029; -723.948
759.742;  -67.160; -706.029; -547.948
760.002;   25.117;  -83.029; -143.948
760.262;   31.494;   50.972;  182.051
760.522;  -27.129; -498.028; -574.949
760.782;  -25.677; -738.028; -612.949
761.042;  -27.099; -618.028; -573.950
761.302;   67.478;   55.972;  -18.950
761.562;   56.930; -164.027; -154.951
761.822;  157.707; -710.027; -551.951
762.082;   -7.915;-1104.027;-1093.951
762.342;   89.462; -328.027; -403.952
762.601;   83.339; -567.027; -506.952
762.861;  465.891; -281.026; -207.952
763.121;  403.169; -406.026; -411.953
763.381; 6349.096; -499.026; -485.953
763.640; 9205.623; -139.026; -307.954
763.900;  396.250; -242.026; -203.954
764.160;   98.978; -458.025; -491.954
764.419;   -7.570; -726.025; -782.955
764.679;  -57.443; -795.025; -726.955
764.939;  -13.041; -124.025; -210.955
765.198;  -63.464; -608.025; -563.956
765.458;  -76.186; -710.024; -612.956
765.717;  -76.959; -454.024; -590.957
765.976;  -52.357; -428.024; -411.957
766.236;  -56.255; -475.024; -610.957
766.495;   22.923;  260.977;   73.042
766.755;  -51.725;-1090.023; -987.958
767.014;   57.127; -594.023; -665.958
767.273;  -27.471; -373.023; -397.959
767.533;  -30.868; -228.023; -307.959
767.792;  -29.566; -151.022; -188.960
768.051;  -35.839; -228.022; -276.960
768.310;  -76.937; -546.022; -650.960
768.569;    2.440; -161.022;    4.039
768.828;  -35.007; -285.022; -363.961
769.088;  -79.405;-1050.021; -942.961
769.347;  -65.478; -755.021; -599.962
769.606;  -74.726; -876.021; -857.962
769.865;  -96.223;-1016.021;-1033.963
770.124;   12.204; -411.021; -336.963
770.383;  -24.394; -778.020; -910.963
770.641;   50.133; -398.020; -400.964
770.900;  -46.639; -953.020; -846.964
771.159;  -10.737; -851.020; -951.964
771.418;   15.040; -917.020; -779.965
771.677;  149.267; -224.019; -293.965
771.936;  197.945; -794.019; -865.966
772.194; 1956.747; -465.019; -437.966
772.453;13383.999; -213.019; -391.966
772.712; 1066.151;  416.982;  329.033
772.970;  141.828;   32.982;   63.033
773.229;  107.681;  -22.018;  102.033
773.488;  -69.917; -814.018; -770.968
773.746;   58.110;  296.982;  335.032
774.005;    8.962;  190.983;  -22.969
774.263;   21.290;  243.983;  177.031
774.522;  -45.183; -422.017; -548.969
774.780;  -63.381; -484.017; -417.970
775.039;  -94.279; -551.017; -531.970
775.297;  -29.626; -135.016; -351.970
775.555; -101.174; -489.016; -612.971
775.814; -102.822; -618.016; -570.971
776.072; -120.420; -749.016; -740.971
776.330;  -96.843; -630.016; -520.972
776.589; -111.840; -703.015; -721.972
776.847; -116.738; -645.015; -624.973
777.105; -147.136;-1016.015;-1032.973
777.363;  -86.234; -459.015; -454.973
777.621; -125.606; -660.015; -717.974
777.879;  -21.129;  -42.014;   32.026
778.138;  -99.902; -554.014; -717.974
778.396; -103.375; -585.014; -526.975
778.654; -164.397;-1015.014; -970.975
778.912;  -64.695; -269.014; -371.976
779.170; -122.643; -880.013; -803.976
779.427; -128.491; -922.013; -897.976
779.685; -113.738; -880.013; -832.977
779.943;  -52.461; -654.013; -593.977
780.201; -145.909; -964.012; -883.978
780.459; -105.957; -651.012; -610.978
780.717;  -68.680; -440.012; -390.978
780.974;  -82.202; -449.012; -490.979
781.232;  -70.700; -358.012; -338.979
781.490;  -55.898; -551.011; -472.979
781.747;  -97.996; -555.011; -476.980
782.005;   25.082;  462.989;  254.020
782.263; -162.366; -542.011;-1004.981
782.520;  -77.264; -326.011; -501.981
782.778; -154.337;-1013.010;-1051.981
783.035; -144.834; -962.010; -938.982
783.293;  -76.007; -248.010; -206.982
783.550;  -58.830; -134.010; -198.982
783.808; -131.153; -764.010; -776.983
784.065; -144.151; -745.009; -874.983
784.322;  -44.048;   25.991;  -86.984
784.580; -121.171; -915.009; -771.984
784.837;  -79.094; -392.009; -466.984
785.094; -114.167; -783.009; -762.985
785.352;  -65.214; -304.008; -404.985
785.609;  -71.187; -934.008; -839.985
785.866;  -82.435; -345.008; -401.986
786.123;  -38.033; -639.008; -583.986
786.380;  -74.780; -665.008; -604.987
786.637;  -37.753; -225.007; -380.987
786.895;   27.899; -456.007; -543.987
787.152;  -35.924; -135.007; -267.988
787.409;  -51.396; -123.007; -225.988
787.666;  -81.269; -299.006; -378.988
787.923;  -97.817; -616.006; -695.989
788.179; -100.365; -551.006; -584.989
788.436;  -98.263; -585.006; -585.990
788.693;  -26.260;  -92.006;  -87.990
788.950;  170.867; -125.005; -112.990
789.207;  437.419; -381.005; -372.991
789.464;  -53.154; -161.005; -301.991
789.720;    9.474;  150.995;  110.009
789.977; -158.049;-1003.005; -671.992
790.234;  -33.197;   44.996;  -66.992
790.490; -149.070; -884.004;-1031.993
790.747;  -20.842;  -85.004;   22.007
791.004;    0.885; -426.004; -348.993
791.260;  -74.713; -430.004; -560.994
791.517;  -80.386; -843.003; -788.994
791.773;  -28.234; -379.003; -342.994
792.030; -101.856; -596.003; -660.995
792.286;  -95.279; -686.003; -636.995
792.543;  -23.527;  -74.002; -159.995
792.799;  -53.500; -584.002; -382.996
793.055; -147.297;-1179.002;-1210.996
793.312;  -86.870; -827.002; -816.997
793.568;  -52.493; -746.002; -599.997
793.824;   32.334; -226.001; -284.997
794.081;   34.112; -447.001; -508.998
794.337;   84.464; -664.001; -561.998
794.593; 1055.491; -319.001; -271.999
794.849; 7402.743; -746.001; -772.999
795.105;  485.571; -270.000; -261.999
795.361;   34.223; -490.000; -457.000
795.617;  -32.400; -875.000; -945.000
795.873;  -36.975; -360.000; -407.000
796.129;  -18.875; -368.000; -306.000
796.385;   -3.675; -124.000; -156.000
796.641;   64.300;  412.000;  550.000
796.897;  -73.675; -666.000; -635.000
797.153;   63.025;  453.000;  357.000
797.409;  -80.800; -785.000; -868.000
797.665;  -62.275; -625.000; -732.000
797.921;  -62.825; -775.000; -762.000
798.176;  -29.125; -744.000; -747.000
798.432;  -17.725; -824.000; -596.000
798.688;  -41.300;-1174.000;-1078.000
798.943;  112.275; -165.000; -147.000
799.199;   59.825;-1005.000; -959.000
799.455;  274.400;  369.000;  316.000
799.710;  192.350; -813.000; -380.000
799.966;  392.675; -162.000; -160.000
800.221;  596.775; -638.000; -721.000
800.477;11274.600; -743.000; -710.000
800.732;13982.075; -773.000; -800.000
800.988;  838.250;  205.000;  -19.000
801.243; 1443.125; -454.000; -344.000
801.498; 8415.925; -814.000; -739.000
801.754;  604.525; -289.000; -163.000
802.009;  120.700; -257.000; -335.000
802.264;  -23.500; -967.000;-1033.000
802.520;   51.725;  222.000;   -3.000
802.775;  -46.825; -524.000; -359.000
803.030;   59.075;  395.000;  356.000
803.285; -105.675; -840.000; -903.000
803.540;  -29.425; -686.000; -699.000
803.795;  -12.650; -648.000; -583.000
804.051;  -21.625; -279.000; -346.000
804.306;   29.750;  168.000;  128.000
804.561;  182.475;  451.000;  362.000
804.816;  154.925;  714.000;  861.000
805.071;   13.175; -185.000; -280.000
805.325;  347.400; -257.000; -427.000
805.580;  -58.175; -841.000; -877.000
805.835;   -4.750; -204.000; -297.000
806.090;  -56.375; -760.000; -676.000
806.345;   -5.625; -344.000; -264.000
806.600;    3.900; -549.000; -632.000
806.854;   -9.600; -408.000; -538.000
807.109;    8.175; -493.000; -577.000
807.364;   34.450; -407.000; -328.000
807.618;   40.600; -415.000; -381.000
807.873;   81.600; -470.000; -494.000
808.128;  153.425; -257.000; -518.000
808.382;  151.550; -224.000; -332.000
808.637;  103.550; -440.000; -511.000
808.891;  209.225; -257.000; -180.000
809.146;  151.225; -902.000; -794.000
809.400;  337.000; -848.000; -923.000
809.654;  434.025; -779.000; -551.000
809.909;  587.950; -841.000; -927.000
810.163; 6522.500; -813.000; -651.000
810.418;23922.225; -940.000; -861.000
810.672; 1490.850; -685.000; -690.000
810.926;  761.600; -993.000; -973.000
811.180; 1287.525; -439.000; -372.000
811.434;27257.250;  240.000;  135.000
811.689;15714.500; -231.000; -365.000
811.943;  792.325; -936.000; -953.000
812.197;  364.525; -893.000; -671.000
812.451;  157.150; -379.000; -514.000
812.705;   -2.525; -809.000; -619.000
812.959;   13.475; -263.000; -388.000
813.213;    7.825; -283.000; -209.000
813.467;   53.750;  470.000;  253.000
813.721;  -67.900; -764.000; -792.000
813.975; -110.275; -826.000; -877.000
814.229;   53.525;  430.000;  353.000
814.482;  -57.875; -517.000; -566.000
814.736; -109.400; -766.000; -744.000
814.990; -117.175; -779.000; -872.000
815.244;  -33.425; -228.000; -285.000
815.497;  -99.450; -636.000; -601.000
815.751;  -10.075; -141.000;   82.000
816.005;  -84.075; -470.000; -586.000
816.258;  -55.225; -510.000; -363.000
816.512; -102.375; -693.000; -610.000
816.766;    3.675;  121.000;  157.000
817.019;   30.625;  148.000;  149.000
817.273;  -83.125;-1000.000; -802.000
817.526;  -28.775; -206.000; -173.000
817.779;   11.550;-1049.000; -960.000
818.033;  -11.625; -693.000; -807.000
818.286; -103.075; -725.000; -792.000
818.540;  -76.975; -403.000; -403.000
818.793;  -83.550; -402.000; -489.000
819.046;  -94.550; -582.000; -520.000
819.299;  -34.250; -157.000; -166.000
819.553; -100.775; -552.000; -592.000
819.806; -143.300;-1016.000; -838.000
820.059;  -65.300; -334.000; -354.000
820.312;   12.900;  152.000;  185.000
820.565;  -14.425;  110.000;  -27.000
820.818;  -31.625;  -59.000; -173.000
821.071; -157.825;-1041.000; -957.000
821.324; -100.275; -536.000; -540.000
821.577;  -92.475; -457.000; -483.000
821.830;  -50.750; -270.000; -172.000
822.083; -128.075; -733.000; -288.000
822.336;  -60.625; -261.000; -167.000
822.589; -126.775; -805.000; -688.000
822.842; -120.025; -875.000; -770.000
823.094; -157.475;-1076.000;-1114.000
823.347; -111.000; -925.000; -729.000
823.600;    7.225;  402.000;  187.000
823.853;  -35.725; -311.000; -267.000
824.105;  -65.950; -331.000; -575.000
824.358;  -86.950; -617.000; -716.000
824.611;   42.450;  234.000;   40.000
824.863;  -25.000; -612.000; -591.000
825.116;   83.900;  -33.000;   27.000
825.368;  128.175; -366.000; -372.000
825.621;  264.625; -186.000; -240.000
825.873;  159.400; -704.000; -737.000
826.126;  681.700; -669.000; -641.000
826.378;14039.550; -389.000; -505.000
826.630; 5213.400; -890.000; -898.000
826.883;  165.325; -754.000; -693.000
827.135;   89.425; -279.000; -270.000
827.387;  -73.400; -893.000; -839.000
827.639;  -23.225;  -86.000;   32.000
827.892; -113.575; -742.000; -582.000
828.144; -144.600; -848.000; -804.000
828.396;  -23.625;  104.000;  -80.000
828.648;  -89.975; -440.000; -333.000
828.900; -142.200; -702.000; -795.000
829.152; -100.975; -684.000; -683.000
829.404;  -52.225; -215.000; -267.000
829.656;   -5.625;  321.000;  214.000
829.908;  -18.850;  393.000;  229.000
830.160; -151.550;-1064.000;-1047.000
830.412;  -99.575; -481.000; -430.000
830.664; -109.625; -557.000; -665.000
830.916;  -68.350; -268.000; -206.000
831.167; -164.450;-1073.000; -951.000
831.419;  -97.325; -623.000; -566.000
831.671; -142.300; -764.000; -809.000
831.923;  -81.850; -311.000; -447.000
832.174;  -82.225; -273.000; -331.000
832.426; -112.050; -493.000; -582.000
832.678; -178.250;-1043.000;-1091.000
832.929; -151.525; -947.000; -935.000
833.181;  -32.225; -575.000; -677.000
833.432;  -33.325;  -59.000; -186.000
833.684;  -25.025;  112.000;  -27.000
833.935; -109.975; -610.000; -566.000
834.187; -124.625; -829.000; -823.000
834.438;  -41.175;  -58.000;  -25.000
834.689;  -66.775; -255.000; -123.000
834.941;  -42.575; -343.000; -244.000
835.192;  -83.550; -590.000; -533.000
835.443; -100.800; -419.000; -506.000
835.695;   -6.000;  138.000;  -16.000
835.946;  -93.275; -608.000; -378.000
836.197;  -94.300; -599.000; -622.000
836.448;  -67.375; -528.000; -395.000
836.699;  -51.850; -253.000; -341.000
836.950;    7.975;   72.000;    7.000
837.201; -126.475;-1003.000; -987.000
837.452;  -34.875; -356.000; -170.000
837.703;  -95.425; -791.000; -737.000
837.954;  -20.075; -205.000; -365.000
838.205;  -51.725;-1029.000;-1008.000
838.456;  287.625; -196.000; -282.000
838.707;   41.400; -423.000; -519.000
838.958;   71.050; -634.000; -647.000
839.209;  393.325;   18.000;   40.000
839.460;  190.875; -439.000; -201.000
839.710;  236.875; -135.000; -297.000
839.961;  528.425;  730.000;  612.000
840.212;  474.675; -382.000; -497.000
840.462; 1293.675; -328.000; -277.000
840.713;20383.850; -571.000; -536.000
840.964;11895.000;  -62.000; -143.000
841.214;  751.700; -384.000; -624.000
841.465;  747.000; -214.000; -141.000
841.715;  679.825; -417.000; -380.000
841.966;  842.750; -746.000; -685.000
842.216; 8554.600; -330.000; -431.000
842.466;45200.550; -169.000; -313.000
842.717; 3883.375; -964.000; -952.000
842.967;  446.350; -635.000; -641.000
843.217;  397.025;   20.000;   28.000
843.468;  115.725; -104.000; -132.000
843.718;    2.725; -718.000; -726.000
843.968;  -55.575; -837.000; -765.000
844.218;   49.000; -315.000; -262.000
844.469;   -8.950; -577.000; -561.000
844.719;  -86.425; -537.000; -682.000
844.969;  -77.200; -550.000; -580.000
845.219; -139.950; -814.000; -862.000
845.469;  -61.625; -392.000; -342.000
845.719; -121.925; -792.000; -884.000
845.969;   -2.125;  119.000;  174.000
846.219; -104.600; -738.000; -720.000
846.469;   14.700;  464.000;  432.000
846.718;  -41.550; -115.000;   31.000
846.968; -109.825; -827.000; -827.000
847.218;  -54.250; -224.000; -371.000
847.468;    6.325; -586.000; -555.000
847.718; -141.725; -827.000; -798.000
847.967; -118.050; -826.000; -915.000
848.217;  -79.650; -449.000; -569.000
848.467;  -54.925; -405.000; -376.000
848.716;  -98.600; -708.000; -725.000
848.966;   33.075; -372.000; -358.000
849.215;  -34.750; -428.000; -419.000
849.465;  -74.575; -785.000; -615.000
849.714; -109.850;-1132.000;-1150.000
849.964;  -25.300; -551.000; -613.000
850.213;   11.625; -393.000; -355.000
850.463;  103.125;  137.000;  340.000
850.712;   35.175; -542.000; -567.000
850.961;   76.975; -739.000; -678.000
851.211;  173.850; -513.000; -504.000
851.460;  268.150; -635.000; -650.000
851.709;  699.000;  -25.000;   18.000
851.958;11305.050; -912.000; -750.000
852.208;20090.750; -859.000; -879.000
852.457;  891.350; -181.000;  -13.000
852.706;  162.275; -791.000; -823.000
852.955;  107.400; -507.000; -528.000
853.204;  -29.775; -521.000; -461.000
853.453;  -54.025; -418.000; -458.000
853.702; -106.800; -660.000; -750.000
853.951;  -91.225; -532.000; -520.000
854.200;  -99.025; -613.000; -562.000
854.449; -131.100; -695.000; -661.000
854.698; -102.950; -340.000; -279.000
854.946;  -62.900; -181.000; -284.000
855.195; -147.700; -843.000; -868.000
855.444;  -93.025; -395.000; -420.000
855.693; -103.575; -345.000; -432.000
855.941; -102.000; -387.000; -516.000
856.190;  -24.350; -256.000; -382.000
856.439; -115.975; -652.000; -703.000
856.687;  -64.350;  -99.000;  -72.000
856.936; -113.750; -621.000; -323.000
857.184; -178.450;-1067.000;-1020.000
857.433;  -93.675; -423.000; -512.000
857.681; -156.025; -989.000; -953.000
857.930;  -58.725; -282.000; -433.000
858.178; -159.700; -856.000; -929.000
858.427; -145.875; -802.000; -781.000
858.675; -119.250; -377.000; -544.000
858.923;  -96.625; -527.000; -819.000
859.172; -167.625;-1094.000;-1070.000
859.420;  -81.925; -339.000; -239.000
859.668; -124.225; -624.000; -628.000
859.916;  -24.175;  109.000;  115.000
860.164;  -97.700; -699.000; -603.000
860.413;  407.250; -878.000; -696.000
860.661;  525.525; -709.000; -577.000
860.909;  -67.200; -339.000; -325.000
861.157;  -88.250; -277.000; -444.000
861.405; -112.575; -534.000; -670.000
861.653;   13.350;  310.000;  310.000
861.901;  280.175; -543.000; -613.000
862.149;  125.825; -801.000; -824.000
862.396;  -70.725; -297.000; -187.000
862.644;  -92.050; -368.000; -347.000
862.892;  -21.850;   98.000;  138.000
863.140; -128.450; -549.000; -530.000
863.388; -147.350; -815.000; -759.000
863.635; -122.500; -642.000; -601.000
863.883;  -13.625;  231.000;  190.000
864.131; -106.050; -288.000; -357.000
864.378; -133.150; -675.000; -540.000
864.626; -110.975; -347.000; -415.000
864.873; -107.050; -556.000; -505.000
865.121; -146.725; -714.000; -799.000
865.368;  -40.225; -173.000;   75.000
865.616;  -31.250;  -33.000;  -40.000
865.863;  -57.850; -462.000; -506.000
866.111;  -90.275; -795.000; -824.000
866.358;   40.375; -426.000; -420.000
866.605; 2225.425;  -64.000; -804.000
866.853; 3351.925; -621.000; -537.000
867.100;   24.325; -728.000; -775.000
867.347;  -86.600; -672.000; -611.000
867.594;  -72.425; -740.000; -714.000
867.841;  143.300;   97.000;   17.000
868.089; -144.100; -746.000; -698.000
868.336;  -96.900; -477.000; -420.000
868.583; -138.250; -637.000; -741.000
868.830;  -66.075; -131.000; -170.000
869.077; -165.625; -859.000; -787.000
869.324; -128.450; -502.000; -458.000
869.571; -126.625; -398.000; -430.000
869.818; -109.075; -485.000; -439.000
870.065;  -96.025; -439.000; -513.000
870.311; -102.225; -456.000; -542.000
870.558; -101.600; -332.000; -311.000
870.805;  -89.725; -320.000; -384.000
871.052; -115.625; -494.000; -369.000
871.298;  -45.450; -204.000; -131.000
871.545;  -64.175; -151.000; -185.000
871.792; -105.000; -173.000; -222.000
872.038;  -62.700;   43.000; -126.000
872.285; -119.425; -496.000; -387.000
872.532; -104.625; -357.000; -387.000
872.778;   -4.600;  556.000;  403.000
873.025;  -97.225; -384.000; -359.000
873.271;   16.750;  501.000;  578.000
873.517;  -23.475; -133.000; -209.000
873.764;   -3.650; -193.000;  -80.000
874.010;  -65.625; -143.000; -230.000
874.257;  -35.950;  123.000;   90.000
874.503; -137.150; -579.000; -479.000
874.749;  -73.575;   31.000;  275.000
874.995;  -63.875;  -80.000;  -20.000
875.242; -125.025; -540.000; -478.000
875.488;  -93.250; -414.000; -439.000
875.734;  -58.975; -106.000; -234.000
875.980;  302.100; -872.000;-1032.000
876.226;  728.975; -157.000; -255.000
876.472;   13.525;  343.000;  237.000
876.718;  -38.725;  184.000;  158.000
876.964;  -46.175;   56.000;   55.000
877.210; -133.850; -547.000; -677.000
877.456; -130.425; -630.000; -557.000
877.702; -164.875; -821.000; -832.000
877.948; -110.450; -377.000; -497.000
878.193;    2.475;  361.000;  255.000
878.439;  -72.225; -487.000; -472.000
878.685;  -86.500; -272.000; -343.000
878.931; -136.150; -618.000; -676.000
879.176;  -91.050; -201.000; -201.000
879.422; -173.050; -933.000; -820.000
879.668;   60.850;   10.000;   79.000
879.913;  242.375;   53.000;  137.000
880.159;  -29.825; -112.000;  -17.000
880.404;  -58.700; -152.000; -162.000
880.650;  -45.800;   91.000;  141.000
880.895; -159.250; -670.000; -710.000
881.141; -112.075; -454.000; -428.000
881.386; -145.000; -503.000; -658.000
881.631;  -82.650; -311.000; -166.000
881.877;  -58.325;  112.000;  -13.000
882.122; -125.100; -684.000; -600.000
882.367;  -95.225; -136.000; -186.000
882.612;  -85.500;  -80.000; -176.000
882.858; -172.075; -877.000; -823.000
883.103; -107.475; -297.000; -267.000
883.348; -156.425; -759.000; -852.000
883.593; -131.475; -677.000; -602.000
883.838;  -71.275; -311.000;  -24.000
884.083;   44.825;  353.000;  288.000
884.328;  -92.700; -564.000; -545.000
884.573;  -48.200; -196.000; -143.000
884.818;  291.525; -694.000; -531.000
885.063;  434.075; -348.000; -315.000
885.308;  -94.650; -475.000; -398.000
885.553;   -5.350;  245.000;  325.000
885.797; -126.775; -545.000; -615.000
886.042;  -63.500;    8.000;   58.000
886.287;  -87.700; -253.000; -211.000
886.532;  -60.350;   26.000;  204.000
886.776; -100.075; -407.000; -525.000
887.021; -122.925; -621.000; -574.000
887.265; -160.775; -685.000; -689.000
887.510; -126.525; -557.000; -496.000
887.755; -103.150; -194.000; -164.000
887.999; -136.050; -552.000; -575.000
888.244;  -66.100;  -58.000;  161.000
888.488;   -4.425;  371.000;  393.000
888.732; -127.650; -368.000; -520.000
888.977; -126.025; -622.000; -567.000
889.221; -153.275; -683.000; -659.000
889.465; -120.425; -422.000; -566.000
889.710;  -74.900;  -56.000; -299.000
889.954;   -2.400;  579.000;  467.000
890.198; -150.225; -584.000; -707.000
890.442; -147.500; -716.000; -712.000
890.687; -167.475; -800.000; -753.000
890.931; -105.750; -273.000; -210.000
891.175; -130.725; -502.000; -500.000
891.419;  -68.075; -105.000; -110.000
891.663;  -94.775; -239.000; -112.000
891.907; -154.550; -801.000; -545.000
892.151; -168.150; -920.000; -815.000
892.395; -110.250; -274.000; -387.000
892.638;  -31.850;  408.000;  291.000
892.882; -172.125; -780.000; -867.000
893.126;   -6.850;  758.000;  558.000
893.370;  -90.650; -167.000; -168.000
893.614; -153.000; -714.000; -715.000
893.857; -102.250; -183.000; -197.000
894.101; -131.225; -527.000; -631.000
894.345;  -68.900;  300.000;  150.000
894.588;   -8.175;  569.000;  380.000
894.832;  -91.600; -178.000;  -84.000
895.075;  -81.600;   15.000;  -92.000
895.319; -132.950; -552.000; -420.000
895.563; -121.175; -413.000; -353.000
895.806; -141.375; -628.000; -741.000
896.049;  -57.900; -576.000; -368.000
896.293;  152.650;  527.000;  405.000
896.536;  -34.550; -465.000; -468.000
896.779;  -48.425; -149.000;   -1.000
897.023; -126.250; -751.000; -714.000
897.266;  -37.300;  325.000;  269.000
897.509; -176.700; -900.000; -901.000
897.752;  -51.200;  149.000;  171.000
897.996; -184.675; -972.000; -864.000
898.239;  -57.750;  168.000;  102.000
898.482; -136.675; -431.000; -453.000
898.725;  -35.425;  101.000;   53.000
898.968; -141.200; -609.000; -744.000
899.211;  -92.825; -513.000; -361.000
899.454; -106.700; -633.000; -539.000
899.697;  -74.575;   90.000;  -43.000
899.940; -161.850; -761.000; -757.000
900.182;  -99.100; -335.000; -405.000
900.425;  -98.325; -150.000; -298.000
900.668;  -40.400;  491.000;  350.000
900.911; -101.900; -292.000; -345.000
901.154;  -60.500;  141.000;   -3.000
901.396; -136.875; -407.000; -412.000
901.639; -139.100; -430.000; -496.000
901.882; -187.050; -790.000; -809.000
902.124;  -81.750;  -29.000; -143.000
902.367; -117.725; -315.000; -361.000
902.609; -130.325; -476.000; -453.000
902.852;  -91.150; -108.000; -260.000
903.094; -112.875; -458.000; -337.000
903.337;  -65.250;  -26.000;   53.000
903.579; -106.975; -228.000; -441.000
903.821; -154.050; -597.000; -744.000
904.064;  -47.925;   85.000;  127.000
904.306;  -82.875; -126.000; -166.000
904.548; -101.175; -152.000; -366.000
904.790; -119.050; -195.000; -340.000
905.033; -117.450; -625.000; -577.000
905.275; -113.150; -513.000; -524.000
905.517;   51.675;  468.000;  256.000
905.759;  -13.275; -667.000; -761.000
906.001;  -69.425; -322.000; -369.000
906.243;  -64.025; -162.000; -224.000
906.485;  178.900; -265.000; -207.000
906.727;  305.650; -499.000; -542.000
906.969;    1.175;  -30.000; -135.000
907.211;  203.325; -316.000; -382.000
907.453;  476.900; -188.000; -237.000
907.695;  100.600; -158.000; -385.000
907.936;   37.850;  818.000;  706.000
908.178;  -60.175;   92.000; -135.000
908.420;  -70.725; -111.000; -162.000
908.662; -123.800; -633.000; -682.000
908.903;  -83.300; -208.000; -123.000
909.145;  -57.000; -240.000; -305.000
909.386;    1.000;  315.000;  280.000
909.628;   26.775;  363.000;  397.000
909.870;    7.250;   29.000;  264.000
910.111; -100.850; -809.000; -949.000
910.353;   17.150; -123.000; -161.000
910.594;   12.400; -574.000; -606.000
910.835;   87.400; -265.000; -326.000
911.077;  172.350; -503.000; -604.000
911.318;  303.400; -505.000; -471.000
911.559;  481.425; -577.000; -880.000
911.801; 1225.700; -284.000; -280.000
912.042; 8813.950;  -50.000; -159.000
912.283;28868.075;  404.000;  371.000
912.524; 6292.050; -396.000; -457.000
912.765;  649.575; -193.000;   79.000
913.006;  284.100; -307.000; -338.000
913.247;   89.150; -270.000; -290.000
913.488;   11.550;  -43.000;   30.000
913.729;  -78.100; -373.000; -373.000
913.970;  -70.575;  -96.000; -292.000
914.211;  -64.400; -160.000; -198.000
914.452;  -55.600; -118.000;  -11.000
914.693;   14.525;  510.000;  592.000
914.934;   16.650;  510.000;  440.000
915.175;  -60.075;   53.000;  -95.000
915.415;  -77.525; -137.000;   27.000
915.656;  -56.350;  -28.000;  192.000
915.897;  -79.825; -252.000;  -82.000
916.137;  -66.675;   74.000;   -9.000
916.378; -129.925; -573.000; -517.000
916.619;  -73.725; -159.000;  -63.000
916.859;  -29.950;  303.000;  330.000
917.100;  118.375; 1655.000; 1070.000
917.340;   44.725;  930.000;  728.000
917.581;   46.625;  965.000;  789.000
917.821;  -11.325; -171.000;  143.000
918.061;   82.900; -199.000;  -72.000
918.302;  -42.650; -152.000; -211.000
918.542;   -5.425;  -22.000;    3.000
918.782;   52.600;  369.000;  377.000
919.023;  175.975;  360.000;  427.000
919.263; 1843.750; 8131.000;  202.000
919.503; 1798.225; -137.000;  -54.000
919.743;  934.025;  390.000;  266.000
919.983;  535.525; -134.000;  -26.000
920.223;  153.225;  135.000;   14.000
920.463;  190.950;  631.000;  554.000
920.703;  187.425;   84.000;   39.000
920.943;  232.125; -110.000;   90.000
921.183;  324.475; -414.000; -405.000
921.423;  649.775;  307.000;  546.000
921.663;  920.750; -174.000; -257.000
921.903; 1884.975;  237.000;  173.000
922.143; 9569.500;  372.000;  389.000
922.383;40979.525;  158.000;  115.000
922.622;19562.275; -120.000;  -15.000
922.862; 2020.800;  796.000;  785.000
923.102;  672.825;  -51.000;   33.000
923.341;  301.150;   59.000;   74.000
923.581;  140.550;  450.000;  360.000
923.821;   46.425;  301.000;  398.000
924.060;   19.575;  351.000;  193.000
924.300;  -23.850;  -16.000; -128.000
924.539;    3.150;  584.000;  473.000
924.779;    6.250;  812.000;  597.000
925.018;  -44.675;  247.000;  353.000
925.257;   -4.650;  595.000;  666.000
925.497;  -46.375;  447.000;  412.000
925.736;  -67.100;  -35.000;  102.000
925.975;   -5.975;  687.000;  669.000
926.214;   38.625;  907.000;  850.000
926.454;   16.600;  706.000;  757.000
926.693;  -33.975;  419.000;  543.000
926.932;   34.950; 1021.000;  825.000
927.171;   56.425; 1107.000; 1044.000
927.410;   66.400; 1144.000;  967.000
927.649;   32.900;  924.000;  742.000
927.888;   -3.075;  590.000;  564.000
928.127;   -1.225;  680.000;  678.000
928.366;   29.825;  842.000;  826.000
928.605;   41.400;  831.000;  737.000
928.844;  256.625; 1451.000; 1393.000
929.083;  820.225;  770.000;  613.000
929.321;  529.100; 1335.000; 1359.000
929.560;   97.925; 1158.000; 1122.000
929.799;  -16.000;  574.000;  475.000
930.038;   76.700; 1025.000; 1394.000
930.276;  -60.200;  334.000;  397.000
930.515;  -10.375;  827.000;  681.000
930.753;  -15.500;  614.000;  589.000
930.992;   -8.900;  664.000;  717.000
931.230;    5.300;  847.000;  847.000
931.469;  163.825; 2162.000;  892.000
931.707;   59.975;  840.000;  751.000
931.946;   66.625; 1278.000; 1344.000
932.184;   66.700; 1437.000; 1175.000
932.423;   53.500; 1265.000;  963.000
932.661;  106.900; 1296.000; 1428.000
932.899;   45.225;  987.000;  821.000
933.137;   32.175;  754.000;  564.000
933.376;  166.050; 1664.000; 1335.000
933.614;  188.650; 1759.000; 1196.000
933.852;   53.600; 1357.000; 1171.000
934.090;  140.875; 1722.000; 1747.000
934.328;  120.975; 1252.000; 1457.000
934.566;  104.375; 1431.000; 1110.000
934.804;  152.775; 1263.000; 1309.000
935.042;  526.550; 1861.000; 1850.000
935.280; 2048.625; 2088.000; 2063.000
935.518; 2502.800; 2113.000; 2007.000
935.756;  533.300; 2481.000; 2316.000
935.994;  198.675; 1808.000; 1751.000
936.231;  393.325; 2890.000; 2950.000
936.469;  220.950; 2367.000; 2378.000
936.707;  188.400; 2220.000; 2167.000
936.945;  215.850; 2825.000; 2882.000
937.182;  213.950; 2679.000; 2741.000
937.420;  299.900; 3602.000; 3031.000
937.657;  450.150; 3365.000; 3478.000
937.895;  417.300; 3331.000; 3488.000
938.133;  330.750; 3540.000; 3528.000
938.370;  335.000; 3896.000; 4191.000
938.607;  385.025; 4488.000; 4205.000
938.845;  515.450; 5587.000; 5549.000
939.082;  474.600; 5387.000; 5177.000
939.320;  514.950; 5799.000; 5728.000
939.557;  628.100; 6549.000; 6491.000
939.794;  723.400; 7285.000; 7097.000
940.031;  911.625; 8421.000; 8368.000
940.269; 1193.500; 9552.000; 9107.000
940.506; 1140.775;10901.000;10507.000

