
Integration time [ms]: 200.000
Averaging Nr. [scans]: 10
Smoothing Nr. [pixels]: 0
Data measured with spectrometer [name]: 2101013U2
Wave   ;Sample   ;Dark     ;Reference
[nm]   ;[counts] ;[counts] ;[counts] 

394.013;   79.528; -450.257; -315.536
394.305;  396.625; -461.258; -419.536
394.596; 2153.580; -676.269; -527.514
394.887; 5178.504; -796.268; -654.518
395.178; 2095.147;  145.736;   11.476
395.470;  150.462; -210.263; -356.526
395.761;  379.025;  305.734;  394.479
396.052;  605.104; -545.284; -306.489
396.343;  585.202; -557.276; -454.503
396.634;  147.658; -200.279; -290.497
396.926;  149.800; -618.268; -565.517
397.217;  186.109;   11.725;  -17.504
397.508;   79.231; -366.273; -154.507
397.799;   28.458; -555.279; -571.497
398.090;  -30.750; -973.280; -902.495
398.381;  174.899;   11.708;  -11.473
398.672;  -68.600; -585.292; -742.473
398.963;   57.167; -348.279; -373.498
399.254;  192.013;   54.709; -209.475
399.545; -107.680;-1017.266; -883.520
399.836;   59.387; -407.277; -343.501
400.127;  104.965; -205.295; -209.468
400.418;   73.823; -423.274; -392.506
400.709;   48.132; -359.281; -333.493
401.000;   71.918; -268.291; -309.476
401.290;  177.576;  225.698;  115.545
401.581;  149.980; -166.286; -228.485
401.872;   28.726; -542.298; -486.462
402.163;  107.355; -313.296; -252.467
402.454;  149.414; -123.291; -163.475
402.744;   56.542; -844.297; -813.465
403.035;  601.386; -226.293;  -86.471
403.326;  754.604; -366.292; -384.474
403.617;  593.418;  204.701;  165.539
403.907;  432.912; -593.283; -679.490
404.198; 4383.411; -545.307; -599.446
404.489;11427.619; -618.283; -588.491
404.779; 3793.781; -618.302; -660.456
405.070;  408.251;  -67.304; -174.451
405.360;  591.289; -259.293; -238.472
405.651;  687.097;  125.699;   98.542
405.942;  323.273;  209.714;  127.516
406.232;  338.394; -432.285; -413.487
406.523;  760.179;  641.706;  758.530
406.813;   95.776; -579.286; -644.484
407.104;  545.797;  261.708;  144.527
407.394;  244.120; -604.299; -591.462
407.685;  251.792;  336.715;  222.513
407.975;  106.517; -400.283; -382.490
408.265;  202.734; -134.289; -190.478
408.556;   91.409; -472.291; -459.475
408.846;  333.680;  474.706;  429.530
409.137;  148.546;   -1.288; -216.480
409.427;   47.893; -193.285; -271.487
409.717;    4.135; -776.273; -692.508
410.007;  265.184;    4.715; -170.486
410.298;  171.869; -360.295; -342.469
410.588;   96.689; -495.285; -510.486
410.878;   -7.638; -792.287; -873.482
411.168;  167.029; -481.298; -478.463
411.459;  197.209; -295.283; -242.489
411.749;   82.807; -609.292; -507.474
412.039;   66.844; -755.289; -386.480
412.329;  377.777;   40.722;  132.501
412.619;  341.977;  -62.286; -148.485
412.909;  633.438;  639.711;  594.521
413.199;  519.751; -130.280; -251.495
413.490;  680.925;  521.710;  352.523
413.780;  155.056;-1013.279; -913.496
414.070;  520.204;  -46.276;  235.497
414.360;  569.672; -729.278; -666.498
414.650;  668.756; -726.288; -688.482
414.940;  947.555; -538.280; -441.496
415.230; 1614.752;   50.712;   74.519
415.520;10883.379;  155.730;   66.486
415.809;42603.932; -305.281; -125.493
416.099;34154.890; -388.277; -229.501
416.389; 9392.220;  435.726;  236.494
416.679; 5741.167;   91.738;   85.473
416.969;  921.968; -527.287; -503.483
417.259; 1109.459;  341.721;  171.503
417.549; 1205.330;  522.718;  318.508
417.838; 2992.303; -205.268; -147.518
418.128; 9922.332;  650.710;  492.522
418.418; 8511.244; -491.272; -579.509
418.708; 5542.520;    9.726;  -48.506
418.997;21035.214; -474.275; -480.505
419.287;22478.230; -733.273; -790.507
419.577;20982.408; -160.283; -123.489
419.866;64326.887; -588.277; -498.501
420.156;64303.873; -242.270;  -55.513
420.446;12838.557; -112.263;  -26.526
420.735; 1422.765; -376.271; -446.512
421.025; 1561.770; 1830.722;  315.502
421.314; 1028.162; -203.271; -226.512
421.604; 1825.693;   89.732;  233.484
421.893; 1120.357; -705.271; -602.511
422.183;  360.757; -487.263; -461.526
422.472;  657.359;  -36.271; -107.511
422.762;  648.828; -416.266; -379.521
423.051;  356.504; -916.276; -916.503
423.341;  490.233; -491.273; -439.507
423.630;  680.536; -121.265;   15.477
423.919;  633.013;   58.725;   49.495
424.209;  650.565;  -31.263;   56.473
424.498;  822.899;   68.732;  161.483
424.787; 1872.408; -535.267; -601.518
425.077; 5643.434;   34.735;   29.478
425.366; 7341.573; -734.262; -744.528
425.655;17079.633;  639.727;  259.493
425.945;39449.654; -313.247; -268.554
426.234;22698.605;  117.741;  300.467
426.523; 8799.712;  -86.259; -350.534
426.812;12427.622;  107.734;  159.480
427.101;17919.888; -127.269; -323.515
427.390;22663.079;  -55.270;  -86.514
427.680; 4499.639; -624.257; -411.538
427.969;  765.355; -330.255; -301.540
428.258;  515.228; -385.257; -477.536
428.547;  852.350;  449.728;  397.490
428.836; 1660.277; -421.253; -398.543
429.125; 2357.014; -199.259;  -72.534
429.414; 1236.309; -330.251; -294.548
429.703; 5424.809; -231.251; -213.548
429.992;16415.714; -938.250; -828.549
430.281;11131.847; -397.264; -331.524
430.570; 1008.796;  -21.252;   32.454
430.859;  903.411;  279.741;  352.466
431.148;  729.348;  636.752;  631.446
431.437;  539.795;  391.748;  367.454
431.725;  255.930; -544.257; -481.536
432.014;  176.788; -845.253; -756.545
432.303;  582.955; -149.239; -105.569
432.592;  904.556; -460.263; -178.525
432.881; 1690.150; -601.248; -437.554
433.169;10966.856; -343.255;  -61.540
433.458;22386.002;  445.765;  540.424
433.747; 9464.681; -397.261; -289.529
434.036; 1355.821; -275.242; -280.564
434.324; 3486.632; -395.249; -379.551
434.613; 6388.712;   40.757;  159.437
434.902; 2151.141;  333.760;  439.433
435.190;  754.653;   75.761;  295.431
435.479;  404.786;  -52.245;   83.441
435.767;  147.797; -411.244; -427.561
436.056;  295.915; -340.242; -294.563
436.345;  626.144; -372.240; -223.568
436.633;  637.425;   60.750;  383.450
436.922;  405.947;  208.760;  414.432
437.210;  669.688; -194.236;    1.426
437.499; 2061.299; -583.235; -432.576
437.787; 2436.887; -339.236;  -10.574
438.075;  692.461;   56.761;  162.430
438.364;  933.164;  -44.238;  250.429
438.652;  567.712; -286.226; -138.592
438.941;  198.461;    3.770;  269.415
439.229;    0.692; -665.252; -466.545
439.517;   51.211; -160.234;  -85.577
439.806;  -35.766; -501.225; -290.595
440.094;  276.622;  377.766;  650.421
440.382;  203.827; -653.233; -302.580
440.670;  245.499; -361.235; -285.576
440.959;   25.558; -347.223; -170.599
441.247;   77.477; -151.229; -109.587
441.535;  105.509; -266.235;   31.423
441.823;   17.818; -497.234; -305.578
442.111;  300.383;  173.771;  327.412
442.400;  623.485; -628.245; -335.559
442.688; 1628.921; -111.234; -620.579
442.976; 1060.081; -786.213; -450.617
443.264;   95.343; -324.224; -364.597
443.552;  112.713; -258.226;   51.408
443.840;  329.507;  602.765;  876.423
444.128;  180.626;  265.767;  269.420
444.416;  -31.513; -694.228; -312.588
444.704;   -8.800; -465.219;  -92.605
444.992;  116.617;   -0.226;  240.407
445.280;   23.262; -517.230;  -94.585
445.568;   -2.214; -694.212; -396.618
445.856;  450.477; -174.221;  357.398
446.143;  948.895;  -54.220;   -7.604
446.431;  744.692;  -25.228;  625.411
446.719;  400.627;  489.783;  675.391
447.007;  291.354;  481.769;  705.416
447.295;  317.554;  597.777;  871.402
447.583;   96.374; -464.229;  -34.587
447.870;  190.573; -434.221; -202.601
448.158;  505.960; -104.230;  129.415
448.446;  360.496; -800.219; -338.604
448.733;  241.345;   13.776;  269.403
449.021;  394.186;   60.788;  341.382
449.309;  316.107; -296.210;  208.379
449.596;  383.422;  128.783;   59.392
449.884;  180.964; -571.222; -325.600
450.172;  257.999; -756.227; -406.590
450.459;  753.758;  645.786;  780.387
450.747; 4152.019; -411.218; -147.608
451.034;13374.093;  493.772;  889.411
451.322;11318.962; -413.214; -170.614
451.609;  982.247;  292.777;  508.403
451.897; 1005.895; -550.203; -183.634
452.184; 2994.654; -622.223; -400.598
452.472; 2951.237;   97.792;  269.375
452.759;  596.797;  512.781;  864.395
453.047;  145.582; -407.212; -125.617
453.334;   46.308; -732.219; -216.606
453.621;   94.065; -438.214; -161.615
453.909;  185.384;   13.796;  384.368
454.196;  162.148; -299.199; -123.641
454.483;  345.414;  317.798;  540.364
454.771;  218.741; -215.208;  196.374
455.058;   84.246; -316.207;  102.374
455.345;  212.925;   71.807;  344.347
455.632;  179.950; -128.207;  235.373
455.919;  110.879;  -82.196;  182.354
456.207; -154.946; -774.198; -450.642
456.494;  -40.669; -475.200;  -66.639
456.781;   13.608; -399.202; -198.635
457.068;   76.360; -253.206;  -29.628
457.355;  -45.839; -698.206; -401.629
457.642;  -22.231; -552.205; -290.630
457.929;  -21.087; -778.194; -417.651
458.216;   77.183; -575.212; -354.617
458.503;  408.419; -173.193;  -19.652
458.790;  409.538; -864.208; -630.625
459.077;  485.014;  -77.202;  110.364
459.364; 1354.703; -350.195; -210.649
459.651; 2878.657;  -46.206;  220.372
459.938; 1336.525; -864.209; -665.623
460.225;  201.419;  132.799;  276.363
460.512;  -89.724; -836.197; -688.645
460.799;  178.918;  -32.218;  320.392
461.086;  123.837; -370.200; -251.640
461.372;   26.555; -509.198; -279.642
461.659;  173.481; -165.196;  108.354
461.946;   61.417; -445.193;  -54.651
462.233;  447.334;  842.800;  888.361
462.519;  545.729; -814.201; -464.639
462.806; 1643.576; -768.197; -497.645
463.093; 1445.446; -445.191;  -66.656
463.380;  -82.796; -920.186; -824.664
463.666;   60.079; -259.197;  -18.646
463.953;  151.696; -406.195; -243.648
464.239;  326.396; -173.195;  -77.648
464.526;  632.211;  413.806;  743.350
464.813;  463.163; -565.190; -304.658
465.099;  589.519;  606.807;  607.348
465.386;  558.524;  903.807;  921.348
465.672;    6.176; -694.197; -522.645
465.959;   10.988; -598.188; -520.662
466.245;    8.124; -468.193; -359.652
466.532;  160.993; -109.195;   63.352
466.818;  103.504; -357.186; -216.664
467.104;  -52.140; -488.182; -415.672
467.391;  -25.435; -628.189; -459.658
467.677;   46.009; -289.186;    9.335
467.964;  -25.325; -682.189; -471.660
468.250;   51.813; -331.186; -160.665
468.536;  125.567;   90.811;  180.341
468.822; -103.370; -821.184; -574.668
469.109;  284.974;  351.827;  471.311
469.395;  374.238;  729.808;  787.346
469.681;  309.071;   46.811;  156.341
469.967; 2006.378; -699.188; -382.660
470.254; 4401.889; -494.188; -306.662
470.540; 2972.879; -601.196; -476.646
470.826;  431.176; -488.181; -397.675
471.112;  516.134;  288.816;  113.331
471.398;  162.341; -253.183;  -58.670
471.684;   32.116; -626.177; -447.680
471.970;  -50.619; -918.180; -981.675
472.256;   19.837; -521.192; -441.654
472.542;   24.189; -499.171; -434.691
472.828;  -37.845; -743.182; -607.672
473.114;   49.950; -380.166; -283.700
473.400;   24.039; -504.175; -293.684
473.686;   48.159; -452.166; -400.701
473.972;   83.159; -230.174; -131.687
474.258;  -73.126; -925.173; -843.689
474.544;  338.004; -183.178;   -2.679
474.830;  551.341;  -65.175;   45.316
475.116;  855.365; -123.190; -196.658
475.401; 1103.485; -558.180; -467.676
475.687;  304.683; -725.180; -718.676
475.973;  -18.834; -673.181; -770.673
476.259;  422.844;  736.825;  764.315
476.544;  578.527; -539.176; -437.682
476.830; 1357.584; -398.172; -322.690
477.116; 1262.025; -430.177; -336.682
477.401;  276.384;  346.820;  358.324
477.687;  -17.961; -289.175; -405.684
477.973;   55.071;   21.819;   28.326
478.258;    1.088; -448.163; -348.706
478.544;  103.520;   21.815;   61.334
478.829; -131.803; -818.171; -738.692
479.115;  -91.517; -749.172; -651.690
479.401;   13.553; -444.174; -449.686
479.686;   41.082; -253.180;  -74.676
479.972;  -86.689; -886.178; -776.680
480.257;   56.652; -258.166;  -65.700
480.542;  -17.998; -614.170; -469.693
480.828;  536.837; 1288.824; 1392.317
481.113;  -68.066; -464.176; -426.683
481.399;  -14.879; -236.161; -202.711
481.684;  -84.649; -620.166; -462.700
481.969;   78.440; -158.159;  -73.713
482.255;   -5.483; -439.169; -285.695
482.540;  -35.888; -569.178; -441.680
482.825;   -3.203; -395.187; -404.663
483.110;  158.022;  -85.169; -105.696
483.396;  294.170; -840.157; -652.718
483.681;  875.960;  543.826;  730.313
483.966;  230.232; -696.160; -700.712
484.251;    3.958; -404.174; -310.687
484.536;    5.167; -356.165; -378.703
484.822;    9.062; -205.173; -218.687
485.107;  -56.776; -599.152; -502.726
485.392;  256.074;  662.836;  541.296
485.677;  152.936;  354.832;  163.302
485.962;  207.667;  160.843;  270.283
486.247;  160.799;  -14.162;   -8.707
486.532;   67.554; -178.166; -325.701
486.817;  302.913;  381.839;  431.291
487.102;  140.600; -453.154; -514.722
487.387; 1112.373; -637.156; -652.718
487.672; 1982.382; -154.164;  -38.705
487.957; 1294.323; -394.160; -286.711
488.241;  372.047; -290.150; -314.729
488.526; 1248.126; -280.152; -148.726
488.811; 1974.714; -881.177; -818.680
489.096; 1463.304; -666.154; -702.723
489.381;  804.221;    3.847;  162.275
489.666;  656.921; -428.161; -510.710
489.950;  360.908;  558.846;  627.277
490.235;  -69.460; -480.151; -458.728
490.520;  -88.381; -756.161; -723.710
490.804; -122.324; -827.156; -736.719
491.089;   -2.631; -469.149; -299.732
491.374;   82.280; -132.164;  -75.704
491.658;  -43.114; -817.147; -717.735
491.943;  212.032; -657.152; -609.727
492.227;  357.194; -178.155;  -38.721
492.512;   83.066; -294.157; -341.717
492.797; -148.439; -713.149; -716.731
493.081; -101.411; -588.147; -598.735
493.366; -119.478; -751.161; -635.711
493.650;  411.064;  831.859;  917.254
493.935;   30.485; -648.147; -447.734
494.219;  -69.054; -778.142; -687.743
494.503;  -96.046; -585.150; -487.730
494.788;  126.154;   46.842;   74.285
495.072;  206.549;  184.850;  434.271
495.356;  262.574; -463.148; -343.733
495.641;  654.099; -812.146; -736.736
495.925;  594.983; -976.156; -903.719
496.209;   22.369; -599.149; -451.732
496.494;  -78.953; -763.142; -544.744
496.778;   -0.200; -364.154; -360.722
497.062; -115.218; -819.156; -627.719
497.346;  -67.374; -869.160; -640.711
497.631;  293.379;  580.852;  560.266
497.915;  128.513;  -64.145;  175.261
498.199;   83.470; -341.157; -277.718
498.483;   26.523; -562.152; -508.725
498.767;  331.551;  301.850;  300.271
499.051;  302.465; -126.149; -100.732
499.335;   -7.037; -693.149; -739.731
499.619;  -61.094; -381.129; -423.767
499.903;   32.392; -272.155;  -65.721
500.187;   25.410; -588.153; -316.724
500.471;  -21.769; -796.152; -595.727
500.755;  162.020;   62.839;  -96.710
501.039;   29.793; -270.155; -357.721
501.323;  120.966;  -21.141;  264.254
501.607;   17.288; -447.163; -503.706
501.891;  -47.528; -607.156; -512.718
502.174;  -83.771; -726.144; -585.741
502.458;   97.736;   89.849;  370.273
502.742;   79.700; -180.138; -191.751
503.026;  201.584; -412.147; -254.734
503.310;  226.239; -437.159; -375.713
503.593;  166.386; -464.147; -325.735
503.877;  161.356; -232.133; -156.760
504.161;  233.114;    2.847;  -50.724
504.444;  146.158; -841.158; -710.716
504.728;  738.179; -487.164; -522.704
505.012; 1204.546; -257.150;  -76.729
505.295;  914.521; -417.161; -212.711
505.579;  884.382; -256.156; -496.719
505.862; 1246.108; -555.145; -333.738
506.146; 1220.142; -681.159; -758.714
506.429;  731.143;  568.841;  461.286
506.713;  113.442; -732.151; -667.728
506.996;  547.399;   90.846;  295.278
507.280;  551.472; -633.165; -474.703
507.563;  421.690; -469.155; -261.721
507.847;  149.311; -423.153; -112.724
508.130;  172.322; -665.161; -456.711
508.413;  202.146; -758.167; -577.700
508.697;  387.646; -151.167;   12.300
508.980;  269.613; -422.153; -312.724
509.263;  -34.115; -466.155; -450.720
509.547;   70.246; -124.150;   82.271
509.830;   81.225; -172.160;  140.289
510.113;  190.982;  128.844;  298.281
510.396;   34.921; -530.152; -300.725
510.680;  115.610; -818.145; -812.738
510.963;  708.106;  184.846;  180.277
511.246;  533.257; -493.150; -357.730
511.529;  395.817; -482.145;  -83.739
511.812;  663.152; -250.134;   10.241
512.095;  409.238; -740.151; -396.728
512.378;  113.492; -317.147; -245.736
512.661;  -23.889; -703.137; -623.753
512.944;   38.949; -750.142; -637.744
513.227;  129.707; -170.137; -171.752
513.510;   35.729; -479.144; -671.741
513.793;   22.172; -485.140; -435.747
514.076;  231.235;  -43.127;  -39.771
514.359;  197.570; -294.149; -135.732
514.642;  109.753; -442.142; -567.744
514.925; 1280.370;  581.860;  561.253
515.208; 1637.247; -498.134; -443.758
515.491; 1133.166; -276.133; -182.761
515.773;  613.934; -410.143; -337.742
516.056; 3473.620;  249.864;  409.246
516.339; 4463.525; -754.136; -652.755
516.622; 2854.254; -518.150; -488.730
516.904; 1625.944;  882.857;  975.257
517.187;  642.605; -730.138; -523.752
517.470;  573.842; -568.143; -510.743
517.752;  691.729; -624.136; -470.756
518.035;  579.587; -708.139; -725.749
518.318;  579.125; -799.136; -744.755
518.600; 4086.771; -300.132; -325.762
518.883; 5573.852;  310.858;   88.256
519.165; 2733.995; -585.138; -426.751
519.448;  573.070;  -61.132;  -19.762
519.730;  255.846; -573.126; -415.773
520.013;  497.761;  588.867;  664.240
520.295; 1000.254;  -94.134;  -15.759
520.578; 2125.089; -335.131; -305.764
520.860; 2372.471; -254.132;   56.238
521.143; 1269.832; -763.135; -584.756
521.425;  715.064; -251.125; -279.775
521.707; 1090.336; -622.127; -380.771
521.990; 2955.936; -199.127;  167.229
522.272; 3328.275; -116.140;   -4.748
522.554; 1430.535; -237.143; -157.742
522.836;  458.751;  -24.134;   99.241
523.119;  297.882; -496.148; -189.734
523.401;  179.698; -448.130; -314.766
523.683;  113.311; -865.137; -693.753
523.965;  472.802;  408.862;  260.248
524.247;  487.794;   54.878;  170.220
524.529;  255.154; -451.134; -367.759
524.812;  578.101;   -3.130;  191.234
525.094; 1390.001; -773.138; -631.751
525.376; 2206.077; -143.124;   78.223
525.658; 1359.221; -441.136; -339.754
525.940;   30.884; -805.131; -671.764
526.222;   37.826; -188.136;  -88.755
526.504;  173.681; -190.131;   32.237
526.786;  106.257; -960.133; -647.760
527.068;  365.484; -124.123;  -67.778
527.349;   70.116; -865.137; -774.754
527.631;  230.570; -137.132;   22.238
527.913;  186.235; -664.127; -450.771
528.195;  230.354; -761.125; -639.774
528.477;  377.547;  -93.134;  -30.758
528.759;  208.101; -648.130; -522.766
529.040;  101.382; -569.123; -293.778
529.322;   84.658; -235.125;  -10.774
529.604;  189.604;  -47.130;   93.233
529.886;  176.145; -546.126; -302.773
530.167;  204.992;  232.870;  192.235
530.449;  131.491;    1.853;   63.265
530.731;   14.492; -572.122; -459.779
531.012;  119.821; -513.120; -216.784
531.294;  154.576; -118.116;  -43.792
531.575;  326.964;  290.875;  538.225
531.857;   81.340; -548.135; -266.757
532.138;  225.964; -113.141;   40.254
532.420;  284.234;  294.865;  403.244
532.701;  228.861; -722.133; -751.760
532.983;  461.365;  232.867;  182.239
533.264;  168.442; -243.126;  175.228
533.546;  -82.774; -491.136; -508.755
533.827;   88.956;  173.867;   -1.759
534.109;   39.139; -352.135;  -80.757
534.390;   81.176; -725.132; -582.762
534.671;  356.134; -270.135;  -82.756
534.953;  157.486; -751.123; -611.779
535.234;    5.355; -426.117; -255.789
535.515; -152.567; -891.119; -735.785
535.796;  -29.471; -431.128; -193.770
536.078; -227.824;-1050.124; -904.777
536.359;    6.687;  -22.123;    3.221
536.640;  -22.544; -480.125; -197.774
536.921;  264.311;  225.871;  143.232
537.202;  593.897;  -87.138;  -16.751
537.483;  760.288;  251.869;  377.236
537.764;  301.792;   17.870;   98.235
538.045;  -94.154; -543.134; -371.758
538.326;  -64.186; -596.129; -447.768
538.607;  -10.763; -686.127; -476.771
538.888;  288.709;   98.879;    5.218
539.169;  267.601; -704.122; -535.781
539.450;  544.210;  236.871;   16.233
539.731;  312.914; -361.121; -182.783
540.012;  224.021;  199.880;  412.216
540.293;  153.868;   82.876;  158.224
540.574;  -60.395; -895.113; -717.796
540.855;  724.312;  435.879;  377.218
541.136;  795.198;   47.878;  139.220
541.416;  438.602; -161.130; -220.766
541.697;  338.982; -274.131; -170.763
541.978; 1696.637; -270.135; -315.757
542.259; 2130.237; -211.127; -236.771
542.539; 1037.268; -191.116; -186.790
542.820;  327.863;  461.875;  480.225
543.101;  131.412;  -52.145;  -77.738
543.381;   -8.264; -638.127; -591.771
543.662;  491.933;  159.873; -254.771
543.942;  938.030; -751.127; -830.770
544.223; 1684.000;  193.878;  161.219
544.504; 1107.276; -275.124; -182.777
544.784;  968.245; -592.126; -408.773
545.065; 2716.573;  104.884; -254.791
545.345; 3161.033;  227.881;   14.215
545.626; 2137.704;  -14.113; -108.796
545.906; 1398.992;   77.869;   98.235
546.186;  587.952;   92.874;  -95.773
546.467;  340.679;   99.877;  -95.778
546.747;  572.267;  264.884;  327.210
547.027;  660.174;   91.876;  111.223
547.308;  514.829; -376.127; -530.770
547.588;  697.015;  299.871;  371.232
547.868;  340.693;  458.870;  588.235
548.149;  388.183;  609.885;  593.207
548.429;  172.334; -347.127; -299.771
548.709;  292.221; -645.120; -461.784
548.989;  810.547;   84.882;   88.213
549.269; 3513.368;   10.868;  139.239
549.550; 7923.385;  215.877;  117.222
549.830; 7049.529; -758.111; -556.799
550.110; 1448.140; -468.110; -320.801
550.390; 1336.093; -128.122;  -56.779
550.670; 1736.598; -868.114; -783.795
550.950; 1294.712; -509.121; -471.782
551.230;  409.307;  549.879;  460.218
551.510;   -0.990; -381.121; -326.782
551.790;   49.251; -173.109; -127.803
552.070;  483.079;  940.877; 1181.223
552.350;  670.839; -492.119; -377.786
552.630;  933.803;   -2.121;   77.219
552.909;  630.174;  181.884;   73.209
553.189;  440.377;  -49.132;   33.237
553.469;  293.038; -703.119; -514.786
553.749;  289.339; -469.127; -357.772
554.029;  300.661;   33.883;  -24.790
554.308;  247.389; -154.115;  -37.794
554.588;  113.028; -196.128; -204.770
554.868;  138.913; -366.121;  -47.782
555.147;  222.085; -114.115;  -46.793
555.427;  999.477; -260.116; -250.792
555.707; 6545.082; -284.115; -200.793
555.986; 7529.134; -719.111; -538.800
556.266; 4283.366;   23.884;   72.210
556.546;  164.410; -888.121; -675.782
556.825;  432.795; -657.114; -556.794
557.105; 2956.725; -125.128;   17.230
557.384; 3462.672;  122.884;  187.209
557.664; 1323.076; -717.116; -508.792
557.943;  202.412; -557.121; -411.782
558.222;  302.351; -345.118; -344.788
558.502;  510.087; -116.115;  -76.793
558.781;  786.681;  194.885;  499.208
559.061;  668.851; -232.118; -227.788
559.340;  524.858;  302.883;  353.211
559.619; 1158.265;   93.884;  148.210
559.899; 1655.060; -239.117; -266.789
560.178; 1496.986; -778.115; -593.793
560.457; 5161.663; -623.117; -562.790
560.736; 6937.636; -472.111; -482.800
561.015; 4855.722; -500.128; -502.769
561.295;  641.879;  180.893;  215.193
561.574;  511.283;  119.885;  116.207
561.853;  829.257;  274.891;  303.197
562.132;  811.790;  -45.114;  182.206
562.411;  806.304;  396.879;  553.219
562.690;  175.380; -592.115; -458.792
562.969;  318.014;  472.888;  630.203
563.248;  943.201; 2966.878; 2487.219
563.527;  473.735; -290.111; -408.800
563.806;  619.734; -650.127; -521.771
564.085;  669.400; -297.105; -206.810
564.364;  385.665; -594.117; -405.790
564.643;  849.804; -276.121; -223.781
564.922; 3087.648;  221.890;  397.198
565.201; 3066.253; -640.109; -700.803
565.479; 1378.379; -297.115; -219.792
565.758;  517.525; -810.128; -712.770
566.037;  763.455; -155.109; -100.803
566.316;  358.572; -286.116;  -28.791
566.595;   96.583;  -17.115;  -12.793
566.873;  237.838; -166.111;  -79.801
567.152; -118.087; -490.113; -590.797
567.431;   52.167; -113.116;    6.210
567.709;   36.979; -344.107; -212.807
567.988;  369.795; -810.114; -769.794
568.266;  828.982; -160.115;  -68.793
568.545;  673.166; -644.100; -514.819
568.824; 1039.378;  160.885;  356.208
569.102;  907.094; -351.114; -235.794
569.381;  370.877; -492.116; -407.792
569.659;  -63.392; -553.113; -553.796
569.938;    2.798; -743.122; -465.780
570.216;  160.559; -225.109; -225.804
570.494;  -68.201; -632.114; -572.795
570.773;   87.410;  202.879;  114.218
571.051;   32.983; -373.123; -357.778
571.330;   93.005; -221.113; -174.796
571.608;   56.691; -181.098; -173.823
571.886; -112.373; -671.111; -581.799
572.164; -118.487; -739.121; -621.782
572.443;  -71.195; -562.105; -512.811
572.721;  -26.137; -399.117; -289.790
572.999;  -54.346; -280.117; -168.788
573.277;  220.396;  379.894;  620.191
573.555;  522.799;   94.894;   37.190
573.834; 2233.453;  -86.117; -114.788
574.112; 2657.682;  880.893;  811.193
574.390;  789.636; -143.111;  -96.801
574.668;   38.015;  -91.112;  -61.797
574.946;  -27.501; -165.106; -187.810
575.224;   29.253;   71.891;  -16.803
575.502;  -28.931; -200.116; -204.791
575.780; -161.283; -767.112; -829.798
576.058;  288.035; 1589.889; 1004.200
576.336;  -19.257; -210.110; -129.801
576.614; -114.783; -511.112; -340.798
576.891;  100.889; -711.115; -823.794
577.169;  796.670; -158.108; -285.805
577.447;  991.581;  169.893;  202.193
577.725;  467.623;  629.888;  854.201
578.003;   22.220;  -71.112; -371.798
578.280;  155.118; -208.104; -242.812
578.558;   60.687; -450.115; -422.793
578.836;  198.899; -210.114; -145.795
579.114;    9.415; -630.112; -670.797
579.391;   96.356;   -6.117;  -18.789
579.669; -178.110; -595.114; -704.794
579.947;  288.077; -326.107; -127.806
580.224;  508.477; -692.107; -524.806
580.502;  542.583;  127.893;   76.193
580.779;   85.764;  -42.117;   75.210
581.057; -127.541; -584.109; -470.804
581.334; -162.761; -726.102; -695.815
581.612;   98.000;   54.895;  511.190
581.889;  -44.043;  -83.101; -129.818
582.167;  -90.823; -298.099; -190.821
582.444; -218.350; -845.102; -814.817
582.721;  227.850;  657.899;  715.183
582.999;  133.773; -326.100; -167.821
583.276;  811.989; -812.123; -713.779
583.553; 1174.743; -364.102; -294.816
583.831;  342.213; -607.104; -631.812
584.108;  150.967;  349.892;  174.195
584.385;   47.438; -122.102;  -98.815
584.662; -123.362; -651.111; -828.801
584.940;   75.137;  204.889;  204.199
585.217;  -13.892;  -73.113; -303.796
585.494;   80.350;   71.890;  118.198
585.771;  358.360; -250.109; -354.804
586.048;  793.408; -196.113;  -76.796
586.325;  491.142; -721.110; -773.801
586.602;  160.118;  230.896;  213.188
586.879;  -41.731; -499.100; -580.820
587.156;   96.102; -156.105; -331.810
587.433;  -81.953; -701.102; -667.817
587.710;  131.118;  152.888;  234.202
587.987;  506.609; -264.105; -236.811
588.264; 1266.720;  315.888;  387.202
588.541; 2238.622;  -61.104;   26.187
588.818; 4139.163;   72.892;  171.196
589.095; 3618.215; -163.104; -174.812
589.371;  583.857; -459.109; -414.804
589.648;   25.282; -581.107; -437.807
589.925;   39.900; -517.114; -621.795
590.202;    6.717; -741.112; -607.798
590.478;  152.411; -166.105;  -73.811
590.755;  471.272; -241.108; -132.806
591.032; 4054.245; -741.110; -699.802
591.308; 5249.947; -732.094; -790.831
591.585; 2874.144; -573.110; -560.802
591.862;  182.449;-1056.102; -950.817
592.138;  108.168; -475.108; -474.805
592.415;  271.819; -486.104; -495.813
592.691; 2358.016;  460.896;  518.188
592.968; 2837.994; -208.098; -123.824
593.244; 1402.867; -695.116; -595.790
593.521;  147.149; -105.102;  -42.817
593.797;  -16.305; -810.122; -720.780
594.074;  533.211; -611.096; -588.826
594.350; 1007.227;  828.905;  729.172
594.626;  500.938; -303.111; -283.801
594.903;  147.350; -643.101; -645.817
595.179;  345.225;  243.896;  418.187
595.455;   38.784; -136.107; -150.807
595.731;   13.727;  -19.103;  -38.814
596.008;  -47.970; -464.111; -434.800
596.284;   75.372; -187.100; -242.820
596.560;   94.556; -501.093; -493.833
596.836;  350.704; -173.105;  -70.810
597.112;  574.170; -582.108; -437.805
597.388;  485.108;  -49.097;  -48.826
597.665;  224.511;  437.887;  530.203
597.941;  -97.903; -572.089; -658.839
598.217;   14.049; -323.110; -293.802
598.493;  466.962;   61.891; -204.804
598.769;  808.164; -175.100;  -50.819
599.045;  474.874; -490.108; -562.806
599.321;   99.370; -193.100; -261.820
599.597;  215.061; -355.109; -476.804
599.872;  828.322;  409.896;  429.187
600.148;  624.210;  -61.097; -172.826
600.424;  465.480;   91.893;  202.193
600.700;  388.883; -170.107; -280.807
600.976;  177.802; -442.097; -464.825
601.252;  438.657; -226.109; -272.803
601.527;  280.123; -833.104; -840.813
601.803;  229.812; -453.105; -404.812
602.079;  322.064; -124.100; -118.819
602.354;  863.070; -620.092; -531.835
602.630; 1292.508; -140.113; -482.796
602.906; 3954.057; -910.101; -863.818
603.181;10652.839; -627.119; -534.786
603.457; 9136.507;   98.903; -278.826
603.733; 1371.416; -605.120; -626.783
604.008; 1667.900; -245.106; -164.810
604.284; 4549.452; -636.101; -580.817
604.559; 4275.523;   -3.112;  -42.799
604.835;  809.504; -163.105; -225.810
605.110;  650.678; -732.099; -892.821
605.385; 1124.560;  224.907;  267.167
605.661; 1059.731; -625.095; -729.829
605.936; 1851.274; -664.108; -737.806
606.211; 1602.036;  -17.103; -170.815
606.487;  322.993; -329.114; -376.794
606.762;   34.639; -791.119; -745.786
607.037;  -44.096; -501.105; -433.810
607.313;  -59.079; -589.096; -574.828
607.588;   13.699; -375.106; -137.810
607.863;   82.957;  -28.101; -143.818
608.138;  371.547;  513.890;  516.198
608.413;   58.683; -576.099; -592.822
608.688;  108.269; -203.108; -267.805
608.964;  364.991; -509.106; -218.809
609.239;  399.401; -107.105; -212.810
609.514;  459.212;  281.895;  240.188
609.789;  975.118; -187.104; -716.812
610.064; 1325.020; -435.096; -609.827
610.339; 1391.057; -855.109; -799.804
610.614; 1940.671; -131.100; -315.820
610.889; 1142.912;  215.895;  107.188
611.163;   84.613; -407.104; -591.812
611.438;  111.794;   81.886; -167.794
611.713;  -15.048; -467.101; -499.817
611.988;   64.455; -144.101; -328.818
612.263;  -64.361; -771.102; -717.815
612.538;  408.307;  385.887;  251.204
612.812;  257.773; -832.100; -911.820
613.087;  246.890; -358.098; -338.823
613.362;  -74.916; -497.107; -557.807
613.637;  138.431;  261.897;  138.186
613.911;    5.171; -256.092; -345.835
614.186;  196.281; -249.107; -292.807
614.460; 1077.202; -842.081; -758.854
614.735; 1237.330;  -55.087;  -17.843
615.010;  329.616;   43.912;  -82.841
615.284;  428.468;  360.892;  246.195
615.559;  503.269; -792.092; -955.835
615.833;  463.281;  -76.099;  -87.822
616.108;    8.686; -225.090; -390.837
616.382;  284.032;  274.913;  402.156
616.656;  271.886; -241.090; -232.837
616.931;  836.981; -785.099; -700.822
617.205; 1666.324; -973.104; -979.813
617.480; 1567.761;  -91.125;    6.225
617.754;  284.757; -396.125; -128.774
618.028;   36.416; -369.129; -382.768
618.302;  163.066;   73.892;  -25.805
618.577;  -75.767; -371.103; -518.815
618.851;  -82.747; -399.109; -600.803
619.125; -104.646; -335.134; -378.759
619.399;  -39.076; -244.104; -374.813
619.673;  -74.722; -330.115; -515.792
619.947;  -52.502; -333.114; -448.795
620.222;  -16.960; -198.110; -204.801
620.496;  -12.488;  -47.121;  -96.782
620.770;   45.401; -187.122;  -93.781
621.044;  400.502;  323.895;  346.190
621.318; 1102.316; -653.120; -614.783
621.592; 1039.213; -430.121; -409.783
621.866;  568.624; -476.112; -572.799
622.140;   55.869; -207.116; -356.791
622.413;  144.530;  138.889;  112.200
622.687;  -74.248; -746.101; -492.817
622.961;   27.066; -130.108; -143.805
623.235; -102.569; -633.111; -661.800
623.509; -186.989; -816.105; -848.811
623.783;   77.278;  -12.107;   48.193
624.056;   -7.282; -254.120; -280.783
624.330;  135.015;   63.888;   -3.797
624.604;   98.965; -271.116; -355.790
624.877;  160.346;  180.890;   26.198
625.151;   80.791; -249.114; -238.794
625.425;  -37.473; -150.103; -283.814
625.698;  -93.369; -367.119; -374.785
625.972; -150.151; -799.110; -765.802
626.245;  185.767;  685.884;  484.210
626.519;  -72.276; -426.120; -340.784
626.792;  -53.117; -192.107; -380.807
627.066; -137.609; -485.122; -662.779
627.339; -195.956; -736.110; -663.802
627.613;  132.422;  351.880;  148.216
627.886;  131.452;  187.891; -612.803
628.160;   -5.284;  312.880; -161.783
628.433; -178.535; -695.125; -703.775
628.706; -131.976; -517.120; -615.784
628.979;   89.174;  296.876;  117.223
629.253; -150.662; -785.119; -833.786
629.526;  652.143; -334.126; -253.772
629.799;  523.584; -641.123; -479.778
630.072;  254.018; -497.128; -516.769
630.346; -128.833;-1115.116;-1080.790
630.619;  781.485; -467.107; -545.808
630.892; 1081.432;  709.889;  593.200
631.165;  616.324;  790.896;  679.187
631.438; -159.280;-1092.112;-1055.798
631.711;  125.488;  453.877;  257.221
631.984;  -82.939; -523.117; -624.789
632.257; -122.644; -636.117; -681.789
632.530;  -60.869; -412.119; -433.785
632.803;   67.988; -109.115;    7.207
633.076;  -91.121; -360.123; -422.777
633.349;   43.024;  173.872;  121.231
633.622;  -29.270; -187.119; -240.785
633.895; -269.782; -903.120; -823.783
634.167;  -67.454; -496.126; -525.773
634.440;   20.476;  -19.116; -137.792
634.713;   49.936;  -22.119; -120.786
634.986;  168.509;  593.871;  453.233
635.258; -137.314; -507.115; -597.793
635.531;  194.950;  742.882; -343.788
635.804;  -20.341; -303.117; -318.789
636.077; -177.629; -830.116; -852.791
636.349;  -52.017; -586.115; -474.793
636.622;  820.742; 1695.874; 1392.228
636.894;  408.024; -474.120; -909.784
637.167;  221.034; -836.127; -789.771
637.439;   76.028; -278.128; -213.770
637.712;  -86.956; -312.126; -293.772
637.984; -137.428; -635.116; -707.791
638.257;  710.780;  515.877;  488.222
638.529;  788.366; -881.125; -924.776
638.802;  363.918; -508.128; -449.769
639.074; -204.000; -927.122; -952.781
639.346; -225.858; -942.135; -930.757
639.619;   41.551;  -79.142; -319.744
639.891;    8.591;  -83.122; -168.779
640.163; -136.907; -689.122; -756.780
640.435;  108.396;  273.878;  103.220
640.708;   56.899;  -72.122; -132.780
640.980;  -22.699; -366.122; -362.781
641.252;  397.604;  -25.121;  -71.781
641.524; 2866.506;  580.879;  573.219
641.796; 2671.209;-1094.121; -907.782
642.068;  513.411; -191.121; -300.782
642.340;  -86.586; -486.121; -566.783
642.613;  104.917;  294.880;  323.217
642.885; -184.681; -787.120; -878.783
643.157;  -93.878; -810.120; -658.784
643.428;  155.724;  170.880;  218.216
643.700; -116.573; -498.120; -425.784
643.972;   -9.971;  -16.119; -133.785
644.244; -126.368; -474.119; -559.785
644.516;  -21.666; -250.119; -114.786
644.788;  208.437;  662.881;  548.214
645.060;   12.040;  -12.119; -124.786
645.332; -177.158; -525.118; -535.787
645.603;  101.645;  479.882;  342.213
645.875;  -76.253; -334.118; -369.787
646.147;  397.650; 1487.882; 1242.212
646.418; -146.448; -931.117; -918.788
646.690;  222.355; -714.117; -715.789
646.962;   73.158; -413.117; -451.789
647.233;   43.260;   15.883;   11.211
647.505; -142.637; -595.117; -475.790
647.776;   94.965;  328.884;  229.210
648.048;    9.168; -248.116; -418.790
648.320; -128.630; -752.116; -679.791
648.591; -291.127;-1055.116; -958.791
648.862; -125.425; -505.116; -577.792
649.134;   68.878;  115.885;  198.208
649.405;  -74.519; -661.115; -618.792
649.677; -111.717; -475.115; -598.793
649.948;  -11.814; -181.115; -296.793
650.219;   25.288;  -37.115; -147.793
650.491; -107.009; -431.114; -520.794
650.762; -216.407; -705.114; -731.794
651.033; -134.304; -437.114; -424.795
651.304; -180.301; -743.114; -728.795
651.576; -120.099; -680.114; -645.795
651.847;  -50.296; -250.113; -140.796
652.118;   -7.494;  -32.113; -189.796
652.389; -190.491; -639.113; -722.796
652.660;  -33.889; -147.113;  -89.797
652.931; -259.286; -897.112; -871.797
653.202; -116.184; -382.112; -541.798
653.473;  -96.381; -633.112; -533.798
653.744;  257.922; -595.112; -590.798
654.015;  211.324; -356.112; -303.799
654.286; -101.073; -642.111; -663.799
654.557; -118.071; -586.111; -521.799
654.828; -296.068;-1114.111;-1088.800
655.099; -131.466; -404.111; -291.800
655.370; -122.463; -427.111; -543.801
655.641; -203.460; -656.110; -714.801
655.911; -165.358; -618.110; -638.801
656.182;  172.045;  437.890;  387.198
656.453;  244.847;  830.890;  746.198
656.724; -112.950; -466.110; -426.802
656.994; -139.648; -553.109; -568.803
657.265; -186.445; -862.109; -873.803
657.536; -133.743; -500.109; -377.804
657.806; -140.740; -561.109; -593.804
658.077; -236.837; -866.109; -950.804
658.347; -148.935; -523.108; -598.805
658.618; -208.832; -646.108; -694.805
658.888;  -15.130;  -41.108;  112.195
659.159; -141.927; -432.108; -548.806
659.429;   -6.425; -292.108; -349.806
659.700;   18.778; -435.107; -390.807
659.970;  -29.419; -370.107; -359.807
660.241;   29.883; -754.107; -921.807
660.511;  810.486; -147.107; -174.808
660.781;  156.588; -793.106; -748.808
661.052;  -78.909; -222.106; -381.808
661.322;   18.393;   21.894;   -9.809
661.592;   98.896;  257.894;  148.191
661.862;  -77.302; -369.106; -382.810
662.133; -157.599; -551.105; -502.810
662.403; -216.296; -770.105; -676.810
662.673;  -93.094; -256.105; -213.811
662.943; -162.291; -612.105; -551.811
663.213;    7.411;  -85.105;  -81.811
663.483; -130.786; -593.104; -568.812
663.753;  -50.584; -194.104; -152.812
664.023;   12.619;   68.896;  -32.813
664.293;  -85.878; -319.104; -126.813
664.563; -154.076; -694.104; -648.813
664.833; -177.573; -743.103; -608.814
665.103; -225.771; -730.103; -793.814
665.373; -220.268; -766.103; -806.814
665.643; -147.066; -863.103; -918.815
665.913;   55.237; -534.103; -714.815
666.182;  220.339; -685.102; -719.816
666.452;  373.242;  -22.102;  -89.816
666.722;  -73.555; -724.102; -784.816
666.992; -266.053; -948.102; -921.817
667.261; -151.850; -824.102; -808.817
667.531;  328.052;  134.899;   45.183
667.801;  824.055; -440.101; -412.818
668.070;  426.157;  714.899;  697.182
668.340; -197.340; -883.101; -840.819
668.609;  175.563;  588.900;  301.181
668.879; -119.235; -490.100; -558.819
669.149; -141.732; -539.100; -516.820
669.418; -158.230; -698.100; -726.820
669.688;  -56.927; -482.100; -666.820
669.957;  127.075; -423.099; -546.821
670.226;  -17.922; -268.099; -331.821
670.496; -171.420; -431.099; -635.822
670.765; -147.417; -418.099; -501.822
671.034; -242.414; -872.099; -828.822
671.304;   24.788;   55.902; -111.823
671.573; -287.409;-1085.098; -957.823
671.842;  160.993; -380.098; -294.823
672.112;   28.496; -692.098; -586.824
672.381;   30.898; -239.098; -214.824
672.650; -250.299;-1005.097;-1021.825
672.919; -158.997; -631.097; -507.825
673.188; -155.594; -681.097; -878.825
673.457; -262.191;-1101.097;-1143.826
673.726; -117.389; -579.096; -646.826
673.995;  -83.786; -533.096; -479.826
674.265;   -2.084; -263.096; -333.827
674.534;   48.319; -183.096; -235.827
674.802;   36.921; -618.096; -703.828
675.071; 1726.024; -886.095; -801.828
675.340; 5933.927; -464.095; -339.828
675.609; 2119.929;  103.905;   82.171
675.878;   97.332; -949.095; -893.829
676.147;  119.734;  -26.095;   -8.829
676.416;  190.237; -210.094; -294.830
676.685; 1236.339; 1000.906; -622.830
676.953;  188.242; -603.094; -452.831
677.222;  -23.956; -193.094; -273.831
677.491;  -35.053;  -24.094; -127.831
677.759;   27.650;   11.907;  172.168
678.028;   16.452; -279.093; -222.832
678.297;   57.155;   71.907;  197.168
678.565; -263.743; -898.093; -944.833
678.834;  -80.240; -311.093; -268.833
679.102;  -97.538; -411.092; -391.834
679.371; -258.235; -898.092; -727.834
679.639; -198.832; -797.092; -786.834
679.908; -205.730; -794.092; -724.835
680.176; -262.527; -895.091; -941.835
680.445;  -89.225; -346.091; -352.835
680.713;    6.878;  -58.091;  -23.836
680.982; -148.820; -523.091; -525.836
681.250; -154.417; -578.091; -507.837
681.518; -180.915; -534.090; -751.837
681.787;  -16.312; -204.090; -167.837
682.055;  -87.309; -490.090; -422.838
682.323; -251.107; -993.090; -992.838
682.591;   85.296; -216.090; -538.838
682.859;  198.498;    9.911;  -35.839
683.128;  107.701;  232.911;  497.161
683.396; -275.997;-1102.089;-1122.840
683.664;  -52.694; -241.089;   21.160
683.932;   43.409;  144.911;  -76.840
684.200; -130.289; -576.088; -320.841
684.468;   -0.186;  -73.088; -124.841
684.736;  -17.984; -214.088; -175.841
685.004; -223.081;-1024.088; -982.842
685.272;  -95.579; -880.088; -774.842
685.540; -110.376; -499.087; -557.843
685.808; -153.074; -651.087; -682.843
686.076; -193.871; -894.087; -969.843
686.343; -120.668; -601.087; -815.844
686.611;   80.634; -195.087; -224.844
686.879;  812.237; -530.086; -553.844
687.147; 5040.839; -483.086; -480.845
687.414; 1405.942;  -12.086; -169.845
687.682;    6.544; -658.086; -757.846
687.950;  549.447;  259.915;  263.154
688.217;    8.250; -792.085; -760.846
688.485;   -5.448; -632.085; -636.847
688.753;  848.055;  -11.085; -102.847
689.020;  231.557; -820.085; -851.847
689.288; -161.840; -853.084; -787.848
689.555;  -25.838; -195.084; -148.848
689.823;  -55.635; -241.084; -345.849
690.090; -135.933; -546.084; -651.849
690.358; -272.230; -877.084; -897.849
690.625;   92.573;  120.917;   45.150
690.892; -110.725; -403.083; -369.850
691.160;   42.178;   72.917;  -35.850
691.427;   57.880;  141.917;  130.149
691.694; -242.417; -855.083; -929.851
691.962; -271.815;-1177.082;-1060.852
692.229;   77.088;  127.918;   56.148
692.496;  169.191;  130.918;  -49.852
692.763;   49.893; -164.082; -201.853
693.031;  -97.204; -739.082; -716.853
693.298;  -58.302; -509.081; -368.853
693.565;  587.401; -155.081; -163.854
693.832; 1933.003;   -5.081;   -9.854
694.099;  213.406; -643.081; -642.855
694.366; -113.792; -882.081; -896.855
694.633;  -79.489; -920.080; -633.855
694.900; 1558.314; 4367.920; -114.856
695.167;  658.716; -214.080; -380.856
695.434;  111.519; -646.080; -623.856
695.701;  354.921;  121.921;  -61.857
695.968;  717.324; -365.079; -361.857
696.234; 1681.926; -415.079; -646.858
696.501;15389.029; -776.079; -614.858
696.768; 7318.932; -554.079; -617.858
697.035;  478.834; -632.078; -667.859
697.302;   69.637; -448.078; -552.859
697.568;   10.539; -458.078; -497.859
697.835;  -72.658; -683.078; -624.860
698.102;  -37.156; -498.078; -407.860
698.368;  206.547;  384.923;  396.139
698.635;  -53.851;  -47.077; -424.861
698.901;   -5.348; -240.077; -348.861
699.168;  133.155; -534.077; -456.862
699.435;  151.857;  -72.077;  -13.862
699.701; -217.540; -868.076; -764.862
699.968;  -61.338;  144.924; -441.863
700.234; -156.935; -783.076; -822.863
700.500;  -82.133; -448.076; -539.864
700.767;   27.370;   -1.075;   26.136
701.033; -191.527;-1015.075; -963.864
701.299;  -77.925; -450.075; -483.865
701.566;  310.178;  950.925;  763.135
701.832;   83.880;  -31.075;  -76.865
702.098; -164.617;-1054.074;-1034.866
702.365; -188.415;-1098.074;-1030.866
702.631;  -32.212;-1038.074;-1063.867
702.897; 2240.790; -765.074; -676.867
703.163; 3282.593;  348.926;  254.133
703.429;  250.296; -256.073; -273.868
703.695;  -97.502; -796.073; -792.868
703.961;   66.701; -214.073; -210.868
704.227;  -68.997; -630.073; -725.869
704.493;  297.906;  613.927;  510.131
704.759;  -50.992; -565.072; -540.870
705.025;  100.111; -203.072; -194.870
705.291;   -2.486; -666.072; -562.870
705.557;  382.716;  719.928;   34.129
705.823;   50.519; -742.072; -694.871
706.089;  229.521; -307.071; -326.871
706.355;  589.024; -315.071; -244.872
706.620; 8406.026; -776.071; -729.872
706.886;10766.029; -309.071; -362.873
707.152;  981.131; -818.070; -973.873
707.418;  -65.166;-1153.070;-1186.873
707.683;   -1.063; -550.070; -530.874
707.949;  -51.861; -547.070; -578.874
708.215;   11.142; -129.070; -207.874
708.480;  -12.656; -520.069; -420.875
708.746;  230.747;   68.931;   28.125
709.011;  -68.151; -578.069; -612.876
709.277; -113.348; -538.069; -543.876
709.542;  -26.445; -428.069; -387.876
709.808;   51.257;  -59.068;   89.123
710.073; -119.040; -577.068; -695.877
710.339;   -9.638; -242.068; -228.877
710.604;  142.565; -780.068; -845.878
710.869;  490.067; -277.068; -366.878
711.135; -138.930; -715.067; -628.879
711.400; -146.528; -507.067; -608.879
711.665;  -70.525; -404.067; -479.879
711.931; -155.422; -661.067; -677.880
712.196; -192.020; -876.067; -954.880
712.461;  200.083; -402.066; -490.880
712.726;  170.785; -727.066; -771.881
712.991; -167.312; -647.066; -664.881
713.256;   -6.710; -350.066; -332.882
713.521;  -88.307; -417.065; -381.882
713.787;  -77.904; -454.065; -472.882
714.052;  -32.302; -214.065; -400.883
714.317; -210.499;-1045.065; -981.883
714.581; 1593.203; -374.065; -268.883
714.846; 1818.406; -822.064; -888.884
715.111;  245.308;  261.936;  257.116
715.376;   -4.089;  -86.064; -223.885
715.641;    7.013; -365.064; -367.885
715.906;  442.416;   15.936; -551.885
716.171;  286.019;  221.937;  209.114
716.436;  120.221;  -78.063; -104.886
716.700; -174.476; -818.063; -692.886
716.965; -203.574; -794.063; -807.887
717.230;  -87.871; -339.063; -392.887
717.494;    1.731;  -40.062; -134.888
717.759; -177.066; -784.062; -640.888
718.024;   76.436;  269.938;  250.112
718.288;  167.439;  685.938;  395.111
718.553; -222.058; -803.062; -977.889
718.817; -258.056; -883.061; -899.889
719.082;   -4.253; -115.061; -125.890
719.346; -252.251;-1000.061; -947.890
719.611;  -20.048; -300.061; -255.891
719.875; -163.346; -568.060; -537.891
720.140;  -86.643; -453.060; -603.891
720.404;  111.960; -136.060; -249.892
720.668; 1395.062; -475.060; -411.892
720.933;  521.865;  146.940;  137.108
721.197; -162.533; -667.059; -600.893
721.461; -210.330; -851.059; -826.893
721.725;   50.472;  -21.059; -250.894
721.990;  -19.225; -284.059; -204.894
722.254;   21.377;  -26.059; -108.894
722.518; -102.820; -286.058; -442.895
722.782; -128.617; -743.058; -594.895
723.046;  293.785;  614.942;  570.105
723.310;  137.388;  374.942;  210.104
723.574; -159.410; -654.058; -614.896
723.838; -152.107; -576.057; -642.897
724.102;  -48.405; -226.057; -239.897
724.366; -223.402;-1032.057; -978.897
724.630; -177.799; -749.057; -571.898
724.894;  -97.697; -722.057; -514.898
725.158;   52.106;   38.944; -295.898
725.422;  -46.792; -394.056; -327.899
725.685;  -81.789; -441.056; -349.899
725.949; -147.187; -566.056; -519.900
726.213; -121.084; -732.056; -811.900
726.477;  273.218;-1020.055; -933.900
726.740;  243.421; -274.055; -104.901
727.004;  567.924; -384.055; -510.901
727.268; 4779.526; -442.055; -400.901
727.531; 1140.429; -961.055; -775.902
727.795;  -79.369; -713.054; -673.902
728.059;  -84.666; -552.054; -557.903
728.322; -145.364; -841.054; -669.903
728.586;   70.239; -692.054; -701.903
728.849; -116.058; -695.053; -756.904
729.112; -182.756; -812.053; -912.904
729.376; -225.453; -959.053; -905.904
729.639;  -75.651; -536.053; -536.905
729.903; -182.648; -733.053; -699.905
730.166;  -43.946; -437.052; -399.906
730.429;    2.857; -317.052; -468.906
730.693;  -73.041; -355.052; -894.906
730.956;  437.862;  810.948;  651.093
731.219; 1076.865; -310.052; -103.907
731.482;  183.267;-1003.051; -894.907
731.745;   84.370; -794.051; -935.908
732.009;   82.272;  -30.051;   50.092
732.272; -148.325; -904.051; -771.909
732.535;  -23.823; -300.051; -310.909
732.798; -272.520;-1083.050;-1166.909
733.061;  -68.917; -430.050; -456.910
733.324;   42.285;   31.950; -180.910
733.587;  181.888;  290.950;  365.090
733.850;  -98.710; -973.049;-1050.911
734.113;   88.393;   33.951;   32.089
734.376;   47.495; -328.049; -447.912
734.639;  450.198; 1188.951; 1011.088
734.901;  142.100; -180.049; -402.912
735.164;  827.903; -883.048; -837.913
735.427; 1863.306; -166.048; -355.913
735.690;  219.708; -205.048; -234.913
735.952;  -55.589; -923.048; -925.914
736.215;  -78.687;-1113.048;-1009.914
736.478;    7.116; -771.047; -774.915
736.740;  335.618;   33.953;  129.085
737.003; 1274.921; -658.047; -672.915
737.266; 6239.124;  -94.047;   46.084
737.528;  662.026; -682.047; -660.916
737.791;  472.429; -316.046; -327.916
738.053; 1378.931;  465.954;  649.083
738.316;16632.234; -162.046; -136.917
738.578; 9973.936; -770.046; -736.918
738.841;  663.839; -382.046; -446.918
739.103;  298.841; -875.045; -777.918
739.365;  759.844;   79.955;  -69.919
739.628;   21.747; -884.045; -805.919
739.890;  -26.051; -758.045; -710.919
740.152;  -59.648; -692.044; -754.920
740.414;   17.954; -408.044; -359.920
740.677;  -89.543; -785.044; -634.921
740.939;  -57.741; -587.044; -487.921
741.201;  459.262; -432.044; -572.921
741.463;   41.665; -689.043; -745.922
741.725;   81.467;  -21.043; -199.922
741.987;  148.670;  220.957;  116.078
742.249;   -6.428; -751.043; -859.923
742.511;  342.275; -703.043; -794.923
742.773;   46.377; -546.042; -546.924
743.035;  251.880;  796.958;  533.076
743.297;  -75.218; -963.042;-1013.924
743.559; 1159.785; -278.042; -262.925
743.821;  104.388; -735.042; -744.925
744.083;    5.690;  -44.041; -149.925
744.345; -135.107; -869.041; -892.926
744.607;  130.795;   75.959;  122.074
744.868;  -66.602; -490.041; -554.927
745.130; -225.200; -994.041;-1008.927
745.392;  151.703;   -1.040;  -44.927
745.653;    2.406; -411.040; -378.928
745.915;  378.908;  896.960;  631.072
746.177;  112.511;   35.960;  -43.928
746.438;  -32.687; -428.040; -543.929
746.700;  -95.784; -947.039; -988.929
746.961;   40.318; -659.039; -740.930
747.223;  259.121; -190.039;  -74.930
747.484;  132.023; -391.039; -471.930
747.746;  278.326;  -23.038; -106.931
748.007;  166.329; -647.038; -689.931
748.269;  496.531; -468.038; -440.931
748.530;  727.534; -852.038; -638.932
748.791;  412.436; -354.038; -420.932
749.053;  725.139;  286.963;  163.067
749.314;  762.741; -236.037; -169.933
749.575;  737.944; -945.037; -905.933
749.836; 1352.847; -217.037;   86.066
750.098; 4484.349;  -60.037;  -21.934
750.359;55183.552;  414.964;  555.066
750.620;12242.354; -121.036; -220.935
750.881; 1629.457; -585.036; -513.935
751.142; 2124.159; -950.036; -938.936
751.403;25695.562; -789.036; -705.936
751.664; 9578.164;-1034.035; -999.936
751.925;  752.167; -175.035; -262.937
752.186;  475.170; -298.035; -278.937
752.447;  207.672; -590.035; -445.937
752.708;   62.275; -532.035; -648.938
752.969;  -26.423; -566.034; -576.938
753.230;   -8.320; -777.034; -672.939
753.491;   15.382; -650.034; -631.939
753.751;  172.085;  109.966;   19.061
754.012;  194.088;  258.967;  181.060
754.273;  111.890; -174.033;  -71.940
754.534;   26.093; -487.033; -580.940
754.794; -144.905; -926.033; -911.941
755.055;  329.798; 1051.967;  881.059
755.316;  -36.400; -700.032; -566.942
755.576;  -34.497; -606.032; -576.942
755.837;  -43.895; -527.032; -695.942
756.097;  -65.192; -530.032; -564.943
756.358; -124.389; -725.032; -770.943
756.618;  -77.887; -705.031; -641.943
756.879;   60.116; -254.031; -349.944
757.139; -222.182;-1098.031;-1116.944
757.400;  -76.379; -538.031; -553.945
757.660;   18.423; -365.031; -401.945
757.920;   50.526; -266.030; -228.945
758.181;   -7.672; -468.030; -351.946
758.441; -150.169; -870.030; -809.946
758.701;  -19.966; -308.030; -215.946
758.961;   32.336; -220.030; -278.947
759.222;  -41.261; -574.029; -502.947
759.482;  -98.559; -683.029; -723.948
759.742; -143.556; -706.029; -547.948
760.002;   48.846;  -83.029; -143.948
760.262;   91.449;   50.972;  182.051
760.522;  -44.048; -498.028; -574.949
760.782;  -93.846; -738.028; -612.949
761.042;  -68.943; -618.028; -573.950
761.302;  125.259;   55.972;  -18.950
761.562;  121.262; -164.027; -154.951
761.822;  140.864; -710.027; -551.951
762.082;  -93.333;-1104.027;-1093.951
762.342;  115.069; -328.027; -403.952
762.601;  173.672; -567.027; -506.952
762.861;  580.475; -281.026; -207.952
763.121;  699.477; -406.026; -411.953
763.381;11996.580; -499.026; -485.953
763.640;11009.282; -139.026; -307.954
763.900;  560.585; -242.026; -203.954
764.160;  165.787; -458.025; -491.954
764.419;  -51.210; -726.025; -782.955
764.679; -101.207; -795.025; -726.955
764.939;    3.995; -124.025; -210.955
765.198;  -98.002; -608.025; -563.956
765.458; -128.000; -710.024; -612.956
765.717; -118.497; -454.024; -590.957
765.976;  -53.895; -428.024; -411.957
766.236;  -95.492; -475.024; -610.957
766.495;   88.410;  260.977;   73.042
766.755; -167.787;-1090.023; -987.958
767.014;   13.016; -594.023; -665.958
767.273;  -53.482; -373.023; -397.959
767.533;  -22.679; -228.023; -307.959
767.792;   23.823; -151.022; -188.960
768.051;  -53.274; -228.022; -276.960
768.310;  -91.972; -546.022; -650.960
768.569;   25.531; -161.022;    4.039
768.828;   31.434; -285.022; -363.961
769.088; -223.564;-1050.021; -942.961
769.347; -120.161; -755.021; -599.962
769.606; -148.359; -876.021; -857.962
769.865; -208.756;-1016.021;-1033.963
770.124;   31.646; -411.021; -336.963
770.383;  -61.751; -778.020; -910.963
770.641;  -18.249; -398.020; -400.964
770.900; -134.746; -953.020; -846.964
771.159;  -99.243; -851.020; -951.964
771.418;  -41.641; -917.020; -779.965
771.677;  203.462; -224.019; -293.965
771.936;  209.764; -794.019; -865.966
772.194; 3829.267; -465.019; -437.966
772.453;15185.569; -213.019; -391.966
772.712; 1149.472;  416.982;  329.033
772.970;  240.175;   32.982;   63.033
773.229;  186.077;  -22.018;  102.033
773.488; -119.920; -814.018; -770.968
773.746;  150.182;  296.982;  335.032
774.005;   70.585;  190.983;  -22.969
774.263;   73.287;  243.983;  177.031
774.522; -124.010; -422.017; -548.969
774.780; -109.808; -484.017; -417.970
775.039; -114.005; -551.017; -531.970
775.297;   -6.402; -135.016; -351.970
775.555; -161.700; -489.016; -612.971
775.814; -180.797; -618.016; -570.971
776.072; -177.695; -749.016; -740.971
776.330; -135.892; -630.016; -520.972
776.589; -204.690; -703.015; -721.972
776.847; -193.687; -645.015; -624.973
777.105; -278.084;-1016.015;-1032.973
777.363; -114.982; -459.015; -454.973
777.621; -225.279; -660.015; -717.974
777.879;    7.323;  -42.014;   32.026
778.138; -137.374; -554.014; -717.974
778.396; -166.072; -585.014; -526.975
778.654; -272.569;-1015.014; -970.975
778.912; -109.267; -269.014; -371.976
779.170; -233.264; -880.013; -803.976
779.427; -249.761; -922.013; -897.976
779.685; -209.559; -880.013; -832.977
779.943; -167.756; -654.013; -593.977
780.201; -234.854; -964.012; -883.978
780.459; -154.551; -651.012; -610.978
780.717; -105.549; -440.012; -390.978
780.974; -123.146; -449.012; -490.979
781.232;  -67.943; -358.012; -338.979
781.490; -109.141; -551.011; -472.979
781.747; -130.938; -555.011; -476.980
782.005;  112.864;  462.989;  254.020
782.263; -293.533; -542.011;-1004.981
782.520; -119.931; -326.011; -501.981
782.778; -234.228;-1013.010;-1051.981
783.035; -294.826; -962.010; -938.982
783.293;  -43.823; -248.010; -206.982
783.550;  -44.520; -134.010; -198.982
783.808; -193.618; -764.010; -776.983
784.065; -287.915; -745.009; -874.983
784.322;   -7.513;   25.991;  -86.984
784.580; -207.610; -915.009; -771.984
784.837; -123.608; -392.009; -466.984
785.094; -179.905; -783.009; -762.985
785.352;  -86.902; -304.008; -404.985
785.609; -200.600; -934.008; -839.985
785.866;  -69.897; -345.008; -401.986
786.123; -113.695; -639.008; -583.986
786.380; -162.592; -665.008; -604.987
786.637;  -12.790; -225.007; -380.987
786.895;  -24.787; -456.007; -543.987
787.152;  -19.885; -135.007; -267.988
787.409;    0.018; -123.007; -225.988
787.666; -105.879; -299.006; -378.988
787.923; -154.177; -616.006; -695.989
788.179; -176.474; -551.006; -584.989
788.436; -154.872; -585.006; -585.990
788.693;    7.431;  -92.006;  -87.990
788.950;  318.133; -125.005; -112.990
789.207;  286.436; -381.005; -372.991
789.464;  -40.561; -161.005; -301.991
789.720;   55.241;  150.995;  110.009
789.977; -284.756;-1003.005; -671.992
790.234;   -7.454;   44.996;  -66.992
790.490; -252.651; -884.004;-1031.993
790.747;   21.151;  -85.004;   22.007
791.004;   -8.046; -426.004; -348.993
791.260; -105.444; -430.004; -560.994
791.517; -137.341; -843.003; -788.994
791.773;  -73.438; -379.003; -342.994
792.030; -175.936; -596.003; -660.995
792.286; -163.733; -686.003; -636.995
792.543;   62.169;  -74.002; -159.995
792.799;  -74.128; -584.002; -382.996
793.055; -260.926;-1179.002;-1210.996
793.312; -173.923; -827.002; -816.997
793.568;  -89.820; -746.002; -599.997
793.824;   53.882; -226.001; -284.997
794.081;   17.285; -447.001; -508.998
794.337;  147.787; -664.001; -561.998
794.593; 2600.890; -319.001; -271.999
794.849; 9575.292; -746.001; -772.999
795.105;  517.895; -270.000; -261.999
795.361;   57.897; -490.000; -457.000
795.617; -111.500; -875.000; -945.000
795.873;  -44.100; -360.000; -407.000
796.129;  -27.400; -368.000; -306.000
796.385;    8.100; -124.000; -156.000
796.641;  223.300;  412.000;  550.000
796.897; -150.200; -666.000; -635.000
797.153;  195.200;  453.000;  357.000
797.409; -192.800; -785.000; -868.000
797.665;  -86.800; -625.000; -732.000
797.921; -159.600; -775.000; -762.000
798.176;  -86.500; -744.000; -747.000
798.432;  -98.600; -824.000; -596.000
798.688; -142.300;-1174.000;-1078.000
798.943;  144.900; -165.000; -147.000
799.199;  -44.600;-1005.000; -959.000
799.455;  468.200;  369.000;  316.000
799.710;  189.500; -813.000; -380.000
799.966;  435.800; -162.000; -160.000
800.221;  741.700; -638.000; -721.000
800.477;16668.600; -743.000; -710.000
800.732;11377.000; -773.000; -800.000
800.988;  950.000;  205.000;  -19.000
801.243; 3166.100; -454.000; -344.000
801.498;10230.600; -814.000; -739.000
801.754;  618.600; -289.000; -163.000
802.009;  114.800; -257.000; -335.000
802.264; -116.100; -967.000;-1033.000
802.520;   94.400;  222.000;   -3.000
802.775;  -48.600; -524.000; -359.000
803.030;  145.500;  395.000;  356.000
803.285; -190.300; -840.000; -903.000
803.540;  -76.200; -686.000; -699.000
803.795;  -51.000; -648.000; -583.000
804.051;  -34.400; -279.000; -346.000
804.306;  101.000;  168.000;  128.000
804.561;  284.800;  451.000;  362.000
804.816;  320.700;  714.000;  861.000
805.071;   61.900; -185.000; -280.000
805.325;  340.900; -257.000; -427.000
805.580; -191.600; -841.000; -877.000
805.835;   11.200; -204.000; -297.000
806.090;  -94.900; -760.000; -676.000
806.345;   -2.500; -344.000; -264.000
806.600;  -43.300; -549.000; -632.000
806.854;  -29.000; -408.000; -538.000
807.109;    6.000; -493.000; -577.000
807.364;   45.100; -407.000; -328.000
807.618;   14.100; -415.000; -381.000
807.873;  100.200; -470.000; -494.000
808.128;  189.400; -257.000; -518.000
808.382;  194.300; -224.000; -332.000
808.637;  129.400; -440.000; -511.000
808.891;  338.600; -257.000; -180.000
809.146;  126.400; -902.000; -794.000
809.400;  368.000; -848.000; -923.000
809.654;  506.900; -779.000; -551.000
809.909;  738.500; -841.000; -927.000
810.163;12220.400; -813.000; -651.000
810.418;24181.600; -940.000; -861.000
810.672; 1429.300; -685.000; -690.000
810.926; 1058.200; -993.000; -973.000
811.180; 2259.100; -439.000; -372.000
811.434;47711.600;  240.000;  135.000
811.689;14505.200; -231.000; -365.000
811.943;  795.200; -936.000; -953.000
812.197;  486.100; -893.000; -671.000
812.451;  207.600; -379.000; -514.000
812.705;  -48.500; -809.000; -619.000
812.959;  -66.500; -263.000; -388.000
813.213;    9.900; -283.000; -209.000
813.467;  208.700;  470.000;  253.000
813.721; -168.900; -764.000; -792.000
813.975; -178.900; -826.000; -877.000
814.229;  123.600;  430.000;  353.000
814.482;  -83.700; -517.000; -566.000
814.736; -216.500; -766.000; -744.000
814.990; -205.900; -779.000; -872.000
815.244;  -28.300; -228.000; -285.000
815.497; -125.600; -636.000; -601.000
815.751;   54.600; -141.000;   82.000
816.005;  -79.400; -470.000; -586.000
816.258;  -74.000; -510.000; -363.000
816.512; -160.900; -693.000; -610.000
816.766;   58.700;  121.000;  157.000
817.019;  118.600;  148.000;  149.000
817.273; -212.400;-1000.000; -802.000
817.526;    9.400; -206.000; -173.000
817.779;  -60.500;-1049.000; -960.000
818.033; -145.100; -693.000; -807.000
818.286; -216.900; -725.000; -792.000
818.540; -114.700; -403.000; -403.000
818.793;  -91.700; -402.000; -489.000
819.046; -176.700; -582.000; -520.000
819.299;   -3.200; -157.000; -166.000
819.553; -168.900; -552.000; -592.000
819.806; -287.300;-1016.000; -838.000
820.059;  -25.300; -334.000; -354.000
820.312;   82.400;  152.000;  185.000
820.565;   43.000;  110.000;  -27.000
820.818;  -29.200;  -59.000; -173.000
821.071; -259.600;-1041.000; -957.000
821.324; -190.500; -536.000; -540.000
821.577; -135.000; -457.000; -483.000
821.830;  -39.400; -270.000; -172.000
822.083; -190.800; -733.000; -288.000
822.336;  -30.100; -261.000; -167.000
822.589; -215.100; -805.000; -688.000
822.842; -244.500; -875.000; -770.000
823.094; -305.800;-1076.000;-1114.000
823.347; -216.300; -925.000; -729.000
823.600;  101.800;  402.000;  187.000
823.853;  -48.100; -311.000; -267.000
824.105;  -77.300; -331.000; -575.000
824.358; -177.000; -617.000; -716.000
824.611;  107.900;  234.000;   40.000
824.863;  -74.100; -612.000; -591.000
825.116;  128.700;  -33.000;   27.000
825.368;  110.000; -366.000; -372.000
825.621;  245.000; -186.000; -240.000
825.873;   97.900; -704.000; -737.000
826.126; 1078.800; -669.000; -641.000
826.378;18199.900; -389.000; -505.000
826.630; 3100.700; -890.000; -898.000
826.883;   21.700; -754.000; -693.000
827.135;   93.900; -279.000; -270.000
827.387; -194.200; -893.000; -839.000
827.639;    2.400;  -86.000;   32.000
827.892; -181.500; -742.000; -582.000
828.144; -215.000; -848.000; -804.000
828.396;   -9.500;  104.000;  -80.000
828.648; -129.800; -440.000; -333.000
828.900; -227.200; -702.000; -795.000
829.152; -201.600; -684.000; -683.000
829.404; -106.100; -215.000; -267.000
829.656;    0.900;  321.000;  214.000
829.908;   21.800;  393.000;  229.000
830.160; -249.300;-1064.000;-1047.000
830.412; -126.600; -481.000; -430.000
830.664; -190.800; -557.000; -665.000
830.916;  -76.500; -268.000; -206.000
831.167; -295.000;-1073.000; -951.000
831.419; -136.200; -623.000; -566.000
831.671; -206.900; -764.000; -809.000
831.923; -125.500; -311.000; -447.000
832.174;  -78.500; -273.000; -331.000
832.426; -142.100; -493.000; -582.000
832.678; -324.500;-1043.000;-1091.000
832.929; -261.300; -947.000; -935.000
833.181;  -94.000; -575.000; -677.000
833.432;  -36.400;  -59.000; -186.000
833.684;   35.700;  112.000;  -27.000
833.935; -192.500; -610.000; -566.000
834.187; -211.000; -829.000; -823.000
834.438;  -17.000;  -58.000;  -25.000
834.689;  -31.600; -255.000; -123.000
834.941;  -64.500; -343.000; -244.000
835.192; -141.800; -590.000; -533.000
835.443;  -75.000; -419.000; -506.000
835.695;   64.100;  138.000;  -16.000
835.946; -150.100; -608.000; -378.000
836.197; -153.300; -599.000; -622.000
836.448; -111.000; -528.000; -395.000
836.699;  -58.300; -253.000; -341.000
836.950;   50.400;   72.000;    7.000
837.201; -266.100;-1003.000; -987.000
837.452;  -41.500; -356.000; -170.000
837.703; -149.000; -791.000; -737.000
837.954;  -61.400; -205.000; -365.000
838.205; -143.100;-1029.000;-1008.000
838.456;  250.200; -196.000; -282.000
838.707;   15.800; -423.000; -519.000
838.958;   32.900; -634.000; -647.000
839.209;  485.700;   18.000;   40.000
839.460;  202.700; -439.000; -201.000
839.710;  310.300; -135.000; -297.000
839.961;  799.700;  730.000;  612.000
840.212;  525.600; -382.000; -497.000
840.462; 1916.900; -328.000; -277.000
840.713;28681.500; -571.000; -536.000
840.964; 8568.000;  -62.000; -143.000
841.214;  726.100; -384.000; -624.000
841.465;  917.300; -214.000; -141.000
841.715;  845.800; -417.000; -380.000
841.966;  974.100; -746.000; -685.000
842.216;17284.500; -330.000; -431.000
842.466;49118.500; -169.000; -313.000
842.717; 1938.200; -964.000; -952.000
842.967;  530.000; -635.000; -641.000
843.217;  503.300;   20.000;   28.000
843.468;  167.900; -104.000; -132.000
843.718;  -13.900; -718.000; -726.000
843.968; -180.600; -837.000; -765.000
844.218;   44.100; -315.000; -262.000
844.469;  -78.200; -577.000; -561.000
844.719; -164.400; -537.000; -682.000
844.969; -141.500; -550.000; -580.000
845.219; -229.300; -814.000; -862.000
845.469;  -96.800; -392.000; -342.000
845.719; -214.600; -792.000; -884.000
845.969;   42.800;  119.000;  174.000
846.219; -171.500; -738.000; -720.000
846.469;  145.000;  464.000;  432.000
846.718;  -30.900; -115.000;   31.000
846.968; -220.800; -827.000; -827.000
847.218;  -24.300; -224.000; -371.000
847.468; -171.200; -586.000; -555.000
847.718; -221.700; -827.000; -798.000
847.967; -249.300; -826.000; -915.000
848.217;  -90.200; -449.000; -569.000
848.467;  -72.700; -405.000; -376.000
848.716; -152.700; -708.000; -725.000
848.966;   20.100; -372.000; -358.000
849.215;  -86.000; -428.000; -419.000
849.465; -152.700; -785.000; -615.000
849.714; -237.900;-1132.000;-1150.000
849.964;  -98.100; -551.000; -613.000
850.213;  -24.900; -393.000; -355.000
850.463;  163.200;  137.000;  340.000
850.712;    1.600; -542.000; -567.000
850.961;   12.800; -739.000; -678.000
851.211;  164.400; -513.000; -504.000
851.460;  232.100; -635.000; -650.000
851.709;  968.600;  -25.000;   18.000
851.958;17961.000; -912.000; -750.000
852.208;16272.000; -859.000; -879.000
852.457;  602.500; -181.000;  -13.000
852.706;   72.400; -791.000; -823.000
852.955;   -9.500; -507.000; -528.000
853.204;  -75.000; -521.000; -461.000
853.453; -156.800; -418.000; -458.000
853.702; -216.300; -660.000; -750.000
853.951; -146.800; -532.000; -520.000
854.200; -160.500; -613.000; -562.000
854.449; -221.500; -695.000; -661.000
854.698; -126.000; -340.000; -279.000
854.946;  -77.200; -181.000; -284.000
855.195; -257.700; -843.000; -868.000
855.444; -126.500; -395.000; -420.000
855.693; -192.500; -345.000; -432.000
855.941; -171.500; -387.000; -516.000
856.190;  -33.000; -256.000; -382.000
856.439; -222.900; -652.000; -703.000
856.687;  -47.300;  -99.000;  -72.000
856.936; -159.100; -621.000; -323.000
857.184; -298.700;-1067.000;-1020.000
857.433; -139.000; -423.000; -512.000
857.681; -257.400; -989.000; -953.000
857.930;  -93.500; -282.000; -433.000
858.178; -267.700; -856.000; -929.000
858.427; -264.100; -802.000; -781.000
858.675; -177.800; -377.000; -544.000
858.923; -142.200; -527.000; -819.000
859.172; -313.300;-1094.000;-1070.000
859.420; -130.800; -339.000; -239.000
859.668; -195.000; -624.000; -628.000
859.916;   22.200;  109.000;  115.000
860.164; -196.500; -699.000; -603.000
860.413;  490.300; -878.000; -696.000
860.661;  257.900; -709.000; -577.000
860.909; -136.500; -339.000; -325.000
861.157;  -71.200; -277.000; -444.000
861.405; -200.000; -534.000; -670.000
861.653;  113.800;  310.000;  310.000
861.901;  324.600; -543.000; -613.000
862.149;  -37.300; -801.000; -824.000
862.396; -119.100; -297.000; -187.000
862.644;  -95.300; -368.000; -347.000
862.892;   19.700;   98.000;  138.000
863.140; -152.800; -549.000; -530.000
863.388; -257.600; -815.000; -759.000
863.635; -186.600; -642.000; -601.000
863.883;   36.300;  231.000;  190.000
864.131; -129.200; -288.000; -357.000
864.378; -231.700; -675.000; -540.000
864.626; -119.900; -347.000; -415.000
864.873; -171.800; -556.000; -505.000
865.121; -209.100; -714.000; -799.000
865.368;  -37.900; -173.000;   75.000
865.616;  -36.000;  -33.000;  -40.000
865.863; -109.700; -462.000; -506.000
866.111; -209.400; -795.000; -824.000
866.358;   63.000; -426.000; -420.000
866.605; 3748.800;  -64.000; -804.000
866.853; 2724.500; -621.000; -537.000
867.100; -104.800; -728.000; -775.000
867.347; -163.600; -672.000; -611.000
867.594; -112.000; -740.000; -714.000
867.841;  189.700;   97.000;   17.000
868.089; -209.400; -746.000; -698.000
868.336; -156.800; -477.000; -420.000
868.583; -231.200; -637.000; -741.000
868.830;  -39.700; -131.000; -170.000
869.077; -261.600; -859.000; -787.000
869.324; -188.100; -502.000; -458.000
869.571; -161.900; -398.000; -430.000
869.818; -179.100; -485.000; -439.000
870.065; -150.700; -439.000; -513.000
870.311; -146.200; -456.000; -542.000
870.558; -136.900; -332.000; -311.000
870.805;  -99.600; -320.000; -384.000
871.052; -125.900; -494.000; -369.000
871.298;  -55.000; -204.000; -131.000
871.545;  -84.600; -151.000; -185.000
871.792;  -76.200; -173.000; -222.000
872.038;  -25.800;   43.000; -126.000
872.285; -177.100; -496.000; -387.000
872.532; -139.700; -357.000; -387.000
872.778;   73.400;  556.000;  403.000
873.025; -112.400; -384.000; -359.000
873.271;   99.300;  501.000;  578.000
873.517;   10.700; -133.000; -209.000
873.764;   -2.400; -193.000;  -80.000
874.010;  -20.600; -143.000; -230.000
874.257;  -44.500;  123.000;   90.000
874.503; -159.900; -579.000; -479.000
874.749;  -65.300;   31.000;  275.000
874.995;  -41.500;  -80.000;  -20.000
875.242; -164.100; -540.000; -478.000
875.488; -150.100; -414.000; -439.000
875.734;  -38.100; -106.000; -234.000
875.980;  415.900; -872.000;-1032.000
876.226;  584.900; -157.000; -255.000
876.472;   77.800;  343.000;  237.000
876.718;   33.300;  184.000;  158.000
876.964;   -6.100;   56.000;   55.000
877.210; -244.700; -547.000; -677.000
877.456; -213.900; -630.000; -557.000
877.702; -287.300; -821.000; -832.000
877.948; -156.600; -377.000; -497.000
878.193;   74.000;  361.000;  255.000
878.439; -159.200; -487.000; -472.000
878.685; -140.200; -272.000; -343.000
878.931; -194.000; -618.000; -676.000
879.176;  -94.000; -201.000; -201.000
879.422; -292.400; -933.000; -820.000
879.668;  139.800;   10.000;   79.000
879.913;  285.600;   53.000;  137.000
880.159;  -53.900; -112.000;  -17.000
880.404;  -15.900; -152.000; -162.000
880.650;    2.800;   91.000;  141.000
880.895; -241.700; -670.000; -710.000
881.141; -183.200; -454.000; -428.000
881.386; -190.900; -503.000; -658.000
881.631; -125.800; -311.000; -166.000
881.877;   41.000;  112.000;  -13.000
882.122; -222.800; -684.000; -600.000
882.367;  -85.100; -136.000; -186.000
882.612;  -75.900;  -80.000; -176.000
882.858; -270.900; -877.000; -823.000
883.103; -108.400; -297.000; -267.000
883.348; -211.200; -759.000; -852.000
883.593; -247.100; -677.000; -602.000
883.838;  -15.400; -311.000;  -24.000
884.083;  124.000;  353.000;  288.000
884.328; -135.700; -564.000; -545.000
884.573;  -97.000; -196.000; -143.000
884.818;  416.900; -694.000; -531.000
885.063;  236.000; -348.000; -315.000
885.308; -117.700; -475.000; -398.000
885.553;   63.500;  245.000;  325.000
885.797; -179.400; -545.000; -615.000
886.042;  -31.000;    8.000;   58.000
886.287; -109.500; -253.000; -211.000
886.532;  -14.900;   26.000;  204.000
886.776; -122.800; -407.000; -525.000
887.021; -228.900; -621.000; -574.000
887.265; -207.500; -685.000; -689.000
887.510; -205.100; -557.000; -496.000
887.755;  -79.000; -194.000; -164.000
887.999; -235.500; -552.000; -575.000
888.244;  -29.200;  -58.000;  161.000
888.488;   65.500;  371.000;  393.000
888.732; -172.000; -368.000; -520.000
888.977; -194.400; -622.000; -567.000
889.221; -247.700; -683.000; -659.000
889.465; -186.800; -422.000; -566.000
889.710;  -64.900;  -56.000; -299.000
889.954;   85.600;  579.000;  467.000
890.198; -199.200; -584.000; -707.000
890.442; -253.300; -716.000; -712.000
890.687; -244.000; -800.000; -753.000
890.931; -105.600; -273.000; -210.000
891.175; -202.700; -502.000; -500.000
891.419;  -72.500; -105.000; -110.000
891.663; -121.700; -239.000; -112.000
891.907; -257.700; -801.000; -545.000
892.151; -246.500; -920.000; -815.000
892.395; -161.200; -274.000; -387.000
892.638;   34.500;  408.000;  291.000
892.882; -293.100; -780.000; -867.000
893.126;  116.400;  758.000;  558.000
893.370; -117.600; -167.000; -168.000
893.614; -206.400; -714.000; -715.000
893.857; -129.500; -183.000; -197.000
894.101; -177.200; -527.000; -631.000
894.345;  -18.600;  300.000;  150.000
894.588;  113.700;  569.000;  380.000
894.832; -113.200; -178.000;  -84.000
895.075;  -56.000;   15.000;  -92.000
895.319; -204.700; -552.000; -420.000
895.563; -148.300; -413.000; -353.000
895.806; -246.200; -628.000; -741.000
896.049;  -51.700; -576.000; -368.000
896.293;  238.600;  527.000;  405.000
896.536;  -87.500; -465.000; -468.000
896.779;  -62.700; -149.000;   -1.000
897.023; -224.400; -751.000; -714.000
897.266;   20.000;  325.000;  269.000
897.509; -284.300; -900.000; -901.000
897.752;  -43.500;  149.000;  171.000
897.996; -305.300; -972.000; -864.000
898.239;  -16.800;  168.000;  102.000
898.482; -182.900; -431.000; -453.000
898.725;   18.900;  101.000;   53.000
898.968; -243.800; -609.000; -744.000
899.211; -128.300; -513.000; -361.000
899.454; -205.900; -633.000; -539.000
899.697;  -77.600;   90.000;  -43.000
899.940; -276.300; -761.000; -757.000
900.182; -134.600; -335.000; -405.000
900.425; -114.900; -150.000; -298.000
900.668;   45.000;  491.000;  350.000
900.911; -141.800; -292.000; -345.000
901.154;  -17.400;  141.000;   -3.000
901.396; -201.300; -407.000; -412.000
901.639; -208.700; -430.000; -496.000
901.882; -309.200; -790.000; -809.000
902.124;  -71.800;  -29.000; -143.000
902.367; -156.100; -315.000; -361.000
902.609; -216.100; -476.000; -453.000
902.852;  -72.900; -108.000; -260.000
903.094; -171.300; -458.000; -337.000
903.337;  -16.400;  -26.000;   53.000
903.579; -156.300; -228.000; -441.000
903.821; -226.100; -597.000; -744.000
904.064;  -60.400;   85.000;  127.000
904.306;  -99.900; -126.000; -166.000
904.548; -112.200; -152.000; -366.000
904.790; -108.500; -195.000; -340.000
905.033; -198.000; -625.000; -577.000
905.275; -206.500; -513.000; -524.000
905.517;  127.100;  468.000;  256.000
905.759; -106.800; -667.000; -761.000
906.001; -154.900; -322.000; -369.000
906.243;  -87.700; -162.000; -224.000
906.485;  274.100; -265.000; -207.000
906.727;  143.000; -499.000; -542.000
906.969;    0.300;  -30.000; -135.000
907.211;  255.100; -316.000; -382.000
907.453;  507.900; -188.000; -237.000
907.695;    8.300; -158.000; -385.000
907.936;  127.100;  818.000;  706.000
908.178;  -24.000;   92.000; -135.000
908.420;  -74.800; -111.000; -162.000
908.662; -220.800; -633.000; -682.000
908.903; -109.800; -208.000; -123.000
909.145;  -71.900; -240.000; -305.000
909.386;   73.400;  315.000;  280.000
909.628;  161.700;  363.000;  397.000
909.870;   18.500;   29.000;  264.000
910.111; -147.800; -809.000; -949.000
910.353;   20.500; -123.000; -161.000
910.594;   29.400; -574.000; -606.000
910.835;  116.600; -265.000; -326.000
911.077;  242.500; -503.000; -604.000
911.318;  448.800; -505.000; -471.000
911.559;  678.500; -577.000; -880.000
911.801; 2305.100; -284.000; -280.000
912.042;19825.800;  -50.000; -159.000
912.283;41211.000;  404.000;  371.000
912.524; 4687.100; -396.000; -457.000
912.765;  731.900; -193.000;   79.000
913.006;  364.700; -307.000; -338.000
913.247;   82.200; -270.000; -290.000
913.488;   19.800;  -43.000;   30.000
913.729;  -99.300; -373.000; -373.000
913.970;  -62.800;  -96.000; -292.000
914.211;  -66.400; -160.000; -198.000
914.452;  -53.200; -118.000;  -11.000
914.693;  101.800;  510.000;  592.000
914.934;   82.600;  510.000;  440.000
915.175;  -71.000;   53.000;  -95.000
915.415;  -64.100; -137.000;   27.000
915.656;  -65.400;  -28.000;  192.000
915.897; -100.000; -252.000;  -82.000
916.137;  -47.000;   74.000;   -9.000
916.378; -186.100; -573.000; -517.000
916.619; -100.200; -159.000;  -63.000
916.859;   43.000;  303.000;  330.000
917.100;  349.000; 1655.000; 1070.000
917.340;  197.100;  930.000;  728.000
917.581;  159.700;  965.000;  789.000
917.821;    5.100; -171.000;  143.000
918.061;   30.300; -199.000;  -72.000
918.302;  -48.800; -152.000; -211.000
918.542;    6.900;  -22.000;    3.000
918.782;  110.800;  369.000;  377.000
919.023;  296.000;  360.000;  427.000
919.263; 2787.900; 8131.000;  202.000
919.503; 1704.600; -137.000;  -54.000
919.743; 1129.200;  390.000;  266.000
919.983;  400.000; -134.000;  -26.000
920.223;  164.900;  135.000;   14.000
920.463;  312.400;  631.000;  554.000
920.703;  245.600;   84.000;   39.000
920.943;  234.200; -110.000;   90.000
921.183;  385.500; -414.000; -405.000
921.423;  818.700;  307.000;  546.000
921.663; 1141.000; -174.000; -257.000
921.903; 2610.600;  237.000;  173.000
922.143;15702.900;  372.000;  389.000
922.383;53372.900;  158.000;  115.000
922.622;13536.200; -120.000;  -15.000
922.862; 1720.300;  796.000;  785.000
923.102;  700.400;  -51.000;   33.000
923.341;  269.800;   59.000;   74.000
923.581;  193.200;  450.000;  360.000
923.821;   90.200;  301.000;  398.000
924.060;  120.400;  351.000;  193.000
924.300;  -56.800;  -16.000; -128.000
924.539;   97.900;  584.000;  473.000
924.779;  112.200;  812.000;  597.000
925.018;  -22.300;  247.000;  353.000
925.257;   62.100;  595.000;  666.000
925.497;   36.200;  447.000;  412.000
925.736;  -72.000;  -35.000;  102.000
925.975;   88.100;  687.000;  669.000
926.214;  114.500;  907.000;  850.000
926.454;  150.200;  706.000;  757.000
926.693;   26.500;  419.000;  543.000
926.932;  182.700; 1021.000;  825.000
927.171;  225.100; 1107.000; 1044.000
927.410;  198.500; 1144.000;  967.000
927.649;  155.700;  924.000;  742.000
927.888;   35.500;  590.000;  564.000
928.127;   28.800;  680.000;  678.000
928.366;  157.000;  842.000;  826.000
928.605;  185.200;  831.000;  737.000
928.844;  541.400; 1451.000; 1393.000
929.083; 1107.600;  770.000;  613.000
929.321;  581.100; 1335.000; 1359.000
929.560;  270.600; 1158.000; 1122.000
929.799;   34.200;  574.000;  475.000
930.038;  238.000; 1025.000; 1394.000
930.276;   -8.600;  334.000;  397.000
930.515;   76.400;  827.000;  681.000
930.753;   33.500;  614.000;  589.000
930.992;   42.700;  664.000;  717.000
931.230;  100.700;  847.000;  847.000
931.469;  456.100; 2162.000;  892.000
931.707;  238.900;  840.000;  751.000
931.946;  241.200; 1278.000; 1344.000
932.184;  233.100; 1437.000; 1175.000
932.423;  144.700; 1265.000;  963.000
932.661;  306.900; 1296.000; 1428.000
932.899;  141.800;  987.000;  821.000
933.137;   97.300;  754.000;  564.000
933.376;  369.700; 1664.000; 1335.000
933.614;  393.000; 1759.000; 1196.000
933.852;  189.100; 1357.000; 1171.000
934.090;  366.500; 1722.000; 1747.000
934.328;  281.600; 1252.000; 1457.000
934.566;  252.400; 1431.000; 1110.000
934.804;  288.200; 1263.000; 1309.000
935.042;  911.500; 1861.000; 1850.000
935.280; 3185.100; 2088.000; 2063.000
935.518; 2385.900; 2113.000; 2007.000
935.756;  639.400; 2481.000; 2316.000
935.994;  389.800; 1808.000; 1751.000
936.231;  726.500; 2890.000; 2950.000
936.469;  461.800; 2367.000; 2378.000
936.707;  444.200; 2220.000; 2167.000
936.945;  594.700; 2825.000; 2882.000
937.182;  521.700; 2679.000; 2741.000
937.420;  726.100; 3602.000; 3031.000
937.657;  853.000; 3365.000; 3478.000
937.895;  767.800; 3331.000; 3488.000
938.133;  752.100; 3540.000; 3528.000
938.370;  781.700; 3896.000; 4191.000
938.607;  883.400; 4488.000; 4205.000
938.845; 1173.700; 5587.000; 5549.000
939.082; 1089.800; 5387.000; 5177.000
939.320; 1200.100; 5799.000; 5728.000
939.557; 1395.600; 6549.000; 6491.000
939.794; 1573.400; 7285.000; 7097.000
940.031; 1931.700; 8421.000; 8368.000
940.269; 2328.600; 9552.000; 9107.000
940.506; 2327.500;10901.000;10507.000

