
Integration time [ms]: 200.000
Averaging Nr. [scans]: 10
Smoothing Nr. [pixels]: 0
Data measured with spectrometer [name]: 2101013U2
Wave   ;Sample   ;Dark     ;Reference
[nm]   ;[counts] ;[counts] ;[counts] 

394.013;    8.318; -450.257; -315.536
394.305;  175.216; -461.258; -419.536
394.596;  732.821; -676.269; -527.514
394.887; 1700.937; -796.268; -654.518
395.178;  726.865;  145.736;   11.476
395.470;   64.575; -210.263; -356.526
395.761;  305.150;  305.734;  394.479
396.052;  338.606; -545.284; -306.489
396.343;  383.670; -557.276; -454.503
396.634;   94.541; -200.279; -290.497
396.926;   50.434; -618.268; -565.517
397.217;  140.674;   11.725;  -17.504
397.508;    5.489; -366.273; -154.507
397.799;  -49.859; -555.279; -571.497
398.090; -106.664; -973.280; -902.495
398.381;  127.636;   11.708;  -11.473
398.672;  -99.963; -585.292; -742.473
398.963;   -9.153; -348.279; -373.498
399.254;  128.246;   54.709; -209.475
399.545; -149.653;-1017.266; -883.520
399.836;   28.560; -407.277; -343.501
400.127;   70.414; -205.295; -209.468
400.418;    4.784; -423.274; -392.506
400.709;   38.324; -359.281; -333.493
401.000;   50.349; -268.291; -309.476
401.290;  167.156;  225.698;  115.545
401.581;   50.490; -166.286; -228.485
401.872;  -32.411; -542.298; -486.462
402.163;   17.507; -313.296; -252.467
402.454;  111.446; -123.291; -163.475
402.744;  -23.101; -844.297; -813.465
403.035;  400.828; -226.293;  -86.471
403.326;  471.840; -366.292; -384.474
403.617;  402.683;  204.701;  165.539
403.907;  126.511; -593.283; -679.490
404.198; 1557.813; -545.307; -599.446
404.489; 4122.115; -618.283; -588.491
404.779; 1473.159; -618.302; -660.456
405.070;  165.639;  -67.304; -174.451
405.360;  198.630; -259.293; -238.472
405.651;  310.669;  125.699;   98.542
405.942;  213.485;  209.714;  127.516
406.232;  197.299; -432.285; -413.487
406.523;  545.123;  641.706;  758.530
406.813;   45.687; -579.286; -644.484
407.104;  398.135;  261.708;  144.527
407.394;   85.585; -604.299; -591.462
407.685;  202.198;  336.715;  222.513
407.975;  -13.586; -400.283; -382.490
408.265;  130.860; -134.289; -190.478
408.556;    3.843; -472.291; -459.475
408.846;  255.524;  474.706;  429.530
409.137;   82.067;   -1.288; -216.480
409.427;   16.698; -193.285; -271.487
409.717;  -38.908; -776.273; -692.508
410.007;  183.992;    4.715; -170.486
410.298;   42.317; -360.295; -342.469
410.588;   -7.704; -495.285; -510.486
410.878;  -93.122; -792.287; -873.482
411.168;   44.691; -481.298; -478.463
411.459;   79.009; -295.283; -242.489
411.749;  -40.658; -609.292; -507.474
412.039;  -49.734; -755.289; -386.480
412.329;  248.753;   40.722;  132.501
412.619;  140.788;  -62.286; -148.485
412.909;  421.562;  639.711;  594.521
413.199;  267.836; -130.280; -251.495
413.490;  438.053;  521.710;  352.523
413.780;  -23.260;-1013.279; -913.496
414.070;  302.771;  -46.276;  235.497
414.360;  209.250; -729.278; -666.498
414.650;  206.974; -726.288; -688.482
414.940;  308.539; -538.280; -441.496
415.230;  706.371;   50.712;   74.519
415.520; 4436.320;  155.730;   66.486
415.809;16405.824; -305.281; -125.493
416.099;13066.462; -388.277; -229.501
416.389; 3655.782;  435.726;  236.494
416.679; 2166.278;   91.738;   85.473
416.969;  344.882; -527.287; -503.483
417.259;  563.942;  341.721;  171.503
417.549;  643.623;  522.718;  318.508
417.838; 1170.636; -205.268; -147.518
418.128; 3830.058;  650.710;  492.522
418.418; 2947.198; -491.272; -579.509
418.708; 2148.982;    9.726;  -48.506
418.997; 7527.478; -474.275; -480.505
419.287; 7932.388; -733.273; -790.507
419.577; 7542.108; -160.283; -123.489
419.866;24821.760; -588.277; -498.501
420.156;26346.617; -242.270;  -55.513
420.446; 5298.671; -112.263;  -26.526
420.735;  698.811; -376.271; -446.512
421.025; 1086.349; 1830.722;  315.502
421.314;  678.509; -203.271; -226.512
421.604; 1601.529;   89.732;  233.484
421.893;  849.306; -705.271; -602.511
422.183;  155.672; -487.263; -461.526
422.472;  369.107;  -36.271; -107.511
422.762;  366.253; -416.266; -379.521
423.051;   88.971; -916.276; -916.503
423.341;  222.190; -491.273; -439.507
423.630;  352.758; -121.265;   15.477
423.919;  317.977;   58.725;   49.495
424.209;  333.777;  -31.263;   56.473
424.498;  460.934;   68.732;  161.483
424.787;  732.040; -535.267; -601.518
425.077; 2516.357;   34.735;   29.478
425.366; 3806.882; -734.262; -744.528
425.655; 7275.290;  639.727;  259.493
425.945;13384.701; -313.247; -268.554
426.234; 7786.303;  117.741;  300.467
426.523; 3450.808;  -86.259; -350.534
426.812; 4935.749;  107.734;  159.480
427.101; 7360.326; -127.269; -323.515
427.390; 9422.520;  -55.270;  -86.514
427.680; 2618.326; -624.257; -411.538
427.969;  395.736; -330.255; -301.540
428.258;  247.318; -385.257; -477.536
428.547;  593.201;  449.728;  397.490
428.836; 1195.251; -421.253; -398.543
429.125; 1767.309; -199.259;  -72.534
429.414;  742.672; -330.251; -294.548
429.703; 2245.972; -231.251; -213.548
429.992; 6197.375; -938.250; -828.549
430.281; 4223.765; -397.264; -331.524
430.570;  572.163;  -21.252;   32.454
430.859;  618.607;  279.741;  352.466
431.148;  598.497;  636.752;  631.446
431.437;  346.662;  391.748;  367.454
431.725;   68.519; -544.257; -481.536
432.014;  -27.843; -845.253; -756.545
432.303;  307.567; -149.239; -105.569
432.592;  441.371; -460.263; -178.525
432.881;  683.298; -601.248; -437.554
433.169; 4115.036; -343.255;  -61.540
433.458; 8188.898;  445.765;  540.424
433.747; 3578.987; -397.261; -289.529
434.036;  676.045; -275.242; -280.564
434.324; 1469.186; -395.249; -379.551
434.613; 2516.039;   40.757;  159.437
434.902; 1037.958;  333.760;  439.433
435.190;  617.666;   75.761;  295.431
435.479;  365.122;  -52.245;   83.441
435.767;   68.029; -411.244; -427.561
436.056;  175.241; -340.242; -294.563
436.345;  254.960; -372.240; -223.568
436.633;  369.482;   60.750;  383.450
436.922;  336.362;  208.760;  414.432
437.210;  654.889; -194.236;    1.426
437.499; 2226.796; -583.235; -432.576
437.787; 2488.288; -339.236;  -10.574
438.075;  608.271;   56.761;  162.430
438.364;  728.873;  -44.238;  250.429
438.652;  402.470; -286.226; -138.592
438.941;  181.537;    3.770;  269.415
439.229;  -66.240; -665.252; -466.545
439.517;   49.604; -160.234;  -85.577
439.806;  -65.016; -501.225; -290.595
440.094;  240.011;  377.766;  650.421
440.382;   96.315; -653.233; -302.580
440.670;  167.196; -361.235; -285.576
440.959;   -8.800; -347.223; -170.599
441.247;   68.747; -151.229; -109.587
441.535;   40.603; -266.235;   31.423
441.823;  -41.291; -497.234; -305.578
442.111;  173.951;  173.771;  327.412
442.400;  506.921; -628.245; -335.559
442.688; 1586.211; -111.234; -620.579
442.976; 1098.481; -786.213; -450.617
443.264;   51.191; -324.224; -364.597
443.552;   80.571; -258.226;   51.408
443.840;  263.601;  602.765;  876.423
444.128;  148.914;  265.767;  269.420
444.416;  -46.546; -694.228; -312.588
444.704;    3.228; -465.219;  -92.605
444.992;   62.574;   -0.226;  240.407
445.280;   33.237; -517.230;  -94.585
445.568;  -54.015; -694.212; -396.618
445.856;  383.313; -174.221;  357.398
446.143;  851.524;  -54.220;   -7.604
446.431;  732.757;  -25.228;  625.411
446.719;  358.646;  489.783;  675.391
447.007;  278.532;  481.769;  705.416
447.295;  232.198;  597.777;  871.402
447.583;   31.645; -464.229;  -34.587
447.870;   85.910; -434.221; -202.601
448.158;  458.036; -104.230;  129.415
448.446;  240.525; -800.219; -338.604
448.733;  168.292;   13.776;  269.403
449.021;  284.484;   60.788;  341.382
449.309;  168.598; -296.210;  208.379
449.596;  245.642;  128.783;   59.392
449.884;   59.804; -571.222; -325.600
450.172;   -8.838; -756.227; -406.590
450.459;  412.366;  645.786;  780.387
450.747; 1578.641; -411.218; -147.608
451.034; 4873.958;  493.772;  889.411
451.322; 3964.569; -413.214; -170.614
451.609;  435.293;  292.777;  508.403
451.897;  366.556; -550.203; -183.634
452.184; 1119.998; -622.223; -400.598
452.472; 1208.618;   97.792;  269.375
452.759;  439.626;  512.781;  864.395
453.047;   44.082; -407.212; -125.617
453.334;   24.633; -732.219; -216.606
453.621;   20.171; -438.214; -161.615
453.909;  130.749;   13.796;  384.368
454.196;   97.391; -299.199; -123.641
454.483;  240.168;  317.798;  540.364
454.771;  140.621; -215.208;  196.374
455.058;   36.624; -316.207;  102.374
455.345;  130.842;   71.807;  344.347
455.632;   84.227; -128.207;  235.373
455.919;   68.611;  -82.196;  182.354
456.207; -157.105; -774.198; -450.642
456.494;  -58.621; -475.200;  -66.639
456.781;  -32.836; -399.202; -198.635
457.068;   14.433; -253.206;  -29.628
457.355;  -91.366; -698.206; -401.629
457.642;  -61.361; -552.205; -290.630
457.929;  -98.767; -778.194; -417.651
458.216;  -27.218; -575.212; -354.617
458.503;  198.038; -173.193;  -19.652
458.790;   74.019; -864.208; -630.625
459.077;  218.269;  -77.202;  110.364
459.364;  547.127; -350.195; -210.649
459.651; 1142.931;  -46.206;  220.372
459.938;  440.310; -864.209; -665.623
460.225;  174.872;  132.799;  276.363
460.512; -144.091; -836.197; -688.645
460.799;  134.840;  -32.218;  320.392
461.086;   40.584; -370.200; -251.640
461.372;  -10.205; -509.198; -279.642
461.659;  117.313; -165.196;  108.354
461.946;   33.136; -445.193;  -54.651
462.233;  348.781;  842.800;  888.361
462.519;  146.178; -814.201; -464.639
462.806;  584.209; -768.197; -497.645
463.093;  565.155; -445.191;  -66.656
463.380; -149.007; -920.186; -824.664
463.666;   36.411; -259.197;  -18.646
463.953;   84.022; -406.195; -243.648
464.239;  165.622; -173.195;  -77.648
464.526;  457.532;  413.806;  743.350
464.813;  276.666; -565.190; -304.658
465.099;  406.037;  606.807;  607.348
465.386;  457.741;  903.807;  921.348
465.672;  -64.391; -694.197; -522.645
465.959;   -9.917; -598.188; -520.662
466.245;  -45.559; -468.193; -359.652
466.532;  141.720; -109.195;   63.352
466.818;   63.293; -357.186; -216.664
467.104;  -45.570; -488.182; -415.672
467.391;  -65.732; -628.189; -459.658
467.677;   56.696; -289.186;    9.335
467.964;  -36.926; -682.189; -471.660
468.250;   72.099; -331.186; -160.665
468.536;  108.769;   90.811;  180.341
468.822;  -93.490; -821.184; -574.668
469.109;  211.405;  351.827;  471.311
469.395;  307.250;  729.808;  787.346
469.681;  211.072;   46.811;  156.341
469.967;  832.776; -699.188; -382.660
470.254; 1782.083; -494.188; -306.662
470.540; 1115.611; -601.196; -476.646
470.826;  145.540; -488.181; -397.675
471.112;  294.413;  288.816;  113.331
471.398;   54.417; -253.183;  -58.670
471.684;  -15.534; -626.177; -447.680
471.970; -127.756; -918.180; -981.675
472.256;  -17.251; -521.192; -441.654
472.542;  -29.985; -499.171; -434.691
472.828;  -77.674; -743.182; -607.672
473.114;  -27.245; -380.166; -283.700
473.400;   12.582; -504.175; -293.684
473.686;  -10.739; -452.166; -400.701
473.972;   82.095; -230.174; -131.687
474.258; -139.995; -925.173; -843.689
474.544;  190.659; -183.178;   -2.679
474.830;  292.183;  -65.175;   45.316
475.116;  390.167; -123.190; -196.658
475.401;  457.046; -558.180; -467.676
475.687;   77.745; -725.180; -718.676
475.973;  -53.766; -673.181; -770.673
476.259;  367.385;  736.825;  764.315
476.544;  278.874; -539.176; -437.682
476.830;  629.111; -398.172; -322.690
477.116;  534.973; -430.177; -336.682
477.401;  224.546;  346.820;  358.324
477.687;  -34.618; -289.175; -405.684
477.973;   65.337;   21.819;   28.326
478.258;  -62.421; -448.163; -348.706
478.544;   98.804;   21.815;   61.334
478.829; -155.980; -818.171; -738.692
479.115;  -90.389; -749.172; -651.690
479.401;  -33.309; -444.174; -449.686
479.686;   46.644; -253.180;  -74.676
479.972; -151.536; -886.178; -776.680
480.257;   19.356; -258.166;  -65.700
480.542;  -68.877; -614.170; -469.693
480.828;  431.580; 1288.824; 1392.317
481.113;  -82.622; -464.176; -426.683
481.399;    3.301; -236.161; -202.711
481.684;  -88.044; -620.166; -462.700
481.969;   51.014; -158.159;  -73.713
482.255;    2.533; -439.169; -285.695
482.540;  -19.836; -569.178; -441.680
482.825;  -39.511; -395.187; -404.663
483.110;   93.736;  -85.169; -105.696
483.396;   69.034; -840.157; -652.718
483.681;  516.995;  543.826;  730.313
483.966;   49.108; -696.160; -700.712
484.251;  -32.306; -404.174; -310.687
484.536;   -1.735; -356.165; -378.703
484.822;    2.197; -205.173; -218.687
485.107;  -78.931; -599.152; -502.726
485.392;  269.071;  662.836;  541.296
485.677;  108.745;  354.832;  163.302
485.962;  166.731;  160.843;  270.283
486.247;  117.687;  -14.162;   -8.707
486.532;   24.157; -178.166; -325.701
486.817;  204.796;  381.839;  431.291
487.102;   87.553; -453.154; -514.722
487.387;  438.935; -637.156; -652.718
487.672;  838.875; -154.164;  -38.705
487.957;  531.903; -394.160; -286.711
488.241;  168.984; -290.150; -314.729
488.526;  596.170; -280.152; -148.726
488.811;  809.166; -881.177; -818.680
489.096;  563.756; -666.154; -702.723
489.381;  417.667;    3.847;  162.275
489.666;  216.501; -428.161; -510.710
489.950;  293.258;  558.846;  627.277
490.235;  -86.220; -480.151; -458.728
490.520; -119.800; -756.161; -723.710
490.804; -161.763; -827.156; -736.719
491.089;  -49.501; -469.149; -299.732
491.374;   56.374; -132.164;  -75.704
491.658; -120.491; -817.147; -717.735
491.943;   98.174; -657.152; -609.727
492.227;  269.749; -178.155;  -38.721
492.512;   27.831; -294.157; -341.717
492.797; -139.707; -713.149; -716.731
493.081; -130.788; -588.147; -598.735
493.366; -103.398; -751.161; -635.711
493.650;  359.861;  831.859;  917.254
493.935;  -30.391; -648.147; -447.734
494.219; -142.051; -778.142; -687.743
494.503; -101.312; -585.150; -487.730
494.788;   45.223;   46.842;   74.285
495.072;  168.885;  184.850;  434.271
495.356;  114.502; -463.148; -343.733
495.641;  327.418; -812.146; -736.736
495.925;  288.042; -976.156; -903.719
496.209;    8.598; -599.149; -451.732
496.494; -132.351; -763.142; -544.744
496.778;  -29.447; -364.154; -360.722
497.062; -135.959; -819.156; -627.719
497.346; -111.896; -869.160; -640.711
497.631;  244.705;  580.852;  560.266
497.915;  109.927;  -64.145;  175.261
498.199;   19.134; -341.157; -277.718
498.483;    8.968; -562.152; -508.725
498.767;  235.486;  301.850;  300.271
499.051;  177.996; -126.149; -100.732
499.335;  -51.506; -693.149; -739.731
499.619;  -72.946; -381.129; -423.767
499.903;   38.948; -272.155;  -65.721
500.187;  -29.940; -588.153; -316.724
500.471;  -79.727; -796.152; -595.727
500.755;  125.900;   62.839;  -96.710
501.039;  -32.852; -270.155; -357.721
501.323;  136.962;  -21.141;  264.254
501.607;   -1.020; -447.163; -503.706
501.891;  -49.465; -607.156; -512.718
502.174;  -95.062; -726.144; -585.741
502.458;  113.577;   89.849;  370.273
502.742;   45.584; -180.138; -191.751
503.026;   65.008; -412.147; -254.734
503.310;   83.513; -437.159; -375.713
503.593;   89.510; -464.147; -325.735
503.877;  112.521; -232.133; -156.760
504.161;  173.262;    2.847;  -50.724
504.444;  -10.975; -841.158; -710.716
504.728;  241.273; -487.164; -522.704
505.012;  531.284; -257.150;  -76.729
505.295;  381.401; -417.161; -212.711
505.579;  402.541; -256.156; -496.719
505.862;  577.124; -555.145; -333.738
506.146;  489.815; -681.159; -758.714
506.429;  486.015;  568.841;  461.286
506.713;  -13.519; -732.151; -667.728
506.996;  331.453;   90.846;  295.278
507.280;  218.269; -633.165; -474.703
507.563;  181.847; -469.155; -261.721
507.847;   21.560; -423.153; -112.724
508.130;   32.002; -665.161; -456.711
508.413;   38.952; -758.167; -577.700
508.697;  211.852; -151.167;   12.300
508.980;  107.362; -422.153; -312.724
509.263;  -64.657; -466.155; -450.720
509.547;   11.683; -124.150;   82.271
509.830;   71.404; -172.160;  140.289
510.113;  114.041;  128.844;  298.281
510.396;  -32.633; -530.152; -300.725
510.680;  120.725; -818.145; -812.738
510.963;  828.457;  184.846;  180.277
511.246;  571.490; -493.150; -357.730
511.529;  245.730; -482.145;  -83.739
511.812;  299.618; -250.134;   10.241
512.095;  129.678; -740.151; -396.728
512.378;   14.313; -317.147; -245.736
512.661;  -66.309; -703.137; -623.753
512.944;  -76.449; -750.142; -637.744
513.227;   42.189; -170.137; -171.752
513.510;  -61.562; -479.144; -671.741
513.793;  -40.834; -485.140; -435.747
514.076;  136.573;  -43.127;  -39.771
514.359;   54.999; -294.149; -135.732
514.642;  -27.247; -442.142; -567.744
514.925;  665.365;  581.860;  561.253
515.208;  590.915; -498.134; -443.758
515.491;  460.528; -276.133; -182.761
515.773;  230.441; -410.143; -337.742
516.056; 1624.897;  249.864;  409.246
516.339; 2006.501; -754.136; -652.755
516.622; 1754.188; -518.150; -488.730
516.904; 1548.348;  882.857;  975.257
517.187;  610.588; -730.138; -523.752
517.470;  323.847; -568.143; -510.743
517.752;  300.803; -624.136; -470.756
518.035;  186.176; -708.139; -725.749
518.318;  156.001; -799.136; -744.755
518.600; 1662.031; -300.132; -325.762
518.883; 2282.653;  310.858;   88.256
519.165; 1119.981; -585.138; -426.751
519.448;  358.230;  -61.132;  -19.762
519.730;  124.280; -573.126; -415.773
520.013;  409.624;  588.867;  664.240
520.295;  941.920;  -94.134;  -15.759
520.578; 1954.843; -335.131; -305.764
520.860; 2102.631; -254.132;   56.238
521.143; 1055.305; -763.135; -584.756
521.425;  394.492; -251.125; -279.775
521.707;  523.973; -622.127; -380.771
521.990; 1484.974; -199.127;  167.229
522.272; 1524.568; -116.140;   -4.748
522.554;  817.742; -237.143; -157.742
522.836;  399.018;  -24.134;   99.241
523.119;  174.807; -496.148; -189.734
523.401;  133.949; -448.130; -314.766
523.683;  -25.408; -865.137; -693.753
523.965;  287.386;  408.862;  260.248
524.247;  236.311;   54.878;  170.220
524.529;  133.120; -451.134; -367.759
524.812;  339.651;   -3.130;  191.234
525.094;  626.485; -773.138; -631.751
525.376; 1072.900; -143.124;   78.223
525.658;  602.998; -441.136; -339.754
525.940; -113.261; -805.131; -671.764
526.222;   36.202; -188.136;  -88.755
526.504;   97.738; -190.131;   32.237
526.786;   84.422; -960.133; -647.760
527.068;  251.305; -124.123;  -67.778
527.349;   80.395; -865.137; -774.754
527.631;  119.230; -137.132;   22.238
527.913;   35.773; -664.127; -450.771
528.195;   20.085; -761.125; -639.774
528.477;  240.815;  -93.134;  -30.758
528.759;   42.950; -648.130; -522.766
529.040;  -41.796; -569.123; -293.778
529.322;   26.588; -235.125;  -10.774
529.604;  157.152;  -47.130;   93.233
529.886;   63.880; -546.126; -302.773
530.167;  137.545;  232.870;  192.235
530.449;   39.813;    1.853;   63.265
530.731;  -69.990; -572.122; -459.779
531.012;    2.730; -513.120; -216.784
531.294;   49.066; -118.116;  -43.792
531.575;  206.592;  290.875;  538.225
531.857;   -0.990; -548.135; -266.757
532.138;   77.161; -113.141;   40.254
532.420;  227.407;  294.865;  403.244
532.701;  126.524; -722.133; -751.760
532.983;  429.327;  232.867;  182.239
533.264;  142.478; -243.126;  175.228
533.546;  -66.699; -491.136; -508.755
533.827;   44.221;  173.867;   -1.759
534.109;   23.710; -352.135;  -80.757
534.390;   19.434; -725.132; -582.762
534.671;  234.207; -270.135;  -82.756
534.953;   27.907; -751.123; -611.779
535.234;   -1.948; -426.117; -255.789
535.515; -174.763; -891.119; -735.785
535.796;  -50.131; -431.128; -193.770
536.078; -228.400;-1050.124; -904.777
536.359;   17.507;  -22.123;    3.221
536.640;  -68.113; -480.125; -197.774
536.921;  192.757;  225.871;  143.232
537.202;  353.882;  -87.138;  -16.751
537.483;  420.842;  251.869;  377.236
537.764;  160.645;   17.870;   98.235
538.045; -126.186; -543.134; -371.758
538.326; -120.041; -596.129; -447.768
538.607;  -83.426; -686.127; -476.771
538.888;  162.221;   98.879;    5.218
539.169;  107.216; -704.122; -535.781
539.450;  332.056;  236.871;   16.233
539.731;  142.925; -361.121; -182.783
540.012;  115.430;  199.880;  412.216
540.293;   85.195;   82.876;  158.224
540.574; -126.715; -895.113; -717.796
540.855;  474.924;  435.879;  377.218
541.136;  436.414;   47.878;  139.220
541.416;  224.351; -161.130; -220.766
541.697;   98.138; -274.131; -170.763
541.978;  756.409; -270.135; -315.757
542.259;  949.474; -211.127; -236.771
542.539;  415.060; -191.116; -186.790
542.820;  247.491;  461.875;  480.225
543.101;   93.127;  -52.145;  -77.738
543.381; -112.026; -638.127; -591.771
543.662;  255.471;  159.873; -254.771
543.942;  280.970; -751.127; -830.770
544.223;  826.415;  193.878;  161.219
544.504;  453.800; -275.124; -182.777
544.784;  374.579; -592.126; -408.773
545.065; 1096.463;  104.884; -254.791
545.345; 1370.337;  227.881;   14.215
545.626; 1005.084;  -14.113; -108.796
545.906;  704.744;   77.869;   98.235
546.186;  248.884;   92.874;  -95.773
546.467;  149.802;   99.877;  -95.778
546.747;  287.660;  264.884;  327.210
547.027;  309.198;   91.876;  111.223
547.308;  165.869; -376.127; -530.770
547.588;  294.860;  299.871;  371.232
547.868;  243.946;  458.870;  588.235
548.149;  264.270;  609.885;  593.207
548.429;   59.172; -347.127; -299.771
548.709;   49.929; -645.120; -461.784
548.989;  365.146;   84.882;   88.213
549.269; 1615.429;   10.868;  139.239
549.550; 3523.106;  215.877;  117.222
549.830; 2978.200; -758.111; -556.799
550.110;  614.707; -468.110; -320.801
550.390;  645.911; -128.122;  -56.779
550.670;  689.280; -868.114; -783.795
550.950;  566.523; -509.121; -471.782
551.230;  257.120;  549.879;  460.218
551.510;  -63.378; -381.121; -326.782
551.790;  -47.185; -173.109; -127.803
552.070;  408.502;  940.877; 1181.223
552.350;  225.541; -492.119; -377.786
552.630;  411.518;   -2.121;   77.219
552.909;  299.564;  181.884;   73.209
553.189;  227.335;  -49.132;   33.237
553.469;   79.841; -703.119; -514.786
553.749;   91.175; -469.127; -357.772
554.029;  124.156;   33.883;  -24.790
554.308;   78.674; -154.115;  -37.794
554.588;  -22.032; -196.128; -204.770
554.868;   24.824; -366.121;  -47.782
555.147;  129.071; -114.115;  -46.793
555.427;  418.466; -260.116; -250.792
555.707; 2716.170; -284.115; -200.793
555.986; 3031.604; -719.111; -538.800
556.266; 1781.459;   23.884;   72.210
556.546;  -40.278; -888.121; -675.782
556.825;   84.878; -657.114; -556.794
557.105; 1272.366; -125.128;   17.230
557.384; 1478.763;  122.884;  187.209
557.664;  455.965; -717.116; -508.792
557.943;    4.923; -557.121; -411.782
558.222;   79.949; -345.118; -344.788
558.502;  195.873; -116.115;  -76.793
558.781;  431.169;  194.885;  499.208
559.061;  224.349; -232.118; -227.788
559.340;  266.253;  302.883;  353.211
559.619;  616.458;   93.884;  148.210
559.899;  732.455; -239.117; -266.789
560.178;  623.672; -778.115; -593.793
560.457; 2379.757; -623.117; -562.790
560.736; 2981.805; -472.111; -482.800
561.015; 2082.364; -500.128; -502.769
561.295;  300.033;  180.893;  215.193
561.574;  289.570;  119.885;  116.207
561.853;  440.518;  274.891;  303.197
562.132;  362.475;  -45.114;  182.206
562.411;  437.518;  396.879;  553.219
562.690;   14.568; -592.115; -458.792
562.969;  170.891;  472.888;  630.203
563.248;  853.716; 2966.878; 2487.219
563.527;  174.004; -290.111; -408.800
563.806;  223.972; -650.127; -521.771
564.085;  314.547; -297.105; -206.810
564.364;   66.958; -594.117; -405.790
564.643;  365.818; -276.121; -223.781
564.922; 1346.013;  221.890;  397.198
565.201; 1111.016; -640.109; -700.803
565.479;  498.967; -297.115; -219.792
565.758;  108.766; -810.128; -712.770
566.037;  310.517; -155.109; -100.803
566.316;  163.563; -286.116;  -28.791
566.595;   49.470;  -17.115;  -12.793
566.873;  164.506; -166.111;  -79.801
567.152; -110.210; -490.113; -590.797
567.431;    7.159; -113.116;    6.210
567.709;  -17.167; -344.107; -212.807
567.988;   80.578; -810.114; -769.794
568.266;  296.470; -160.115;  -68.793
568.545;  248.890; -644.100; -514.819
568.824;  557.067;  160.885;  356.208
569.102;  373.577; -351.114; -235.794
569.381;  119.166; -492.116; -407.792
569.659; -129.013; -553.113; -553.796
569.938;  -58.286; -743.122; -465.780
570.216;   55.520; -225.109; -225.804
570.494; -132.219; -632.114; -572.795
570.773;   59.922;  202.879;  114.218
571.051;  -46.195; -373.123; -357.778
571.330;   46.984; -221.113; -174.796
571.608;   13.006; -181.098; -173.823
571.886; -174.701; -671.111; -581.799
572.164; -163.976; -739.121; -621.782
572.443; -123.150; -562.105; -512.811
572.721; -124.043; -399.117; -289.790
572.999;  -79.049; -280.117; -168.788
573.277;  141.644;  379.894;  620.191
573.555;  223.546;   94.894;   37.190
573.834;  920.250;  -86.117; -114.788
574.112; 1194.035;  880.893;  811.193
574.390;  315.105; -143.111;  -96.801
574.668;  -26.209;  -91.112;  -61.797
574.946;  -18.054; -165.106; -187.810
575.224;  -21.684;   71.891;  -16.803
575.502;  -19.639; -200.116; -204.791
575.780; -208.108; -767.112; -829.798
576.058;  447.204; 1589.889; 1004.200
576.336;  -56.891; -210.110; -129.801
576.614; -128.608; -511.112; -340.798
576.891;  -77.826; -711.115; -823.794
577.169;  270.627; -158.108; -285.805
577.447;  431.035;  169.893;  202.193
577.725;  319.096;  629.888;  854.201
578.003;   -9.605;  -71.112; -371.798
578.280;   49.958; -208.104; -242.812
578.558;  -31.127; -450.115; -422.793
578.836;   77.280; -210.114; -145.795
579.114;  -97.109; -630.112; -670.797
579.391;   55.152;   -6.117;  -18.789
579.669; -195.926; -595.114; -704.794
579.947;  100.332; -326.107; -127.806
580.224;   92.032; -692.107; -524.806
580.502;  225.035;  127.893;   76.193
580.779;    1.058;  -42.117;   75.210
581.057; -124.080; -584.109; -470.804
581.334; -193.128; -726.102; -695.815
581.612;   79.247;   54.895;  511.190
581.889;  -63.116;  -83.101; -129.818
582.167;  -67.203; -298.099; -190.821
582.444; -201.621; -845.102; -814.817
582.721;  223.180;  657.899;  715.183
582.999;   -9.305; -326.100; -167.821
583.276;  232.208; -812.123; -713.779
583.553;  358.275; -364.102; -294.816
583.831;   41.355; -607.104; -631.812
584.108;   49.025;  349.892;  174.195
584.385;  -24.828; -122.102;  -98.815
584.662; -191.594; -651.111; -828.801
584.940;   67.105;  204.889;  204.199
585.217;  -46.014;  -73.113; -303.796
585.494;   35.114;   71.890;  118.198
585.771;   99.421; -250.109; -354.804
586.048;  271.586; -196.113;  -76.796
586.325;  115.208; -721.110; -773.801
586.602;   75.159;  230.896;  213.188
586.879; -114.708; -499.100; -580.820
587.156;   14.948; -156.105; -331.810
587.433; -151.523; -701.102; -667.817
587.710;   60.293;  152.888;  234.202
587.987;  157.353; -264.105; -236.811
588.264;  566.494;  315.888;  387.202
588.541;  991.561;  -61.104;   26.187
588.818; 1843.523;   72.892;  171.196
589.095; 1573.357; -163.104; -174.812
589.371;  204.419; -459.109; -414.804
589.648;  -70.265; -581.107; -437.807
589.925;  -70.719; -517.114; -621.795
590.202;  -95.508; -741.112; -607.798
590.478;   33.954; -166.105;  -73.811
590.755;  205.928; -241.108; -132.806
591.032; 1754.710; -741.110; -699.802
591.308; 2219.443; -732.094; -790.831
591.585; 1196.110; -573.110; -560.802
591.862;  -75.221;-1056.102; -950.817
592.138;  -25.974; -475.108; -474.805
592.415;   21.760; -486.104; -495.813
592.691; 1211.358;  460.896;  518.188
592.968; 1303.908; -208.098; -123.824
593.244;  564.060; -695.116; -595.790
593.521;   21.179; -105.102;  -42.817
593.797; -131.188; -810.122; -720.780
594.074;  106.120; -611.096; -588.826
594.350;  626.230;  828.905;  729.172
594.626;  133.006; -303.111; -283.801
594.903;  -14.120; -643.101; -645.817
595.179;  164.263;  243.896;  418.187
595.455;  -27.464; -136.107; -150.807
595.731;   24.064;  -19.103;  -38.814
596.008; -110.199; -464.111; -434.800
596.284;  -25.406; -187.100; -242.820
596.560;  -38.251; -501.093; -493.833
596.836;   84.850; -173.105;  -70.810
597.112;  165.827; -582.108; -437.805
597.388;  208.718;  -49.097;  -48.826
597.665;  138.989;  437.887;  530.203
597.941; -185.224; -572.089; -658.839
598.217;  -23.887; -323.110; -293.802
598.493;  164.222;   61.891; -204.804
598.769;  310.289; -175.100;  -50.819
599.045;  107.829; -490.108; -562.806
599.321;  -25.507; -193.100; -261.820
599.597;   11.422; -355.109; -476.804
599.872;  429.361;  409.896;  429.187
600.148;  247.819;  -61.097; -172.826
600.424;  281.434;   91.893;  202.193
600.700;  129.336; -170.107; -280.807
600.976;    5.114; -442.097; -464.825
601.252;  131.118; -226.109; -272.803
601.527;  -21.638; -833.104; -840.813
601.803;   28.055; -453.105; -404.812
602.079;  138.289; -124.100; -118.819
602.354;  326.958; -620.092; -531.835
602.630;  537.986; -140.113; -482.796
602.906; 1672.084; -910.101; -863.818
603.181; 4440.441; -627.119; -534.786
603.457; 3893.917;   98.903; -278.826
603.733;  478.126; -605.120; -626.783
604.008;  746.447; -245.106; -164.810
604.284; 1989.381; -636.101; -580.817
604.559; 1808.596;   -3.112;  -42.799
604.835;  336.649; -163.105; -225.810
605.110;  166.198; -732.099; -892.821
605.385;  535.352;  224.907;  267.167
605.661;  317.332; -625.095; -729.829
605.936;  640.730; -664.108; -737.806
606.211;  660.371;  -17.103; -170.815
606.487;   77.976; -329.114; -376.794
606.762; -121.059; -791.119; -745.786
607.037;  -80.050; -501.105; -433.810
607.313; -160.574; -589.096; -574.828
607.588;  -35.154; -375.106; -137.810
607.863;   26.484;  -28.101; -143.818
608.138;  242.712;  513.890;  516.198
608.413;  -80.799; -576.099; -592.822
608.688;  -48.174; -203.108; -267.805
608.964;   89.441; -509.106; -218.809
609.239;  121.147; -107.105; -212.810
609.514;  233.654;  281.895;  240.188
609.789;  382.458; -187.104; -716.812
610.064;  520.825; -435.096; -609.827
610.339;  523.319; -855.109; -799.804
610.614;  764.493; -131.100; -315.820
610.889;  464.055;  215.895;  107.188
611.163;  -53.745; -407.104; -591.812
611.438;   36.978;   81.886; -167.794
611.713;  -87.719; -467.101; -499.817
611.988;  -13.717; -144.101; -328.818
612.263; -160.628; -771.102; -717.815
612.538;  241.586;  385.887;  251.204
612.812;  -64.405; -832.100; -911.820
613.087;    3.706; -358.098; -338.823
613.362; -144.864; -497.107; -557.807
613.637;   83.067;  261.897;  138.186
613.911;  -48.541; -256.092; -345.835
614.186;   48.435; -249.107; -292.807
614.460;  331.945; -842.081; -758.854
614.735;  536.598;  -55.087;  -17.843
615.010;   81.688;   43.912;  -82.841
615.284;  258.226;  360.892;  246.195
615.559;  120.358; -792.092; -955.835
615.833;  190.700;  -76.099;  -87.822
616.108;  -65.431; -225.090; -390.837
616.382;  196.499;  274.913;  402.156
616.656;   46.169; -241.090; -232.837
616.931;  200.200; -785.099; -700.822
617.205;  564.962; -973.104; -979.813
617.480;  669.690;  -91.125;    6.225
617.754;   38.087; -396.125; -128.774
618.028;  -41.140; -369.129; -382.768
618.302;   71.524;   73.892;  -25.805
618.577; -109.132; -371.103; -518.815
618.851; -126.884; -399.109; -600.803
619.125;  -91.280; -335.134; -378.759
619.399;  -65.837; -244.104; -374.813
619.673; -102.533; -330.115; -515.792
619.947;  -97.320; -333.114; -448.795
620.222;  -52.493; -198.110; -204.801
620.496;  -24.776;  -47.121;  -96.782
620.770;   -9.384; -187.122;  -93.781
621.044;  229.348;  323.895;  346.190
621.318;  479.026; -653.120; -614.783
621.592;  419.524; -430.121; -409.783
621.866;  159.697; -476.112; -572.799
622.140;   -7.439; -207.116; -356.791
622.413;   52.301;  138.889;  112.200
622.687; -100.319; -746.101; -492.817
622.961;   22.325; -130.108; -143.805
623.235; -181.598; -633.111; -661.800
623.509; -219.146; -816.105; -848.811
623.783;   18.132;  -12.107;   48.193
624.056;  -50.773; -254.120; -280.783
624.330;   44.691;   63.888;   -3.797
624.604;  -25.642; -271.116; -355.790
624.877;   72.311;  180.890;   26.198
625.151;   -9.225; -249.114; -238.794
625.425;  -85.236; -150.103; -283.814
625.698; -117.664; -367.119; -374.785
625.972; -200.587; -799.110; -765.802
626.245;  147.560;  685.884;  484.210
626.519;  -92.269; -426.120; -340.784
626.792;  -64.164; -192.107; -380.807
627.066; -191.490; -485.122; -662.779
627.339; -196.190; -736.110; -663.802
627.613;   60.030;  351.880;  148.216
627.886;   71.215;  187.891; -612.803
628.160;  -55.574;  312.880; -161.783
628.433; -163.208; -695.125; -703.775
628.706; -198.369; -517.120; -615.784
628.979;   51.798;  296.876;  117.223
629.253; -233.560; -785.119; -833.786
629.526;  221.278; -334.126; -253.772
629.799;   82.505; -641.123; -479.778
630.072;   18.562; -497.128; -516.769
630.346; -255.540;-1115.116;-1080.790
630.619;  204.937; -467.107; -545.808
630.892;  502.402;  709.889;  593.200
631.165;  378.362;  790.896;  679.187
631.438; -266.906;-1092.112;-1055.798
631.711;  126.808;  453.877;  257.221
631.984; -132.245; -523.117; -624.789
632.257; -145.948; -636.117; -681.789
632.530; -100.664; -412.119; -433.785
632.803;   14.373; -109.115;    7.207
633.076; -144.898; -360.123; -422.777
633.349;   33.265;  173.872;  121.231
633.622;  -90.565; -187.119; -240.785
633.895; -259.473; -903.120; -823.783
634.167; -113.420; -496.126; -525.773
634.440;  -26.835;  -19.116; -137.792
634.713;  -23.361;  -22.119; -120.786
634.986;  155.256;  593.871;  453.233
635.258; -170.028; -507.115; -597.793
635.531;  182.648;  742.882; -343.788
635.804;  -92.946; -303.117; -318.789
636.077; -233.238; -830.116; -852.791
636.349; -136.530; -586.115; -474.793
636.622;  594.977; 1695.874; 1392.228
636.894;   85.631; -474.120; -909.784
637.167;  -30.728; -836.127; -789.771
637.439;   20.068; -278.128; -213.770
637.712;  -88.421; -312.126; -293.772
637.984; -152.537; -635.116; -707.791
638.257;  396.902;  515.877;  488.222
638.529;  237.593; -881.125; -924.776
638.802;   69.662; -508.128; -449.769
639.074; -255.785; -927.122; -952.781
639.346; -286.988; -942.135; -930.757
639.619;  -12.148;  -79.142; -319.744
639.891;  -33.090;  -83.122; -168.779
640.163; -176.789; -689.122; -756.780
640.435;   64.013;  273.878;  103.220
640.708;   -4.385;  -72.122; -132.780
640.980; -109.584; -366.122; -362.781
641.252;  151.518;  -25.121;  -71.781
641.524; 1371.520;  580.879;  573.219
641.796; 1064.421;-1094.121; -907.782
642.068;  172.323; -191.121; -300.782
642.340; -123.875; -486.121; -566.783
642.613;   80.326;  294.880;  323.217
642.885; -195.972; -787.120; -878.783
643.157; -166.170; -810.120; -658.784
643.428;  106.431;  170.880;  218.216
643.700; -119.267; -498.120; -425.784
643.972;  -44.365;  -16.119; -133.785
644.244; -167.864; -474.119; -559.785
644.516;  -81.262; -250.119; -114.786
644.788;  149.440;  662.881;  548.214
645.060;  -40.958;  -12.119; -124.786
645.332; -176.557; -525.118; -535.787
645.603;  108.445;  479.882;  342.213
645.875; -103.753; -334.118; -369.787
646.147;  354.048; 1487.882; 1242.212
646.418; -181.050; -931.117; -918.788
646.690;   34.652; -714.117; -715.789
646.962;  -33.647; -413.117; -451.789
647.233;  -10.345;   15.883;   11.211
647.505; -191.543; -595.117; -475.790
647.776;   71.958;  328.884;  229.210
648.048;  -67.040; -248.116; -418.790
648.320; -187.438; -752.116; -679.791
648.591; -261.937;-1055.116; -958.791
648.862; -135.535; -505.116; -577.792
649.134;   42.867;  115.885;  198.208
649.405; -135.732; -661.115; -618.792
649.677; -113.330; -475.115; -598.793
649.948;  -45.228; -181.115; -296.793
650.219;   18.673;  -37.115; -147.793
650.491; -133.425; -431.114; -520.794
650.762; -207.823; -705.114; -731.794
651.033; -135.121; -437.114; -424.795
651.304; -211.520; -743.114; -728.795
651.576; -153.418; -680.114; -645.795
651.847;  -44.016; -250.113; -140.796
652.118;  -22.015;  -32.113; -189.796
652.389; -195.113; -639.113; -722.796
652.660;  -67.611; -147.113;  -89.797
652.931; -247.310; -897.112; -871.797
653.202; -179.308; -382.112; -541.798
653.473; -126.806; -633.112; -533.798
653.744;   -6.805; -595.112; -590.798
654.015;   10.897; -356.112; -303.799
654.286; -176.701; -642.111; -663.799
654.557; -123.700; -586.111; -521.799
654.828; -324.098;-1114.111;-1088.800
655.099; -121.896; -404.111; -291.800
655.370; -195.395; -427.111; -543.801
655.641; -207.393; -656.110; -714.801
655.911; -171.291; -618.110; -638.801
656.182;  140.610;  437.890;  387.198
656.453;  200.712;  830.890;  746.198
656.724; -124.186; -466.110; -426.802
656.994; -159.584; -553.109; -568.803
657.265; -216.683; -862.109; -873.803
657.536; -119.781; -500.109; -377.804
657.806; -161.479; -561.109; -593.804
658.077; -275.678; -866.109; -950.804
658.347; -145.676; -523.108; -598.805
658.618; -220.974; -646.108; -694.805
658.888;   -5.873;  -41.108;  112.195
659.159; -128.571; -432.108; -548.806
659.429;  -90.169; -292.108; -349.806
659.700;  -53.468; -435.107; -390.807
659.970; -101.566; -370.107; -359.807
660.241; -160.064; -754.107; -921.807
660.511;  282.137; -147.107; -174.808
660.781;  -61.761; -793.106; -748.808
661.052;  -62.359; -222.106; -381.808
661.322;   -4.058;   21.894;   -9.809
661.592;   70.544;  257.894;  148.191
661.862; -121.754; -369.106; -382.810
662.133; -166.553; -551.105; -502.810
662.403; -232.451; -770.105; -676.810
662.673;  -97.049; -256.105; -213.811
662.943; -171.147; -612.105; -551.811
663.213;   -2.546;  -85.105;  -81.811
663.483; -155.144; -593.104; -568.812
663.753;  -42.442; -194.104; -152.812
664.023;    0.259;   68.896;  -32.813
664.293;  -94.039; -319.104; -126.813
664.563; -191.837; -694.104; -648.813
664.833; -217.736; -743.103; -608.814
665.103; -248.434; -730.103; -793.814
665.373; -226.132; -766.103; -806.814
665.643; -223.531; -863.103; -918.815
665.913;  -87.729; -534.103; -714.815
666.182;  -28.027; -685.102; -719.816
666.452;  113.674;  -22.102;  -89.816
666.722; -182.124; -724.102; -784.816
666.992; -240.822; -948.102; -921.817
667.261; -189.921; -824.102; -808.817
667.531;  142.581;  134.899;   45.183
667.801;  252.683; -440.101; -412.818
668.070;  330.784;  714.899;  697.182
668.340; -239.914; -883.101; -840.819
668.609;  175.388;  588.900;  301.181
668.879; -187.911; -490.100; -558.819
669.149; -152.609; -539.100; -516.820
669.418; -194.207; -698.100; -726.820
669.688; -100.805; -482.100; -666.820
669.957;  -10.704; -423.099; -546.821
670.226;  -46.202; -268.099; -331.821
670.496; -180.300; -431.099; -635.822
670.765; -134.099; -418.099; -501.822
671.034; -249.297; -872.099; -828.822
671.304;  -13.395;   55.902; -111.823
671.573; -324.494;-1085.098; -957.823
671.842;  -10.192; -380.098; -294.823
672.112; -125.990; -692.098; -586.824
672.381;    8.111; -239.098; -214.824
672.650; -266.487;-1005.097;-1021.825
672.919; -158.685; -631.097; -507.825
673.188; -192.684; -681.097; -878.825
673.457; -316.382;-1101.097;-1143.826
673.726; -172.180; -579.096; -646.826
673.995;  -95.579; -533.096; -479.826
674.265;  -56.777; -263.096; -333.827
674.534;  -46.375; -183.096; -235.827
674.802; -100.774; -618.096; -703.828
675.071;  534.028; -886.095; -801.828
675.340; 2368.530; -464.095; -339.828
675.609;  888.432;  103.905;   82.171
675.878;  -88.567; -949.095; -893.829
676.147;    9.735;  -26.095;   -8.829
676.416;   25.437; -210.094; -294.830
676.685;  721.338; 1000.906; -622.830
676.953;  -20.960; -603.094; -452.831
677.222;  -53.558; -193.094; -273.831
677.491;  -22.057;  -24.094; -127.831
677.759;  -20.955;   11.907;  172.168
678.028;  -60.653; -279.093; -222.832
678.297;    4.348;   71.907;  197.168
678.565; -254.150; -898.093; -944.833
678.834;  -74.348; -311.093; -268.833
679.102; -113.847; -411.092; -391.834
679.371; -260.545; -898.092; -727.834
679.639; -221.943; -797.092; -786.834
679.908; -196.742; -794.092; -724.835
680.176; -294.840; -895.091; -941.835
680.445; -120.038; -346.091; -352.835
680.713;   -3.237;  -58.091;  -23.836
680.982; -180.035; -523.091; -525.836
681.250; -181.733; -578.091; -507.837
681.518; -154.631; -534.090; -751.837
681.787;  -63.830; -204.090; -167.837
682.055; -117.228; -490.090; -422.838
682.323; -266.426; -993.090; -992.838
682.591;  -25.525; -216.090; -538.838
682.859;   61.277;    9.911;  -35.839
683.128;   54.179;  232.911;  497.161
683.396; -302.820;-1102.089;-1122.840
683.664;  -22.818; -241.089;   21.160
683.932;    2.684;  144.911;  -76.840
684.200; -154.415; -576.088; -320.841
684.468;  -13.413;  -73.088; -124.841
684.736;  -25.511; -214.088; -175.841
685.004; -271.810;-1024.088; -982.842
685.272; -185.408; -880.088; -774.842
685.540; -158.006; -499.087; -557.843
685.808; -206.105; -651.087; -682.843
686.076; -255.503; -894.087; -969.843
686.343; -171.901; -601.087; -815.844
686.611;   -5.900; -195.087; -224.844
686.879;  326.402; -530.086; -553.844
687.147; 2269.104; -483.086; -480.845
687.414;  614.606;  -12.086; -169.845
687.682; -118.993; -658.086; -757.846
687.950;  283.109;  259.915;  263.154
688.217; -147.989; -792.085; -760.846
688.485; -102.688; -632.085; -636.847
688.753;  321.714;  -11.085; -102.847
689.020;  -66.184; -820.085; -851.847
689.288; -216.683; -853.084; -787.848
689.555;  -29.081; -195.084; -148.848
689.823; -104.479; -241.084; -345.849
690.090; -144.978; -546.084; -651.849
690.358; -309.576; -877.084; -897.849
690.625;   17.226;  120.917;   45.150
690.892; -133.373; -403.083; -369.850
691.160;    9.229;   72.917;  -35.850
691.427;   29.731;  141.917;  130.149
691.694; -280.868; -855.083; -929.851
691.962; -315.866;-1177.082;-1060.852
692.229;   18.936;  127.918;   56.148
692.496;   74.037;  130.918;  -49.852
692.763;  -11.661; -164.082; -201.853
693.031; -157.959; -739.082; -716.853
693.298; -119.257; -509.081; -368.853
693.565;  197.644; -155.081; -163.854
693.832;  773.846;   -5.081;   -9.854
694.099;  -17.152; -643.081; -642.855
694.366; -188.851; -882.081; -896.855
694.633; -185.549; -920.080; -633.855
694.900; 1436.253; 4367.920; -114.856
695.167;  276.854; -214.080; -380.856
695.434;  -40.944; -646.080; -623.856
695.701;  192.758;  121.921;  -61.857
695.968;  279.559; -365.079; -361.857
696.234;  826.561; -415.079; -646.858
696.501; 8569.363; -776.079; -614.858
696.768; 4177.264; -554.079; -617.858
697.035;  185.266; -632.078; -667.859
697.302;  -58.832; -448.078; -552.859
697.568;  -73.831; -458.078; -497.859
697.835; -127.029; -683.078; -624.860
698.102;  -77.527; -498.078; -407.860
698.368;  113.374;  384.923;  396.139
698.635;  -86.724;  -47.077; -424.861
698.901;  -30.222; -240.077; -348.861
699.168;  -25.820; -534.077; -456.862
699.435;   19.181;  -72.077;  -13.862
699.701; -284.917; -868.076; -764.862
699.968;  -96.815;  144.924; -441.863
700.234; -205.014; -783.076; -822.863
700.500; -105.712; -448.076; -539.864
700.767;   -0.110;   -1.075;   26.136
701.033; -256.209;-1015.075; -963.864
701.299; -126.507; -450.075; -483.865
701.566;  187.395;  950.925;  763.135
701.832;   52.996;  -31.075;  -76.865
702.098; -250.002;-1054.074;-1034.866
702.365; -236.100;-1098.074;-1030.866
702.631; -194.399;-1038.074;-1063.867
702.897;  890.403; -765.074; -676.867
703.163; 1559.505;  348.926;  254.133
703.429;   69.006; -256.073; -273.868
703.695; -143.992; -796.073; -792.868
703.961;   32.010; -214.073; -210.868
704.227; -138.289; -630.073; -725.869
704.493;  227.813;  613.927;  510.131
704.759; -112.185; -565.072; -540.870
705.025;   -7.283; -203.072; -194.870
705.291; -108.782; -666.072; -562.870
705.557;  292.020;  719.928;   34.129
705.823;  -70.078; -742.072; -694.871
706.089;   62.923; -307.071; -326.871
706.355;  287.925; -315.071; -244.872
706.620; 4774.027; -776.071; -729.872
706.886; 6117.728; -309.071; -362.873
707.152;  438.130; -818.070; -973.873
707.418; -203.968;-1153.070;-1186.873
707.683;  -60.467; -550.070; -530.874
707.949;  -92.565; -547.070; -578.874
708.215;  -19.363; -129.070; -207.874
708.480;  -70.662; -520.069; -420.875
708.746;   92.340;   68.931;   28.125
709.011; -166.658; -578.069; -612.876
709.277; -125.857; -538.069; -543.876
709.542; -100.455; -428.069; -387.876
709.808;  -13.553;  -59.068;   89.123
710.073; -182.952; -577.068; -695.877
710.339;  -41.850; -242.068; -228.877
710.604;  -86.248; -780.068; -845.878
710.869;  148.754; -277.068; -366.878
711.135; -168.245; -715.067; -628.879
711.400; -170.643; -507.067; -608.879
711.665;  -90.841; -404.067; -479.879
711.931; -184.940; -661.067; -677.880
712.196; -258.538; -876.067; -954.880
712.461;   11.264; -402.066; -490.880
712.726;  -17.235; -727.066; -771.881
712.991; -186.033; -647.066; -664.881
713.256; -106.231; -350.066; -332.882
713.521; -125.630; -417.065; -381.882
713.787; -148.128; -454.065; -472.882
714.052;  -88.626; -214.065; -400.883
714.317; -237.025;-1045.065; -981.883
714.581;  759.877; -374.065; -268.883
714.846;  859.879; -822.064; -888.884
715.111;  180.380;  261.936;  257.116
715.376;  -61.018;  -86.064; -223.885
715.641;  -76.916; -365.064; -367.885
715.906;  122.685;   15.936; -551.885
716.171;  122.387;  221.937;  209.114
716.436;   30.289;  -78.063; -104.886
716.700; -194.310; -818.063; -692.886
716.965; -223.208; -794.063; -807.887
717.230;  -98.606; -339.063; -392.887
717.494;  -44.204;  -40.062; -134.888
717.759; -164.903; -784.062; -640.888
718.024;   56.099;  269.938;  250.112
718.288;  204.701;  685.938;  395.111
718.553; -254.898; -803.062; -977.889
718.817; -246.696; -883.061; -899.889
719.082;  -35.694; -115.061; -125.890
719.346; -254.793;-1000.061; -947.890
719.611;  -87.891; -300.061; -255.891
719.875; -178.389; -568.060; -537.891
720.140; -141.988; -453.060; -603.891
720.404;   -5.986; -136.060; -249.892
720.668;  512.316; -475.060; -411.892
720.933;  233.817;  146.940;  137.108
721.197; -181.481; -667.059; -600.893
721.461; -241.379; -851.059; -826.893
721.725;   27.722;  -21.059; -250.894
721.990;  -97.576; -284.059; -204.894
722.254;  -17.974;  -26.059; -108.894
722.518; -115.373; -286.058; -442.895
722.782; -166.971; -743.058; -594.895
723.046;  200.931;  614.942;  570.105
723.310;   67.933;  374.942;  210.104
723.574; -178.466; -654.058; -614.896
723.838; -178.064; -576.057; -642.897
724.102;  -43.662; -226.057; -239.897
724.366; -261.561;-1032.057; -978.897
724.630; -148.759; -749.057; -571.898
724.894; -164.357; -722.057; -514.898
725.158;    4.144;   38.944; -295.898
725.422;  -86.554; -394.056; -327.899
725.685; -119.652; -441.056; -349.899
725.949; -169.751; -566.056; -519.900
726.213; -197.449; -732.056; -811.900
726.477;  -44.247;-1020.055; -933.900
726.740;   78.254; -274.055; -104.901
727.004;  186.956; -384.055; -510.901
727.268; 2362.358; -442.055; -400.901
727.531;  481.359; -961.055; -775.902
727.795; -146.439; -713.054; -673.902
728.059; -154.737; -552.054; -557.903
728.322; -199.436; -841.054; -669.903
728.586;  -83.534; -692.054; -701.903
728.849; -189.232; -695.053; -756.904
729.112; -218.630; -812.053; -912.904
729.376; -235.829; -959.053; -905.904
729.639; -135.927; -536.053; -536.905
729.903; -216.525; -733.053; -699.905
730.166; -103.024; -437.052; -399.906
730.429;  -39.022; -317.052; -468.906
730.693; -137.420; -355.052; -894.906
730.956;  289.781;  810.948;  651.093
731.219;  459.083; -310.052; -103.907
731.482;  -70.015;-1003.051; -894.907
731.745; -117.814; -794.051; -935.908
732.009;   28.388;  -30.051;   50.092
732.272; -190.110; -904.051; -771.909
732.535;  -69.309; -300.051; -310.909
732.798; -306.907;-1083.050;-1166.909
733.061; -108.705; -430.050; -456.910
733.324;    7.396;   31.950; -180.910
733.587;  134.298;  290.950;  365.090
733.850; -135.600; -973.049;-1050.911
734.113;   32.701;   33.951;   32.089
734.376;  -59.997; -328.049; -447.912
734.639;  371.205; 1188.951; 1011.088
734.901;   43.907; -180.049; -402.912
735.164;  261.008; -883.048; -837.913
735.427;  864.610; -166.048; -355.913
735.690;   75.412; -205.048; -234.913
735.952; -184.887; -923.048; -925.914
736.215; -205.185;-1113.048;-1009.914
736.478; -115.183; -771.047; -774.915
736.740;  185.318;   33.953;  129.085
737.003;  428.820; -658.047; -672.915
737.266; 2879.522;  -94.047;   46.084
737.528;  208.323; -682.047; -660.916
737.791;  213.825; -316.046; -327.916
738.053;  758.027;  465.954;  649.083
738.316; 8876.828; -162.046; -136.917
738.578; 5585.030; -770.046; -736.918
738.841;  303.732; -382.046; -446.918
739.103;   45.433; -875.045; -777.918
739.365;  418.735;   79.955;  -69.919
739.628; -136.163; -884.045; -805.919
739.890;  -99.562; -758.045; -710.919
740.152; -146.760; -692.044; -754.920
740.414;  -79.658; -408.044; -359.920
740.677; -142.456; -785.044; -634.921
740.939; -161.855; -587.044; -487.921
741.201;   79.947; -432.044; -572.921
741.463;  -43.751; -689.043; -745.922
741.725;   -2.350;  -21.043; -199.922
741.987;  104.552;  220.957;  116.078
742.249; -112.246; -751.043; -859.923
742.511;   42.555; -703.043; -794.923
742.773;  -54.643; -546.042; -546.924
743.035;  193.259;  796.958;  533.076
743.297; -192.640; -963.042;-1013.924
743.559;  477.762; -278.042; -262.925
743.821; -106.736; -735.042; -744.925
744.083;   -0.935;  -44.041; -149.925
744.345; -191.833; -869.041; -892.926
744.607;   67.269;   75.959;  122.074
744.868; -160.830; -490.041; -554.927
745.130; -255.528; -994.041;-1008.927
745.392;   32.274;   -1.040;  -44.927
745.653;  -75.225; -411.040; -378.928
745.915;  281.477;  896.960;  631.072
746.177;   36.679;   35.960;  -43.928
746.438;  -98.519; -428.040; -543.929
746.700; -148.518; -947.039; -988.929
746.961; -110.616; -659.039; -740.930
747.223;  105.686; -190.039;  -74.930
747.484;   -5.513; -391.039; -471.930
747.746;   90.989;  -23.038; -106.931
748.007;  -38.709; -647.038; -689.931
748.269;  200.092; -468.038; -440.931
748.530;  212.794; -852.038; -638.932
748.791;  128.296; -354.038; -420.932
749.053;  393.597;  286.963;  163.067
749.314;  297.399; -236.037; -169.933
749.575;  243.001; -945.037; -905.933
749.836;  644.902; -217.037;   86.066
750.098; 2097.204;  -60.037;  -21.934
750.359;26379.206;  414.964;  555.066
750.620; 6175.907; -121.036; -220.935
750.881;  714.709; -585.036; -513.935
751.142;  938.011; -950.036; -938.936
751.403;13480.612; -789.036; -705.936
751.664; 5318.814;-1034.035; -999.936
751.925;  379.616; -175.035; -262.937
752.186;  196.718; -298.035; -278.937
752.447;   64.419; -590.035; -445.937
752.708;  -59.279; -532.035; -648.938
752.969;  -89.177; -566.034; -576.938
753.230; -101.976; -777.034; -672.939
753.491;  -88.974; -650.034; -631.939
753.751;   58.828;  109.966;   19.061
754.012;  132.829;  258.967;  181.060
754.273;   31.031; -174.033;  -71.940
754.534;  -76.367; -487.033; -580.940
754.794; -215.466; -926.033; -911.941
755.055;  275.436; 1051.967;  881.059
755.316; -128.462; -700.032; -566.942
755.576;  -77.261; -606.032; -576.942
755.837; -105.759; -527.032; -695.942
756.097; -106.957; -530.032; -564.943
756.358; -173.756; -725.032; -770.943
756.618;  -96.054; -705.031; -641.943
756.879;   -7.552; -254.031; -349.944
757.139; -295.251;-1098.031;-1116.944
757.400; -115.249; -538.031; -553.945
757.660;  -66.947; -365.031; -401.945
757.920;  -11.046; -266.030; -228.945
758.181;  -44.944; -468.030; -351.946
758.441; -210.242; -870.030; -809.946
758.701;  -65.240; -308.030; -215.946
758.961;  -70.939; -220.030; -278.947
759.222; -100.437; -574.029; -502.947
759.482; -173.335; -683.029; -723.948
759.742; -185.334; -706.029; -547.948
760.002;   -2.732;  -83.029; -143.948
760.262;   47.070;   50.972;  182.051
760.522;  -81.229; -498.028; -574.949
760.782;  -88.527; -738.028; -612.949
761.042;  -83.225; -618.028; -573.950
761.302;   84.276;   55.972;  -18.950
761.562;   78.478; -164.027; -154.951
761.822;   16.980; -710.027; -551.951
762.082; -167.219;-1104.027;-1093.951
762.342;   83.383; -328.027; -403.952
762.601;   46.285; -567.027; -506.952
762.861;  320.786; -281.026; -207.952
763.121;  544.688; -406.026; -411.953
763.381; 9769.690; -499.026; -485.953
763.640; 9452.891; -139.026; -307.954
763.900;  469.393; -242.026; -203.954
764.160;   80.595; -458.025; -491.954
764.419;  -81.903; -726.025; -782.955
764.679; -128.302; -795.025; -726.955
764.939;  -20.500; -124.025; -210.955
765.198; -152.598; -608.025; -563.956
765.458; -137.297; -710.024; -612.956
765.717; -166.395; -454.024; -590.957
765.976;  -65.093; -428.024; -411.957
766.236; -126.592; -475.024; -610.957
766.495;   55.110;  260.977;   73.042
766.755; -237.388;-1090.023; -987.958
767.014;  -86.587; -594.023; -665.958
767.273; -111.285; -373.023; -397.959
767.533;  -56.883; -228.023; -307.959
767.792;  -45.182; -151.022; -188.960
768.051;  -83.580; -228.022; -276.960
768.310; -142.978; -546.022; -650.960
768.569;    8.923; -161.022;    4.039
768.828;  -52.175; -285.022; -363.961
769.088; -231.473;-1050.021; -942.961
769.347; -200.172; -755.021; -599.962
769.606; -181.370; -876.021; -857.962
769.865; -257.968;-1016.021;-1033.963
770.124;  -32.866; -411.021; -336.963
770.383; -178.765; -778.020; -910.963
770.641;  -58.963; -398.020; -400.964
770.900; -175.361; -953.020; -846.964
771.159; -145.260; -851.020; -951.964
771.418; -129.958; -917.020; -779.965
771.677;  103.844; -224.019; -293.965
771.936;   26.845; -794.019; -865.966
772.194; 2213.247; -465.019; -437.966
772.453; 9578.649; -213.019; -391.966
772.712;  750.150;  416.982;  329.033
772.970;  115.352;   32.982;   63.033
773.229;   60.254;  -22.018;  102.033
773.488; -209.845; -814.018; -770.968
773.746;  111.457;  296.982;  335.032
774.005;   36.459;  190.983;  -22.969
774.263;   50.260;  243.983;  177.031
774.522; -167.438; -422.017; -548.969
774.780; -113.536; -484.017; -417.970
775.039; -185.735; -551.017; -531.970
775.297;   -4.633; -135.016; -351.970
775.555; -208.931; -489.016; -612.971
775.814; -188.529; -618.016; -570.971
776.072; -205.428; -749.016; -740.971
776.330; -163.826; -630.016; -520.972
776.589; -191.724; -703.015; -721.972
776.847; -232.523; -645.015; -624.973
777.105; -286.421;-1016.015;-1032.973
777.363; -117.619; -459.015; -454.973
777.621; -240.918; -660.015; -717.974
777.879;   30.184;  -42.014;   32.026
778.138; -144.814; -554.014; -717.974
778.396; -194.713; -585.014; -526.975
778.654; -323.111;-1015.014; -970.975
778.912;  -68.009; -269.014; -371.976
779.170; -233.608; -880.013; -803.976
779.427; -264.706; -922.013; -897.976
779.685; -259.604; -880.013; -832.977
779.943; -189.503; -654.013; -593.977
780.201; -317.701; -964.012; -883.978
780.459; -177.999; -651.012; -610.978
780.717; -127.998; -440.012; -390.978
780.974; -167.396; -449.012; -490.979
781.232; -107.394; -358.012; -338.979
781.490; -156.992; -551.011; -472.979
781.747; -176.391; -555.011; -476.980
782.005;  103.311;  462.989;  254.020
782.263; -305.787; -542.011;-1004.981
782.520; -118.886; -326.011; -501.981
782.778; -298.584;-1013.010;-1051.981
783.035; -309.482; -962.010; -938.982
783.293;  -76.581; -248.010; -206.982
783.550;  -48.979; -134.010; -198.982
783.808; -209.577; -764.010; -776.983
784.065; -288.776; -745.009; -874.983
784.322;  -46.074;   25.991;  -86.984
784.580; -233.972; -915.009; -771.984
784.837; -140.871; -392.009; -466.984
785.094; -239.369; -783.009; -762.985
785.352;  -94.767; -304.008; -404.985
785.609; -244.866; -934.008; -839.985
785.866; -138.764; -345.008; -401.986
786.123; -158.962; -639.008; -583.986
786.380; -187.461; -665.008; -604.987
786.637;  -70.259; -225.007; -380.987
786.895; -100.557; -456.007; -543.987
787.152;  -26.555; -135.007; -267.988
787.409;  -48.754; -123.007; -225.988
787.666; -106.252; -299.006; -378.988
787.923; -212.550; -616.006; -695.989
788.179; -158.249; -551.006; -584.989
788.436; -189.647; -585.006; -585.990
788.693;  -40.245;  -92.006;  -87.990
788.950;   75.556; -125.005; -112.990
789.207;   93.658; -381.005; -372.991
789.464;  -60.640; -161.005; -301.991
789.720;   39.661;  150.995;  110.009
789.977; -310.837;-1003.005; -671.992
790.234;  -27.735;   44.996;  -66.992
790.490; -279.834; -884.004;-1031.993
790.747;   -6.432;  -85.004;   22.007
791.004;  -56.530; -426.004; -348.993
791.260; -139.529; -430.004; -560.994
791.517; -195.327; -843.003; -788.994
791.773; -100.925; -379.003; -342.994
792.030; -198.324; -596.003; -660.995
792.286; -176.022; -686.003; -636.995
792.543;    2.080;  -74.002; -159.995
792.799;  -60.418; -584.002; -382.996
793.055; -340.817;-1179.002;-1210.996
793.312; -196.615; -827.002; -816.997
793.568; -115.913; -746.002; -599.997
793.824;  -27.212; -226.001; -284.997
794.081;    2.490; -447.001; -508.998
794.337;   34.992; -664.001; -561.998
794.593; 1682.893; -319.001; -271.999
794.849; 6764.395; -746.001; -772.999
795.105;  288.697; -270.000; -261.999
795.361;  -15.402; -490.000; -457.000
795.617; -206.000; -875.000; -945.000
795.873;  -90.200; -360.000; -407.000
796.129;  -60.200; -368.000; -306.000
796.385;  -28.700; -124.000; -156.000
796.641;  127.500;  412.000;  550.000
796.897; -134.800; -666.000; -635.000
797.153;  165.000;  453.000;  357.000
797.409; -214.500; -785.000; -868.000
797.665; -160.500; -625.000; -732.000
797.921; -156.800; -775.000; -762.000
798.176; -120.300; -744.000; -747.000
798.432; -144.000; -824.000; -596.000
798.688; -209.900;-1174.000;-1078.000
798.943;   71.800; -165.000; -147.000
799.199; -153.600;-1005.000; -959.000
799.455;  293.900;  369.000;  316.000
799.710;   -4.600; -813.000; -380.000
799.966;  251.000; -162.000; -160.000
800.221;  345.800; -638.000; -721.000
800.477; 8914.800; -743.000; -710.000
800.732; 6508.600; -773.000; -800.000
800.988;  652.000;  205.000;  -19.000
801.243; 2352.300; -454.000; -344.000
801.498; 8426.400; -814.000; -739.000
801.754;  438.300; -289.000; -163.000
802.009;  117.400; -257.000; -335.000
802.264; -161.200; -967.000;-1033.000
802.520;   12.300;  222.000;   -3.000
802.775;  -75.600; -524.000; -359.000
803.030;  131.700;  395.000;  356.000
803.285; -212.200; -840.000; -903.000
803.540; -116.500; -686.000; -699.000
803.795; -146.700; -648.000; -583.000
804.051;  -56.000; -279.000; -346.000
804.306;   69.600;  168.000;  128.000
804.561;  185.800;  451.000;  362.000
804.816;  250.900;  714.000;  861.000
805.071;  -20.900; -185.000; -280.000
805.325;   83.300; -257.000; -427.000
805.580; -192.700; -841.000; -877.000
805.835;  -42.400; -204.000; -297.000
806.090; -148.500; -760.000; -676.000
806.345;  -48.300; -344.000; -264.000
806.600;  -97.700; -549.000; -632.000
806.854;  -61.400; -408.000; -538.000
807.109;  -48.900; -493.000; -577.000
807.364;  -41.200; -407.000; -328.000
807.618;  -39.600; -415.000; -381.000
807.873;  -12.500; -470.000; -494.000
808.128;   98.500; -257.000; -518.000
808.382;  123.500; -224.000; -332.000
808.637;   50.200; -440.000; -511.000
808.891;  193.400; -257.000; -180.000
809.146;   22.800; -902.000; -794.000
809.400;  133.900; -848.000; -923.000
809.654;  268.900; -779.000; -551.000
809.909;  374.600; -841.000; -927.000
810.163; 7146.400; -813.000; -651.000
810.418;14730.800; -940.000; -861.000
810.672; 1036.600; -685.000; -690.000
810.926;  683.600; -993.000; -973.000
811.180; 1825.300; -439.000; -372.000
811.434;41172.800;  240.000;  135.000
811.689;13634.700; -231.000; -365.000
811.943;  666.100; -936.000; -953.000
812.197;  357.400; -893.000; -671.000
812.451;  130.000; -379.000; -514.000
812.705;  -83.100; -809.000; -619.000
812.959;  -24.000; -263.000; -388.000
813.213;   19.300; -283.000; -209.000
813.467;  150.500;  470.000;  253.000
813.721; -161.800; -764.000; -792.000
813.975; -223.200; -826.000; -877.000
814.229;  124.200;  430.000;  353.000
814.482; -121.200; -517.000; -566.000
814.736; -199.000; -766.000; -744.000
814.990; -199.000; -779.000; -872.000
815.244;  -59.600; -228.000; -285.000
815.497; -161.100; -636.000; -601.000
815.751;   20.000; -141.000;   82.000
816.005; -139.600; -470.000; -586.000
816.258;  -85.900; -510.000; -363.000
816.512; -189.700; -693.000; -610.000
816.766;   58.600;  121.000;  157.000
817.019;   46.100;  148.000;  149.000
817.273; -229.600;-1000.000; -802.000
817.526;  -62.900; -206.000; -173.000
817.779; -199.100;-1049.000; -960.000
818.033; -191.200; -693.000; -807.000
818.286; -241.100; -725.000; -792.000
818.540; -164.500; -403.000; -403.000
818.793; -126.800; -402.000; -489.000
819.046; -164.100; -582.000; -520.000
819.299;  -22.100; -157.000; -166.000
819.553; -177.000; -552.000; -592.000
819.806; -295.200;-1016.000; -838.000
820.059;  -68.100; -334.000; -354.000
820.312;   43.500;  152.000;  185.000
820.565;    1.100;  110.000;  -27.000
820.818;  -52.100;  -59.000; -173.000
821.071; -299.600;-1041.000; -957.000
821.324; -161.500; -536.000; -540.000
821.577; -180.100; -457.000; -483.000
821.830;  -66.500; -270.000; -172.000
822.083; -209.800; -733.000; -288.000
822.336;  -20.100; -261.000; -167.000
822.589; -222.700; -805.000; -688.000
822.842; -270.200; -875.000; -770.000
823.094; -308.800;-1076.000;-1114.000
823.347; -232.700; -925.000; -729.000
823.600;   26.500;  402.000;  187.000
823.853;  -82.500; -311.000; -267.000
824.105; -134.500; -331.000; -575.000
824.358; -217.500; -617.000; -716.000
824.611;   69.900;  234.000;   40.000
824.863; -113.900; -612.000; -591.000
825.116;   37.900;  -33.000;   27.000
825.368;  -13.000; -366.000; -372.000
825.621;   89.100; -186.000; -240.000
825.873;  -67.000; -704.000; -737.000
826.126;  454.400; -669.000; -641.000
826.378; 9606.500; -389.000; -505.000
826.630; 1699.400; -890.000; -898.000
826.883;  -91.100; -754.000; -693.000
827.135;   24.500; -279.000; -270.000
827.387; -223.600; -893.000; -839.000
827.639;   -3.000;  -86.000;   32.000
827.892; -222.900; -742.000; -582.000
828.144; -240.500; -848.000; -804.000
828.396;  -34.500;  104.000;  -80.000
828.648; -162.400; -440.000; -333.000
828.900; -210.300; -702.000; -795.000
829.152; -206.600; -684.000; -683.000
829.404;  -48.200; -215.000; -267.000
829.656;   48.500;  321.000;  214.000
829.908;   24.300;  393.000;  229.000
830.160; -271.300;-1064.000;-1047.000
830.412; -145.300; -481.000; -430.000
830.664; -214.300; -557.000; -665.000
830.916; -106.200; -268.000; -206.000
831.167; -302.100;-1073.000; -951.000
831.419; -180.400; -623.000; -566.000
831.671; -246.300; -764.000; -809.000
831.923; -131.300; -311.000; -447.000
832.174;  -94.300; -273.000; -331.000
832.426; -185.600; -493.000; -582.000
832.678; -333.900;-1043.000;-1091.000
832.929; -256.500; -947.000; -935.000
833.181; -154.200; -575.000; -677.000
833.432;  -75.500;  -59.000; -186.000
833.684;  -19.400;  112.000;  -27.000
833.935; -178.400; -610.000; -566.000
834.187; -223.000; -829.000; -823.000
834.438;  -26.100;  -58.000;  -25.000
834.689;  -56.200; -255.000; -123.000
834.941;  -52.900; -343.000; -244.000
835.192; -176.900; -590.000; -533.000
835.443; -131.000; -419.000; -506.000
835.695;  -21.800;  138.000;  -16.000
835.946; -126.100; -608.000; -378.000
836.197; -155.900; -599.000; -622.000
836.448; -134.600; -528.000; -395.000
836.699;  -72.900; -253.000; -341.000
836.950;    8.400;   72.000;    7.000
837.201; -311.600;-1003.000; -987.000
837.452;  -73.700; -356.000; -170.000
837.703; -238.200; -791.000; -737.000
837.954;  -78.400; -205.000; -365.000
838.205; -257.300;-1029.000;-1008.000
838.456;   97.700; -196.000; -282.000
838.707;  -59.700; -423.000; -519.000
838.958; -122.100; -634.000; -647.000
839.209;  228.200;   18.000;   40.000
839.460;   73.100; -439.000; -201.000
839.710;  121.600; -135.000; -297.000
839.961;  485.000;  730.000;  612.000
840.212;  241.300; -382.000; -497.000
840.462; 1008.400; -328.000; -277.000
840.713;16515.900; -571.000; -536.000
840.964; 5448.500;  -62.000; -143.000
841.214;  377.400; -384.000; -624.000
841.465;  537.900; -214.000; -141.000
841.715;  428.000; -417.000; -380.000
841.966;  590.100; -746.000; -685.000
842.216;10589.500; -330.000; -431.000
842.466;33280.200; -169.000; -313.000
842.717; 1423.500; -964.000; -952.000
842.967;  288.500; -635.000; -641.000
843.217;  274.700;   20.000;   28.000
843.468;   82.700; -104.000; -132.000
843.718; -114.700; -718.000; -726.000
843.968; -177.000; -837.000; -765.000
844.218;  -11.200; -315.000; -262.000
844.469; -127.300; -577.000; -561.000
844.719; -177.000; -537.000; -682.000
844.969; -147.900; -550.000; -580.000
845.219; -253.000; -814.000; -862.000
845.469; -129.900; -392.000; -342.000
845.719; -237.900; -792.000; -884.000
845.969;   15.700;  119.000;  174.000
846.219; -199.400; -738.000; -720.000
846.469;   88.100;  464.000;  432.000
846.718;  -76.500; -115.000;   31.000
846.968; -245.500; -827.000; -827.000
847.218;  -39.800; -224.000; -371.000
847.468; -161.800; -586.000; -555.000
847.718; -238.700; -827.000; -798.000
847.967; -243.900; -826.000; -915.000
848.217; -116.500; -449.000; -569.000
848.467;  -82.500; -405.000; -376.000
848.716; -199.600; -708.000; -725.000
848.966;  -57.900; -372.000; -358.000
849.215; -160.100; -428.000; -419.000
849.465; -174.800; -785.000; -615.000
849.714; -305.400;-1132.000;-1150.000
849.964; -139.900; -551.000; -613.000
850.213;  -68.700; -393.000; -355.000
850.463;  130.600;  137.000;  340.000
850.712; -108.000; -542.000; -567.000
850.961;  -86.600; -739.000; -678.000
851.211;   -0.700; -513.000; -504.000
851.460;   28.600; -635.000; -650.000
851.709;  483.800;  -25.000;   18.000
851.958; 9123.900; -912.000; -750.000
852.208; 9003.100; -859.000; -879.000
852.457;  345.600; -181.000;  -13.000
852.706;  -82.600; -791.000; -823.000
852.955;  -83.600; -507.000; -528.000
853.204; -136.700; -521.000; -461.000
853.453; -134.600; -418.000; -458.000
853.702; -246.600; -660.000; -750.000
853.951; -149.100; -532.000; -520.000
854.200; -180.600; -613.000; -562.000
854.449; -192.100; -695.000; -661.000
854.698; -140.700; -340.000; -279.000
854.946;  -62.700; -181.000; -284.000
855.195; -257.600; -843.000; -868.000
855.444; -140.100; -395.000; -420.000
855.693; -189.600; -345.000; -432.000
855.941; -176.300; -387.000; -516.000
856.190;  -67.800; -256.000; -382.000
856.439; -191.000; -652.000; -703.000
856.687;  -52.400;  -99.000;  -72.000
856.936; -173.300; -621.000; -323.000
857.184; -308.500;-1067.000;-1020.000
857.433; -145.100; -423.000; -512.000
857.681; -247.800; -989.000; -953.000
857.930; -104.300; -282.000; -433.000
858.178; -279.600; -856.000; -929.000
858.427; -236.400; -802.000; -781.000
858.675; -186.800; -377.000; -544.000
858.923; -143.900; -527.000; -819.000
859.172; -310.900;-1094.000;-1070.000
859.420; -110.100; -339.000; -239.000
859.668; -239.100; -624.000; -628.000
859.916;   -8.200;  109.000;  115.000
860.164; -207.900; -699.000; -603.000
860.413;   61.000; -878.000; -696.000
860.661;  -29.800; -709.000; -577.000
860.909; -113.700; -339.000; -325.000
861.157; -128.800; -277.000; -444.000
861.405; -188.000; -534.000; -670.000
861.653;   80.400;  310.000;  310.000
861.901;   76.300; -543.000; -613.000
862.149; -176.400; -801.000; -824.000
862.396;  -96.200; -297.000; -187.000
862.644; -102.800; -368.000; -347.000
862.892;  -12.200;   98.000;  138.000
863.140; -174.600; -549.000; -530.000
863.388; -255.500; -815.000; -759.000
863.635; -209.200; -642.000; -601.000
863.883;   54.500;  231.000;  190.000
864.131; -154.200; -288.000; -357.000
864.378; -228.000; -675.000; -540.000
864.626; -157.800; -347.000; -415.000
864.873; -176.800; -556.000; -505.000
865.121; -232.100; -714.000; -799.000
865.368;  -82.000; -173.000;   75.000
865.616;  -60.100;  -33.000;  -40.000
865.863; -116.800; -462.000; -506.000
866.111; -266.700; -795.000; -824.000
866.358;   -1.100; -426.000; -420.000
866.605; 2180.900;  -64.000; -804.000
866.853; 1693.900; -621.000; -537.000
867.100; -181.400; -728.000; -775.000
867.347; -151.800; -672.000; -611.000
867.594; -203.700; -740.000; -714.000
867.841;  100.500;   97.000;   17.000
868.089; -242.800; -746.000; -698.000
868.336; -150.500; -477.000; -420.000
868.583; -222.700; -637.000; -741.000
868.830;  -73.600; -131.000; -170.000
869.077; -267.900; -859.000; -787.000
869.324; -183.600; -502.000; -458.000
869.571; -188.800; -398.000; -430.000
869.818; -186.100; -485.000; -439.000
870.065; -153.800; -439.000; -513.000
870.311; -152.900; -456.000; -542.000
870.558; -131.600; -332.000; -311.000
870.805; -105.700; -320.000; -384.000
871.052; -160.800; -494.000; -369.000
871.298;  -69.000; -204.000; -131.000
871.545;  -69.400; -151.000; -185.000
871.792;  -98.300; -173.000; -222.000
872.038;  -55.800;   43.000; -126.000
872.285; -196.300; -496.000; -387.000
872.532; -139.400; -357.000; -387.000
872.778;  119.400;  556.000;  403.000
873.025; -125.300; -384.000; -359.000
873.271;  148.800;  501.000;  578.000
873.517;  -43.900; -133.000; -209.000
873.764;  -49.700; -193.000;  -80.000
874.010;  -77.700; -143.000; -230.000
874.257;  -43.900;  123.000;   90.000
874.503; -204.900; -579.000; -479.000
874.749; -103.200;   31.000;  275.000
874.995;  -48.900;  -80.000;  -20.000
875.242; -179.900; -540.000; -478.000
875.488; -163.900; -414.000; -439.000
875.734;  -59.400; -106.000; -234.000
875.980;  -19.200; -872.000;-1032.000
876.226;  192.800; -157.000; -255.000
876.472;   33.200;  343.000;  237.000
876.718;  -19.900;  184.000;  158.000
876.964;   24.600;   56.000;   55.000
877.210; -231.600; -547.000; -677.000
877.456; -220.500; -630.000; -557.000
877.702; -262.400; -821.000; -832.000
877.948; -169.800; -377.000; -497.000
878.193;  100.700;  361.000;  255.000
878.439; -191.500; -487.000; -472.000
878.685; -111.500; -272.000; -343.000
878.931; -201.000; -618.000; -676.000
879.176;  -97.100; -201.000; -201.000
879.422; -273.000; -933.000; -820.000
879.668;   60.900;   10.000;   79.000
879.913;   93.900;   53.000;  137.000
880.159;  -75.600; -112.000;  -17.000
880.404;  -72.100; -152.000; -162.000
880.650;  -25.500;   91.000;  141.000
880.895; -247.200; -670.000; -710.000
881.141; -163.000; -454.000; -428.000
881.386; -240.800; -503.000; -658.000
881.631; -117.000; -311.000; -166.000
881.877;  -17.500;  112.000;  -13.000
882.122; -196.600; -684.000; -600.000
882.367;  -95.700; -136.000; -186.000
882.612;  -78.700;  -80.000; -176.000
882.858; -296.500; -877.000; -823.000
883.103; -119.500; -297.000; -267.000
883.348; -233.700; -759.000; -852.000
883.593; -232.500; -677.000; -602.000
883.838;  -91.600; -311.000;  -24.000
884.083;   59.200;  353.000;  288.000
884.328; -140.400; -564.000; -545.000
884.573;  -74.500; -196.000; -143.000
884.818;   35.000; -694.000; -531.000
885.063;   58.400; -348.000; -315.000
885.308; -145.300; -475.000; -398.000
885.553;   55.700;  245.000;  325.000
885.797; -203.100; -545.000; -615.000
886.042;  -71.700;    8.000;   58.000
886.287; -122.100; -253.000; -211.000
886.532;  -44.600;   26.000;  204.000
886.776; -147.400; -407.000; -525.000
887.021; -218.300; -621.000; -574.000
887.265; -228.400; -685.000; -689.000
887.510; -196.900; -557.000; -496.000
887.755; -119.800; -194.000; -164.000
887.999; -190.100; -552.000; -575.000
888.244;  -53.600;  -58.000;  161.000
888.488;   62.500;  371.000;  393.000
888.732; -191.300; -368.000; -520.000
888.977; -224.300; -622.000; -567.000
889.221; -288.800; -683.000; -659.000
889.465; -184.800; -422.000; -566.000
889.710;  -77.400;  -56.000; -299.000
889.954;   81.000;  579.000;  467.000
890.198; -236.700; -584.000; -707.000
890.442; -234.700; -716.000; -712.000
890.687; -268.500; -800.000; -753.000
890.931; -103.800; -273.000; -210.000
891.175; -198.400; -502.000; -500.000
891.419;  -56.300; -105.000; -110.000
891.663; -123.500; -239.000; -112.000
891.907; -264.600; -801.000; -545.000
892.151; -294.000; -920.000; -815.000
892.395; -163.900; -274.000; -387.000
892.638;   50.500;  408.000;  291.000
892.882; -308.800; -780.000; -867.000
893.126;  125.600;  758.000;  558.000
893.370;  -99.200; -167.000; -168.000
893.614; -242.200; -714.000; -715.000
893.857; -149.400; -183.000; -197.000
894.101; -184.100; -527.000; -631.000
894.345;  -42.600;  300.000;  150.000
894.588;   88.400;  569.000;  380.000
894.832;  -86.800; -178.000;  -84.000
895.075;  -86.400;   15.000;  -92.000
895.319; -196.900; -552.000; -420.000
895.563; -148.000; -413.000; -353.000
895.806; -241.200; -628.000; -741.000
896.049;  -99.800; -576.000; -368.000
896.293;  159.600;  527.000;  405.000
896.536; -155.800; -465.000; -468.000
896.779; -100.100; -149.000;   -1.000
897.023; -238.800; -751.000; -714.000
897.266;   -2.700;  325.000;  269.000
897.509; -302.200; -900.000; -901.000
897.752;    7.500;  149.000;  171.000
897.996; -290.000; -972.000; -864.000
898.239;   10.100;  168.000;  102.000
898.482; -169.800; -431.000; -453.000
898.725;  -34.200;  101.000;   53.000
898.968; -263.300; -609.000; -744.000
899.211; -155.500; -513.000; -361.000
899.454; -200.200; -633.000; -539.000
899.697;  -57.100;   90.000;  -43.000
899.940; -253.900; -761.000; -757.000
900.182; -132.200; -335.000; -405.000
900.425; -113.900; -150.000; -298.000
900.668;   65.400;  491.000;  350.000
900.911; -139.100; -292.000; -345.000
901.154;  -24.300;  141.000;   -3.000
901.396; -203.800; -407.000; -412.000
901.639; -238.300; -430.000; -496.000
901.882; -291.100; -790.000; -809.000
902.124; -107.000;  -29.000; -143.000
902.367; -143.300; -315.000; -361.000
902.609; -223.200; -476.000; -453.000
902.852; -116.000; -108.000; -260.000
903.094; -188.200; -458.000; -337.000
903.337;  -27.600;  -26.000;   53.000
903.579; -171.600; -228.000; -441.000
903.821; -249.000; -597.000; -744.000
904.064;  -47.500;   85.000;  127.000
904.306; -102.300; -126.000; -166.000
904.548; -140.200; -152.000; -366.000
904.790; -130.100; -195.000; -340.000
905.033; -197.300; -625.000; -577.000
905.275; -192.700; -513.000; -524.000
905.517;   71.700;  468.000;  256.000
905.759; -196.500; -667.000; -761.000
906.001; -158.200; -322.000; -369.000
906.243;  -77.400; -162.000; -224.000
906.485;   68.500; -265.000; -207.000
906.727;  -56.500; -499.000; -542.000
906.969;  -36.300;  -30.000; -135.000
907.211;    0.100; -316.000; -382.000
907.453;  149.100; -188.000; -237.000
907.695;  -40.700; -158.000; -385.000
907.936;  138.200;  818.000;  706.000
908.178;  -72.700;   92.000; -135.000
908.420;  -80.800; -111.000; -162.000
908.662; -221.900; -633.000; -682.000
908.903; -119.700; -208.000; -123.000
909.145;  -94.700; -240.000; -305.000
909.386;   64.400;  315.000;  280.000
909.628;  114.800;  363.000;  397.000
909.870;   48.900;   29.000;  264.000
910.111; -202.100; -809.000; -949.000
910.353;   48.700; -123.000; -161.000
910.594;  -28.400; -574.000; -606.000
910.835;   82.500; -265.000; -326.000
911.077;  135.300; -503.000; -604.000
911.318;  346.600; -505.000; -471.000
911.559;  506.800; -577.000; -880.000
911.801; 1850.700; -284.000; -280.000
912.042;16044.400;  -50.000; -159.000
912.283;35645.200;  404.000;  371.000
912.524; 4579.900; -396.000; -457.000
912.765;  673.300; -193.000;   79.000
913.006;  363.500; -307.000; -338.000
913.247;   67.400; -270.000; -290.000
913.488;   12.900;  -43.000;   30.000
913.729; -106.400; -373.000; -373.000
913.970;  -47.600;  -96.000; -292.000
914.211;  -77.100; -160.000; -198.000
914.452;  -71.800; -118.000;  -11.000
914.693;   48.000;  510.000;  592.000
914.934;  100.800;  510.000;  440.000
915.175;  -40.100;   53.000;  -95.000
915.415;  -75.000; -137.000;   27.000
915.656;  -62.800;  -28.000;  192.000
915.897; -119.000; -252.000;  -82.000
916.137;  -55.700;   74.000;   -9.000
916.378; -196.700; -573.000; -517.000
916.619; -112.700; -159.000;  -63.000
916.859;   -2.200;  303.000;  330.000
917.100;  309.300; 1655.000; 1070.000
917.340;  178.500;  930.000;  728.000
917.581;  145.500;  965.000;  789.000
917.821;  -81.900; -171.000;  143.000
918.061;  -36.000; -199.000;  -72.000
918.302; -104.200; -152.000; -211.000
918.542;  -63.200;  -22.000;    3.000
918.782;   69.100;  369.000;  377.000
919.023;  170.200;  360.000;  427.000
919.263; 1988.500; 8131.000;  202.000
919.503;  747.700; -137.000;  -54.000
919.743;  539.900;  390.000;  266.000
919.983;  142.500; -134.000;  -26.000
920.223;   52.200;  135.000;   14.000
920.463;  206.000;  631.000;  554.000
920.703;   84.700;   84.000;   39.000
920.943;  129.300; -110.000;   90.000
921.183;  132.800; -414.000; -405.000
921.423;  471.400;  307.000;  546.000
921.663;  585.400; -174.000; -257.000
921.903; 1428.800;  237.000;  173.000
922.143; 8643.400;  372.000;  389.000
922.383;31065.300;  158.000;  115.000
922.622; 8595.700; -120.000;  -15.000
922.862; 1113.800;  796.000;  785.000
923.102;  376.900;  -51.000;   33.000
923.341;  155.000;   59.000;   74.000
923.581;   91.200;  450.000;  360.000
923.821;   69.800;  301.000;  398.000
924.060;   49.200;  351.000;  193.000
924.300;  -61.500;  -16.000; -128.000
924.539;   26.400;  584.000;  473.000
924.779;  106.500;  812.000;  597.000
925.018;  -28.400;  247.000;  353.000
925.257;   38.300;  595.000;  666.000
925.497;  -14.800;  447.000;  412.000
925.736;  -78.200;  -35.000;  102.000
925.975;  107.900;  687.000;  669.000
926.214;  134.400;  907.000;  850.000
926.454;  116.700;  706.000;  757.000
926.693;   18.200;  419.000;  543.000
926.932;  160.600; 1021.000;  825.000
927.171;  206.900; 1107.000; 1044.000
927.410;  194.900; 1144.000;  967.000
927.649;  137.400;  924.000;  742.000
927.888;   48.600;  590.000;  564.000
928.127;   76.700;  680.000;  678.000
928.366;   89.100;  842.000;  826.000
928.605;  138.800;  831.000;  737.000
928.844;  373.500; 1451.000; 1393.000
929.083;  571.400;  770.000;  613.000
929.321;  371.900; 1335.000; 1359.000
929.560;  244.800; 1158.000; 1122.000
929.799;   -3.700;  574.000;  475.000
930.038;  243.800; 1025.000; 1394.000
930.276;  -14.000;  334.000;  397.000
930.515;  100.000;  827.000;  681.000
930.753;   61.200;  614.000;  589.000
930.992;   61.900;  664.000;  717.000
931.230;  117.300;  847.000;  847.000
931.469;  453.900; 2162.000;  892.000
931.707;  212.800;  840.000;  751.000
931.946;  193.000; 1278.000; 1344.000
932.184;  220.500; 1437.000; 1175.000
932.423;  218.500; 1265.000;  963.000
932.661;  218.800; 1296.000; 1428.000
932.899;  103.300;  987.000;  821.000
933.137;   95.000;  754.000;  564.000
933.376;  300.300; 1664.000; 1335.000
933.614;  370.600; 1759.000; 1196.000
933.852;  172.700; 1357.000; 1171.000
934.090;  271.500; 1722.000; 1747.000
934.328;  266.000; 1252.000; 1457.000
934.566;  191.800; 1431.000; 1110.000
934.804;  213.800; 1263.000; 1309.000
935.042;  615.600; 1861.000; 1850.000
935.280; 1976.800; 2088.000; 2063.000
935.518; 1632.300; 2113.000; 2007.000
935.756;  523.000; 2481.000; 2316.000
935.994;  347.500; 1808.000; 1751.000
936.231;  658.400; 2890.000; 2950.000
936.469;  435.400; 2367.000; 2378.000
936.707;  424.200; 2220.000; 2167.000
936.945;  551.400; 2825.000; 2882.000
937.182;  502.600; 2679.000; 2741.000
937.420;  673.700; 3602.000; 3031.000
937.657;  808.600; 3365.000; 3478.000
937.895;  730.100; 3331.000; 3488.000
938.133;  717.300; 3540.000; 3528.000
938.370;  787.400; 3896.000; 4191.000
938.607;  927.400; 4488.000; 4205.000
938.845; 1215.200; 5587.000; 5549.000
939.082; 1105.400; 5387.000; 5177.000
939.320; 1182.700; 5799.000; 5728.000
939.557; 1399.100; 6549.000; 6491.000
939.794; 1522.200; 7285.000; 7097.000
940.031; 1819.200; 8421.000; 8368.000
940.269; 2028.300; 9552.000; 9107.000
940.506; 2306.100;10901.000;10507.000

