
Integration time [ms]: 100.000
Averaging Nr. [scans]: 40
Smoothing Nr. [pixels]: 0
Data measured with spectrometer [name]: 2101013U2
Wave   ;Sample   ;Dark     ;Reference
[nm]   ;[counts] ;[counts] ;[counts] 

394.013;   58.987; -450.257; -315.536
394.305;  211.635; -461.258; -419.536
394.596; 1109.682; -676.269; -527.514
394.887; 2724.473; -796.268; -654.518
395.178; 1034.179;  145.736;   11.476
395.470;   90.240; -210.263; -356.526
395.761;  208.813;  305.734;  394.479
396.052;  292.181; -545.284; -306.489
396.343;  284.426; -557.276; -454.503
396.634;  115.395; -200.279; -290.497
396.926;  118.196; -618.268; -565.517
397.217;  101.231;   11.725;  -17.504
397.508;   62.296; -366.273; -154.507
397.799;   63.420; -555.279; -571.497
398.090;    7.914; -973.280; -902.495
398.381;  119.606;   11.708;  -11.473
398.672;  -11.918; -585.292; -742.473
398.963;   57.301; -348.279; -373.498
399.254;  115.241;   54.709; -209.475
399.545;  -22.165;-1017.266; -883.520
399.836;   61.740; -407.277; -343.501
400.127;   61.882; -205.295; -209.468
400.418;   74.316; -423.274; -392.506
400.709;   70.301; -359.281; -333.493
401.000;   53.545; -268.291; -309.476
401.290;  119.018;  225.698;  115.545
401.581;   90.364; -166.286; -228.485
401.872;   32.579; -542.298; -486.462
402.163;   44.549; -313.296; -252.467
402.454;   98.067; -123.291; -163.475
402.744;   77.016; -844.297; -813.465
403.035;  421.422; -226.293;  -86.471
403.326;  550.235; -366.292; -384.474
403.617;  372.823;  204.701;  165.539
403.907;  266.937; -593.283; -679.490
404.198; 2384.372; -545.307; -599.446
404.489; 6284.767; -618.283; -588.491
404.779; 2135.272; -618.302; -660.456
405.070;  232.025;  -67.304; -174.451
405.360;  350.549; -259.293; -238.472
405.651;  361.358;  125.699;   98.542
405.942;  192.959;  209.714;  127.516
406.232;  266.948; -432.285; -413.487
406.523;  489.542;  641.706;  758.530
406.813;  106.061; -579.286; -644.484
407.104;  336.429;  261.708;  144.527
407.394;  184.624; -604.299; -591.462
407.685;  154.248;  336.715;  222.513
407.975;   73.040; -400.283; -382.490
408.265;  119.906; -134.289; -190.478
408.556;   57.688; -472.291; -459.475
408.846;  180.768;  474.706;  429.530
409.137;   77.314;   -1.288; -216.480
409.427;   52.098; -193.285; -271.487
409.717;   28.550; -776.273; -692.508
410.007;  149.067;    4.715; -170.486
410.298;   91.909; -360.295; -342.469
410.588;   67.620; -495.285; -510.486
410.878;   24.001; -792.287; -873.482
411.168;  126.881; -481.298; -478.463
411.459;  118.910; -295.283; -242.489
411.749;   63.512; -609.292; -507.474
412.039;   58.663; -755.289; -386.480
412.329;  222.683;   40.722;  132.501
412.619;  184.636;  -62.286; -148.485
412.909;  367.134;  639.711;  594.521
413.199;  329.914; -130.280; -251.495
413.490;  405.799;  521.710;  352.523
413.780;  156.693;-1013.279; -913.496
414.070;  337.202;  -46.276;  235.497
414.360;  380.054; -729.278; -666.498
414.650;  412.222; -726.288; -688.482
414.940;  544.118; -538.280; -441.496
415.230;  917.944;   50.712;   74.519
415.520; 6100.806;  155.730;   66.486
415.809;23935.976; -305.281; -125.493
416.099;18565.342; -388.277; -229.501
416.389; 5191.264;  435.726;  236.494
416.679; 3049.269;   91.738;   85.473
416.969;  524.155; -527.287; -503.483
417.259;  468.370;  341.721;  171.503
417.549;  706.974;  522.718;  318.508
417.838; 1675.548; -205.268; -147.518
418.128; 5509.955;  650.710;  492.522
418.418; 4618.081; -491.272; -579.509
418.708; 3113.014;    9.726;  -48.506
418.997;11618.435; -474.275; -480.505
419.287;12152.321; -733.273; -790.507
419.577;11461.034; -160.283; -123.489
419.866;38019.765; -588.277; -498.501
420.156;38962.677; -242.270;  -55.513
420.446; 7036.536; -112.263;  -26.526
420.735;  857.146; -376.271; -446.512
421.025;  848.403; 1830.722;  315.502
421.314;  692.644; -203.271; -226.512
421.604; 1406.115;   89.732;  233.484
421.893;  824.815; -705.271; -602.511
422.183;  243.361; -487.263; -461.526
422.472;  397.342;  -36.271; -107.511
422.762;  462.916; -416.266; -379.521
423.051;  254.077; -916.276; -916.503
423.341;  328.898; -491.273; -439.507
423.630;  414.497; -121.265;   15.477
423.919;  390.209;   58.725;   49.495
424.209;  379.892;  -31.263;   56.473
424.498;  490.870;   68.732;  161.483
424.787; 1089.602; -535.267; -601.518
425.077; 3369.095;   34.735;   29.478
425.366; 4768.173; -734.262; -744.528
425.655; 9971.848;  639.727;  259.493
425.945;21660.002; -313.247; -268.554
426.234;12075.820;  117.741;  300.467
426.523; 5025.025;  -86.259; -350.534
426.812; 6956.937;  107.734;  159.480
427.101;10175.737; -127.269; -323.515
427.390;12942.931;  -55.270;  -86.514
427.680; 2960.345; -624.257; -411.538
427.969;  489.256; -330.255; -301.540
428.258;  313.512; -385.257; -477.536
428.547;  559.160;  449.728;  397.490
428.836; 1260.447; -421.253; -398.543
429.125; 1811.127; -199.259;  -72.534
429.414;  821.395; -330.251; -294.548
429.703; 3103.920; -231.251; -213.548
429.992; 9331.549; -938.250; -828.549
430.281; 6146.554; -397.264; -331.524
430.570;  567.211;  -21.252;   32.454
430.859;  580.975;  279.741;  352.466
431.148;  447.873;  636.752;  631.446
431.437;  283.410;  391.748;  367.454
431.725;  160.313; -544.257; -481.536
432.014;  129.680; -845.253; -756.545
432.303;  385.374; -149.239; -105.569
432.592;  606.911; -460.263; -178.525
432.881; 1042.149; -601.248; -437.554
433.169; 6209.557; -343.255;  -61.540
433.458;12588.308;  445.765;  540.424
433.747; 5304.453; -397.261; -289.529
434.036;  899.775; -275.242; -280.564
434.324; 2095.561; -395.249; -379.551
434.613; 3638.768;   40.757;  159.437
434.902; 1217.089;  333.760;  439.433
435.190;  584.397;   75.761;  295.431
435.479;  332.575;  -52.245;   83.441
435.767;   96.233; -411.244; -427.561
436.056;  214.470; -340.242; -294.563
436.345;  373.166; -372.240; -223.568
436.633;  391.581;   60.750;  383.450
436.922;  270.618;  208.760;  414.432
437.210;  594.373; -194.236;    1.426
437.499; 1891.981; -583.235; -432.576
437.787; 2096.822; -339.236;  -10.574
438.075;  542.303;   56.761;  162.430
438.364;  731.806;  -44.238;  250.429
438.652;  432.636; -286.226; -138.592
438.941;  150.275;    3.770;  269.415
439.229;   10.633; -665.252; -466.545
439.517;   39.614; -160.234;  -85.577
439.806;   -5.149; -501.225; -290.595
440.094;  183.122;  377.766;  650.421
440.382;  186.076; -653.233; -302.580
440.670;  202.605; -361.235; -285.576
440.959;   20.619; -347.223; -170.599
441.247;   72.786; -151.229; -109.587
441.535;  106.612; -266.235;   31.423
441.823;   35.219; -497.234; -305.578
442.111;  186.790;  173.771;  327.412
442.400;  500.349; -628.245; -335.559
442.688; 1396.071; -111.234; -620.579
442.976; 1002.582; -786.213; -450.617
443.264;  106.583; -324.224; -364.597
443.552;  122.037; -258.226;   51.408
443.840;  173.636;  602.765;  876.423
444.128;  130.125;  265.767;  269.420
444.416;   15.018; -694.228; -312.588
444.704;   39.174; -465.219;  -92.605
444.992;   83.815;   -0.226;  240.407
445.280;   58.925; -517.230;  -94.585
445.568;   42.060; -694.212; -396.618
445.856;  344.808; -174.221;  357.398
446.143;  748.770;  -54.220;   -7.604
446.431;  627.472;  -25.228;  625.411
446.719;  259.718;  489.783;  675.391
447.007;  188.470;  481.769;  705.416
447.295;  186.366;  597.777;  871.402
447.583;   89.509; -464.229;  -34.587
447.870;  142.029; -434.221; -202.601
448.158;  416.824; -104.230;  129.415
448.446;  323.046; -800.219; -338.604
448.733;  172.360;   13.776;  269.403
449.021;  257.360;   60.788;  341.382
449.309;  196.950; -296.210;  208.379
449.596;  216.714;  128.783;   59.392
449.884;  173.698; -571.222; -325.600
450.172;  160.427; -756.227; -406.590
450.459;  445.090;  645.786;  780.387
450.747; 2424.113; -411.218; -147.608
451.034; 7610.098;  493.772;  889.411
451.322; 6337.418; -413.214; -170.614
451.609;  546.361;  292.777;  508.403
451.897;  594.863; -550.203; -183.634
452.184; 1795.341; -622.223; -400.598
452.472; 1696.546;   97.792;  269.375
452.759;  345.422;  512.781;  864.395
453.047;  122.883; -407.212; -125.617
453.334;   78.279; -732.219; -216.606
453.621;   89.095; -438.214; -161.615
453.909;  123.905;   13.796;  384.368
454.196;  110.851; -299.199; -123.641
454.483;  213.901;  317.798;  540.364
454.771;  138.149; -215.208;  196.374
455.058;   50.828; -316.207;  102.374
455.345;  120.156;   71.807;  344.347
455.632;   84.456; -128.207;  235.373
455.919;   57.698;  -82.196;  182.354
456.207;  -51.620; -774.198; -450.642
456.494;  -28.112; -475.200;  -66.639
456.781;   16.072; -399.202; -198.635
457.068;   55.938; -253.206;  -29.628
457.355;   -3.786; -698.206; -401.629
457.642;   -1.756; -552.205; -290.630
457.929;   14.147; -778.194; -417.651
458.216;   68.758; -575.212; -354.617
458.503;  251.802; -173.193;  -19.652
458.790;  221.547; -864.208; -630.625
459.077;  274.577;  -77.202;  110.364
459.364;  802.215; -350.195; -210.649
459.651; 1694.611;  -46.206;  220.372
459.938;  787.163; -864.209; -665.623
460.225;  162.330;  132.799;  276.363
460.512;  -43.605; -836.197; -688.645
460.799;  125.536;  -32.218;  320.392
461.086;   74.543; -370.200; -251.640
461.372;   57.855; -509.198; -279.642
461.659;  128.274; -165.196;  108.354
461.946;   76.900; -445.193;  -54.651
462.233;  239.890;  842.800;  888.361
462.519;  350.212; -814.201; -464.639
462.806; 1009.671; -768.197; -497.645
463.093;  880.946; -445.191;  -66.656
463.380;  -27.638; -920.186; -824.664
463.666;   56.448; -259.197;  -18.646
463.953;   88.310; -406.195; -243.648
464.239;  194.935; -173.195;  -77.648
464.526;  394.720;  413.806;  743.350
464.813;  340.583; -565.190; -304.658
465.099;  346.901;  606.807;  607.348
465.386;  337.530;  903.807;  921.348
465.672;   13.771; -694.197; -522.645
465.959;   27.700; -598.188; -520.662
466.245;   19.430; -468.193; -359.652
466.532;  107.857; -109.195;   63.352
466.818;   67.237; -357.186; -216.664
467.104;    0.952; -488.182; -415.672
467.391;   -3.941; -628.189; -459.658
467.677;   45.841; -289.186;    9.335
467.964;   15.216; -682.189; -471.660
468.250;   64.468; -331.186; -160.665
468.536;   80.561;   90.811;  180.341
468.822;  -22.445; -821.184; -574.668
469.109;  144.908;  351.827;  471.311
469.395;  202.390;  729.808;  787.346
469.681;  204.839;   46.811;  156.341
469.967; 1250.218; -699.188; -382.660
470.254; 2662.926; -494.188; -306.662
470.540; 1747.123; -601.196; -476.646
470.826;  254.888; -488.181; -397.675
471.112;  306.559;  288.816;  113.331
471.398;   95.813; -253.183;  -58.670
471.684;   57.692; -626.177; -447.680
471.970;  -13.808; -918.180; -981.675
472.256;   26.064; -521.192; -441.654
472.542;    1.269; -499.171; -434.691
472.828;   22.273; -743.182; -607.672
473.114;   33.288; -380.166; -283.700
473.400;   21.283; -504.175; -293.684
473.686;   23.119; -452.166; -400.701
473.972;   45.123; -230.174; -131.687
474.258;  -37.017; -925.173; -843.689
474.544;  208.558; -183.178;   -2.679
474.830;  309.185;  -65.175;   45.316
475.116;  492.084; -123.190; -196.658
475.401;  670.569; -558.180; -467.676
475.687;  196.918; -725.180; -718.676
475.973;   -8.294; -673.181; -770.673
476.259;  255.812;  736.825;  764.315
476.544;  370.625; -539.176; -437.682
476.830;  811.690; -398.172; -322.690
477.116;  715.623; -430.177; -336.682
477.401;  144.969;  346.820;  358.324
477.687;  -10.842; -289.175; -405.684
477.973;   51.835;   21.819;   28.326
478.258;   -5.961; -448.163; -348.706
478.544;   67.649;   21.815;   61.334
478.829;  -61.300; -818.171; -738.692
479.115;  -40.460; -749.172; -651.690
479.401;   -7.707; -444.174; -449.686
479.686;   35.068; -253.180;  -74.676
479.972;  -26.436; -886.178; -776.680
480.257;   29.789; -258.166;  -65.700
480.542;    1.803; -614.170; -469.693
480.828;  246.357; 1288.824; 1392.317
481.113;  -36.146; -464.176; -426.683
481.399;  -11.362; -236.161; -202.711
481.684;  -54.761; -620.166; -462.700
481.969;   17.627; -158.159;  -73.713
482.255;  -10.361; -439.169; -285.695
482.540;    3.989; -569.178; -441.680
482.825;   -6.643; -395.187; -404.663
483.110;  105.517;  -85.169; -105.696
483.396;  176.773; -840.157; -652.718
483.681;  506.448;  543.826;  730.313
483.966;  160.971; -696.160; -700.712
484.251;    3.272; -404.174; -310.687
484.536;   10.649; -356.165; -378.703
484.822;   14.100; -205.173; -218.687
485.107;  -10.488; -599.152; -502.726
485.392;  122.530;  662.836;  541.296
485.677;   88.352;  354.832;  163.302
485.962;  103.671;  160.843;  270.283
486.247;  108.222;  -14.162;   -8.707
486.532;   43.015; -178.166; -325.701
486.817;  164.558;  381.839;  431.291
487.102;  119.470; -453.154; -514.722
487.387;  668.250; -637.156; -652.718
487.672; 1174.210; -154.164;  -38.705
487.957;  739.265; -394.160; -286.711
488.241;  197.353; -290.150; -314.729
488.526;  746.563; -280.152; -148.726
488.811; 1202.941; -881.177; -818.680
489.096;  891.347; -666.154; -702.723
489.381;  496.934;    3.847;  162.275
489.666;  379.763; -428.161; -510.710
489.950;  188.275;  558.846;  627.277
490.235;  -22.127; -480.151; -458.728
490.520;  -42.913; -756.161; -723.710
490.804;  -59.023; -827.156; -736.719
491.089;    0.894; -469.149; -299.732
491.374;   35.684; -132.164;  -75.704
491.658;   -4.319; -817.147; -717.735
491.943;  172.642; -657.152; -609.727
492.227;  254.040; -178.155;  -38.721
492.512;   47.620; -294.157; -341.717
492.797;  -61.312; -713.149; -716.731
493.081;  -50.342; -588.147; -598.735
493.366;  -50.886; -751.161; -635.711
493.650;  215.336;  831.859;  917.254
493.935;   26.780; -648.147; -447.734
494.219;  -40.076; -778.142; -687.743
494.503;  -42.017; -585.150; -487.730
494.788;   35.687;   46.842;   74.285
495.072;  113.555;  184.850;  434.271
495.356;  182.247; -463.148; -343.733
495.641;  460.490; -812.146; -736.736
495.925;  419.182; -976.156; -903.719
496.209;   41.668; -599.149; -451.732
496.494;  -44.101; -763.142; -544.744
496.778;   13.170; -364.154; -360.722
497.062;  -60.018; -819.156; -627.719
497.346;  -29.608; -869.160; -640.711
497.631;  144.601;  580.852;  560.266
497.915;   64.500;  -64.145;  175.261
498.199;   54.623; -341.157; -277.718
498.483;   40.936; -562.152; -508.725
498.767;  188.231;  301.850;  300.271
499.051;  200.266; -126.149; -100.732
499.335;   29.814; -693.149; -739.731
499.619;  -28.962; -381.129; -423.767
499.903;   32.389; -272.155;  -65.721
500.187;   29.427; -588.153; -316.724
500.471;   18.691; -796.152; -595.727
500.755;  117.012;   62.839;  -96.710
501.039;   22.615; -270.155; -357.721
501.323;   85.513;  -21.141;  264.254
501.607;   32.090; -447.163; -503.706
501.891;    5.975; -607.156; -512.718
502.174;  -23.513; -726.144; -585.741
502.458;   68.495;   89.849;  370.273
502.742;   35.837; -180.138; -191.751
503.026;  116.279; -412.147; -254.734
503.310;  175.001; -437.159; -375.713
503.593;  148.056; -464.147; -325.735
503.877;  128.777; -232.133; -156.760
504.161;  181.829;    2.847;  -50.724
504.444;  138.389; -841.158; -710.716
504.728;  478.683; -487.164; -522.704
505.012;  721.378; -257.150;  -76.729
505.295;  547.363; -417.161; -212.711
505.579;  543.507; -256.156; -496.719
505.862;  752.697; -555.145; -333.738
506.146;  732.453; -681.159; -758.714
506.429;  409.954;  568.841;  461.286
506.713;   71.000; -732.151; -667.728
506.996;  329.269;   90.846;  295.278
507.280;  339.778; -633.165; -474.703
507.563;  255.413; -469.155; -261.721
507.847;  110.978; -423.153; -112.724
508.130;   85.514; -665.161; -456.711
508.413;  109.810; -758.167; -577.700
508.697;  239.835; -151.167;   12.300
508.980;  144.329; -422.153; -312.724
509.263;    2.459; -466.155; -450.720
509.547;   34.177; -124.150;   82.271
509.830;   53.791; -172.160;  140.289
510.113;   88.381;  128.844;  298.281
510.396;   36.435; -530.152; -300.725
510.680;  158.373; -818.145; -812.738
510.963;  631.774;  184.846;  180.277
511.246;  540.335; -493.150; -357.730
511.529;  287.178; -482.145;  -83.739
511.812;  367.899; -250.134;   10.241
512.095;  267.097; -740.151; -396.728
512.378;   69.160; -317.147; -245.736
512.661;   29.020; -703.137; -623.753
512.944;   32.426; -750.142; -637.744
513.227;   74.017; -170.137; -171.752
513.510;   28.187; -479.144; -671.741
513.793;   41.268; -485.140; -435.747
514.076;  143.259;  -43.127;  -39.771
514.359;  108.844; -294.149; -135.732
514.642;   90.929; -442.142; -567.744
514.925;  767.191;  581.860;  561.253
515.208;  987.445; -498.134; -443.758
515.491;  663.934; -276.133; -182.761
515.773;  379.565; -410.143; -337.742
516.056; 2085.576;  249.864;  409.246
516.339; 2822.555; -754.136; -652.755
516.622; 1933.008; -518.150; -488.730
516.904; 1267.122;  882.857;  975.257
517.187;  593.116; -730.138; -523.752
517.470;  384.246; -568.143; -510.743
517.752;  431.958; -624.136; -470.756
518.035;  347.953; -708.139; -725.749
518.318;  379.530; -799.136; -744.755
518.600; 2413.863; -300.132; -325.762
518.883; 3346.903;  310.858;   88.256
519.165; 1663.508; -585.138; -426.751
519.448;  409.612;  -61.132;  -19.762
519.730;  195.441; -573.126; -415.773
520.013;  324.855;  588.867;  664.240
520.295;  877.601;  -94.134;  -15.759
520.578; 1862.751; -335.131; -305.764
520.860; 2101.988; -254.132;   56.238
521.143; 1112.010; -763.135; -584.756
521.425;  507.504; -251.125; -279.775
521.707;  677.659; -622.127; -380.771
521.990; 1778.509; -199.127;  167.229
522.272; 2032.269; -116.140;   -4.748
522.554;  926.866; -237.143; -157.742
522.836;  367.474;  -24.134;   99.241
523.119;  220.028; -496.148; -189.734
523.401;  173.632; -448.130; -314.766
523.683;   89.045; -865.137; -693.753
523.965;  291.964;  408.862;  260.248
524.247;  285.950;   54.878;  170.220
524.529;  204.551; -451.134; -367.759
524.812;  350.159;   -3.130;  191.234
525.094;  875.163; -773.138; -631.751
525.376; 1355.238; -143.124;   78.223
525.658;  839.102; -441.136; -339.754
525.940;   37.072; -805.131; -671.764
526.222;   36.706; -188.136;  -88.755
526.504;  120.020; -190.131;   32.237
526.786;  192.378; -960.133; -647.760
527.068;  326.669; -124.123;  -67.778
527.349;  136.424; -865.137; -774.754
527.631;  128.062; -137.132;   22.238
527.913;  131.908; -664.127; -450.771
528.195;  170.497; -761.125; -639.774
528.477;  252.121;  -93.134;  -30.758
528.759;  141.884; -648.130; -522.766
529.040;   69.992; -569.123; -293.778
529.322;   53.850; -235.125;  -10.774
529.604;  147.311;  -47.130;   93.233
529.886;  130.766; -546.126; -302.773
530.167;  142.553;  232.870;  192.235
530.449;   42.935;    1.853;   63.265
530.731;   27.899; -572.122; -459.779
531.012;   54.445; -513.120; -216.784
531.294;   82.334; -118.116;  -43.792
531.575;  152.679;  290.875;  538.225
531.857;   61.465; -548.135; -266.757
532.138;   98.137; -113.141;   40.254
532.420;  185.087;  294.865;  403.244
532.701;  219.830; -722.133; -751.760
532.983;  348.259;  232.867;  182.239
533.264;  122.214; -243.126;  175.228
533.546;  -19.544; -491.136; -508.755
533.827;   64.027;  173.867;   -1.759
534.109;   62.090; -352.135;  -80.757
534.390;   92.441; -725.132; -582.762
534.671;  249.736; -270.135;  -82.756
534.953;  137.295; -751.123; -611.779
535.234;   33.994; -426.117; -255.789
535.515;  -78.371; -891.119; -735.785
535.796;  -21.596; -431.128; -193.770
536.078; -123.862;-1050.124; -904.777
536.359;    2.771;  -22.123;    3.221
536.640;  -15.351; -480.125; -197.774
536.921;  159.667;  225.871;  143.232
537.202;  363.910;  -87.138;  -16.751
537.483;  450.175;  251.869;  377.236
537.764;  184.878;   17.870;   98.235
538.045;  -24.280; -543.134; -371.758
538.326;  -22.482; -596.129; -447.768
538.607;   18.135; -686.127; -476.771
538.888;  179.411;   98.879;    5.218
539.169;  186.531; -704.122; -535.781
539.450;  332.091;  236.871;   16.233
539.731;  215.990; -361.121; -182.783
540.012;  142.495;  199.880;  412.216
540.293;   94.057;   82.876;  158.224
540.574;   15.580; -895.113; -717.796
540.855;  467.414;  435.879;  377.218
541.136;  536.303;   47.878;  139.220
541.416;  289.035; -161.130; -220.766
541.697;  203.871; -274.131; -170.763
541.978; 1046.314; -270.135; -315.757
542.259; 1324.910; -211.127; -236.771
542.539;  656.103; -191.116; -186.790
542.820;  191.204;  461.875;  480.225
543.101;  132.400;  -52.145;  -77.738
543.381;   34.034; -638.127; -591.771
543.662;  277.607;  159.873; -254.771
543.942;  588.980; -751.127; -830.770
544.223; 1048.555;  193.878;  161.219
544.504;  690.313; -275.124; -182.777
544.784;  588.566; -592.126; -408.773
545.065; 1635.882;  104.884; -254.791
545.345; 1952.854;  227.881;   14.215
545.626; 1282.404;  -14.113; -108.796
545.906;  889.528;   77.869;   98.235
546.186;  373.920;   92.874;  -95.773
546.467;  202.740;   99.877;  -95.778
546.747;  329.028;  264.884;  327.210
547.027;  389.736;   91.876;  111.223
547.308;  346.679; -376.127; -530.770
547.588;  401.819;  299.871;  371.232
547.868;  200.779;  458.870;  588.235
548.149;  209.814;  609.885;  593.207
548.429;  144.658; -347.127; -299.771
548.709;  203.795; -645.120; -461.784
548.989;  491.888;   84.882;   88.213
549.269; 2131.486;   10.868;  139.239
549.550; 4836.169;  215.877;  117.222
549.830; 4363.597; -758.111; -556.799
550.110;  875.130; -468.110; -320.801
550.390;  832.500; -128.122;  -56.779
550.670; 1151.000; -868.114; -783.795
550.950;  826.413; -509.121; -471.782
551.230;  206.285;  549.879;  460.218
551.510;   -1.863; -381.121; -326.782
551.790;   45.638; -173.109; -127.803
552.070;  252.340;  940.877; 1181.223
552.350;  420.858; -492.119; -377.786
552.630;  589.357;   -2.121;   77.219
552.909;  365.432;  181.884;   73.209
553.189;  237.142;  -49.132;   33.237
553.469;  187.107; -703.119; -514.786
553.749;  195.536; -469.127; -357.772
554.029;  168.598;   33.883;  -24.790
554.308;  139.368; -154.115;  -37.794
554.588;   72.878; -196.128; -204.770
554.868;   71.264; -366.121;  -47.782
555.147;  158.316; -114.115;  -46.793
555.427;  608.660; -260.116; -250.792
555.707; 3914.564; -284.115; -200.793
555.986; 4697.525; -719.111; -538.800
556.266; 2510.152;   23.884;   72.210
556.546;  130.012; -888.121; -675.782
556.825;  263.548; -657.114; -556.794
557.105; 1826.501; -125.128;   17.230
557.384; 2105.281;  122.884;  187.209
557.664;  812.134; -717.116; -508.792
557.943;  114.988; -557.121; -411.782
558.222;  183.591; -345.118; -344.788
558.502;  263.067; -116.115;  -76.793
558.781;  502.863;  194.885;  499.208
559.061;  407.466; -232.118; -227.788
559.340;  300.171;  302.883;  353.211
559.619;  716.127;   93.884;  148.210
559.899; 1017.873; -239.117; -266.789
560.178;  962.642; -778.115; -593.793
560.457; 3145.900; -623.117; -562.790
560.736; 4394.202; -472.111; -482.800
561.015; 2975.774; -500.128; -502.769
561.295;  405.632;  180.893;  215.193
561.574;  339.414;  119.885;  116.207
561.853;  492.067;  274.891;  303.197
562.132;  502.819;  -45.114;  182.206
562.411;  441.308;  396.879;  553.219
562.690;  145.737; -592.115; -458.792
562.969;  131.486;  472.888;  630.203
563.248;  506.130; 2966.878; 2487.219
563.527;  266.726; -290.111; -408.800
563.806;  391.933; -650.127; -521.771
564.085;  425.373; -297.105; -206.810
564.364;  244.701; -594.117; -405.790
564.643;  496.533; -276.121; -223.781
564.922; 1886.511;  221.890;  397.198
565.201; 1906.739; -640.109; -700.803
565.479;  839.961; -297.115; -219.792
565.758;  333.476; -810.128; -712.770
566.037;  479.441; -155.109; -100.803
566.316;  227.757; -286.116;  -28.791
566.595;   59.814;  -17.115;  -12.793
566.873;   92.928; -166.111;  -79.801
567.152;  -45.989; -490.113; -590.797
567.431;   11.153; -113.116;    6.210
567.709;   31.058; -344.107; -212.807
567.988;  245.848; -810.114; -769.794
568.266;  521.189; -160.115;  -68.793
568.545;  382.345; -644.100; -514.819
568.824;  606.010;  160.885;  356.208
569.102;  562.372; -351.114; -235.794
569.381;  213.760; -492.116; -407.792
569.659;  -41.218; -553.113; -553.796
569.938;   34.054; -743.122; -465.780
570.216;  110.518; -225.109; -225.804
570.494;  -12.974; -632.114; -572.795
570.773;   39.712;  202.879;  114.218
571.051;   12.993; -373.123; -357.778
571.330;   50.755; -221.113; -174.796
571.608;   35.462; -181.098; -173.823
571.886;  -60.430; -671.111; -581.799
572.164;  -52.311; -739.121; -621.782
572.443;  -43.949; -562.105; -512.811
572.721;  -31.800; -399.117; -289.790
572.999;  -24.607; -280.117; -168.788
573.277;  100.745;  379.894;  620.191
573.555;  288.647;   94.894;   37.190
573.834; 1353.168;  -86.117; -114.788
574.112; 1566.035;  880.893;  811.193
574.390;  485.552; -143.111;  -96.801
574.668;   -6.688;  -91.112;  -61.797
574.946;  -11.753; -165.106; -187.810
575.224;   13.839;   71.891;  -16.803
575.502;  -10.721; -200.116; -204.791
575.780;  -93.562; -767.112; -829.798
576.058;  194.026; 1589.889; 1004.200
576.336;  -20.243; -210.110; -129.801
576.614;  -52.187; -511.112; -340.798
576.891;   48.468; -711.115; -823.794
577.169;  492.301; -158.108; -285.805
577.447;  580.409;  169.893;  202.193
577.725;  268.068;  629.888;  854.201
578.003;   12.366;  -71.112; -371.798
578.280;  102.385; -208.104; -242.812
578.558;   65.867; -450.115; -422.793
578.836;  128.225; -210.114; -145.795
579.114;   53.662; -630.112; -670.797
579.391;   77.570;   -6.117;  -18.789
579.669;  -72.481; -595.114; -704.794
579.947;  190.231; -326.107; -127.806
580.224;  325.231; -692.107; -524.806
580.502;  322.010;  127.893;   76.193
580.779;   31.401;  -42.117;   75.210
581.057;  -65.407; -584.109; -470.804
581.334;  -79.950; -726.102; -695.815
581.612;   37.173;   54.895;  511.190
581.889;  -16.862;  -83.101; -129.818
582.167;  -39.872; -298.099; -190.821
582.444;  -93.892; -845.102; -814.817
582.721;  102.034;  657.899;  715.183
582.999;   52.875; -326.100; -167.821
583.276;  542.997; -812.123; -713.779
583.553;  711.978; -364.102; -294.816
583.831;  232.857; -607.104; -631.812
584.108;   62.474;  349.892;  174.195
584.385;    4.549; -122.102;  -98.815
584.662;  -75.521; -651.111; -828.801
584.940;   41.703;  204.889;  204.199
585.217;  -11.518;  -73.113; -303.796
585.494;   28.962;   71.890;  118.198
585.771;  214.869; -250.109; -354.804
586.048;  504.582; -196.113;  -76.796
586.325;  314.581; -721.110; -773.801
586.602;   89.711;  230.896;  213.188
586.879;  -15.104; -499.100; -580.820
587.156;   52.649; -156.105; -331.810
587.433;  -33.419; -701.102; -667.817
587.710;   60.439;  152.888;  234.202
587.987;  306.779; -264.105; -236.811
588.264;  805.165;  315.888;  387.202
588.541; 1376.163;  -61.104;   26.187
588.818; 2681.296;   72.892;  171.196
589.095; 2321.559; -163.104; -174.812
589.371;  374.467; -459.109; -414.804
589.648;   17.935; -581.107; -437.807
589.925;   33.826; -517.114; -621.795
590.202;   21.238; -741.112; -607.798
590.478;  102.706; -166.105;  -73.811
590.755;  273.202; -241.108; -132.806
591.032; 2489.483; -741.110; -699.802
591.308; 3410.577; -732.094; -790.831
591.585; 1760.858; -573.110; -560.802
591.862;  130.532;-1056.102; -950.817
592.138;   71.850; -475.108; -474.805
592.415;  157.236; -486.104; -495.813
592.691; 1464.634;  460.896;  518.188
592.968; 1880.364; -208.098; -123.824
593.244;  917.203; -695.116; -595.790
593.521;   75.683; -105.102;  -42.817
593.797;  -23.974; -810.122; -720.780
594.074;  331.302; -611.096; -588.826
594.350;  662.038;  828.905;  729.172
594.626;  300.654; -303.111; -283.801
594.903;  109.658; -643.101; -645.817
595.179;  197.940;  243.896;  418.187
595.455;   15.011; -136.107; -150.807
595.731;   -0.008;  -19.103;  -38.814
596.008;  -26.127; -464.111; -434.800
596.284;   34.799; -187.100; -242.820
596.560;   44.184; -501.093; -493.833
596.836;  207.676; -173.105;  -70.810
597.112;  349.976; -582.108; -437.805
597.388;  288.750;  -49.097;  -48.826
597.665;  120.434;  437.887;  530.203
597.941;  -64.287; -572.089; -658.839
598.217;   17.886; -323.110; -293.802
598.493;  282.746;   61.891; -204.804
598.769;  519.793; -175.100;  -50.819
599.045;  308.354; -490.108; -562.806
599.321;   38.748; -193.100; -261.820
599.597;  134.945; -355.109; -476.804
599.872;  471.213;  409.896;  429.187
600.148;  365.051;  -61.097; -172.826
600.424;  294.809;   91.893;  202.193
600.700;  238.761; -170.107; -280.807
600.976;  124.946; -442.097; -464.825
601.252;  247.742; -226.109; -272.803
601.527;  210.314; -833.104; -840.813
601.803;  148.756; -453.105; -404.812
602.079;  170.968; -124.100; -118.819
602.354;  570.044; -620.092; -531.835
602.630;  828.907; -140.113; -482.796
602.906; 2297.288; -910.101; -863.818
603.181; 6649.407; -627.119; -534.786
603.457; 5621.624;   98.903; -278.826
603.733;  832.216; -605.120; -626.783
604.008;  980.123; -245.106; -164.810
604.284; 3006.210; -636.101; -580.817
604.559; 2628.918;   -3.112;  -42.799
604.835;  503.150; -163.105; -225.810
605.110;  405.903; -732.099; -892.821
605.385;  689.762;  224.907;  267.167
605.661;  652.266; -625.095; -729.829
605.936; 1171.729; -664.108; -737.806
606.211;  985.398;  -17.103; -170.815
606.487;  199.446; -329.114; -376.794
606.762;    7.658; -791.119; -745.786
607.037;  -18.424; -501.105; -433.810
607.313;  -54.916; -589.096; -574.828
607.588;   13.897; -375.106; -137.810
607.863;   48.413;  -28.101; -143.818
608.138;  177.885;  513.890;  516.198
608.413;   26.232; -576.099; -592.822
608.688;   57.075; -203.108; -267.805
608.964;  199.866; -509.106; -218.809
609.239;  237.273; -107.105; -212.810
609.514;  260.331;  281.895;  240.188
609.789;  654.735; -187.104; -716.812
610.064;  877.183; -435.096; -609.827
610.339;  869.517; -855.109; -799.804
610.614; 1161.873; -131.100; -315.820
610.889;  659.156;  215.895;  107.188
611.163;   52.332; -407.104; -591.812
611.438;   85.872;   81.886; -167.794
611.713;   16.360; -467.101; -499.817
611.988;   70.912; -144.101; -328.818
612.263;  -11.350; -771.102; -717.815
612.538;  231.106;  385.887;  251.204
612.812;  170.274; -832.100; -911.820
613.087;  141.137; -358.098; -338.823
613.362;  -54.539; -497.107; -557.807
613.637;   54.519;  261.897;  138.186
613.911;  -14.981; -256.092; -345.835
614.186;  116.434; -249.107; -292.807
614.460;  675.988; -842.081; -758.854
614.735;  792.762;  -55.087;  -17.843
615.010;  177.751;   43.912;  -82.841
615.284;  270.950;  360.892;  246.195
615.559;  379.043; -792.092; -955.835
615.833;  298.580;  -76.099;  -87.822
616.108;   13.905; -225.090; -390.837
616.382;  159.363;  274.913;  402.156
616.656;  159.530; -241.090; -232.837
616.931;  492.081; -785.099; -700.822
617.205; 1066.089; -973.104; -979.813
617.480;  987.677;  -91.125;    6.225
617.754;  157.249; -396.125; -128.774
618.028;   14.770; -369.129; -382.768
618.302;   66.698;   73.892;  -25.805
618.577;  -45.354; -371.103; -518.815
618.851;  -56.586; -399.109; -600.803
619.125;  -46.274; -335.134; -378.759
619.399;  -27.435; -244.104; -374.813
619.673;  -46.139; -330.115; -515.792
619.947;  -41.650; -333.114; -448.795
620.222;    3.304; -198.110; -204.801
620.496;    9.139;  -47.121;  -96.782
620.770;   23.430; -187.122;  -93.781
621.044;  217.449;  323.895;  346.190
621.318;  729.592; -653.120; -614.783
621.592;  656.639; -430.121; -409.783
621.866;  365.694; -476.112; -572.799
622.140;   26.904; -207.116; -356.791
622.413;   53.698;  138.889;  112.200
622.687;  -33.740; -746.101; -492.817
622.961;   17.848; -130.108; -143.805
623.235;  -59.276; -633.111; -661.800
623.509; -103.919; -816.105; -848.811
623.783;    5.632;  -12.107;   48.193
624.056;  -17.657; -254.120; -280.783
624.330;   66.762;   63.888;   -3.797
624.604;   51.626; -271.116; -355.790
624.877;   73.784;  180.890;   26.198
625.151;   37.945; -249.114; -238.794
625.425;  -35.408; -150.103; -283.814
625.698;  -50.548; -367.119; -374.785
625.972;  -82.489; -799.110; -765.802
626.245;   72.328;  685.884;  484.210
626.519;  -68.353; -426.120; -340.784
626.792;  -23.239; -192.107; -380.807
627.066;  -82.702; -485.122; -662.779
627.339;  -95.368; -736.110; -663.802
627.613;   43.020;  351.880;  148.216
627.886;   50.888;  187.891; -612.803
628.160;  -15.109;  312.880; -161.783
628.433; -103.020; -695.125; -703.775
628.706;  -84.003; -517.120; -615.784
628.979;   40.186;  296.876;  117.223
629.253;  -79.743; -785.119; -833.786
629.526;  374.839; -334.126; -253.772
629.799;  327.518; -641.123; -479.778
630.072;  160.821; -497.128; -516.769
630.346;  -65.397;-1115.116;-1080.790
630.619;  453.637; -467.107; -545.808
630.892;  614.549;  709.889;  593.200
631.165;  351.390;  790.896;  679.187
631.438;  -82.059;-1092.112;-1055.798
631.711;   46.621;  453.877;  257.221
631.984;  -56.077; -523.117; -624.789
632.257;  -60.030; -636.117; -681.789
632.530;  -44.623; -412.119; -433.785
632.803;   22.018; -109.115;    7.207
633.076;  -64.735; -360.123; -422.777
633.349;   17.975;  173.872;  121.231
633.622;  -27.449; -187.119; -240.785
633.895; -137.732; -903.120; -823.783
634.167;  -71.134; -496.126; -525.773
634.440;   -6.816;  -19.116; -137.792
634.713;    1.431;  -22.119; -120.786
634.986;   91.240;  593.871;  453.233
635.258;  -78.959; -507.115; -597.793
635.531;   90.466;  742.882; -343.788
635.804;  -24.378; -303.117; -318.789
636.077;  -85.170; -830.116; -852.791
636.349;  -15.711; -586.115; -474.793
636.622;  365.963; 1695.874; 1392.228
636.894;  242.547; -474.120; -909.784
637.167;  149.057; -836.127; -789.771
637.439;   33.754; -278.128; -213.770
637.712;  -30.485; -312.126; -293.772
637.984;  -78.894; -635.116; -707.791
638.257;  376.290;  515.877;  488.222
638.529;  572.856; -881.125; -924.776
638.802;  249.496; -508.128; -449.769
639.074; -104.945; -927.122; -952.781
639.346; -131.608; -942.135; -930.757
639.619;    9.452;  -79.142; -319.744
639.891;    1.148;  -83.122; -168.779
640.163;  -91.025; -689.122; -756.780
640.435;   36.077;  273.878;  103.220
640.708;   -2.846;  -72.122; -132.780
640.980;  -35.269; -366.122; -362.781
641.252;  205.008;  -25.121;  -71.781
641.524; 1805.909;  580.879;  573.219
641.796; 1793.536;-1094.121; -907.782
642.068;  324.238; -191.121; -300.782
642.340;  -44.035; -486.121; -566.783
642.613;   41.117;  294.880;  323.217
642.885; -105.732; -787.120; -878.783
643.157;  -43.680; -810.120; -658.784
643.428;   63.172;  170.880;  218.216
643.700;  -65.526; -498.120; -425.784
643.972;  -34.174;  -16.119; -133.785
644.244;  -84.347; -474.119; -559.785
644.516;  -52.946; -250.119; -114.786
644.788;   71.606;  662.881;  548.214
645.060;  -28.517;  -12.119; -124.786
645.332;  -99.415; -525.118; -535.787
645.603;   28.762;  479.882;  342.213
645.875;  -78.836; -334.118; -369.787
646.147;  166.765; 1487.882; 1242.212
646.418;  -58.833; -931.117; -918.788
646.690;  121.194; -714.117; -715.789
646.962;   44.071; -413.117; -451.789
647.233;   -4.377;   15.883;   11.211
647.505;  -94.075; -595.117; -475.790
647.776;   27.301;  328.884;  229.210
648.048;   -1.747; -248.116; -418.790
648.320;  -79.745; -752.116; -679.791
648.591; -143.793;-1055.116; -958.791
648.862;  -88.866; -505.116; -577.792
649.134;   14.536;  115.885;  198.208
649.405;  -48.938; -661.115; -618.792
649.677;  -55.411; -475.115; -598.793
649.948;   -7.584; -181.115; -296.793
650.219;  -15.882;  -37.115; -147.793
650.491;  -94.605; -431.114; -520.794
650.762; -106.729; -705.114; -731.794
651.033;  -86.552; -437.114; -424.795
651.304;  -91.725; -743.114; -728.795
651.576;  -60.623; -680.114; -645.795
651.847;  -27.771; -250.113; -140.796
652.118;  -32.444;  -32.113; -189.796
652.389; -117.593; -639.113; -722.796
652.660;  -23.941; -147.113;  -89.797
652.931; -124.589; -897.112; -871.797
653.202;  -96.562; -382.112; -541.798
653.473;  -54.160; -633.112; -533.798
653.744;  166.317; -595.112; -590.798
654.015;  133.593; -356.112; -303.799
654.286;  -79.230; -642.111; -663.799
654.557;  -48.678; -586.111; -521.799
654.828; -153.326;-1114.111;-1088.800
655.099;  -78.449; -404.111; -291.800
655.370;  -84.997; -427.111; -543.801
655.641; -109.371; -656.110; -714.801
655.911; -102.419; -618.110; -638.801
656.182;   51.683;  437.890;  387.198
656.453;   81.110;  830.890;  746.198
656.724;  -58.913; -466.110; -426.802
656.994;  -90.861; -553.109; -568.803
657.265; -107.035; -862.109; -873.803
657.536;  -75.233; -500.109; -377.804
657.806; -104.231; -561.109; -593.804
658.077; -131.404; -866.109; -950.804
658.347;  -86.427; -523.108; -598.805
658.618; -105.250; -646.108; -694.805
658.888;  -27.199;  -41.108;  112.195
659.159;  -64.897; -432.108; -548.806
659.429;  -26.120; -292.108; -349.806
659.700;    1.232; -435.107; -390.807
659.970;    4.109; -370.107; -359.807
660.241;    1.760; -754.107; -921.807
660.511;  486.112; -147.107; -174.808
660.781;  102.564; -793.106; -748.808
661.052;  -50.109; -222.106; -381.808
661.322;  -29.732;   21.894;   -9.809
661.592;   20.970;  257.894;  148.191
661.862;  -69.279; -369.106; -382.810
662.133;  -90.552; -551.105; -502.810
662.403; -120.425; -770.105; -676.810
662.673;  -50.973; -256.105; -213.811
662.943; -105.546; -612.105; -551.811
663.213;   -5.919;  -85.105;  -81.811
663.483;  -72.368; -593.104; -568.812
663.753;  -48.141; -194.104; -152.812
664.023;  -13.314;   68.896;  -32.813
664.293;  -54.312; -319.104; -126.813
664.563; -107.560; -694.104; -648.813
664.833; -118.058; -743.103; -608.814
665.103; -131.307; -730.103; -793.814
665.373; -121.630; -766.103; -806.814
665.643;  -79.103; -863.103; -918.815
665.913;   44.099; -534.103; -714.815
666.182;  133.201; -685.102; -719.816
666.452;  265.778;  -22.102;  -89.816
666.722;  -38.771; -724.102; -784.816
666.992; -124.869; -948.102; -921.817
667.261;  -97.167; -824.102; -808.817
667.531;  203.510;  134.899;   45.183
667.801;  529.462; -440.101; -412.818
668.070;  239.588;  714.899;  697.182
668.340;  -97.610; -883.101; -840.819
668.609;   82.567;  588.900;  301.181
668.879;  -72.206; -490.100; -558.819
669.149;  -65.429; -539.100; -516.820
669.418; -110.852; -698.100; -726.820
669.688;  -28.226; -482.100; -666.820
669.957;   67.351; -423.099; -546.821
670.226;  -21.922; -268.099; -331.821
670.496;  -90.870; -431.099; -635.822
670.765;  -72.368; -418.099; -501.822
671.034; -132.741; -872.099; -828.822
671.304;   -9.940;   55.902; -111.823
671.573; -154.338;-1085.098; -957.823
671.842;   85.289; -380.098; -294.823
672.112;   20.991; -692.098; -586.824
672.381;    6.768; -239.098; -214.824
672.650; -143.155;-1005.097;-1021.825
672.919;  -96.629; -631.097; -507.825
673.188;  -95.727; -681.097; -878.825
673.457; -148.025;-1101.097;-1143.826
673.726;  -90.298; -579.096; -646.826
673.995;  -40.296; -533.096; -479.826
674.265;  -10.944; -263.096; -333.827
674.534;   14.607; -183.096; -235.827
674.802;    8.684; -618.096; -703.828
675.071; 1001.586; -886.095; -801.828
675.340; 3858.663; -464.095; -339.828
675.609; 1294.190;  103.905;   82.171
675.878;   71.016; -949.095; -893.829
676.147;   33.993;  -26.095;   -8.829
676.416;   88.145; -210.094; -294.830
676.685;  722.997; 1000.906; -622.830
676.953;   97.524; -603.094; -452.831
677.222;  -21.849; -193.094; -273.831
677.491;  -30.123;  -24.094; -127.831
677.759;    2.554;   11.907;  172.168
678.028;  -16.269; -279.093; -222.832
678.297;   -0.217;   71.907;  197.168
678.565; -145.490; -898.093; -944.833
678.834;  -50.338; -311.093; -268.833
679.102;  -71.587; -411.092; -391.834
679.371; -134.685; -898.092; -727.834
679.639; -143.658; -797.092; -786.834
679.908; -110.431; -794.092; -724.835
680.176; -162.504; -895.091; -941.835
680.445;  -57.252; -346.091; -352.835
680.713;  -36.101;  -58.091;  -23.836
680.982;  -89.824; -523.091; -525.836
681.250; -116.772; -578.091; -507.837
681.518;  -94.045; -534.090; -751.837
681.787;  -12.243; -204.090; -167.837
682.055;  -56.566; -490.090; -422.838
682.323; -153.965; -993.090; -992.838
682.591;   31.087; -216.090; -538.838
682.859;   89.414;    9.911;  -35.839
683.128;   26.766;  232.911;  497.161
683.396; -161.382;-1102.089;-1122.840
683.664;  -20.106; -241.089;   21.160
683.932;   -4.579;  144.911;  -76.840
684.200;  -81.627; -576.088; -320.841
684.468;  -29.750;  -73.088; -124.841
684.736;  -33.048; -214.088; -175.841
685.004; -117.821;-1024.088; -982.842
685.272;  -44.670; -880.088; -774.842
685.540;  -64.718; -499.087; -557.843
685.808;  -69.266; -651.087; -682.843
686.076; -103.014; -894.087; -969.843
686.343;  -43.612; -601.087; -815.844
686.611;   39.590; -195.087; -224.844
686.879;  472.266; -530.086; -553.844
687.147; 3283.593; -483.086; -480.845
687.414;  937.695;  -12.086; -169.845
687.682;   -6.503; -658.086; -757.846
687.950;  307.899;  259.915;  263.154
688.217;   15.301; -792.085; -760.846
688.485;    7.327; -632.085; -636.847
688.753;  502.754;  -11.085; -102.847
689.020;  153.481; -820.085; -851.847
689.288;  -82.342; -853.084; -787.848
689.555;  -27.365; -195.084; -148.848
689.823;  -53.913; -241.084; -345.849
690.090;  -78.637; -546.084; -651.849
690.358; -142.210; -877.084; -897.849
690.625;    7.342;  120.917;   45.150
690.892;  -67.106; -403.083; -369.850
691.160;   -8.804;   72.917;  -35.850
691.427;    6.323;  141.917;  130.149
691.694; -144.526; -855.083; -929.851
691.962; -141.749;-1177.082;-1060.852
692.229;   14.328;  127.918;   56.148
692.496;   82.555;  130.918;  -49.852
692.763;   12.857; -164.082; -201.853
693.031;  -63.742; -739.082; -716.853
693.298;  -26.815; -509.081; -368.853
693.565;  321.337; -155.081; -163.854
693.832; 1251.589;   -5.081;   -9.854
694.099;  134.616; -643.081; -642.855
694.366;  -56.332; -882.081; -896.855
694.633;  -55.731; -920.080; -633.855
694.900;  768.521; 4367.920; -114.856
695.167;  431.048; -214.080; -380.856
695.434;   94.225; -646.080; -623.856
695.701;  200.377;  121.921;  -61.857
695.968;  468.704; -365.079; -361.857
696.234; 1007.530; -415.079; -646.858
696.501;10312.057; -776.079; -614.858
696.768; 5200.609; -554.079; -617.858
697.035;  318.761; -632.078; -667.859
697.302;   36.363; -448.078; -552.859
697.568;   10.240; -458.078; -497.859
697.835;  -43.359; -683.078; -624.860
698.102;  -19.532; -498.078; -407.860
698.368;   72.020;  384.923;  396.139
698.635;  -33.478;  -47.077; -424.861
698.901;  -15.576; -240.077; -348.861
699.168;   67.101; -534.077; -456.862
699.435;   60.427;  -72.077;  -13.862
699.701; -105.646; -868.076; -764.862
699.968;   21.531;  144.924; -441.863
700.234; -110.842; -783.076; -822.863
700.500;  -64.515; -448.076; -539.864
700.767;   -0.764;   -1.075;   26.136
701.033; -125.912;-1015.075; -963.864
701.299;  -59.110; -450.075; -483.865
701.566;  100.267;  950.925;  763.135
701.832;   31.094;  -31.075;  -76.865
702.098; -107.679;-1054.074;-1034.866
702.365;  -85.678;-1098.074;-1030.866
702.631;  -22.226;-1038.074;-1063.867
702.897; 1360.526; -765.074; -676.867
703.163; 2225.428;  348.926;  254.133
703.429;  157.430; -256.073; -273.868
703.695;  -36.993; -796.073; -792.868
703.961;   25.508; -214.073; -210.868
704.227;  -58.090; -630.073; -725.869
704.493;  131.687;  613.927;  510.131
704.759;  -30.611; -565.072; -540.870
705.025;   25.191; -203.072; -194.870
705.291;   -9.107; -666.072; -562.870
705.557;  191.394;  719.928;   34.129
705.823;   28.821; -742.072; -694.871
706.089;  134.148; -307.071; -326.871
706.355;  359.425; -315.071; -244.872
706.620; 5578.327; -776.071; -729.872
706.886; 7741.979; -309.071; -362.873
707.152;  723.280; -818.070; -973.873
707.418;  -20.918;-1153.070;-1186.873
707.683;    5.284; -550.070; -530.874
707.949;  -43.964; -547.070; -578.874
708.215;    3.938; -129.070; -207.874
708.480;  -32.261; -520.069; -420.875
708.746;   99.591;   68.931;   28.125
709.011;  -50.082; -578.069; -612.876
709.277;  -70.705; -538.069; -543.876
709.542;  -37.803; -428.069; -387.876
709.808;    2.224;  -59.068;   89.123
710.073;  -76.100; -577.068; -695.877
710.339;   -9.023; -242.068; -228.877
710.604;   77.104; -780.068; -845.878
710.869;  327.231; -277.068; -366.878
711.135;  -62.417; -715.067; -628.879
711.400;  -72.740; -507.067; -608.879
711.665;  -65.189; -404.067; -479.879
711.931;  -96.087; -661.067; -677.880
712.196; -115.835; -876.067; -954.880
712.461;  113.817; -402.066; -490.880
712.726;  131.819; -727.066; -771.881
712.991;  -87.129; -647.066; -664.881
713.256;  -54.053; -350.066; -332.882
713.521;  -57.526; -417.065; -381.882
713.787;  -54.649; -454.065; -472.882
714.052;  -21.122; -214.065; -400.883
714.317;  -91.595;-1045.065; -981.883
714.581; 1045.182; -374.065; -268.883
714.846; 1367.533; -822.064; -888.884
715.111;  130.935;  261.936;  257.116
715.376;  -19.338;  -86.064; -223.885
715.641;   -1.511; -365.064; -367.885
715.906;  280.316;   15.936; -551.885
716.171;  131.367;  221.937;  209.114
716.436;   40.594;  -78.063; -104.886
716.700; -112.879; -818.063; -692.886
716.965; -119.477; -794.063; -807.887
717.230;  -73.250; -339.063; -392.887
717.494;  -24.398;  -40.062; -134.888
717.759;  -84.772; -784.062; -640.888
718.024;   -1.170;  269.938;  250.112
718.288;   70.207;  685.938;  395.111
718.553; -147.516; -803.062; -977.889
718.817; -125.389; -883.061; -899.889
719.082;  -33.187; -115.061; -125.890
719.346; -140.986;-1000.061; -947.890
719.611;  -44.984; -300.061; -255.891
719.875;  -95.507; -568.060; -537.891
720.140;  -80.430; -453.060; -603.891
720.404;   32.597; -136.060; -249.892
720.668;  845.099; -475.060; -411.892
720.933;  316.600;  146.940;  137.108
721.197; -111.423; -667.059; -600.893
721.461; -135.321; -851.059; -826.893
721.725;   -4.819;  -21.059; -250.894
721.990;  -54.567; -284.059; -204.894
722.254;  -34.690;  -26.059; -108.894
722.518;  -83.714; -286.058; -442.895
722.782;  -94.187; -743.058; -594.895
723.046;  121.290;  614.942;  570.105
723.310;   13.692;  374.942;  210.104
723.574;  -95.506; -654.058; -614.896
723.838; -103.304; -576.057; -642.897
724.102;  -35.903; -226.057; -239.897
724.366; -141.126;-1032.057; -978.897
724.630; -103.774; -749.057; -571.898
724.894;  -85.522; -722.057; -514.898
725.158;  -11.170;   38.944; -295.898
725.422;  -50.469; -394.056; -327.899
725.685;  -76.517; -441.056; -349.899
725.949;  -77.465; -566.056; -519.900
726.213;  -69.163; -732.056; -811.900
726.477;  167.989;-1020.055; -933.900
726.740;  136.541; -274.055; -104.901
727.004;  340.367; -384.055; -510.901
727.268; 3310.344; -442.055; -400.901
727.531;  869.421; -961.055; -775.902
727.795;  -47.277; -713.054; -673.902
728.059;  -65.075; -552.054; -557.903
728.322;  -76.223; -841.054; -669.903
728.586;   22.628; -692.054; -701.903
728.849;  -72.045; -695.053; -756.904
729.112; -108.893; -812.053; -912.904
729.376; -117.391; -959.053; -905.904
729.639;  -83.039; -536.053; -536.905
729.903; -105.512; -733.053; -699.905
730.166;  -63.211; -437.052; -399.906
730.429;  -12.134; -317.052; -468.906
730.693;  -67.207; -355.052; -894.906
730.956;  210.495;  810.948;  651.093
731.219;  701.172; -310.052; -103.907
731.482;  120.049;-1003.051; -894.907
731.745;   82.125; -794.051; -935.908
732.009;   16.752;  -30.051;   50.092
732.272;  -92.471; -904.051; -771.909
732.535;  -49.694; -300.051; -310.909
732.798; -149.242;-1083.050;-1166.909
733.061;  -70.141; -430.050; -456.910
733.324;    8.011;   31.950; -180.910
733.587;   59.163;  290.950;  365.090
733.850;  -70.135; -973.049;-1050.911
734.113;   28.867;   33.951;   32.089
734.376;   -1.056; -328.049; -447.912
734.639;  227.045; 1188.951; 1011.088
734.901;   76.022; -180.049; -402.912
735.164;  511.149; -883.048; -837.913
735.427; 1299.501; -166.048; -355.913
735.690;  121.403; -205.048; -234.913
735.952;  -32.870; -923.048; -925.914
736.215;  -19.819;-1113.048;-1009.914
736.478;   40.708; -771.047; -774.915
736.740;  219.285;   33.953;  129.085
737.003;  695.762; -658.047; -672.915
737.266; 4044.989;  -94.047;   46.084
737.528;  440.441; -682.047; -660.916
737.791;  319.867; -316.046; -327.916
738.053;  831.144;  465.954;  649.083
738.316;10946.071; -162.046; -136.917
738.578; 7514.173; -770.046; -736.918
738.841;  435.475; -382.046; -446.918
739.103;  188.627; -875.045; -777.918
739.365;  525.753;   79.955;  -69.919
739.628;    4.880; -884.045; -805.919
739.890;  -26.443; -758.045; -710.919
740.152;  -41.441; -692.044; -754.920
740.414;  -16.964; -408.044; -359.920
740.677;  -46.313; -785.044; -634.921
740.939;  -32.486; -587.044; -487.921
741.201;  288.791; -432.044; -572.921
741.463;   26.843; -689.043; -745.922
741.725;   16.520;  -21.043; -199.922
741.987;   72.047;  220.957;  116.078
742.249;  -10.952; -751.043; -859.923
742.511;  205.575; -703.043; -794.923
742.773;   20.627; -546.042; -546.924
743.035;  137.404;  796.958;  533.076
743.297;  -36.144; -963.042;-1013.924
743.559;  738.483; -278.042; -262.925
743.821;   64.459; -735.042; -744.925
744.083;   13.911;  -44.041; -149.925
744.345;  -84.587; -869.041; -892.926
744.607;   36.615;   75.959;  122.074
744.868;  -63.333; -490.041; -554.927
745.130; -107.131; -994.041;-1008.927
745.392;   51.620;   -1.040;  -44.927
745.653;    3.172; -411.040; -378.928
745.915;  156.174;  896.960;  631.072
746.177;   57.801;   35.960;  -43.928
746.438;   -4.447; -428.040; -543.929
746.700;  -51.145; -947.039; -988.929
746.961;   -0.769; -659.039; -740.930
747.223;  144.408; -190.039;  -74.930
747.484;   80.185; -391.039; -471.930
747.746;  132.012;  -23.038; -106.931
748.007;  117.589; -647.038; -689.931
748.269;  293.165; -468.038; -440.931
748.530;  476.467; -852.038; -638.932
748.791;  265.869; -354.038; -420.932
749.053;  445.971;  286.963;  163.067
749.314;  461.423; -236.037; -169.933
749.575;  506.300; -945.037; -905.933
749.836;  877.076; -217.037;   86.066
750.098; 2477.028;  -60.037;  -21.934
750.359;36780.830;  414.964;  555.066
750.620; 9144.907; -121.036; -220.935
750.881; 1027.084; -585.036; -513.935
751.142; 1332.761; -950.036; -938.936
751.403;16959.787; -789.036; -705.936
751.664; 7235.264;-1034.035; -999.936
751.925;  479.616; -175.035; -262.937
752.186;  269.843; -298.035; -278.937
752.447;  126.870; -590.035; -445.937
752.708;   40.147; -532.035; -648.938
752.969;    5.448; -566.034; -576.938
753.230;  -16.100; -777.034; -672.939
753.491;    2.227; -650.034; -631.939
753.751;   61.854;  109.966;   19.061
754.012;   97.031;  258.967;  181.060
754.273;   52.733; -174.033;  -71.940
754.534;    9.234; -487.033; -580.940
754.794;  -86.414; -926.033; -911.941
755.055;  145.813; 1051.967;  881.059
755.316;  -34.135; -700.032; -566.942
755.576;  -35.783; -606.032; -576.942
755.837;  -47.756; -527.032; -695.942
756.097;  -36.155; -530.032; -564.943
756.358;  -77.528; -725.032; -770.943
756.618;  -45.126; -705.031; -641.943
756.879;   -6.274; -254.031; -349.944
757.139; -113.747;-1098.031;-1116.944
757.400;  -54.671; -538.031; -553.945
757.660;  -18.969; -365.031; -401.945
757.920;    2.808; -266.030; -228.945
758.181;  -28.465; -468.030; -351.946
758.441;  -86.963; -870.030; -809.946
758.701;  -31.561; -308.030; -215.946
758.961;  -35.410; -220.030; -278.947
759.222;  -45.633; -574.029; -502.947
759.482;  -85.581; -683.029; -723.948
759.742;  -82.429; -706.029; -547.948
760.002;   16.223;  -83.029; -143.948
760.262;   30.675;   50.972;  182.051
760.522;  -35.624; -498.028; -574.949
760.782;  -60.222; -738.028; -612.949
761.042;  -41.945; -618.028; -573.950
761.302;   57.282;   55.972;  -18.950
761.562;   50.709; -164.027; -154.951
761.822;   86.936; -710.027; -551.951
762.082;  -43.113;-1104.027;-1093.951
762.342;   60.789; -328.027; -403.952
762.601;   87.566; -567.027; -506.952
762.861;  360.993; -281.026; -207.952
763.121;  404.245; -406.026; -411.953
763.381; 7566.372; -499.026; -485.953
763.640; 8056.748; -139.026; -307.954
763.900;  348.725; -242.026; -203.954
764.160;   77.852; -458.025; -491.954
764.419;   -0.296; -726.025; -782.955
764.679;  -59.594; -795.025; -726.955
764.939;    1.757; -124.025; -210.955
765.198;  -77.216; -608.025; -563.956
765.458;  -69.089; -710.024; -612.956
765.717;  -94.137; -454.024; -590.957
765.976;  -56.510; -428.024; -411.957
766.236;  -77.133; -475.024; -610.957
766.495;   27.393;  260.977;   73.042
766.755;  -88.655;-1090.023; -987.958
767.014;   -2.103; -594.023; -665.958
767.273;  -55.001; -373.023; -397.959
767.533;  -57.124; -228.023; -307.959
767.792;  -28.672; -151.022; -188.960
768.051;  -52.121; -228.022; -276.960
768.310;  -97.294; -546.022; -650.960
768.569;   -3.092; -161.022;    4.039
768.828;  -42.715; -285.022; -363.961
769.088; -128.738;-1050.021; -942.961
769.347;  -83.111; -755.021; -599.962
769.606;  -88.310; -876.021; -857.962
769.865; -130.883;-1016.021;-1033.963
770.124;  -11.631; -411.021; -336.963
770.383;  -44.779; -778.020; -910.963
770.641;    4.023; -398.020; -400.964
770.900;  -61.025; -953.020; -846.964
771.159;  -46.224; -851.020; -951.964
771.418;   -7.647; -917.020; -779.965
771.677;  115.930; -224.019; -293.965
771.936;  132.707; -794.019; -865.966
772.194; 2234.909; -465.019; -437.966
772.453;10903.210; -213.019; -391.966
772.712;  775.912;  416.982;  329.033
772.970;  123.564;   32.982;   63.033
773.229;   85.816;  -22.018;  102.033
773.488;  -79.057; -814.018; -770.968
773.746;   56.720;  296.982;  335.032
774.005;   -7.304;  190.983;  -22.969
774.263;    3.073;  243.983;  177.031
774.522;  -39.425; -422.017; -548.969
774.780;  -87.648; -484.017; -417.970
775.039;  -98.546; -551.017; -531.970
775.297;  -26.444; -135.016; -351.970
775.555;  -99.618; -489.016; -612.971
775.814; -116.166; -618.016; -570.971
776.072; -127.089; -749.016; -740.971
776.330; -100.137; -630.016; -520.972
776.589; -116.960; -703.015; -721.972
776.847; -121.683; -645.015; -624.973
777.105; -163.732;-1016.015;-1032.973
777.363;  -79.880; -459.015; -454.973
777.621; -134.978; -660.015; -717.974
777.879;  -13.526;  -42.014;   32.026
778.138;  -90.724; -554.014; -717.974
778.396; -102.772; -585.014; -526.975
778.654; -167.846;-1015.014; -970.975
778.912;  -71.669; -269.014; -371.976
779.170; -128.717; -880.013; -803.976
779.427; -143.315; -922.013; -897.976
779.685; -139.313; -880.013; -832.977
779.943;  -76.737; -654.013; -593.977
780.201; -160.935; -964.012; -883.978
780.459; -121.558; -651.012; -610.978
780.717;  -94.556; -440.012; -390.978
780.974;  -96.929; -449.012; -490.979
781.232;  -71.652; -358.012; -338.979
781.490;  -88.376; -551.011; -472.979
781.747;  -97.274; -555.011; -476.980
782.005;   19.978;  462.989;  254.020
782.263; -166.920; -542.011;-1004.981
782.520;  -86.843; -326.011; -501.981
782.778; -174.466;-1013.010;-1051.981
783.035; -161.215; -962.010; -938.982
783.293;  -54.563; -248.010; -206.982
783.550;  -54.686; -134.010; -198.982
783.808; -136.909; -764.010; -776.983
784.065; -159.782; -745.009; -874.983
784.322;  -52.830;   25.991;  -86.984
784.580; -144.179; -915.009; -771.984
784.837;  -95.052; -392.009; -466.984
785.094; -145.400; -783.009; -762.985
785.352;  -77.548; -304.008; -404.985
785.609; -102.946; -934.008; -839.985
785.866;  -82.419; -345.008; -401.986
786.123;  -69.368; -639.008; -583.986
786.380;  -97.266; -665.008; -604.987
786.637;  -41.864; -225.007; -380.987
786.895;  -24.387; -456.007; -543.987
787.152;  -38.835; -135.007; -267.988
787.409;  -42.333; -123.007; -225.988
787.666;  -78.532; -299.006; -378.988
787.923; -107.030; -616.006; -695.989
788.179; -103.128; -551.006; -584.989
788.436; -114.726; -585.006; -585.990
788.693;  -44.099;  -92.006;  -87.990
788.950;  150.102; -125.005; -112.990
789.207;  223.979; -381.005; -372.991
789.464;  -46.669; -161.005; -301.991
789.720;    8.583;  150.995;  110.009
789.977; -180.915;-1003.005; -671.992
790.234;  -33.363;   44.996;  -66.992
790.490; -150.937; -884.004;-1031.993
790.747;  -22.210;  -85.004;   22.007
791.004;  -23.333; -426.004; -348.993
791.260;  -78.731; -430.004; -560.994
791.517; -104.229; -843.003; -788.994
791.773;  -48.052; -379.003; -342.994
792.030; -113.276; -596.003; -660.995
792.286; -108.674; -686.003; -636.995
792.543;  -12.022;  -74.002; -159.995
792.799;  -52.795; -584.002; -382.996
793.055; -167.318;-1179.002;-1210.996
793.312;  -78.016; -827.002; -816.997
793.568;  -45.590; -746.002; -599.997
793.824;   17.837; -226.001; -284.997
794.081;   17.314; -447.001; -508.998
794.337;   62.166; -664.001; -561.998
794.593; 1376.343; -319.001; -271.999
794.849; 6556.095; -746.001; -772.999
795.105;  328.596; -270.000; -261.999
795.361;   18.473; -490.000; -457.000
795.617;  -56.175; -875.000; -945.000
795.873;  -60.450; -360.000; -407.000
796.129;  -42.700; -368.000; -306.000
796.385;  -23.250; -124.000; -156.000
796.641;   70.700;  412.000;  550.000
796.897;  -89.450; -666.000; -635.000
797.153;   59.300;  453.000;  357.000
797.409; -115.125; -785.000; -868.000
797.665;  -84.825; -625.000; -732.000
797.921;  -76.400; -775.000; -762.000
798.176;  -60.750; -744.000; -747.000
798.432;  -37.675; -824.000; -596.000
798.688;  -64.825;-1174.000;-1078.000
798.943;   88.750; -165.000; -147.000
799.199;   -3.375;-1005.000; -959.000
799.455;  220.500;  369.000;  316.000
799.710;  121.250; -813.000; -380.000
799.966;  299.200; -162.000; -160.000
800.221;  466.725; -638.000; -721.000
800.477;10624.425; -743.000; -710.000
800.732; 9097.300; -773.000; -800.000
800.988;  627.125;  205.000;  -19.000
801.243; 1815.800; -454.000; -344.000
801.498; 7658.000; -814.000; -739.000
801.754;  428.150; -289.000; -163.000
802.009;   80.175; -257.000; -335.000
802.264;  -59.325; -967.000;-1033.000
802.520;   31.850;  222.000;   -3.000
802.775;  -53.425; -524.000; -359.000
803.030;   58.225;  395.000;  356.000
803.285; -122.850; -840.000; -903.000
803.540;  -62.350; -686.000; -699.000
803.795;  -44.450; -648.000; -583.000
804.051;  -34.550; -279.000; -346.000
804.306;   18.300;  168.000;  128.000
804.561;  136.750;  451.000;  362.000
804.816;  119.325;  714.000;  861.000
805.071;   26.225; -185.000; -280.000
805.325;  213.525; -257.000; -427.000
805.580; -103.225; -841.000; -877.000
805.835;  -20.500; -204.000; -297.000
806.090;  -75.625; -760.000; -676.000
806.345;  -33.725; -344.000; -264.000
806.600;  -35.900; -549.000; -632.000
806.854;  -35.900; -408.000; -538.000
807.109;  -13.000; -493.000; -577.000
807.364;    2.050; -407.000; -328.000
807.618;    4.225; -415.000; -381.000
807.873;   40.600; -470.000; -494.000
808.128;   96.600; -257.000; -518.000
808.382;  109.125; -224.000; -332.000
808.637;   90.000; -440.000; -511.000
808.891;  170.125; -257.000; -180.000
809.146;  113.025; -902.000; -794.000
809.400;  247.700; -848.000; -923.000
809.654;  336.700; -779.000; -551.000
809.909;  482.525; -841.000; -927.000
810.163; 6782.850; -813.000; -651.000
810.418;17050.800; -940.000; -861.000
810.672; 1036.725; -685.000; -690.000
810.926;  713.700; -993.000; -973.000
811.180; 1411.250; -439.000; -372.000
811.434;31954.750;  240.000;  135.000
811.689;12485.400; -231.000; -365.000
811.943;  621.475; -936.000; -953.000
812.197;  310.800; -893.000; -671.000
812.451;  122.250; -379.000; -514.000
812.705;  -24.625; -809.000; -619.000
812.959;    0.875; -263.000; -388.000
813.213;   -5.575; -283.000; -209.000
813.467;   55.175;  470.000;  253.000
813.721; -108.600; -764.000; -792.000
813.975; -119.325; -826.000; -877.000
814.229;   43.600;  430.000;  353.000
814.482;  -74.050; -517.000; -566.000
814.736; -121.350; -766.000; -744.000
814.990; -131.675; -779.000; -872.000
815.244;  -49.025; -228.000; -285.000
815.497;  -86.925; -636.000; -601.000
815.751;  -10.000; -141.000;   82.000
816.005;  -88.775; -470.000; -586.000
816.258;  -68.900; -510.000; -363.000
816.512; -117.125; -693.000; -610.000
816.766;   -0.150;  121.000;  157.000
817.019;   36.450;  148.000;  149.000
817.273; -113.800;-1000.000; -802.000
817.526;  -32.650; -206.000; -173.000
817.779;  -46.850;-1049.000; -960.000
818.033;  -68.175; -693.000; -807.000
818.286; -121.750; -725.000; -792.000
818.540;  -90.200; -403.000; -403.000
818.793;  -73.725; -402.000; -489.000
819.046; -119.175; -582.000; -520.000
819.299;  -37.325; -157.000; -166.000
819.553; -115.725; -552.000; -592.000
819.806; -155.875;-1016.000; -838.000
820.059;  -48.525; -334.000; -354.000
820.312;   14.475;  152.000;  185.000
820.565;  -33.350;  110.000;  -27.000
820.818;  -55.275;  -59.000; -173.000
821.071; -163.400;-1041.000; -957.000
821.324; -115.625; -536.000; -540.000
821.577;  -99.975; -457.000; -483.000
821.830;  -74.075; -270.000; -172.000
822.083; -130.850; -733.000; -288.000
822.336;  -53.875; -261.000; -167.000
822.589; -142.775; -805.000; -688.000
822.842; -142.375; -875.000; -770.000
823.094; -172.225;-1076.000;-1114.000
823.347; -134.650; -925.000; -729.000
823.600;    7.500;  402.000;  187.000
823.853;  -52.350; -311.000; -267.000
824.105;  -74.925; -331.000; -575.000
824.358; -115.700; -617.000; -716.000
824.611;   15.350;  234.000;   40.000
824.863;  -37.275; -612.000; -591.000
825.116;   38.875;  -33.000;   27.000
825.368;   84.450; -366.000; -372.000
825.621;  164.975; -186.000; -240.000
825.873;   95.300; -704.000; -737.000
826.126;  600.750; -669.000; -641.000
826.378;11671.800; -389.000; -505.000
826.630; 2770.800; -890.000; -898.000
826.883;   32.575; -754.000; -693.000
827.135;   39.775; -279.000; -270.000
827.387; -111.375; -893.000; -839.000
827.639;  -33.850;  -86.000;   32.000
827.892; -111.750; -742.000; -582.000
828.144; -137.075; -848.000; -804.000
828.396;  -39.125;  104.000;  -80.000
828.648; -109.175; -440.000; -333.000
828.900; -149.675; -702.000; -795.000
829.152; -124.300; -684.000; -683.000
829.404;  -67.275; -215.000; -267.000
829.656;  -56.900;  321.000;  214.000
829.908;  -21.000;  393.000;  229.000
830.160; -156.825;-1064.000;-1047.000
830.412;  -95.650; -481.000; -430.000
830.664; -138.750; -557.000; -665.000
830.916;  -87.050; -268.000; -206.000
831.167; -184.875;-1073.000; -951.000
831.419; -100.775; -623.000; -566.000
831.671; -154.225; -764.000; -809.000
831.923; -111.575; -311.000; -447.000
832.174;  -75.075; -273.000; -331.000
832.426; -114.675; -493.000; -582.000
832.678; -185.350;-1043.000;-1091.000
832.929; -165.925; -947.000; -935.000
833.181;  -74.550; -575.000; -677.000
833.432;  -40.975;  -59.000; -186.000
833.684;  -17.825;  112.000;  -27.000
833.935; -121.975; -610.000; -566.000
834.187; -132.300; -829.000; -823.000
834.438;  -47.300;  -58.000;  -25.000
834.689;  -59.400; -255.000; -123.000
834.941;  -72.450; -343.000; -244.000
835.192; -108.550; -590.000; -533.000
835.443;  -98.500; -419.000; -506.000
835.695;  -14.425;  138.000;  -16.000
835.946;  -87.900; -608.000; -378.000
836.197; -110.325; -599.000; -622.000
836.448;  -82.425; -528.000; -395.000
836.699;  -64.200; -253.000; -341.000
836.950;  -11.525;   72.000;    7.000
837.201; -149.950;-1003.000; -987.000
837.452;  -45.500; -356.000; -170.000
837.703; -117.875; -791.000; -737.000
837.954;  -43.200; -205.000; -365.000
838.205;  -94.650;-1029.000;-1008.000
838.456;  164.750; -196.000; -282.000
838.707;    7.850; -423.000; -519.000
838.958;    7.625; -634.000; -647.000
839.209;  290.375;   18.000;   40.000
839.460;  113.925; -439.000; -201.000
839.710;  136.250; -135.000; -297.000
839.961;  432.775;  730.000;  612.000
840.212;  338.200; -382.000; -497.000
840.462; 1127.500; -328.000; -277.000
840.713;18090.075; -571.000; -536.000
840.964; 7076.200;  -62.000; -143.000
841.214;  507.850; -384.000; -624.000
841.465;  571.300; -214.000; -141.000
841.715;  500.550; -417.000; -380.000
841.966;  645.100; -746.000; -685.000
842.216; 9291.575; -330.000; -431.000
842.466;34524.100; -169.000; -313.000
842.717; 1829.650; -964.000; -952.000
842.967;  323.500; -635.000; -641.000
843.217;  263.225;   20.000;   28.000
843.468;   71.750; -104.000; -132.000
843.718;  -36.425; -718.000; -726.000
843.968;  -95.625; -837.000; -765.000
844.218;    9.625; -315.000; -262.000
844.469;  -53.075; -577.000; -561.000
844.719; -117.050; -537.000; -682.000
844.969;  -91.525; -550.000; -580.000
845.219; -145.050; -814.000; -862.000
845.469;  -77.300; -392.000; -342.000
845.719; -138.300; -792.000; -884.000
845.969;  -18.900;  119.000;  174.000
846.219; -114.075; -738.000; -720.000
846.469;   22.300;  464.000;  432.000
846.718;  -42.875; -115.000;   31.000
846.968; -137.575; -827.000; -827.000
847.218;  -35.725; -224.000; -371.000
847.468;    2.500; -586.000; -555.000
847.718; -151.250; -827.000; -798.000
847.967; -127.050; -826.000; -915.000
848.217;  -74.475; -449.000; -569.000
848.467;  -70.175; -405.000; -376.000
848.716; -103.950; -708.000; -725.000
848.966;   -7.700; -372.000; -358.000
849.215;  -67.750; -428.000; -419.000
849.465;  -93.200; -785.000; -615.000
849.714; -139.200;-1132.000;-1150.000
849.964;  -55.850; -551.000; -613.000
850.213;  -40.550; -393.000; -355.000
850.463;   70.950;  137.000;  340.000
850.712;   -9.850; -542.000; -567.000
850.961;   13.850; -739.000; -678.000
851.211;   89.050; -513.000; -504.000
851.460;  163.500; -635.000; -650.000
851.709;  557.250;  -25.000;   18.000
851.958;10491.950; -912.000; -750.000
852.208;12566.000; -859.000; -879.000
852.457;  478.950; -181.000;  -13.000
852.706;   72.950; -791.000; -823.000
852.955;   10.675; -507.000; -528.000
853.204;  -61.850; -521.000; -461.000
853.453;  -84.475; -418.000; -458.000
853.702; -135.600; -660.000; -750.000
853.951; -106.825; -532.000; -520.000
854.200; -114.175; -613.000; -562.000
854.449; -140.925; -695.000; -661.000
854.698;  -97.750; -340.000; -279.000
854.946;  -66.150; -181.000; -284.000
855.195; -148.725; -843.000; -868.000
855.444;  -87.850; -395.000; -420.000
855.693; -124.225; -345.000; -432.000
855.941;  -99.650; -387.000; -516.000
856.190;  -69.075; -256.000; -382.000
856.439; -125.150; -652.000; -703.000
856.687;  -58.475;  -99.000;  -72.000
856.936; -114.150; -621.000; -323.000
857.184; -179.825;-1067.000;-1020.000
857.433;  -91.900; -423.000; -512.000
857.681; -166.825; -989.000; -953.000
857.930;  -84.750; -282.000; -433.000
858.178; -187.425; -856.000; -929.000
858.427; -147.825; -802.000; -781.000
858.675; -131.625; -377.000; -544.000
858.923; -118.425; -527.000; -819.000
859.172; -182.900;-1094.000;-1070.000
859.420; -101.425; -339.000; -239.000
859.668; -134.375; -624.000; -628.000
859.916;  -28.325;  109.000;  115.000
860.164; -118.750; -699.000; -603.000
860.413;  297.075; -878.000; -696.000
860.661;  199.175; -709.000; -577.000
860.909;  -88.350; -339.000; -325.000
861.157;  -95.700; -277.000; -444.000
861.405; -112.075; -534.000; -670.000
861.653;   13.650;  310.000;  310.000
861.901;  181.725; -543.000; -613.000
862.149;  -23.600; -801.000; -824.000
862.396;  -75.675; -297.000; -187.000
862.644;  -92.200; -368.000; -347.000
862.892;  -31.825;   98.000;  138.000
863.140; -122.100; -549.000; -530.000
863.388; -162.525; -815.000; -759.000
863.635; -136.200; -642.000; -601.000
863.883;   -6.000;  231.000;  190.000
864.131; -105.300; -288.000; -357.000
864.378; -141.650; -675.000; -540.000
864.626;  -99.500; -347.000; -415.000
864.873; -125.300; -556.000; -505.000
865.121; -150.025; -714.000; -799.000
865.368;  -44.275; -173.000;   75.000
865.616;  -45.400;  -33.000;  -40.000
865.863;  -76.250; -462.000; -506.000
866.111; -116.375; -795.000; -824.000
866.358;   24.900; -426.000; -420.000
866.605; 2282.000;  -64.000; -804.000
866.853; 2257.000; -621.000; -537.000
867.100;  -39.525; -728.000; -775.000
867.347;  -98.325; -672.000; -611.000
867.594;  -92.950; -740.000; -714.000
867.841;   89.175;   97.000;   17.000
868.089; -153.500; -746.000; -698.000
868.336; -111.375; -477.000; -420.000
868.583; -142.500; -637.000; -741.000
868.830;  -38.875; -131.000; -170.000
869.077; -169.500; -859.000; -787.000
869.324; -131.250; -502.000; -458.000
869.571; -137.800; -398.000; -430.000
869.818; -123.250; -485.000; -439.000
870.065; -106.875; -439.000; -513.000
870.311; -111.650; -456.000; -542.000
870.558; -111.150; -332.000; -311.000
870.805;  -88.875; -320.000; -384.000
871.052; -107.175; -494.000; -369.000
871.298;  -65.975; -204.000; -131.000
871.545;  -66.975; -151.000; -185.000
871.792;  -88.650; -173.000; -222.000
872.038;  -77.225;   43.000; -126.000
872.285; -128.675; -496.000; -387.000
872.532; -108.150; -357.000; -387.000
872.778;   11.525;  556.000;  403.000
873.025; -107.925; -384.000; -359.000
873.271;   23.150;  501.000;  578.000
873.517;  -32.100; -133.000; -209.000
873.764;  -36.075; -193.000;  -80.000
874.010;  -68.700; -143.000; -230.000
874.257;  -42.325;  123.000;   90.000
874.503; -130.300; -579.000; -479.000
874.749;  -65.300;   31.000;  275.000
874.995;  -65.550;  -80.000;  -20.000
875.242; -131.700; -540.000; -478.000
875.488; -119.900; -414.000; -439.000
875.734;  -49.500; -106.000; -234.000
875.980;  177.175; -872.000;-1032.000
876.226;  367.600; -157.000; -255.000
876.472;    3.600;  343.000;  237.000
876.718;  -42.075;  184.000;  158.000
876.964;  -43.725;   56.000;   55.000
877.210; -141.375; -547.000; -677.000
877.456; -140.475; -630.000; -557.000
877.702; -187.750; -821.000; -832.000
877.948; -109.775; -377.000; -497.000
878.193;   12.400;  361.000;  255.000
878.439; -103.125; -487.000; -472.000
878.685; -110.200; -272.000; -343.000
878.931; -134.600; -618.000; -676.000
879.176;  -91.400; -201.000; -201.000
879.422; -180.175; -933.000; -820.000
879.668;   80.975;   10.000;   79.000
879.913;  140.900;   53.000;  137.000
880.159;  -72.200; -112.000;  -17.000
880.404;  -52.200; -152.000; -162.000
880.650;  -39.700;   91.000;  141.000
880.895; -164.675; -670.000; -710.000
881.141; -121.800; -454.000; -428.000
881.386; -150.450; -503.000; -658.000
881.631;  -84.650; -311.000; -166.000
881.877;  -46.025;  112.000;  -13.000
882.122; -138.850; -684.000; -600.000
882.367;  -94.300; -136.000; -186.000
882.612;  -74.875;  -80.000; -176.000
882.858; -186.125; -877.000; -823.000
883.103; -107.475; -297.000; -267.000
883.348; -143.425; -759.000; -852.000
883.593; -154.225; -677.000; -602.000
883.838;  -67.750; -311.000;  -24.000
884.083;   36.275;  353.000;  288.000
884.328; -110.375; -564.000; -545.000
884.573;  -66.925; -196.000; -143.000
884.818;  192.600; -694.000; -531.000
885.063;  178.825; -348.000; -315.000
885.308; -102.975; -475.000; -398.000
885.553;   -7.025;  245.000;  325.000
885.797; -121.050; -545.000; -615.000
886.042;  -49.500;    8.000;   58.000
886.287;  -82.600; -253.000; -211.000
886.532;  -66.550;   26.000;  204.000
886.776; -114.575; -407.000; -525.000
887.021; -146.975; -621.000; -574.000
887.265; -152.700; -685.000; -689.000
887.510; -131.100; -557.000; -496.000
887.755;  -97.425; -194.000; -164.000
887.999; -141.750; -552.000; -575.000
888.244;  -66.950;  -58.000;  161.000
888.488;  -10.125;  371.000;  393.000
888.732; -132.475; -368.000; -520.000
888.977; -120.600; -622.000; -567.000
889.221; -147.550; -683.000; -659.000
889.465; -120.500; -422.000; -566.000
889.710;  -86.625;  -56.000; -299.000
889.954;    2.375;  579.000;  467.000
890.198; -159.400; -584.000; -707.000
890.442; -153.500; -716.000; -712.000
890.687; -169.575; -800.000; -753.000
890.931;  -92.725; -273.000; -210.000
891.175; -151.900; -502.000; -500.000
891.419;  -85.375; -105.000; -110.000
891.663;  -96.600; -239.000; -112.000
891.907; -166.400; -801.000; -545.000
892.151; -184.100; -920.000; -815.000
892.395; -115.925; -274.000; -387.000
892.638;  -33.525;  408.000;  291.000
892.882; -180.025; -780.000; -867.000
893.126;   12.025;  758.000;  558.000
893.370;  -86.250; -167.000; -168.000
893.614; -143.275; -714.000; -715.000
893.857;  -95.450; -183.000; -197.000
894.101; -137.350; -527.000; -631.000
894.345;  -47.050;  300.000;  150.000
894.588;   19.500;  569.000;  380.000
894.832;  -88.325; -178.000;  -84.000
895.075;  -87.800;   15.000;  -92.000
895.319; -124.925; -552.000; -420.000
895.563; -114.925; -413.000; -353.000
895.806; -156.675; -628.000; -741.000
896.049;  -75.375; -576.000; -368.000
896.293;   87.725;  527.000;  405.000
896.536;  -81.975; -465.000; -468.000
896.779;  -65.150; -149.000;   -1.000
897.023; -131.650; -751.000; -714.000
897.266;  -28.150;  325.000;  269.000
897.509; -182.250; -900.000; -901.000
897.752;  -51.375;  149.000;  171.000
897.996; -188.500; -972.000; -864.000
898.239;  -49.925;  168.000;  102.000
898.482; -130.225; -431.000; -453.000
898.725;  -37.475;  101.000;   53.000
898.968; -152.875; -609.000; -744.000
899.211; -107.825; -513.000; -361.000
899.454; -113.525; -633.000; -539.000
899.697;  -55.575;   90.000;  -43.000
899.940; -175.425; -761.000; -757.000
900.182; -118.525; -335.000; -405.000
900.425;  -92.775; -150.000; -298.000
900.668;  -13.625;  491.000;  350.000
900.911; -107.275; -292.000; -345.000
901.154;  -48.975;  141.000;   -3.000
901.396; -141.475; -407.000; -412.000
901.639; -139.350; -430.000; -496.000
901.882; -190.825; -790.000; -809.000
902.124;  -81.525;  -29.000; -143.000
902.367; -112.900; -315.000; -361.000
902.609; -133.575; -476.000; -453.000
902.852;  -94.375; -108.000; -260.000
903.094; -126.125; -458.000; -337.000
903.337;  -58.075;  -26.000;   53.000
903.579; -112.775; -228.000; -441.000
903.821; -155.925; -597.000; -744.000
904.064;  -72.475;   85.000;  127.000
904.306;  -71.375; -126.000; -166.000
904.548;  -90.350; -152.000; -366.000
904.790;  -93.225; -195.000; -340.000
905.033; -127.850; -625.000; -577.000
905.275; -135.675; -513.000; -524.000
905.517;   41.750;  468.000;  256.000
905.759;  -72.925; -667.000; -761.000
906.001; -110.300; -322.000; -369.000
906.243;  -70.025; -162.000; -224.000
906.485;  132.700; -265.000; -207.000
906.727;   91.025; -499.000; -542.000
906.969;  -38.075;  -30.000; -135.000
907.211;  119.675; -316.000; -382.000
907.453;  276.150; -188.000; -237.000
907.695;    0.525; -158.000; -385.000
907.936;   45.550;  818.000;  706.000
908.178;  -61.475;   92.000; -135.000
908.420;  -80.525; -111.000; -162.000
908.662; -129.225; -633.000; -682.000
908.903;  -97.250; -208.000; -123.000
909.145;  -55.725; -240.000; -305.000
909.386;   -8.750;  315.000;  280.000
909.628;   38.425;  363.000;  397.000
909.870;    7.425;   29.000;  264.000
910.111;  -92.525; -809.000; -949.000
910.353;    7.275; -123.000; -161.000
910.594;  -11.050; -574.000; -606.000
910.835;   93.975; -265.000; -326.000
911.077;  152.450; -503.000; -604.000
911.318;  266.975; -505.000; -471.000
911.559;  441.450; -577.000; -880.000
911.801; 1366.775; -284.000; -280.000
912.042;10634.500;  -50.000; -159.000
912.283;26840.800;  404.000;  371.000
912.524; 3944.550; -396.000; -457.000
912.765;  464.975; -193.000;   79.000
913.006;  233.225; -307.000; -338.000
913.247;   34.975; -270.000; -290.000
913.488;   -3.150;  -43.000;   30.000
913.729;  -91.150; -373.000; -373.000
913.970;  -74.300;  -96.000; -292.000
914.211;  -63.475; -160.000; -198.000
914.452;  -53.425; -118.000;  -11.000
914.693;    0.275;  510.000;  592.000
914.934;    4.050;  510.000;  440.000
915.175;  -76.000;   53.000;  -95.000
915.415;  -87.900; -137.000;   27.000
915.656;  -54.500;  -28.000;  192.000
915.897;  -99.400; -252.000;  -82.000
916.137;  -64.800;   74.000;   -9.000
916.378; -131.100; -573.000; -517.000
916.619;  -96.125; -159.000;  -63.000
916.859;  -33.050;  303.000;  330.000
917.100;  137.725; 1655.000; 1070.000
917.340;   48.450;  930.000;  728.000
917.581;   47.250;  965.000;  789.000
917.821;  -40.750; -171.000;  143.000
918.061;    9.575; -199.000;  -72.000
918.302;  -66.450; -152.000; -211.000
918.542;  -20.025;  -22.000;    3.000
918.782;   11.350;  369.000;  377.000
919.023;  138.225;  360.000;  427.000
919.263; 1337.900; 8131.000;  202.000
919.503; 1100.575; -137.000;  -54.000
919.743;  608.500;  390.000;  266.000
919.983;  254.375; -134.000;  -26.000
920.223;   76.950;  135.000;   14.000
920.463;  142.775;  631.000;  554.000
920.703;  120.600;   84.000;   39.000
920.943;  149.000; -110.000;   90.000
921.183;  225.675; -414.000; -405.000
921.423;  495.450;  307.000;  546.000
921.663;  716.725; -174.000; -257.000
921.903; 1611.025;  237.000;  173.000
922.143; 8843.275;  372.000;  389.000
922.383;33578.275;  158.000;  115.000
922.622;11051.950; -120.000;  -15.000
922.862; 1181.700;  796.000;  785.000
923.102;  447.900;  -51.000;   33.000
923.341;  164.875;   59.000;   74.000
923.581;   72.575;  450.000;  360.000
923.821;   12.225;  301.000;  398.000
924.060;    4.450;  351.000;  193.000
924.300;  -63.525;  -16.000; -128.000
924.539;   -2.300;  584.000;  473.000
924.779;   16.325;  812.000;  597.000
925.018;  -52.550;  247.000;  353.000
925.257;   11.875;  595.000;  666.000
925.497;  -45.100;  447.000;  412.000
925.736;  -82.525;  -35.000;  102.000
925.975;   -3.150;  687.000;  669.000
926.214;   33.100;  907.000;  850.000
926.454;   20.225;  706.000;  757.000
926.693;  -28.900;  419.000;  543.000
926.932;   16.100; 1021.000;  825.000
927.171;   72.400; 1107.000; 1044.000
927.410;   60.850; 1144.000;  967.000
927.649;   27.200;  924.000;  742.000
927.888;   -4.900;  590.000;  564.000
928.127;  -18.175;  680.000;  678.000
928.366;   29.050;  842.000;  826.000
928.605;   33.125;  831.000;  737.000
928.844;  239.500; 1451.000; 1393.000
929.083;  584.425;  770.000;  613.000
929.321;  315.350; 1335.000; 1359.000
929.560;   83.900; 1158.000; 1122.000
929.799;  -42.900;  574.000;  475.000
930.038;   69.925; 1025.000; 1394.000
930.276;  -55.650;  334.000;  397.000
930.515;    0.875;  827.000;  681.000
930.753;  -39.950;  614.000;  589.000
930.992;  -17.775;  664.000;  717.000
931.230;  -13.050;  847.000;  847.000
931.469;  165.200; 2162.000;  892.000
931.707;   70.625;  840.000;  751.000
931.946;   55.400; 1278.000; 1344.000
932.184;   47.925; 1437.000; 1175.000
932.423;   52.425; 1265.000;  963.000
932.661;   82.375; 1296.000; 1428.000
932.899;   17.800;  987.000;  821.000
933.137;   10.125;  754.000;  564.000
933.376;  141.525; 1664.000; 1335.000
933.614;  166.025; 1759.000; 1196.000
933.852;   50.175; 1357.000; 1171.000
934.090;  125.500; 1722.000; 1747.000
934.328;  106.225; 1252.000; 1457.000
934.566;  100.300; 1431.000; 1110.000
934.804;  117.550; 1263.000; 1309.000
935.042;  469.650; 1861.000; 1850.000
935.280; 1826.775; 2088.000; 2063.000
935.518; 1683.075; 2113.000; 2007.000
935.756;  370.975; 2481.000; 2316.000
935.994;  161.100; 1808.000; 1751.000
936.231;  352.075; 2890.000; 2950.000
936.469;  197.650; 2367.000; 2378.000
936.707;  165.200; 2220.000; 2167.000
936.945;  231.075; 2825.000; 2882.000
937.182;  227.900; 2679.000; 2741.000
937.420;  304.400; 3602.000; 3031.000
937.657;  411.450; 3365.000; 3478.000
937.895;  351.750; 3331.000; 3488.000
938.133;  300.075; 3540.000; 3528.000
938.370;  348.625; 3896.000; 4191.000
938.607;  395.250; 4488.000; 4205.000
938.845;  546.050; 5587.000; 5549.000
939.082;  485.300; 5387.000; 5177.000
939.320;  545.000; 5799.000; 5728.000
939.557;  641.900; 6549.000; 6491.000
939.794;  725.700; 7285.000; 7097.000
940.031;  906.550; 8421.000; 8368.000
940.269; 1106.800; 9552.000; 9107.000
940.506; 1134.425;10901.000;10507.000

