
Integration time [ms]: 200.000
Averaging Nr. [scans]: 10
Smoothing Nr. [pixels]: 0
Data measured with spectrometer [name]: 2101013U2
Wave   ;Sample   ;Dark     ;Reference
[nm]   ;[counts] ;[counts] ;[counts] 

394.013;   76.260; -450.257; -315.536
394.305;  390.957; -461.258; -419.536
394.596; 2062.913; -676.269; -527.514
394.887; 5151.337; -796.268; -654.518
395.178; 1992.379;  145.736;   11.476
395.470;  154.095; -210.263; -356.526
395.761;  366.257;  305.734;  394.479
396.052;  620.439; -545.284; -306.489
396.343;  586.136; -557.276; -454.503
396.634;  170.293; -200.279; -290.497
396.926;  120.833; -618.268; -565.517
397.217;  148.543;   11.725;  -17.504
397.508;   55.965; -366.273; -154.507
397.799;   47.793; -555.279; -571.497
398.090;  -75.615; -973.280; -902.495
398.381;  179.835;   11.708;  -11.473
398.672;  -60.164; -585.292; -742.473
398.963;   59.701; -348.279; -373.498
399.254;  168.449;   54.709; -209.475
399.545;  -93.547;-1017.266; -883.520
399.836;   75.121; -407.277; -343.501
400.127;   96.802; -205.295; -209.468
400.418;   96.457; -423.274; -392.506
400.709;   66.967; -359.281; -333.493
401.000;   70.554; -268.291; -309.476
401.290;  164.213;  225.698;  115.545
401.581;  130.815; -166.286; -228.485
401.872;    6.563; -542.298; -486.462
402.163;   76.091; -313.296; -252.467
402.454;  177.050; -123.291; -163.475
402.744;   65.979; -844.297; -813.465
403.035;  621.922; -226.293;  -86.471
403.326;  772.640; -366.292; -384.474
403.617;  599.855;  204.701;  165.539
403.907;  438.547; -593.283; -679.490
404.198; 4446.849; -545.307; -599.446
404.489;11450.054; -618.283; -588.491
404.779; 3807.118; -618.302; -660.456
405.070;  415.288;  -67.304; -174.451
405.360;  601.025; -259.293; -238.472
405.651;  657.534;  125.699;   98.542
405.942;  331.308;  209.714;  127.516
406.232;  366.129; -432.285; -413.487
406.523;  800.515;  641.706;  758.530
406.813;  107.211; -579.286; -644.484
407.104;  527.233;  261.708;  144.527
407.394;  254.857; -604.299; -591.462
407.685;  279.727;  336.715;  222.513
407.975;   47.652; -400.283; -382.490
408.265;  201.070; -134.289; -190.478
408.556;   96.045; -472.291; -459.475
408.846;  333.816;  474.706;  429.530
409.137;  154.882;   -1.288; -216.480
409.427;  110.228; -193.285; -271.487
409.717;   18.269; -776.273; -692.508
410.007;  245.719;    4.715; -170.486
410.298;  129.705; -360.295; -342.469
410.588;   99.825; -495.285; -510.486
410.878;    2.897; -792.287; -873.482
411.168;  153.666; -481.298; -478.463
411.459;  187.344; -295.283; -242.489
411.749;   89.443; -609.292; -507.474
412.039;   72.479; -755.289; -386.480
412.329;  369.711;   40.722;  132.501
412.619;  320.112;  -62.286; -148.485
412.909;  620.274;  639.711;  594.521
413.199;  471.485; -130.280; -251.495
413.490;  691.161;  521.710;  352.523
413.780;  147.591;-1013.279; -913.496
414.070;  536.438;  -46.276;  235.497
414.360;  556.906; -729.278; -666.498
414.650;  665.291; -726.288; -688.482
414.940;  924.790; -538.280; -441.496
415.230; 1555.287;   50.712;   74.519
415.520;10749.312;  155.730;   66.486
415.809;41979.366; -305.281; -125.493
416.099;33792.224; -388.277; -229.501
416.389; 9291.954;  435.726;  236.494
416.679; 5682.000;   91.738;   85.473
416.969;  907.903; -527.287; -503.483
417.259; 1047.993;  341.721;  171.503
417.549; 1220.065;  522.718;  318.508
417.838; 2949.836; -205.268; -147.518
418.128; 9865.968;  650.710;  492.522
418.418; 8344.178; -491.272; -579.509
418.708; 5411.854;    9.726;  -48.506
418.997;20653.648; -474.275; -480.505
419.287;22314.964; -733.273; -790.507
419.577;20500.943; -160.283; -123.489
419.866;64285.321; -588.277; -498.501
420.156;64288.607; -242.270;  -55.513
420.446;12677.189; -112.263;  -26.526
420.735; 1396.298; -376.271; -446.512
421.025; 1601.105; 1830.722;  315.502
421.314; 1009.896; -203.271; -226.512
421.604; 1887.126;   89.732;  233.484
421.893; 1083.891; -705.271; -602.511
422.183;  337.490; -487.263; -461.526
422.472;  657.693;  -36.271; -107.511
422.762;  691.961; -416.266; -379.521
423.051;  383.638; -916.276; -916.503
423.341;  504.766; -491.273; -439.507
423.630;  674.069; -121.265;   15.477
423.919;  642.647;   58.725;   49.495
424.209;  619.497;  -31.263;   56.473
424.498;  809.932;   68.732;  161.483
424.787; 1818.541; -535.267; -601.518
425.077; 5627.567;   34.735;   29.478
425.366; 7390.105; -734.262; -744.528
425.655;17028.167;  639.727;  259.493
425.945;39038.585; -313.247; -268.554
426.234;22457.137;  117.741;  300.467
426.523; 8772.344;  -86.259; -350.534
426.812;12260.655;  107.734;  159.480
427.101;17723.321; -127.269; -323.515
427.390;22345.312;  -55.270;  -86.514
427.680; 4542.471; -624.257; -411.538
427.969;  768.986; -330.255; -301.540
428.258;  505.160; -385.257; -477.536
428.547;  930.284;  449.728;  397.490
428.836; 1753.509; -421.253; -398.543
429.125; 2390.146; -199.259;  -72.534
429.414; 1242.040; -330.251; -294.548
429.703; 5368.340; -231.251; -213.548
429.992;16237.645; -938.250; -828.549
430.281;11002.480; -397.264; -331.524
430.570;  997.527;  -21.252;   32.454
430.859;  853.843;  279.741;  352.466
431.148;  766.779;  636.752;  631.446
431.437;  524.126;  391.748;  367.454
431.725;  282.562; -544.257; -481.536
432.014;  148.919; -845.253; -756.545
432.303;  629.284; -149.239; -105.569
432.592;  889.089; -460.263; -178.525
432.881; 1690.580; -601.248; -437.554
433.169;10768.287; -343.255;  -61.540
433.458;22098.431;  445.765;  540.424
433.747; 9334.013; -397.261; -289.529
434.036; 1373.951; -275.242; -280.564
434.324; 3538.763; -395.249; -379.551
434.613; 6349.742;   40.757;  159.437
434.902; 2088.570;  333.760;  439.433
435.190;  812.582;   75.761;  295.431
435.479;  464.716;  -52.245;   83.441
435.767;  172.927; -411.244; -427.561
436.056;  327.945; -340.242; -294.563
436.345;  621.874; -372.240; -223.568
436.633;  649.456;   60.750;  383.450
436.922;  388.077;  208.760;  414.432
437.210;  718.317; -194.236;    1.426
437.499; 2227.028; -583.235; -432.576
437.787; 2567.417; -339.236;  -10.574
438.075;  685.790;   56.761;  162.430
438.364;  929.994;  -44.238;  250.429
438.652;  577.439; -286.226; -138.592
438.941;  199.090;    3.770;  269.415
439.229;  -29.677; -665.252; -466.545
439.517;   31.040; -160.234;  -85.577
439.806;  -34.539; -501.225; -290.595
440.094;  305.051;  377.766;  650.421
440.382;  237.056; -653.233; -302.580
440.670;  296.928; -361.235; -285.576
440.959;   -8.214; -347.223; -170.599
441.247;  102.305; -151.229; -109.587
441.535;  121.638; -266.235;   31.423
441.823;   -4.153; -497.234; -305.578
442.111;  315.011;  173.771;  327.412
442.400;  667.315; -628.245; -335.559
442.688; 1717.850; -111.234; -620.579
442.976; 1123.708; -786.213; -450.617
443.264;  105.771; -324.224; -364.597
443.552;  148.541; -258.226;   51.408
443.840;  291.136;  602.765;  876.423
444.128;  200.355;  265.767;  269.420
444.416;  -52.485; -694.228; -312.588
444.704;   22.827; -465.219;  -92.605
444.992;  135.745;   -0.226;  240.407
445.280;   77.090; -517.230;  -94.585
445.568;   26.313; -694.212; -396.618
445.856;  451.105; -174.221;  357.398
446.143;  985.222;  -54.220;   -7.604
446.431;  788.820;  -25.228;  625.411
446.719;  367.354;  489.783;  675.391
447.007;  319.883;  481.769;  705.416
447.295;  344.881;  597.777;  871.402
447.583;  104.102; -464.229;  -34.587
447.870;  193.600; -434.221; -202.601
448.158;  502.089; -104.230;  129.415
448.446;  362.423; -800.219; -338.604
448.733;  259.173;   13.776;  269.403
449.021;  357.412;   60.788;  341.382
449.309;  268.233; -296.210;  208.379
449.596;  326.748;  128.783;   59.392
449.884;  211.791; -571.222; -325.600
450.172;  208.127; -756.227; -406.590
450.459;  732.584;  645.786;  780.387
450.747; 4100.346; -411.218; -147.608
451.034;13125.422;  493.772;  889.411
451.322;11075.089; -413.214; -170.614
451.609;  967.975;  292.777;  508.403
451.897;  948.721; -550.203; -183.634
452.184; 2992.082; -622.223; -400.598
452.472; 2916.663;   97.792;  269.375
452.759;  637.524;  512.781;  864.395
453.047;  139.409; -407.212; -125.617
453.334;   82.835; -732.219; -216.606
453.621;   91.592; -438.214; -161.615
453.909;  221.309;   13.796;  384.368
454.196;  154.772; -299.199; -123.641
454.483;  369.739;  317.798;  540.364
454.771;  198.467; -215.208;  196.374
455.058;   77.771; -316.207;  102.374
455.345;  218.749;   71.807;  344.347
455.632;  151.276; -128.207;  235.373
455.919;   76.104;  -82.196;  182.354
456.207; -139.821; -774.198; -450.642
456.494;  -48.545; -475.200;  -66.639
456.781;   14.432; -399.202; -198.635
457.068;   65.385; -253.206;  -29.628
457.355;  -28.713; -698.206; -401.629
457.642;  -36.206; -552.205; -290.630
457.929;  -53.563; -778.194; -417.651
458.216;   65.609; -575.212; -354.617
458.503;  404.043; -173.193;  -19.652
458.790;  383.764; -864.208; -630.625
459.077;  411.639;  -77.202;  110.364
459.364; 1316.027; -350.195; -210.649
459.651; 2842.282;  -46.206;  220.372
459.938; 1315.851; -864.209; -665.623
460.225;  259.444;  132.799;  276.363
460.512; -120.300; -836.197; -688.645
460.799;  178.245;  -32.218;  320.392
461.086;  110.562; -370.200; -251.640
461.372;   36.379; -509.198; -279.642
461.659;  146.505; -165.196;  108.354
461.946;   67.941; -445.193;  -54.651
462.233;  420.558;  842.800;  888.361
462.519;  520.354; -814.201; -464.639
462.806; 1604.500; -768.197; -497.645
463.093; 1443.770; -445.191;  -66.656
463.380; -101.973; -920.186; -824.664
463.666;   75.403; -259.197;  -18.646
463.953;  163.420; -406.195; -243.648
464.239;  300.220; -173.195;  -77.648
464.526;  655.435;  413.806;  743.350
464.813;  459.286; -565.190; -304.658
465.099;  565.143;  606.807;  607.348
465.386;  559.448;  903.807;  921.348
465.672;  -16.999; -694.197; -522.645
465.959;    9.311; -598.188; -520.662
466.245;   15.348; -468.193; -359.652
466.532;  148.417; -109.195;   63.352
466.818;   44.027; -357.186; -216.664
467.104;  -45.617; -488.182; -415.672
467.391;  -40.211; -628.189; -459.658
467.677;   21.732; -289.186;    9.335
467.964;  -65.702; -682.189; -471.660
468.250;  125.736; -331.186; -160.665
468.536;  153.691;   90.811;  180.341
468.822; -104.448; -821.184; -574.668
469.109;  247.695;  351.827;  471.311
469.395;  382.062;  729.808;  787.346
469.681;  325.395;   46.811;  156.341
469.967; 2020.501; -699.188; -382.660
470.254; 4406.412; -494.188; -306.662
470.540; 2921.604; -601.196; -476.646
470.826;  390.798; -488.181; -397.675
471.112;  541.257;  288.816;  113.331
471.398;  126.264; -253.183;  -58.670
471.684;   31.538; -626.177; -447.680
471.970;  -66.597; -918.180; -981.675
472.256;    2.260; -521.192; -441.654
472.542;  -12.190; -499.171; -434.691
472.828;  -13.323; -743.182; -607.672
473.114;   50.471; -380.166; -283.700
473.400;   -5.739; -504.175; -293.684
473.686;    2.080; -452.166; -400.701
473.972;   68.681; -230.174; -131.687
474.258; -119.105; -925.173; -843.689
474.544;  347.826; -183.178;   -2.679
474.830;  510.463;  -65.175;   45.316
475.116;  839.788; -123.190; -196.658
475.401; 1031.407; -558.180; -467.676
475.687;  299.905; -725.180; -718.676
475.973;  -35.312; -673.181; -770.673
476.259;  446.166;  736.825;  764.315
476.544;  562.549; -539.176; -437.682
476.830; 1347.105; -398.172; -322.690
477.116; 1235.247; -430.177; -336.682
477.401;  269.906;  346.820;  358.324
477.687;  -41.039; -289.175; -405.684
477.973;   97.993;   21.819;   28.326
478.258;  -43.092; -448.163; -348.706
478.544;   91.343;   21.815;   61.334
478.829; -116.282; -818.171; -738.692
479.115; -101.896; -749.172; -651.690
479.401;  -14.825; -444.174; -449.686
479.686;   54.604; -253.180;  -74.676
479.972;  -77.167; -886.178; -776.680
480.257;   56.173; -258.166;  -65.700
480.542;  -10.677; -614.170; -469.693
480.828;  506.658; 1288.824; 1392.317
481.113;  -60.345; -464.176; -426.683
481.399;  -21.559; -236.161; -202.711
481.684; -136.628; -620.166; -462.700
481.969;   49.660; -158.159;  -73.713
482.255;  -18.262; -439.169; -285.695
482.540;  -13.966; -569.178; -441.680
482.825;   -5.080; -395.187; -404.663
483.110;  153.143;  -85.169; -105.696
483.396;  286.790; -840.157; -652.718
483.681;  887.181;  543.826;  730.313
483.966;  252.351; -696.160; -700.712
484.251;    4.380; -404.174; -310.687
484.536;   22.987; -356.165; -378.703
484.822;   48.284; -205.173; -218.687
485.107;  -90.257; -599.152; -502.726
485.392;  272.595;  662.836;  541.296
485.677;  128.056;  354.832;  163.302
485.962;  182.986;  160.843;  270.283
486.247;  148.219;  -14.162;   -8.707
486.532;   52.174; -178.166; -325.701
486.817;  275.033;  381.839;  431.291
487.102;  178.419; -453.154; -514.722
487.387; 1082.492; -637.156; -652.718
487.672; 1924.702; -154.164;  -38.705
487.957; 1213.043; -394.160; -286.711
488.241;  302.866; -290.150; -314.729
488.526; 1191.745; -280.152; -148.726
488.811; 1888.536; -881.177; -818.680
489.096; 1449.523; -666.154; -702.723
489.381;  856.440;    3.847;  162.275
489.666;  622.141; -428.161; -510.710
489.950;  386.327;  558.846;  627.277
490.235;  -82.141; -480.151; -458.728
490.520; -113.061; -756.161; -723.710
490.804; -132.805; -827.156; -736.719
491.089;   12.588; -469.149; -299.732
491.374;   82.700; -132.164;  -75.704
491.658;  -87.296; -817.147; -717.735
491.943;  166.851; -657.152; -609.727
492.227;  333.713; -178.155;  -38.721
492.512;   60.486; -294.157; -341.717
492.797; -142.821; -713.149; -716.731
493.081; -104.092; -588.147; -598.735
493.366;  -97.359; -751.161; -635.711
493.650;  395.881;  831.859;  917.254
493.935;   37.403; -648.147; -447.734
494.219; -116.036; -778.142; -687.743
494.503;  -87.828; -585.150; -487.730
494.788;  101.974;   46.842;   74.285
495.072;  196.368;  184.850;  434.271
495.356;  265.892; -463.148; -343.733
495.641;  582.417; -812.146; -736.736
495.925;  540.702; -976.156; -903.719
496.209;   60.487; -599.149; -451.732
496.494; -127.936; -763.142; -544.744
496.778;   -1.981; -364.154; -360.722
497.062; -148.399; -819.156; -627.719
497.346;  -57.154; -869.160; -640.711
497.631;  274.997;  580.852;  560.266
497.915;  155.931;  -64.145;  175.261
498.199;  107.790; -341.157; -277.718
498.483;   40.542; -562.152; -508.725
498.767;  325.269;  301.850;  300.271
499.051;  291.584; -126.149; -100.732
499.335;    5.081; -693.149; -739.731
499.619;  -61.278; -381.129; -423.767
499.903;   37.711; -272.155;  -65.721
500.187;    0.929; -588.153; -316.724
500.471;   -1.750; -796.152; -595.727
500.755;  149.740;   62.839;  -96.710
501.039;   -9.788; -270.155; -357.721
501.323;  171.484;  -21.141;  264.254
501.607;   35.108; -447.163; -503.706
501.891;   -8.308; -607.156; -512.718
502.174;  -60.153; -726.144; -585.741
502.458;   88.655;   89.849;  370.273
502.742;  100.717; -180.138; -191.751
503.026;  191.602; -412.147; -254.734
503.310;  302.258; -437.159; -375.713
503.593;  150.305; -464.147; -325.735
503.877;  190.873; -232.133; -156.760
504.161;  266.033;    2.847;  -50.724
504.444;  108.177; -841.158; -710.716
504.728;  681.699; -487.164; -522.704
505.012; 1089.765; -257.150;  -76.729
505.295;  869.841; -417.161; -212.711
505.579;  856.001; -256.156; -496.719
505.862; 1184.326; -555.145; -333.738
506.146; 1169.662; -681.159; -758.714
506.429;  715.862;  568.841;  461.286
506.713;   90.961; -732.151; -667.728
506.996;  543.518;   90.846;  295.278
507.280;  482.092; -633.165; -474.703
507.563;  398.910; -469.155; -261.721
507.847;  159.330; -423.153; -112.724
508.130;  111.642; -665.161; -456.711
508.413;  170.567; -758.167; -577.700
508.697;  409.867; -151.167;   12.300
508.980;  258.732; -422.153; -312.724
509.263;  -45.396; -466.155; -450.720
509.547;   62.665; -124.150;   82.271
509.830;   92.845; -172.160;  140.289
510.113;  177.201;  128.844;  298.281
510.396;   42.940; -530.152; -300.725
510.680;  121.428; -818.145; -812.738
510.963;  778.025;  184.846;  180.277
511.246;  581.675; -493.150; -357.730
511.529;  350.635; -482.145;  -83.739
511.812;  635.168; -250.134;   10.241
512.095;  387.357; -740.151; -396.728
512.378;  109.610; -317.147; -245.736
512.661;   -1.272; -703.137; -623.753
512.944;   15.966; -750.142; -637.744
513.227;  122.424; -170.137; -171.752
513.510;    7.547; -479.144; -671.741
513.793;    1.590; -485.140; -435.747
514.076;  180.451;  -43.127;  -39.771
514.359;  175.988; -294.149; -135.732
514.642;   89.871; -442.142; -567.744
514.925; 1289.888;  581.860;  561.253
515.208; 1554.963; -498.134; -443.758
515.491; 1125.182; -276.133; -182.761
515.773;  600.452; -410.143; -337.742
516.056; 3407.036;  249.864;  409.246
516.339; 4379.542; -754.136; -652.755
516.622; 2822.972; -518.150; -488.730
516.904; 1655.662;  882.857;  975.257
517.187;  622.222; -730.138; -523.752
517.470;  583.960; -568.143; -510.743
517.752;  643.246; -624.136; -470.756
518.035;  501.004; -708.139; -725.749
518.318;  565.142; -799.136; -744.755
518.600; 4055.787; -300.132; -325.762
518.883; 5461.570;  310.858;   88.256
519.165; 2702.612; -585.138; -426.751
519.448;  595.387;  -61.132;  -19.762
519.730;  254.361; -573.126; -415.773
520.013;  518.077;  588.867;  664.240
520.295; 1035.071;  -94.134;  -15.759
520.578; 2226.605; -335.131; -305.764
520.860; 2612.087; -254.132;   56.238
521.143; 1387.249; -763.135; -584.756
521.425;  732.479; -251.125; -279.775
521.707; 1012.351; -622.127; -380.771
521.990; 2880.252; -199.127;  167.229
522.272; 3221.492; -116.140;   -4.748
522.554; 1438.453; -237.143; -157.742
522.836;  494.468;  -24.134;   99.241
523.119;  279.101; -496.148; -189.734
523.401;  215.615; -448.130; -314.766
523.683;   91.828; -865.137; -693.753
523.965;  487.119;  408.862;  260.248
524.247;  436.309;   54.878;  170.220
524.529;  310.970; -451.134; -367.759
524.812;  554.517;   -3.130;  191.234
525.094; 1358.618; -773.138; -631.751
525.376; 2184.592; -143.124;   78.223
525.658; 1322.238; -441.136; -339.754
525.940;  -26.600; -805.131; -671.764
526.222;   57.043; -188.136;  -88.755
526.504;  149.297; -190.131;   32.237
526.786;  138.174; -960.133; -647.760
527.068;  372.899; -124.123;  -67.778
527.349;   82.233; -865.137; -774.754
527.631;  238.587; -137.132;   22.238
527.913;  185.150; -664.127; -450.771
528.195;  193.969; -761.125; -639.774
528.477;  426.463;  -93.134;  -30.758
528.759;  164.517; -648.130; -522.766
529.040;   88.298; -569.123; -293.778
529.322;  107.373; -235.125;  -10.774
529.604;  177.120;  -47.130;   93.233
529.886;  150.261; -546.126; -302.773
530.167;  198.208;  232.870;  192.235
530.449;  102.609;    1.853;   63.265
530.731;   40.107; -572.122; -459.779
531.012;   63.236; -513.120; -216.784
531.294;  121.190; -118.116;  -43.792
531.575;  287.779;  290.875;  538.225
531.857;   85.656; -548.135; -266.757
532.138;  205.782; -113.141;   40.254
532.420;  273.851;  294.865;  403.244
532.701;  191.977; -722.133; -751.760
532.983;  501.681;  232.867;  182.239
533.264;  166.958; -243.126;  175.228
533.546;  -86.957; -491.136; -508.755
533.827;   81.572;  173.867;   -1.759
534.109;   36.556; -352.135;  -80.757
534.390;   76.592; -725.132; -582.762
534.671;  365.951; -270.135;  -82.756
534.953;  194.301; -751.123; -611.779
535.234;   28.570; -426.117; -255.789
535.515; -145.852; -891.119; -735.785
535.796;  -69.855; -431.128; -193.770
536.078; -238.909;-1050.124; -904.777
536.359;   23.502;  -22.123;    3.221
536.640;  -32.828; -480.125; -197.774
536.921;  278.727;  225.871;  143.232
537.202;  575.414;  -87.138;  -16.751
537.483;  723.904;  251.869;  377.236
537.764;  332.909;   17.870;   98.235
538.045; -106.538; -543.134; -371.758
538.326; -109.870; -596.129; -447.768
538.607;   -8.247; -686.127; -476.771
538.888;  257.224;   98.879;    5.218
539.169;  257.016; -704.122; -535.781
539.450;  520.226;  236.871;   16.233
539.731;  301.129; -361.121; -182.783
540.012;  221.636;  199.880;  412.216
540.293;  164.484;   82.876;  158.224
540.574;  -30.081; -895.113; -717.796
540.855;  731.427;  435.879;  377.218
541.136;  804.913;   47.878;  139.220
541.416;  425.118; -161.130; -220.766
541.697;  305.598; -274.131; -170.763
541.978; 1671.154; -270.135; -315.757
542.259; 2042.452; -211.127; -236.771
542.539; 1111.482; -191.116; -186.790
542.820;  366.879;  461.875;  480.225
543.101;  197.430;  -52.145;  -77.738
543.381;   -1.848; -638.127; -591.771
543.662;  461.149;  159.873; -254.771
543.942;  880.846; -751.127; -830.770
544.223; 1693.815;  193.878;  161.219
544.504; 1130.491; -275.124; -182.777
544.784;  936.961; -592.126; -408.773
545.065; 2629.187;  104.884; -254.791
545.345; 3104.248;  227.881;   14.215
545.626; 2091.318;  -14.113; -108.796
545.906; 1389.608;   77.869;   98.235
546.186;  590.267;   92.874;  -95.773
546.467;  355.595;   99.877;  -95.778
546.747;  526.482;  264.884;  327.210
547.027;  591.389;   91.876;  111.223
547.308;  490.045; -376.127; -530.770
547.588;  690.131;  299.871;  371.232
547.868;  349.509;  458.870;  588.235
548.149;  376.098;  609.885;  593.207
548.429;  197.550; -347.127; -299.771
548.709;  253.736; -645.120; -461.784
548.989;  803.761;   84.882;   88.213
549.269; 3439.885;   10.868;  139.239
549.550; 7740.700;  215.877;  117.222
549.830; 6906.643; -758.111; -556.799
550.110; 1432.854; -468.110; -320.801
550.390; 1343.208; -128.122;  -56.779
550.670; 1697.312; -868.114; -783.795
550.950; 1297.727; -509.121; -471.782
551.230;  356.421;  549.879;  460.218
551.510;  -11.675; -381.121; -326.782
551.790;   81.264; -173.109; -127.803
552.070;  523.594;  940.877; 1181.223
552.350;  692.854; -492.119; -377.786
552.630;  964.218;   -2.121;   77.219
552.909;  573.688;  181.884;   73.209
553.189;  418.594;  -49.132;   33.237
553.469;  252.853; -703.119; -514.786
553.749;  293.754; -469.127; -357.772
554.029;  291.576;   33.883;  -24.790
554.308;  237.603; -154.115;  -37.794
554.588;  100.443; -196.128; -204.770
554.868;   91.928; -366.121;  -47.782
555.147;  217.899; -114.115;  -46.793
555.427;  976.491; -260.116; -250.792
555.707; 6304.597; -284.115; -200.793
555.986; 7473.348; -719.111; -538.800
556.266; 4112.280;   23.884;   72.210
556.546;  195.925; -888.121; -675.782
556.825;  424.509; -657.114; -556.794
557.105; 2926.140; -125.128;   17.230
557.384; 3372.986;  122.884;  187.209
557.664; 1259.790; -717.116; -508.792
557.943;  181.127; -557.121; -411.782
558.222;  271.866; -345.118; -344.788
558.502;  453.101; -116.115;  -76.793
558.781;  815.595;  194.885;  499.208
559.061;  650.365; -232.118; -227.788
559.340;  520.972;  302.883;  353.211
559.619; 1138.980;   93.884;  148.210
559.899; 1642.875; -239.117; -266.789
560.178; 1502.801; -778.115; -593.793
560.457; 5161.577; -623.117; -562.790
560.736; 6869.549; -472.111; -482.800
561.015; 4751.937; -500.128; -502.769
561.295;  639.592;  180.893;  215.193
561.574;  534.797;  119.885;  116.207
561.853;  821.470;  274.891;  303.197
562.132;  826.704;  -45.114;  182.206
562.411;  722.119;  396.879;  553.219
562.690;  200.295; -592.115; -458.792
562.969;  275.828;  472.888;  630.203
563.248;  954.816; 2966.878; 2487.219
563.527;  420.048; -290.111; -408.800
563.806;  558.250; -650.127; -521.771
564.085;  664.613; -297.105; -206.810
564.364;  346.179; -594.117; -405.790
564.643;  830.419; -276.121; -223.781
564.922; 3056.362;  221.890;  397.198
565.201; 3030.967; -640.109; -700.803
565.479; 1360.993; -297.115; -219.792
565.758;  456.441; -810.128; -712.770
566.037;  724.669; -155.109; -100.803
566.316;  414.187; -286.116;  -28.791
566.595;   69.297;  -17.115;  -12.793
566.873;  214.451; -166.111;  -79.801
567.152;  -89.773; -490.113; -590.797
567.431;   27.681; -113.116;    6.210
567.709;   21.692; -344.107; -212.807
567.988;  367.509; -810.114; -769.794
568.266;  827.497; -160.115;  -68.793
568.545;  593.978; -644.100; -514.819
568.824;  997.992;  160.885;  356.208
569.102;  848.708; -351.114; -235.794
569.381;  342.591; -492.116; -407.792
569.659;  -72.678; -553.113; -553.796
569.938;    5.613; -743.122; -465.780
570.216;  164.672; -225.109; -225.804
570.494;  -54.887; -632.114; -572.795
570.773;   81.825;  202.879;  114.218
571.051;   12.999; -373.123; -357.778
571.330;  108.519; -221.113; -174.796
571.608;   54.403; -181.098; -173.823
571.886; -152.460; -671.111; -581.799
572.164; -138.872; -739.121; -621.782
572.443;  -94.282; -562.105; -512.811
572.721;  -74.823; -399.117; -289.790
572.999;  -82.032; -280.117; -168.788
573.277;  186.609;  379.894;  620.191
573.555;  523.312;   94.894;   37.190
573.834; 2225.868;  -86.117; -114.788
574.112; 2507.996;  880.893;  811.193
574.390;  788.950; -143.111;  -96.801
574.668;    1.029;  -91.112;  -61.797
574.946;   -9.088; -165.106; -187.810
575.224;   31.267;   71.891;  -16.803
575.502;  -35.916; -200.116; -204.791
575.780; -175.270; -767.112; -829.798
576.058;  316.349; 1589.889; 1004.200
576.336;   -7.143; -210.110; -129.801
576.614; -115.469; -511.112; -340.798
576.891;   62.003; -711.115; -823.794
577.169;  755.683; -158.108; -285.805
577.447;  937.295;  169.893;  202.193
577.725;  481.637;  629.888;  854.201
578.003;   42.034;  -71.112; -371.798
578.280;  157.731; -208.104; -242.812
578.558;   84.001; -450.115; -422.793
578.836;  203.213; -210.114; -145.795
579.114;   17.828; -630.112; -670.797
579.391;  117.170;   -6.117;  -18.789
579.669; -153.196; -595.114; -704.794
579.947;  298.690; -326.107; -127.806
580.224;  527.290; -692.107; -524.806
580.502;  564.496;  127.893;   76.193
580.779;   66.078;  -42.117;   75.210
581.057; -121.927; -584.109; -470.804
581.334; -194.749; -726.102; -695.815
581.612;   70.713;   54.895;  511.190
581.889;  -32.130;  -83.101; -129.818
582.167;  -51.811; -298.099; -190.821
582.444; -197.338; -845.102; -814.817
582.721;  205.663;  657.899;  715.183
582.999;   96.086; -326.100; -167.821
583.276;  832.004; -812.123; -713.779
583.553; 1131.456; -364.102; -294.816
583.831;  347.026; -607.104; -631.812
584.108;  125.680;  349.892;  174.195
584.385;   45.250; -122.102;  -98.815
584.662; -144.348; -651.111; -828.801
584.940;   80.551;  204.889;  204.199
585.217;  -24.578;  -73.113; -303.796
585.494;   80.363;   71.890;  118.198
585.771;  338.474; -250.109; -354.804
586.048;  794.322; -196.113;  -76.796
586.325;  441.455; -721.110; -773.801
586.602;  162.231;  230.896;  213.188
586.879;  -75.919; -499.100; -580.820
587.156;   63.615; -156.105; -331.810
587.433;  -90.941; -701.102; -667.817
587.710;  116.832;  152.888;  234.202
587.987;  479.622; -264.105; -236.811
588.264; 1239.234;  315.888;  387.202
588.541; 2221.835;  -61.104;   26.187
588.818; 4166.177;   72.892;  171.196
589.095; 3610.228; -163.104; -174.812
589.371;  610.171; -459.109; -414.804
589.648;    1.496; -581.107; -437.807
589.925;  -27.286; -517.114; -621.795
590.202;  -23.669; -741.112; -607.798
590.478;  156.824; -166.105;  -73.811
590.755;  444.985; -241.108; -132.806
591.032; 4040.858; -741.110; -699.802
591.308; 5210.159; -732.094; -790.831
591.585; 2756.858; -573.110; -560.802
591.862;  144.861;-1056.102; -950.817
592.138;   76.882; -475.108; -474.805
592.415;  230.832; -486.104; -495.813
592.691; 2376.529;  460.896;  518.188
592.968; 2859.206; -208.098; -123.824
593.244; 1391.381; -695.116; -595.790
593.521;  105.762; -105.102;  -42.817
593.797;  -40.290; -810.122; -720.780
594.074;  483.823; -611.096; -588.826
594.350; 1054.639;  828.905;  729.172
594.626;  503.552; -303.111; -283.801
594.903;  115.463; -643.101; -645.817
595.179;  298.437;  243.896;  418.187
595.455;    6.197; -136.107; -150.807
595.731;   -4.560;  -19.103;  -38.814
596.008;  -60.056; -464.111; -434.800
596.284;   65.984; -187.100; -242.820
596.560;  114.268; -501.093; -493.833
596.836;  305.317; -173.105;  -70.810
597.112;  520.483; -582.108; -437.805
597.388;  465.220;  -49.097;  -48.826
597.665;  226.225;  437.887;  530.203
597.941; -131.392; -572.089; -658.839
598.217;   41.263; -323.110; -293.802
598.493;  445.576;   61.891; -204.804
598.769;  732.576; -175.100;  -50.819
599.045;  459.887; -490.108; -562.806
599.321;   56.783; -193.100; -261.820
599.597;  248.875; -355.109; -476.804
599.872;  789.634;  409.896;  429.187
600.148;  570.222;  -61.097; -172.826
600.424;  501.794;   91.893;  202.193
600.700;  360.997; -170.107; -280.807
600.976;  162.214; -442.097; -464.825
601.252;  358.170; -226.109; -272.803
601.527;  304.036; -833.104; -840.813
601.803;  219.925; -453.105; -404.812
602.079;  291.076; -124.100; -118.819
602.354;  874.981; -620.092; -531.835
602.630; 1299.822; -140.113; -482.796
602.906; 3874.270; -910.101; -863.818
603.181;10379.853; -627.119; -534.786
603.457; 9024.619;   98.903; -278.826
603.733; 1296.630; -605.120; -626.783
604.008; 1570.813; -245.106; -164.810
604.284; 4540.865; -636.101; -580.817
604.559; 4108.337;   -3.112;  -42.799
604.835;  798.917; -163.105; -225.810
605.110;  631.790; -732.099; -892.821
605.385; 1147.471;  224.907;  267.167
605.661; 1032.842; -625.095; -729.829
605.936; 1744.287; -664.108; -737.806
606.211; 1573.549;  -17.103; -170.815
606.487;  289.007; -329.114; -376.794
606.762;  -25.646; -791.119; -745.786
607.037;  -62.983; -501.105; -433.810
607.313; -103.367; -589.096; -574.828
607.588;    6.412; -375.106; -137.810
607.863;   84.569;  -28.101; -143.818
608.138;  328.761;  513.890;  516.198
608.413;   49.595; -576.099; -592.822
608.688;   59.982; -203.108; -267.805
608.964;  312.504; -509.106; -218.809
609.239;  379.014; -107.105; -212.810
609.514;  457.925;  281.895;  240.188
609.789;  951.431; -187.104; -716.812
610.064; 1373.031; -435.096; -609.827
610.339; 1392.071; -855.109; -799.804
610.614; 1884.783; -131.100; -315.820
610.889; 1126.725;  215.895;  107.188
611.163;   56.026; -407.104; -591.812
611.438;  134.409;   81.886; -167.794
611.713;   15.365; -467.101; -499.817
611.988;   91.668; -144.101; -328.818
612.263;  -70.649; -771.102; -717.815
612.538;  383.721;  385.887;  251.204
612.812;  244.785; -832.100; -911.820
613.087;  197.203; -358.098; -338.823
613.362;  -73.703; -497.107; -557.807
613.637;  122.743;  261.897;  138.186
613.911;    0.382; -256.092; -345.835
614.186;  207.495; -249.107; -292.807
614.460;  999.112; -842.081; -758.854
614.735; 1219.941;  -55.087;  -17.843
615.010;  300.827;   43.912;  -82.841
615.284;  447.281;  360.892;  246.195
615.559;  541.980; -792.092; -955.835
615.833;  478.193;  -76.099;  -87.822
616.108;   -4.403; -225.090; -390.837
616.382;  273.643;  274.913;  402.156
616.656;  279.197; -241.090; -232.837
616.931;  734.894; -785.099; -700.822
617.205; 1605.436; -973.104; -979.813
617.480; 1491.576;  -91.125;    6.225
617.754;  255.073; -396.125; -128.774
618.028;    3.532; -369.129; -382.768
618.302;  126.879;   73.892;  -25.805
618.577; -115.255; -371.103; -518.815
618.851;  -92.034; -399.109; -600.803
619.125;  -80.130; -335.134; -378.759
619.399;  -38.763; -244.104; -374.813
619.673;  -88.908; -330.115; -515.792
619.947;  -73.487; -333.114; -448.795
620.222;   -2.047; -198.110; -204.801
620.496;   -0.173;  -47.121;  -96.782
620.770;   25.716; -187.122;  -93.781
621.044;  361.415;  323.895;  346.190
621.318; 1112.531; -653.120; -614.783
621.592;  979.428; -430.121; -409.783
621.866;  552.838; -476.112; -572.799
622.140;   52.884; -207.116; -356.791
622.413;  158.744;  138.889;  112.200
622.687;  -58.335; -746.101; -492.817
622.961;   35.379; -130.108; -143.805
623.235; -132.155; -633.111; -661.800
623.509; -214.376; -816.105; -848.811
623.783;   62.991;  -12.107;   48.193
624.056;  -12.367; -254.120; -280.783
624.330;   90.529;   63.888;   -3.797
624.604;   96.079; -271.116; -355.790
624.877;  176.459;  180.890;   26.198
625.151;   79.605; -249.114; -238.794
625.425;  -72.561; -150.103; -283.814
625.698;  -86.354; -367.119; -374.785
625.972; -165.737; -799.110; -765.802
626.245;  209.882;  685.884;  484.210
626.519;  -75.462; -426.120; -340.784
626.792;  -47.503; -192.107; -380.807
627.066; -154.294; -485.122; -662.779
627.339; -190.343; -736.110; -663.802
627.613;  133.236;  351.880;  148.216
627.886;  138.465;  187.891; -612.803
628.160;  -45.569;  312.880; -161.783
628.433; -164.020; -695.125; -703.775
628.706; -118.962; -517.120; -615.784
628.979;   65.389;  296.876;  117.223
629.253; -193.948; -785.119; -833.786
629.526;  608.758; -334.126; -253.772
629.799;  472.699; -641.123; -479.778
630.072;  257.034; -497.128; -516.769
630.346; -139.618;-1115.116;-1080.790
630.619;  746.398; -467.107; -545.808
630.892; 1052.546;  709.889;  593.200
631.165;  604.737;  790.896;  679.187
631.438; -206.966;-1092.112;-1055.798
631.711;  120.103;  453.877;  257.221
631.984;  -72.225; -523.117; -624.789
632.257; -164.130; -636.117; -681.789
632.530;  -81.954; -412.119; -433.785
632.803;   36.902; -109.115;    7.207
633.076; -125.806; -360.123; -422.777
633.349;   46.940;  173.872;  121.231
633.622;  -56.556; -187.119; -240.785
633.895; -228.767; -903.120; -823.783
634.167; -135.239; -496.126; -525.773
634.440;   17.290;  -19.116; -137.792
634.713;   11.051;  -22.119; -120.786
634.986;  188.325;  593.871;  453.233
635.258; -155.800; -507.115; -597.793
635.531;  263.865;  742.882; -343.788
635.804;  -63.527; -303.117; -318.789
636.077; -174.415; -830.116; -852.791
636.349;  -16.902; -586.115; -474.793
636.622;  767.857; 1695.874; 1392.228
636.894;  372.239; -474.120; -909.784
637.167;  209.349; -836.127; -789.771
637.439;   45.544; -278.128; -213.770
637.712;  -61.740; -312.126; -293.772
637.984; -148.614; -635.116; -707.791
638.257;  695.695;  515.877;  488.222
638.529;  780.981; -881.125; -924.776
638.802;  345.834; -508.128; -449.769
639.074; -203.285; -927.122; -952.781
639.346; -239.941; -942.135; -930.757
639.619;   34.668;  -79.142; -319.744
639.891;   37.006;  -83.122; -168.779
640.163; -158.891; -689.122; -756.780
640.435;   87.411;  273.878;  103.220
640.708;    2.914;  -72.122; -132.780
640.980;  -25.584; -366.122; -362.781
641.252;  309.019;  -25.121;  -71.781
641.524; 2862.021;  580.879;  573.219
641.796; 2601.124;-1094.121; -907.782
642.068;  520.826; -191.121; -300.782
642.340; -116.471; -486.121; -566.783
642.613;  111.931;  294.880;  323.217
642.885; -190.366; -787.120; -878.783
643.157; -122.564; -810.120; -658.784
643.428;  152.439;  170.880;  218.216
643.700; -100.258; -498.120; -425.784
643.972;  -27.956;  -16.119; -133.785
644.244; -145.653; -474.119; -559.785
644.516;  -55.151; -250.119; -114.786
644.788;  174.452;  662.881;  548.214
645.060;   -7.246;  -12.119; -124.786
645.332; -197.143; -525.118; -535.787
645.603;  125.159;  479.882;  342.213
645.875;  -92.238; -334.118; -369.787
646.147;  354.464; 1487.882; 1242.212
646.418; -140.433; -931.117; -918.788
646.690;  169.269; -714.117; -715.789
646.962;   92.972; -413.117; -451.789
647.233;   -7.625;   15.883;   11.211
647.505; -183.623; -595.117; -475.790
647.776;   90.280;  328.884;  229.210
648.048;  -18.318; -248.116; -418.790
648.320; -136.315; -752.116; -679.791
648.591; -267.513;-1055.116; -958.791
648.862; -138.610; -505.116; -577.792
649.134;   70.392;  115.885;  198.208
649.405; -118.905; -661.115; -618.792
649.677; -120.603; -475.115; -598.793
649.948;  -30.400; -181.115; -296.793
650.219;   16.202;  -37.115; -147.793
650.491; -134.295; -431.114; -520.794
650.762; -214.092; -705.114; -731.794
651.033; -132.990; -437.114; -424.795
651.304; -174.887; -743.114; -728.795
651.576; -119.085; -680.114; -645.795
651.847;  -62.882; -250.113; -140.796
652.118;  -25.380;  -32.113; -189.796
652.389; -178.277; -639.113; -722.796
652.660;  -40.275; -147.113;  -89.797
652.931; -232.972; -897.112; -871.797
653.202; -140.370; -382.112; -541.798
653.473; -115.167; -633.112; -533.798
653.744;  215.735; -595.112; -590.798
654.015;  220.038; -356.112; -303.799
654.286; -122.660; -642.111; -663.799
654.557;  -93.257; -586.111; -521.799
654.828; -287.654;-1114.111;-1088.800
655.099; -142.352; -404.111; -291.800
655.370; -151.949; -427.111; -543.801
655.641; -228.847; -656.110; -714.801
655.911; -193.344; -618.110; -638.801
656.182;  132.858;  437.890;  387.198
656.453;  250.761;  830.890;  746.198
656.724; -128.737; -466.110; -426.802
656.994; -136.934; -553.109; -568.803
657.265; -194.632; -862.109; -873.803
657.536; -139.929; -500.109; -377.804
657.806; -179.527; -561.109; -593.804
658.077; -261.024; -866.109; -950.804
658.347; -144.221; -523.108; -598.805
658.618; -212.919; -646.108; -694.805
658.888;  -26.816;  -41.108;  112.195
659.159; -119.814; -432.108; -548.806
659.429;  -38.911; -292.108; -349.806
659.700;   19.191; -435.107; -390.807
659.970;   -0.606; -370.107; -359.807
660.241;  -24.804; -754.107; -921.807
660.511;  811.799; -147.107; -174.808
660.781;  122.401; -793.106; -748.808
661.052;  -84.296; -222.106; -381.808
661.322;   -6.794;   21.894;   -9.809
661.592;   79.809;  257.894;  148.191
661.862; -126.489; -369.106; -382.810
662.133; -153.986; -551.105; -502.810
662.403; -228.883; -770.105; -676.810
662.673;  -61.381; -256.105; -213.811
662.943; -169.078; -612.105; -551.811
663.213;   25.024;  -85.105;  -81.811
663.483; -134.273; -593.104; -568.812
663.753;  -67.371; -194.104; -152.812
664.023;   19.732;   68.896;  -32.813
664.293;  -87.866; -319.104; -126.813
664.563; -190.463; -694.104; -648.813
664.833; -206.361; -743.103; -608.814
665.103; -234.458; -730.103; -793.814
665.373; -206.756; -766.103; -806.814
665.643; -163.253; -863.103; -918.815
665.913;   35.650; -534.103; -714.815
666.182;  185.252; -685.102; -719.816
666.452;  415.055;  -22.102;  -89.816
666.722;  -68.243; -724.102; -784.816
666.992; -250.040; -948.102; -921.817
667.261; -187.238; -824.102; -808.817
667.531;  332.065;  134.899;   45.183
667.801;  752.567; -440.101; -412.818
668.070;  453.870;  714.899;  697.182
668.340; -184.728; -883.101; -840.819
668.609;  214.775;  588.900;  301.181
668.879; -148.323; -490.100; -558.819
669.149; -121.220; -539.100; -516.820
669.418; -190.717; -698.100; -726.820
669.688;  -41.815; -482.100; -666.820
669.957;  117.888; -423.099; -546.821
670.226;  -76.710; -268.099; -331.821
670.496; -162.507; -431.099; -635.822
670.765; -109.805; -418.099; -501.822
671.034; -219.202; -872.099; -828.822
671.304;   35.400;   55.902; -111.823
671.573; -263.297;-1085.098; -957.823
671.842;  126.405; -380.098; -294.823
672.112;   29.008; -692.098; -586.824
672.381;    5.610; -239.098; -214.824
672.650; -240.487;-1005.097;-1021.825
672.919; -195.585; -631.097; -507.825
673.188; -170.082; -681.097; -878.825
673.457; -268.179;-1101.097;-1143.826
673.726; -159.777; -579.096; -646.826
673.995;  -57.774; -533.096; -479.826
674.265;  -26.572; -263.096; -333.827
674.534;   25.931; -183.096; -235.827
674.802;    8.233; -618.096; -703.828
675.071; 1741.636; -886.095; -801.828
675.340; 5873.538; -464.095; -339.828
675.609; 2057.841;  103.905;   82.171
675.878;   63.143; -949.095; -893.829
676.147;   82.746;  -26.095;   -8.829
676.416;  188.548; -210.094; -294.830
676.685; 1269.651; 1000.906; -622.830
676.953;  161.954; -603.094; -452.831
677.222;  -31.144; -193.094; -273.831
677.491;   -7.641;  -24.094; -127.831
677.759;   19.161;   11.907;  172.168
678.028;   -2.536; -279.093; -222.832
678.297;   57.466;   71.907;  197.168
678.565; -281.431; -898.093; -944.833
678.834;  -76.829; -311.093; -268.833
679.102; -127.426; -411.092; -391.834
679.371; -252.724; -898.092; -727.834
679.639; -249.321; -797.092; -786.834
679.908; -215.319; -794.092; -724.835
680.176; -306.116; -895.091; -941.835
680.445;  -76.913; -346.091; -352.835
680.713;   -9.711;  -58.091;  -23.836
680.982; -161.208; -523.091; -525.836
681.250; -183.706; -578.091; -507.837
681.518; -154.003; -534.090; -751.837
681.787;    3.999; -204.090; -167.837
682.055;  -93.198; -490.090; -422.838
682.323; -245.996; -993.090; -992.838
682.591;   37.107; -216.090; -538.838
682.859;  125.109;    9.911;  -35.839
683.128;   90.912;  232.911;  497.161
683.396; -315.386;-1102.089;-1122.840
683.664;  -40.783; -241.089;   21.160
683.932;   50.319;  144.911;  -76.840
684.200; -128.078; -576.088; -320.841
684.468;  -12.275;  -73.088; -124.841
684.736;  -11.073; -214.088; -175.841
685.004; -225.570;-1024.088; -982.842
685.272; -112.668; -880.088; -774.842
685.540; -117.565; -499.087; -557.843
685.808; -127.463; -651.087; -682.843
686.076; -200.460; -894.087; -969.843
686.343; -126.158; -601.087; -815.844
686.611;   72.545; -195.087; -224.844
686.879;  828.347; -530.086; -553.844
687.147; 4886.950; -483.086; -480.845
687.414; 1427.352;  -12.086; -169.845
687.682;  -12.245; -658.086; -757.846
687.950;  517.758;  259.915;  263.154
688.217;  -16.240; -792.085; -760.846
688.485;   -5.437; -632.085; -636.847
688.753;  783.865;  -11.085; -102.847
689.020;  205.768; -820.085; -851.847
689.288; -173.930; -853.084; -787.848
689.555;  -11.627; -195.084; -148.848
689.823;  -60.825; -241.084; -345.849
690.090; -136.822; -546.084; -651.849
690.358; -256.120; -877.084; -897.849
690.625;   -7.917;  120.917;   45.150
690.892; -104.715; -403.083; -369.850
691.160;    0.688;   72.917;  -35.850
691.427;   44.891;  141.917;  130.149
691.694; -249.607; -855.083; -929.851
691.962; -265.804;-1177.082;-1060.852
692.229;   51.098;  127.918;   56.148
692.496;  143.401;  130.918;  -49.852
692.763;   15.703; -164.082; -201.853
693.031; -129.694; -739.082; -716.853
693.298;  -69.292; -509.081; -368.853
693.565;  581.811; -155.081; -163.854
693.832; 1893.713;   -5.081;   -9.854
694.099;  181.616; -643.081; -642.855
694.366; -130.682; -882.081; -896.855
694.633; -121.079; -920.080; -633.855
694.900; 1607.123; 4367.920; -114.856
695.167;  636.926; -214.080; -380.856
695.434;  119.029; -646.080; -623.856
695.701;  339.631;  121.921;  -61.857
695.968;  736.234; -365.079; -361.857
696.234; 1703.736; -415.079; -646.858
696.501;15401.439; -776.079; -614.858
696.768; 7473.341; -554.079; -617.858
697.035;  432.544; -632.078; -667.859
697.302;   37.246; -448.078; -552.859
697.568;   22.649; -458.078; -497.859
697.835;  -62.849; -683.078; -624.860
698.102;  -46.246; -498.078; -407.860
698.368;  198.056;  384.923;  396.139
698.635;  -37.741;  -47.077; -424.861
698.901;    7.062; -240.077; -348.861
699.168;  101.064; -534.077; -456.862
699.435;  123.767;  -72.077;  -13.862
699.701; -237.631; -868.076; -764.862
699.968;  -69.228;  144.924; -441.863
700.234; -190.326; -783.076; -822.863
700.500; -103.323; -448.076; -539.864
700.767;   48.679;   -1.075;   26.136
701.033; -230.318;-1015.075; -963.864
701.299;  -87.916; -450.075; -483.865
701.566;  274.787;  950.925;  763.135
701.832;   81.889;  -31.075;  -76.865
702.098; -214.608;-1054.074;-1034.866
702.365; -195.806;-1098.074;-1030.866
702.631; -100.403;-1038.074;-1063.867
702.897; 2183.200; -765.074; -676.867
703.163; 3266.302;  348.926;  254.133
703.429;  258.105; -256.073; -273.868
703.695;  -79.293; -796.073; -792.868
703.961;   84.710; -214.073; -210.868
704.227;  -94.688; -630.073; -725.869
704.493;  270.715;  613.927;  510.131
704.759;  -37.383; -565.072; -540.870
705.025;   68.220; -203.072; -194.870
705.291;  -38.978; -666.072; -562.870
705.557;  363.925;  719.928;   34.129
705.823;   23.027; -742.072; -694.871
706.089;  197.130; -307.071; -326.871
706.355;  557.033; -315.071; -244.872
706.620; 8323.535; -776.071; -729.872
706.886;10779.138; -309.071; -362.873
707.152;  979.440; -818.070; -973.873
707.418;  -73.757;-1153.070;-1186.873
707.683;  -39.955; -550.070; -530.874
707.949;  -78.152; -547.070; -578.874
708.215;   -3.150; -129.070; -207.874
708.480;  -21.747; -520.069; -420.875
708.746;  151.055;   68.931;   28.125
709.011; -112.942; -578.069; -612.876
709.277; -120.640; -538.069; -543.876
709.542;  -51.337; -428.069; -387.876
709.808;    9.666;  -59.068;   89.123
710.073; -126.032; -577.068; -695.877
710.339;  -20.529; -242.068; -228.877
710.604;  114.073; -780.068; -845.878
710.869;  480.776; -277.068; -366.878
711.135; -140.522; -715.067; -628.879
711.400; -126.219; -507.067; -608.879
711.665;  -87.217; -404.067; -479.879
711.931; -170.014; -661.067; -677.880
712.196; -202.912; -876.067; -954.880
712.461;  203.391; -402.066; -490.880
712.726;  154.193; -727.066; -771.881
712.991; -159.304; -647.066; -664.881
713.256;  -60.502; -350.066; -332.882
713.521;  -68.599; -417.065; -381.882
713.787;  -98.596; -454.065; -472.882
714.052;  -51.094; -214.065; -400.883
714.317; -216.791;-1045.065; -981.883
714.581; 1524.511; -374.065; -268.883
714.846; 1794.614; -822.064; -888.884
715.111;  270.616;  261.936;  257.116
715.376;  -31.981;  -86.064; -223.885
715.641;    3.321; -365.064; -367.885
715.906;  470.024;   15.936; -551.885
716.171;  271.926;  221.937;  209.114
716.436;  103.629;  -78.063; -104.886
716.700; -185.869; -818.063; -692.886
716.965; -232.766; -794.063; -807.887
717.230; -108.163; -339.063; -392.887
717.494;  -22.761;  -40.062; -134.888
717.759; -133.958; -784.062; -640.888
718.024;   90.144;  269.938;  250.112
718.288;  209.147;  685.938;  395.111
718.553; -264.551; -803.062; -977.889
718.817; -278.848; -883.061; -899.889
719.082;  -41.246; -115.061; -125.890
719.346; -246.043;-1000.061; -947.890
719.611;  -59.241; -300.061; -255.891
719.875; -191.838; -568.060; -537.891
720.140; -101.936; -453.060; -603.891
720.404;  110.267; -136.060; -249.892
720.668; 1272.770; -475.060; -411.892
720.933;  502.572;  146.940;  137.108
721.197; -190.225; -667.059; -600.893
721.461; -233.323; -851.059; -826.893
721.725;   23.280;  -21.059; -250.894
721.990;  -85.718; -284.059; -204.894
722.254;   -5.015;  -26.059; -108.894
722.518; -101.113; -286.058; -442.895
722.782; -147.210; -743.058; -594.895
723.046;  282.792;  614.942;  570.105
723.310;  114.195;  374.942;  210.104
723.574; -170.403; -654.058; -614.896
723.838; -158.600; -576.057; -642.897
724.102;  -35.098; -226.057; -239.897
724.366; -237.495;-1032.057; -978.897
724.630; -179.192; -749.057; -571.898
724.894; -134.090; -722.057; -514.898
725.158;   15.913;   38.944; -295.898
725.422;  -85.085; -394.056; -327.899
725.685; -116.982; -441.056; -349.899
725.949; -139.980; -566.056; -519.900
726.213; -150.877; -732.056; -811.900
726.477;  244.725;-1020.055; -933.900
726.740;  209.728; -274.055; -104.901
727.004;  544.030; -384.055; -510.901
727.268; 4725.133; -442.055; -400.901
727.531; 1109.035; -961.055; -775.902
727.795;  -66.862; -713.054; -673.902
728.059; -112.359; -552.054; -557.903
728.322; -147.957; -841.054; -669.903
728.586;   -7.354; -692.054; -701.903
728.849; -139.352; -695.053; -756.904
729.112; -230.349; -812.053; -912.904
729.376; -217.547; -959.053; -905.904
729.639; -111.044; -536.053; -536.905
729.903; -189.242; -733.053; -699.905
730.166;  -67.739; -437.052; -399.906
730.429;  -38.537; -317.052; -468.906
730.693;  -79.634; -355.052; -894.906
730.956;  431.068;  810.948;  651.093
731.219; 1013.871; -310.052; -103.907
731.482;  156.174;-1003.051; -894.907
731.745;   73.876; -794.051; -935.908
732.009;   61.279;  -30.051;   50.092
732.272; -188.919; -904.051; -771.909
732.535;  -60.416; -300.051; -310.909
732.798; -261.114;-1083.050;-1166.909
733.061; -102.511; -430.050; -456.910
733.324;   40.291;   31.950; -180.910
733.587;  150.794;  290.950;  365.090
733.850; -112.904; -973.049;-1050.911
734.113;  110.699;   33.951;   32.089
734.376;    8.701; -328.049; -447.912
734.639;  448.704; 1188.951; 1011.088
734.901;  136.006; -180.049; -402.912
735.164;  826.109; -883.048; -837.913
735.427; 1870.312; -166.048; -355.913
735.690;  218.014; -205.048; -234.913
735.952;  -61.983; -923.048; -925.914
736.215; -100.381;-1113.048;-1009.914
736.478;   82.222; -771.047; -774.915
736.740;  366.124;   33.953;  129.085
737.003; 1181.227; -658.047; -672.915
737.266; 5974.729;  -94.047;   46.084
737.528;  603.232; -682.047; -660.916
737.791;  520.734; -316.046; -327.916
738.053; 1350.737;  465.954;  649.083
738.316;16803.439; -162.046; -136.917
738.578;10042.042; -770.046; -736.918
738.841;  651.345; -382.046; -446.918
739.103;  289.747; -875.045; -777.918
739.365;  773.450;   79.955;  -69.919
739.628;  -32.148; -884.045; -805.919
739.890;  -55.645; -758.045; -710.919
740.152;  -91.043; -692.044; -754.920
740.414;    4.160; -408.044; -359.920
740.677;  -72.838; -785.044; -634.921
740.939;  -82.635; -587.044; -487.921
741.201;  425.867; -432.044; -572.921
741.463;   62.370; -689.043; -745.922
741.725;   27.172;  -21.043; -199.922
741.987;  160.275;  220.957;  116.078
742.249;   17.077; -751.043; -859.923
742.511;  313.280; -703.043; -794.923
742.773;    3.683; -546.042; -546.924
743.035;  279.885;  796.958;  533.076
743.297;  -77.412; -963.042;-1013.924
743.559; 1125.490; -278.042; -262.925
743.821;   55.493; -735.042; -744.925
744.083;   -8.205;  -44.041; -149.925
744.345; -158.002; -869.041; -892.926
744.607;  109.600;   75.959;  122.074
744.868;  -88.397; -490.041; -554.927
745.130; -166.395; -994.041;-1008.927
745.392;  126.808;   -1.040;  -44.927
745.653;   -8.190; -411.040; -378.928
745.915;  348.213;  896.960;  631.072
746.177;  120.516;   35.960;  -43.928
746.438;  -24.682; -428.040; -543.929
746.700;  -68.779; -947.039; -988.929
746.961;  -16.777; -659.039; -740.930
747.223;  219.626; -190.039;  -74.930
747.484;  132.928; -391.039; -471.930
747.746;  271.031;  -23.038; -106.931
748.007;  155.433; -647.038; -689.931
748.269;  473.336; -468.038; -440.931
748.530;  670.538; -852.038; -638.932
748.791;  412.641; -354.038; -420.932
749.053;  717.043;  286.963;  163.067
749.314;  717.046; -236.037; -169.933
749.575;  752.949; -945.037; -905.933
749.836; 1332.451; -217.037;   86.066
750.098; 4506.854;  -60.037;  -21.934
750.359;55026.556;  414.964;  555.066
750.620;12023.359; -121.036; -220.935
750.881; 1610.661; -585.036; -513.935
751.142; 2169.964; -950.036; -938.936
751.403;25561.266; -789.036; -705.936
751.664; 9397.369;-1034.035; -999.936
751.925;  786.771; -175.035; -262.937
752.186;  457.274; -298.035; -278.937
752.447;  232.276; -590.035; -445.937
752.708;   67.679; -532.035; -648.938
752.969;   12.781; -566.034; -576.938
753.230;  -32.116; -777.034; -672.939
753.491;    7.487; -650.034; -631.939
753.751;  152.589;  109.966;   19.061
754.012;  222.092;  258.967;  181.060
754.273;  152.694; -174.033;  -71.940
754.534;   52.697; -487.033; -580.940
754.794; -186.901; -926.033; -911.941
755.055;  328.602; 1051.967;  881.059
755.316;  -86.896; -700.032; -566.942
755.576;   -8.893; -606.032; -576.942
755.837;  -74.591; -527.032; -695.942
756.097;  -40.488; -530.032; -564.943
756.358;  -95.086; -725.032; -770.943
756.618;  -78.283; -705.031; -641.943
756.879;   14.620; -254.031; -349.944
757.139; -244.178;-1098.031;-1116.944
757.400;  -78.675; -538.031; -553.945
757.660;    4.927; -365.031; -401.945
757.920;   26.230; -266.030; -228.945
758.181;    1.632; -468.030; -351.946
758.441; -166.865; -870.030; -809.946
758.701;  -33.363; -308.030; -215.946
758.961;   -1.960; -220.030; -278.947
759.222;  -44.458; -574.029; -502.947
759.482; -130.755; -683.029; -723.948
759.742; -136.253; -706.029; -547.948
760.002;   56.050;  -83.029; -143.948
760.262;   74.653;   50.972;  182.051
760.522;  -56.745; -498.028; -574.949
760.782;  -99.142; -738.028; -612.949
761.042;  -66.340; -618.028; -573.950
761.302;  114.963;   55.972;  -18.950
761.562;  116.865; -164.027; -154.951
761.822;  137.968; -710.027; -551.951
762.082; -106.330;-1104.027;-1093.951
762.342;  117.873; -328.027; -403.952
762.601;  122.175; -567.027; -506.952
762.861;  577.478; -281.026; -207.952
763.121;  671.280; -406.026; -411.953
763.381;12036.283; -499.026; -485.953
763.640;11018.685; -139.026; -307.954
763.900;  560.088; -242.026; -203.954
764.160;   96.291; -458.025; -491.954
764.419;  -34.807; -726.025; -782.955
764.679; -124.304; -795.025; -726.955
764.939;   55.398; -124.025; -210.955
765.198; -115.299; -608.025; -563.956
765.458; -138.497; -710.024; -612.956
765.717; -129.994; -454.024; -590.957
765.976;  -93.592; -428.024; -411.957
766.236;  -97.189; -475.024; -610.957
766.495;   64.213;  260.977;   73.042
766.755; -175.484;-1090.023; -987.958
767.014;   17.318; -594.023; -665.958
767.273;  -55.479; -373.023; -397.959
767.533;  -49.276; -228.023; -307.959
767.792;   -3.774; -151.022; -188.960
768.051;  -76.771; -228.022; -276.960
768.310; -133.669; -546.022; -650.960
768.569;   44.634; -161.022;    4.039
768.828;  -32.664; -285.022; -363.961
769.088; -241.061;-1050.021; -942.961
769.347; -130.459; -755.021; -599.962
769.606; -170.556; -876.021; -857.962
769.865; -214.054;-1016.021;-1033.963
770.124;   14.149; -411.021; -336.963
770.383; -107.849; -778.020; -910.963
770.641;   23.754; -398.020; -400.964
770.900; -132.343; -953.020; -846.964
771.159; -114.541; -851.020; -951.964
771.418;  -60.438; -917.020; -779.965
771.677;  214.164; -224.019; -293.965
771.936;  167.667; -794.019; -865.966
772.194; 3830.669; -465.019; -437.966
772.453;15250.072; -213.019; -391.966
772.712; 1118.374;  416.982;  329.033
772.970;  247.277;   32.982;   63.033
773.229;  183.479;  -22.018;  102.033
773.488; -146.718; -814.018; -770.968
773.746;  141.584;  296.982;  335.032
774.005;   55.987;  190.983;  -22.969
774.263;   51.889;  243.983;  177.031
774.522; -144.908; -422.017; -548.969
774.780; -112.905; -484.017; -417.970
775.039; -143.303; -551.017; -531.970
775.297;  -23.600; -135.016; -351.970
775.555; -157.398; -489.016; -612.971
775.814; -188.895; -618.016; -570.971
776.072; -190.493; -749.016; -740.971
776.330; -146.690; -630.016; -520.972
776.589; -208.288; -703.015; -721.972
776.847; -191.985; -645.015; -624.973
777.105; -287.783;-1016.015;-1032.973
777.363; -101.380; -459.015; -454.973
777.621; -244.778; -660.015; -717.974
777.879;   19.425;  -42.014;   32.026
778.138; -153.672; -554.014; -717.974
778.396; -152.370; -585.014; -526.975
778.654; -297.367;-1015.014; -970.975
778.912;  -80.865; -269.014; -371.976
779.170; -248.062; -880.013; -803.976
779.427; -244.160; -922.013; -897.976
779.685; -242.657; -880.013; -832.977
779.943; -140.855; -654.013; -593.977
780.201; -277.252; -964.012; -883.978
780.459; -175.550; -651.012; -610.978
780.717; -107.347; -440.012; -390.978
780.974; -139.345; -449.012; -490.979
781.232;  -87.042; -358.012; -338.979
781.490; -140.440; -551.011; -472.979
781.747; -135.637; -555.011; -476.980
782.005;   74.666;  462.989;  254.020
782.263; -303.732; -542.011;-1004.981
782.520; -108.329; -326.011; -501.981
782.778; -297.027;-1013.010;-1051.981
783.035; -281.124; -962.010; -938.982
783.293;  -81.322; -248.010; -206.982
783.550;  -28.619; -134.010; -198.982
783.808; -220.817; -764.010; -776.983
784.065; -267.614; -745.009; -874.983
784.322;  -19.312;   25.991;  -86.984
784.580; -246.609; -915.009; -771.984
784.837; -144.807; -392.009; -466.984
785.094; -216.604; -783.009; -762.985
785.352; -101.901; -304.008; -404.985
785.609; -206.999; -934.008; -839.985
785.866; -119.596; -345.008; -401.986
786.123;  -95.494; -639.008; -583.986
786.380; -171.791; -665.008; -604.987
786.637;  -34.089; -225.007; -380.987
786.895;  -57.186; -456.007; -543.987
787.152;  -57.684; -135.007; -267.988
787.409;  -34.181; -123.007; -225.988
787.666; -135.279; -299.006; -378.988
787.923; -186.176; -616.006; -695.989
788.179; -180.274; -551.006; -584.989
788.436; -166.171; -585.006; -585.990
788.693;   14.632;  -92.006;  -87.990
788.950;  312.934; -125.005; -112.990
789.207;  283.837; -381.005; -372.991
789.464;  -47.561; -161.005; -301.991
789.720;   48.342;  150.995;  110.009
789.977; -314.956;-1003.005; -671.992
790.234;  -12.153;   44.996;  -66.992
790.490; -261.851; -884.004;-1031.993
790.747;    7.152;  -85.004;   22.007
791.004;  -23.746; -426.004; -348.993
791.260; -125.743; -430.004; -560.994
791.517; -185.241; -843.003; -788.994
791.773;  -49.738; -379.003; -342.994
792.030; -188.236; -596.003; -660.995
792.286; -170.633; -686.003; -636.995
792.543;   -6.730;  -74.002; -159.995
792.799;  -86.428; -584.002; -382.996
793.055; -294.125;-1179.002;-1210.996
793.312; -178.623; -827.002; -816.997
793.568; -106.120; -746.002; -599.997
793.824;   35.382; -226.001; -284.997
794.081;   -8.515; -447.001; -508.998
794.337;  120.487; -664.001; -561.998
794.593; 2600.590; -319.001; -271.999
794.849; 9551.892; -746.001; -772.999
795.105;  501.195; -270.000; -261.999
795.361;   17.897; -490.000; -457.000
795.617; -141.200; -875.000; -945.000
795.873;  -96.900; -360.000; -407.000
796.129;  -43.400; -368.000; -306.000
796.385;    6.000; -124.000; -156.000
796.641;  154.200;  412.000;  550.000
796.897; -110.600; -666.000; -635.000
797.153;  212.200;  453.000;  357.000
797.409; -186.700; -785.000; -868.000
797.665; -141.100; -625.000; -732.000
797.921; -121.500; -775.000; -762.000
798.176; -127.200; -744.000; -747.000
798.432;  -92.100; -824.000; -596.000
798.688; -158.300;-1174.000;-1078.000
798.943;  160.200; -165.000; -147.000
799.199;  -49.900;-1005.000; -959.000
799.455;  458.200;  369.000;  316.000
799.710;  136.300; -813.000; -380.000
799.966;  446.500; -162.000; -160.000
800.221;  698.800; -638.000; -721.000
800.477;16794.300; -743.000; -710.000
800.732;11492.900; -773.000; -800.000
800.988;  948.000;  205.000;  -19.000
801.243; 3147.500; -454.000; -344.000
801.498;10399.000; -814.000; -739.000
801.754;  615.900; -289.000; -163.000
802.009;  142.700; -257.000; -335.000
802.264; -124.500; -967.000;-1033.000
802.520;   84.900;  222.000;   -3.000
802.775;  -76.000; -524.000; -359.000
803.030;  164.400;  395.000;  356.000
803.285; -199.100; -840.000; -903.000
803.540; -104.000; -686.000; -699.000
803.795;  -85.500; -648.000; -583.000
804.051;  -28.500; -279.000; -346.000
804.306;   84.000;  168.000;  128.000
804.561;  277.100;  451.000;  362.000
804.816;  306.000;  714.000;  861.000
805.071;   42.600; -185.000; -280.000
805.325;  324.100; -257.000; -427.000
805.580; -192.100; -841.000; -877.000
805.835;   14.800; -204.000; -297.000
806.090; -112.100; -760.000; -676.000
806.345;  -12.800; -344.000; -264.000
806.600;  -39.500; -549.000; -632.000
806.854;  -45.600; -408.000; -538.000
807.109;  -12.800; -493.000; -577.000
807.364;   32.700; -407.000; -328.000
807.618;    0.100; -415.000; -381.000
807.873;   87.100; -470.000; -494.000
808.128;  220.900; -257.000; -518.000
808.382;  197.100; -224.000; -332.000
808.637;  123.600; -440.000; -511.000
808.891;  297.400; -257.000; -180.000
809.146;  116.900; -902.000; -794.000
809.400;  344.500; -848.000; -923.000
809.654;  460.300; -779.000; -551.000
809.909;  709.400; -841.000; -927.000
810.163;12199.300; -813.000; -651.000
810.418;24304.100; -940.000; -861.000
810.672; 1410.900; -685.000; -690.000
810.926; 1041.400; -993.000; -973.000
811.180; 2278.200; -439.000; -372.000
811.434;48234.000;  240.000;  135.000
811.689;14617.500; -231.000; -365.000
811.943;  829.900; -936.000; -953.000
812.197;  443.600; -893.000; -671.000
812.451;  213.900; -379.000; -514.000
812.705;  -54.100; -809.000; -619.000
812.959;  -81.800; -263.000; -388.000
813.213;   35.600; -283.000; -209.000
813.467;  178.900;  470.000;  253.000
813.721; -180.500; -764.000; -792.000
813.975; -204.600; -826.000; -877.000
814.229;  142.000;  430.000;  353.000
814.482; -131.300; -517.000; -566.000
814.736; -155.700; -766.000; -744.000
814.990; -208.300; -779.000; -872.000
815.244;  -52.200; -228.000; -285.000
815.497; -116.300; -636.000; -601.000
815.751;   15.500; -141.000;   82.000
816.005; -109.200; -470.000; -586.000
816.258;  -64.400; -510.000; -363.000
816.512; -167.100; -693.000; -610.000
816.766;   65.400;  121.000;  157.000
817.019;  105.900;  148.000;  149.000
817.273; -211.800;-1000.000; -802.000
817.526;  -18.900; -206.000; -173.000
817.779;  -94.900;-1049.000; -960.000
818.033; -166.600; -693.000; -807.000
818.286; -189.500; -725.000; -792.000
818.540; -177.600; -403.000; -403.000
818.793; -105.400; -402.000; -489.000
819.046; -141.000; -582.000; -520.000
819.299;  -27.200; -157.000; -166.000
819.553; -175.600; -552.000; -592.000
819.806; -256.000;-1016.000; -838.000
820.059;  -77.400; -334.000; -354.000
820.312;   67.000;  152.000;  185.000
820.565;   20.300;  110.000;  -27.000
820.818;  -52.200;  -59.000; -173.000
821.071; -285.400;-1041.000; -957.000
821.324; -169.100; -536.000; -540.000
821.577; -161.800; -457.000; -483.000
821.830;  -76.400; -270.000; -172.000
822.083; -212.000; -733.000; -288.000
822.336;  -58.700; -261.000; -167.000
822.589; -241.900; -805.000; -688.000
822.842; -231.400; -875.000; -770.000
823.094; -323.900;-1076.000;-1114.000
823.347; -235.300; -925.000; -729.000
823.600;   60.600;  402.000;  187.000
823.853;  -42.700; -311.000; -267.000
824.105; -103.900; -331.000; -575.000
824.358; -177.100; -617.000; -716.000
824.611;   66.900;  234.000;   40.000
824.863;  -82.300; -612.000; -591.000
825.116;   99.200;  -33.000;   27.000
825.368;  131.500; -366.000; -372.000
825.621;  244.000; -186.000; -240.000
825.873;  112.900; -704.000; -737.000
826.126; 1060.900; -669.000; -641.000
826.378;18041.700; -389.000; -505.000
826.630; 3112.200; -890.000; -898.000
826.883;   21.500; -754.000; -693.000
827.135;   94.200; -279.000; -270.000
827.387; -220.500; -893.000; -839.000
827.639;  -11.700;  -86.000;   32.000
827.892; -209.600; -742.000; -582.000
828.144; -248.300; -848.000; -804.000
828.396;    9.100;  104.000;  -80.000
828.648; -164.400; -440.000; -333.000
828.900; -254.100; -702.000; -795.000
829.152; -194.200; -684.000; -683.000
829.404;  -62.300; -215.000; -267.000
829.656;  -41.600;  321.000;  214.000
829.908;   11.400;  393.000;  229.000
830.160; -295.400;-1064.000;-1047.000
830.412; -156.100; -481.000; -430.000
830.664; -226.500; -557.000; -665.000
830.916;  -86.700; -268.000; -206.000
831.167; -318.300;-1073.000; -951.000
831.419; -179.600; -623.000; -566.000
831.671; -227.200; -764.000; -809.000
831.923; -120.000; -311.000; -447.000
832.174;  -48.700; -273.000; -331.000
832.426; -174.700; -493.000; -582.000
832.678; -332.900;-1043.000;-1091.000
832.929; -290.400; -947.000; -935.000
833.181; -108.800; -575.000; -677.000
833.432;  -54.300;  -59.000; -186.000
833.684;   39.000;  112.000;  -27.000
833.935; -186.500; -610.000; -566.000
834.187; -217.400; -829.000; -823.000
834.438;  -27.100;  -58.000;  -25.000
834.689;  -60.300; -255.000; -123.000
834.941;  -43.200; -343.000; -244.000
835.192; -130.500; -590.000; -533.000
835.443; -135.900; -419.000; -506.000
835.695;   31.100;  138.000;  -16.000
835.946;  -93.600; -608.000; -378.000
836.197; -175.100; -599.000; -622.000
836.448; -131.600; -528.000; -395.000
836.699;  -70.000; -253.000; -341.000
836.950;   31.600;   72.000;    7.000
837.201; -229.900;-1003.000; -987.000
837.452;  -48.000; -356.000; -170.000
837.703; -181.900; -791.000; -737.000
837.954;  -53.600; -205.000; -365.000
838.205; -160.900;-1029.000;-1008.000
838.456;  273.800; -196.000; -282.000
838.707;   23.500; -423.000; -519.000
838.958;   31.500; -634.000; -647.000
839.209;  462.000;   18.000;   40.000
839.460;  157.200; -439.000; -201.000
839.710;  275.500; -135.000; -297.000
839.961;  718.600;  730.000;  612.000
840.212;  521.000; -382.000; -497.000
840.462; 1882.500; -328.000; -277.000
840.713;28515.600; -571.000; -536.000
840.964; 8566.500;  -62.000; -143.000
841.214;  764.300; -384.000; -624.000
841.465;  870.400; -214.000; -141.000
841.715;  740.600; -417.000; -380.000
841.966;  981.000; -746.000; -685.000
842.216;17206.200; -330.000; -431.000
842.466;48786.000; -169.000; -313.000
842.717; 1905.500; -964.000; -952.000
842.967;  517.700; -635.000; -641.000
843.217;  455.300;   20.000;   28.000
843.468;  126.400; -104.000; -132.000
843.718;  -62.100; -718.000; -726.000
843.968; -171.000; -837.000; -765.000
844.218;   76.900; -315.000; -262.000
844.469; -102.100; -577.000; -561.000
844.719; -181.800; -537.000; -682.000
844.969; -150.200; -550.000; -580.000
845.219; -243.000; -814.000; -862.000
845.469;  -99.900; -392.000; -342.000
845.719; -258.400; -792.000; -884.000
845.969;   37.100;  119.000;  174.000
846.219; -180.200; -738.000; -720.000
846.469;  101.400;  464.000;  432.000
846.718;  -52.200; -115.000;   31.000
846.968; -226.300; -827.000; -827.000
847.218;  -41.500; -224.000; -371.000
847.468; -190.200; -586.000; -555.000
847.718; -234.800; -827.000; -798.000
847.967; -208.700; -826.000; -915.000
848.217; -125.700; -449.000; -569.000
848.467;  -87.800; -405.000; -376.000
848.716; -175.300; -708.000; -725.000
848.966;   39.200; -372.000; -358.000
849.215;  -84.800; -428.000; -419.000
849.465; -161.200; -785.000; -615.000
849.714; -267.500;-1132.000;-1150.000
849.964;  -79.700; -551.000; -613.000
850.213;   -5.600; -393.000; -355.000
850.463;  201.600;  137.000;  340.000
850.712;    8.100; -542.000; -567.000
850.961;   -1.200; -739.000; -678.000
851.211;  131.000; -513.000; -504.000
851.460;  200.200; -635.000; -650.000
851.709;  935.700;  -25.000;   18.000
851.958;17925.700; -912.000; -750.000
852.208;16176.500; -859.000; -879.000
852.457;  622.000; -181.000;  -13.000
852.706;   64.900; -791.000; -823.000
852.955;   42.500; -507.000; -528.000
853.204; -105.300; -521.000; -461.000
853.453;  -99.100; -418.000; -458.000
853.702; -243.500; -660.000; -750.000
853.951; -156.500; -532.000; -520.000
854.200; -178.200; -613.000; -562.000
854.449; -236.400; -695.000; -661.000
854.698; -116.400; -340.000; -279.000
854.946;  -90.400; -181.000; -284.000
855.195; -237.300; -843.000; -868.000
855.444; -131.400; -395.000; -420.000
855.693; -199.600; -345.000; -432.000
855.941; -153.800; -387.000; -516.000
856.190;  -61.200; -256.000; -382.000
856.439; -201.100; -652.000; -703.000
856.687;  -89.800;  -99.000;  -72.000
856.936; -157.800; -621.000; -323.000
857.184; -311.100;-1067.000;-1020.000
857.433; -152.400; -423.000; -512.000
857.681; -283.100; -989.000; -953.000
857.930;  -99.000; -282.000; -433.000
858.178; -300.000; -856.000; -929.000
858.427; -282.700; -802.000; -781.000
858.675; -167.900; -377.000; -544.000
858.923; -157.700; -527.000; -819.000
859.172; -305.000;-1094.000;-1070.000
859.420; -116.500; -339.000; -239.000
859.668; -206.300; -624.000; -628.000
859.916;   13.000;  109.000;  115.000
860.164; -160.900; -699.000; -603.000
860.413;  568.100; -878.000; -696.000
860.661;  244.700; -709.000; -577.000
860.909; -133.100; -339.000; -325.000
861.157;  -99.800; -277.000; -444.000
861.405; -232.800; -534.000; -670.000
861.653;   97.400;  310.000;  310.000
861.901;  333.200; -543.000; -613.000
862.149;  -84.600; -801.000; -824.000
862.396;  -97.300; -297.000; -187.000
862.644; -135.400; -368.000; -347.000
862.892;   21.100;   98.000;  138.000
863.140; -188.300; -549.000; -530.000
863.388; -247.600; -815.000; -759.000
863.635; -183.000; -642.000; -601.000
863.883;    9.100;  231.000;  190.000
864.131; -135.300; -288.000; -357.000
864.378; -215.200; -675.000; -540.000
864.626; -136.900; -347.000; -415.000
864.873; -195.300; -556.000; -505.000
865.121; -216.800; -714.000; -799.000
865.368;  -34.100; -173.000;   75.000
865.616;   -5.000;  -33.000;  -40.000
865.863; -128.900; -462.000; -506.000
866.111; -208.100; -795.000; -824.000
866.358;   43.500; -426.000; -420.000
866.605; 3762.500;  -64.000; -804.000
866.853; 2791.400; -621.000; -537.000
867.100; -116.100; -728.000; -775.000
867.347; -176.700; -672.000; -611.000
867.594; -160.200; -740.000; -714.000
867.841;  180.800;   97.000;   17.000
868.089; -240.200; -746.000; -698.000
868.336; -156.400; -477.000; -420.000
868.583; -247.000; -637.000; -741.000
868.830;  -53.900; -131.000; -170.000
869.077; -280.300; -859.000; -787.000
869.324; -195.300; -502.000; -458.000
869.571; -172.900; -398.000; -430.000
869.818; -163.300; -485.000; -439.000
870.065; -144.000; -439.000; -513.000
870.311; -177.500; -456.000; -542.000
870.558; -134.000; -332.000; -311.000
870.805; -100.900; -320.000; -384.000
871.052; -156.300; -494.000; -369.000
871.298;  -57.800; -204.000; -131.000
871.545;  -50.200; -151.000; -185.000
871.792; -110.200; -173.000; -222.000
872.038;  -76.200;   43.000; -126.000
872.285; -190.800; -496.000; -387.000
872.532; -145.600; -357.000; -387.000
872.778;   82.700;  556.000;  403.000
873.025; -140.000; -384.000; -359.000
873.271;  104.400;  501.000;  578.000
873.517;    1.500; -133.000; -209.000
873.764;  -14.900; -193.000;  -80.000
874.010;  -69.400; -143.000; -230.000
874.257;  -11.400;  123.000;   90.000
874.503; -195.300; -579.000; -479.000
874.749;  -67.600;   31.000;  275.000
874.995;  -55.600;  -80.000;  -20.000
875.242; -191.900; -540.000; -478.000
875.488; -177.700; -414.000; -439.000
875.734;  -21.300; -106.000; -234.000
875.980;  356.500; -872.000;-1032.000
876.226;  508.600; -157.000; -255.000
876.472;   60.800;  343.000;  237.000
876.718;  -20.500;  184.000;  158.000
876.964;  -16.100;   56.000;   55.000
877.210; -220.000; -547.000; -677.000
877.456; -226.000; -630.000; -557.000
877.702; -293.300; -821.000; -832.000
877.948; -148.800; -377.000; -497.000
878.193;   96.800;  361.000;  255.000
878.439; -125.400; -487.000; -472.000
878.685; -128.500; -272.000; -343.000
878.931; -192.400; -618.000; -676.000
879.176;  -83.200; -201.000; -201.000
879.422; -306.800; -933.000; -820.000
879.668;  125.200;   10.000;   79.000
879.913;  256.000;   53.000;  137.000
880.159;  -71.700; -112.000;  -17.000
880.404;  -66.000; -152.000; -162.000
880.650;  -18.900;   91.000;  141.000
880.895; -275.100; -670.000; -710.000
881.141; -185.200; -454.000; -428.000
881.386; -235.800; -503.000; -658.000
881.631; -139.800; -311.000; -166.000
881.877;  -19.300;  112.000;  -13.000
882.122; -217.100; -684.000; -600.000
882.367; -106.100; -136.000; -186.000
882.612;  -76.100;  -80.000; -176.000
882.858; -279.500; -877.000; -823.000
883.103; -116.700; -297.000; -267.000
883.348; -253.000; -759.000; -852.000
883.593; -217.300; -677.000; -602.000
883.838;  -50.700; -311.000;  -24.000
884.083;  116.800;  353.000;  288.000
884.328; -116.400; -564.000; -545.000
884.573;   -6.100; -196.000; -143.000
884.818;  361.900; -694.000; -531.000
885.063;  228.300; -348.000; -315.000
885.308; -168.000; -475.000; -398.000
885.553;   67.400;  245.000;  325.000
885.797; -208.000; -545.000; -615.000
886.042;  -27.000;    8.000;   58.000
886.287; -120.800; -253.000; -211.000
886.532;  -29.300;   26.000;  204.000
886.776; -131.100; -407.000; -525.000
887.021; -208.600; -621.000; -574.000
887.265; -274.900; -685.000; -689.000
887.510; -195.000; -557.000; -496.000
887.755; -133.700; -194.000; -164.000
887.999; -205.900; -552.000; -575.000
888.244;  -44.000;  -58.000;  161.000
888.488;   61.100;  371.000;  393.000
888.732; -195.700; -368.000; -520.000
888.977; -165.900; -622.000; -567.000
889.221; -268.800; -683.000; -659.000
889.465; -157.700; -422.000; -566.000
889.710;  -90.700;  -56.000; -299.000
889.954;   75.100;  579.000;  467.000
890.198; -215.300; -584.000; -707.000
890.442; -258.200; -716.000; -712.000
890.687; -292.500; -800.000; -753.000
890.931; -108.200; -273.000; -210.000
891.175; -198.500; -502.000; -500.000
891.419;  -82.100; -105.000; -110.000
891.663; -123.200; -239.000; -112.000
891.907; -276.600; -801.000; -545.000
892.151; -263.100; -920.000; -815.000
892.395; -149.700; -274.000; -387.000
892.638;   37.400;  408.000;  291.000
892.882; -300.600; -780.000; -867.000
893.126;  110.900;  758.000;  558.000
893.370; -110.300; -167.000; -168.000
893.614; -238.200; -714.000; -715.000
893.857; -152.100; -183.000; -197.000
894.101; -221.800; -527.000; -631.000
894.345;  -45.200;  300.000;  150.000
894.588;   91.900;  569.000;  380.000
894.832; -115.500; -178.000;  -84.000
895.075; -111.800;   15.000;  -92.000
895.319; -191.200; -552.000; -420.000
895.563; -166.200; -413.000; -353.000
895.806; -229.200; -628.000; -741.000
896.049;  -86.400; -576.000; -368.000
896.293;  255.200;  527.000;  405.000
896.536; -131.500; -465.000; -468.000
896.779;  -75.700; -149.000;   -1.000
897.023; -217.000; -751.000; -714.000
897.266;   25.000;  325.000;  269.000
897.509; -289.400; -900.000; -901.000
897.752;   11.000;  149.000;  171.000
897.996; -337.600; -972.000; -864.000
898.239;    3.200;  168.000;  102.000
898.482; -224.600; -431.000; -453.000
898.725;    3.000;  101.000;   53.000
898.968; -258.800; -609.000; -744.000
899.211; -173.300; -513.000; -361.000
899.454; -194.100; -633.000; -539.000
899.697;  -60.300;   90.000;  -43.000
899.940; -251.600; -761.000; -757.000
900.182; -129.600; -335.000; -405.000
900.425;  -84.000; -150.000; -298.000
900.668;   32.000;  491.000;  350.000
900.911; -132.500; -292.000; -345.000
901.154;  -17.300;  141.000;   -3.000
901.396; -202.000; -407.000; -412.000
901.639; -210.900; -430.000; -496.000
901.882; -313.900; -790.000; -809.000
902.124; -132.400;  -29.000; -143.000
902.367; -174.000; -315.000; -361.000
902.609; -214.200; -476.000; -453.000
902.852; -130.100; -108.000; -260.000
903.094; -192.700; -458.000; -337.000
903.337;  -40.600;  -26.000;   53.000
903.579; -150.100; -228.000; -441.000
903.821; -246.600; -597.000; -744.000
904.064;  -48.100;   85.000;  127.000
904.306;  -88.200; -126.000; -166.000
904.548; -156.200; -152.000; -366.000
904.790; -170.900; -195.000; -340.000
905.033; -212.000; -625.000; -577.000
905.275; -163.900; -513.000; -524.000
905.517;  166.400;  468.000;  256.000
905.759; -139.900; -667.000; -761.000
906.001; -150.500; -322.000; -369.000
906.243;  -36.500; -162.000; -224.000
906.485;  247.200; -265.000; -207.000
906.727;  123.000; -499.000; -542.000
906.969;  -25.100;  -30.000; -135.000
907.211;  257.600; -316.000; -382.000
907.453;  466.700; -188.000; -237.000
907.695;   15.700; -158.000; -385.000
907.936;  133.000;  818.000;  706.000
908.178;  -66.700;   92.000; -135.000
908.420;  -76.400; -111.000; -162.000
908.662; -226.600; -633.000; -682.000
908.903; -133.500; -208.000; -123.000
909.145;  -67.700; -240.000; -305.000
909.386;   48.200;  315.000;  280.000
909.628;  139.500;  363.000;  397.000
909.870;   75.500;   29.000;  264.000
910.111; -179.200; -809.000; -949.000
910.353;   41.700; -123.000; -161.000
910.594;    6.700; -574.000; -606.000
910.835;  123.600; -265.000; -326.000
911.077;  209.700; -503.000; -604.000
911.318;  445.100; -505.000; -471.000
911.559;  716.300; -577.000; -880.000
911.801; 2252.600; -284.000; -280.000
912.042;20095.900;  -50.000; -159.000
912.283;41511.100;  404.000;  371.000
912.524; 4899.200; -396.000; -457.000
912.765;  745.400; -193.000;   79.000
913.006;  366.200; -307.000; -338.000
913.247;   77.300; -270.000; -290.000
913.488;   34.400;  -43.000;   30.000
913.729; -145.400; -373.000; -373.000
913.970;  -61.200;  -96.000; -292.000
914.211;  -60.100; -160.000; -198.000
914.452;  -86.100; -118.000;  -11.000
914.693;  115.900;  510.000;  592.000
914.934;   82.000;  510.000;  440.000
915.175;  -64.100;   53.000;  -95.000
915.415;  -98.600; -137.000;   27.000
915.656;  -57.500;  -28.000;  192.000
915.897; -130.200; -252.000;  -82.000
916.137;  -74.100;   74.000;   -9.000
916.378; -197.000; -573.000; -517.000
916.619; -116.500; -159.000;  -63.000
916.859;   26.500;  303.000;  330.000
917.100;  350.600; 1655.000; 1070.000
917.340;  182.800;  930.000;  728.000
917.581;  179.500;  965.000;  789.000
917.821;   22.800; -171.000;  143.000
918.061;   51.600; -199.000;  -72.000
918.302;  -44.100; -152.000; -211.000
918.542;    3.000;  -22.000;    3.000
918.782;  100.000;  369.000;  377.000
919.023;  248.900;  360.000;  427.000
919.263; 2682.700; 8131.000;  202.000
919.503; 1679.600; -137.000;  -54.000
919.743; 1110.900;  390.000;  266.000
919.983;  376.600; -134.000;  -26.000
920.223;  157.500;  135.000;   14.000
920.463;  290.500;  631.000;  554.000
920.703;  244.100;   84.000;   39.000
920.943;  262.800; -110.000;   90.000
921.183;  365.300; -414.000; -405.000
921.423;  819.400;  307.000;  546.000
921.663; 1145.300; -174.000; -257.000
921.903; 2618.400;  237.000;  173.000
922.143;15890.000;  372.000;  389.000
922.383;53273.700;  158.000;  115.000
922.622;13581.700; -120.000;  -15.000
922.862; 1739.300;  796.000;  785.000
923.102;  709.400;  -51.000;   33.000
923.341;  269.900;   59.000;   74.000
923.581;  190.000;  450.000;  360.000
923.821;   70.100;  301.000;  398.000
924.060;   70.400;  351.000;  193.000
924.300;  -89.100;  -16.000; -128.000
924.539;   42.500;  584.000;  473.000
924.779;   81.700;  812.000;  597.000
925.018;  -30.400;  247.000;  353.000
925.257;   77.200;  595.000;  666.000
925.497;   26.900;  447.000;  412.000
925.736;  -80.100;  -35.000;  102.000
925.975;   98.100;  687.000;  669.000
926.214;  168.200;  907.000;  850.000
926.454;  106.800;  706.000;  757.000
926.693;  -14.800;  419.000;  543.000
926.932;  163.300; 1021.000;  825.000
927.171;  225.200; 1107.000; 1044.000
927.410;  204.400; 1144.000;  967.000
927.649;  164.100;  924.000;  742.000
927.888;   65.900;  590.000;  564.000
928.127;   55.200;  680.000;  678.000
928.366;  141.500;  842.000;  826.000
928.605;  131.900;  831.000;  737.000
928.844;  564.300; 1451.000; 1393.000
929.083; 1098.200;  770.000;  613.000
929.321;  537.900; 1335.000; 1359.000
929.560;  257.800; 1158.000; 1122.000
929.799;    3.800;  574.000;  475.000
930.038;  262.800; 1025.000; 1394.000
930.276;  -34.500;  334.000;  397.000
930.515;   85.400;  827.000;  681.000
930.753;    0.400;  614.000;  589.000
930.992;   36.200;  664.000;  717.000
931.230;  103.100;  847.000;  847.000
931.469;  460.000; 2162.000;  892.000
931.707;  226.700;  840.000;  751.000
931.946;  199.400; 1278.000; 1344.000
932.184;  251.300; 1437.000; 1175.000
932.423;  185.500; 1265.000;  963.000
932.661;  244.800; 1296.000; 1428.000
932.899;  139.700;  987.000;  821.000
933.137;  113.700;  754.000;  564.000
933.376;  321.900; 1664.000; 1335.000
933.614;  410.000; 1759.000; 1196.000
933.852;  191.700; 1357.000; 1171.000
934.090;  329.300; 1722.000; 1747.000
934.328;  269.600; 1252.000; 1457.000
934.566;  222.000; 1431.000; 1110.000
934.804;  294.400; 1263.000; 1309.000
935.042;  886.600; 1861.000; 1850.000
935.280; 3191.000; 2088.000; 2063.000
935.518; 2389.700; 2113.000; 2007.000
935.756;  674.300; 2481.000; 2316.000
935.994;  423.000; 1808.000; 1751.000
936.231;  765.600; 2890.000; 2950.000
936.469;  473.500; 2367.000; 2378.000
936.707;  406.500; 2220.000; 2167.000
936.945;  552.300; 2825.000; 2882.000
937.182;  503.200; 2679.000; 2741.000
937.420;  687.100; 3602.000; 3031.000
937.657;  901.500; 3365.000; 3478.000
937.895;  743.200; 3331.000; 3488.000
938.133;  762.700; 3540.000; 3528.000
938.370;  808.200; 3896.000; 4191.000
938.607;  891.400; 4488.000; 4205.000
938.845; 1270.700; 5587.000; 5549.000
939.082; 1069.500; 5387.000; 5177.000
939.320; 1116.600; 5799.000; 5728.000
939.557; 1404.900; 6549.000; 6491.000
939.794; 1530.700; 7285.000; 7097.000
940.031; 1981.600; 8421.000; 8368.000
940.269; 2187.400; 9552.000; 9107.000
940.506; 2338.100;10901.000;10507.000

