
Integration time [ms]: 200.000
Averaging Nr. [scans]: 10
Smoothing Nr. [pixels]: 0
Data measured with spectrometer [name]: 2101013U2
Wave   ;Sample   ;Dark     ;Reference
[nm]   ;[counts] ;[counts] ;[counts] 

394.013;  107.636; -450.257; -315.536
394.305;  424.133; -461.258; -419.536
394.596; 1584.184; -676.269; -527.514
394.887; 3370.708; -796.268; -654.518
395.178; 1387.452;  145.736;   11.476
395.470;  168.768; -210.263; -356.526
395.761;  456.429;  305.734;  394.479
396.052;  747.503; -545.284; -306.489
396.343;  705.404; -557.276; -454.503
396.634;  269.858; -200.279; -290.497
396.926;  254.504; -618.268; -565.517
397.217;  284.910;   11.725;  -17.504
397.508;  123.133; -366.273; -154.507
397.799;  132.458; -555.279; -571.497
398.090;  -11.150; -973.280; -902.495
398.381;  299.494;   11.708;  -11.473
398.672;  -23.704; -585.292; -742.473
398.963;  101.367; -348.279; -373.498
399.254;  226.509;   54.709; -209.475
399.545;  -33.276;-1017.266; -883.520
399.836;  158.088; -407.277; -343.501
400.127;  133.259; -205.295; -209.468
400.418;  140.525; -423.274; -392.506
400.709;  195.331; -359.281; -333.493
401.000;  151.814; -268.291; -309.476
401.290;  234.768;  225.698;  115.545
401.581;  160.877; -166.286; -228.485
401.872;   64.119; -542.298; -486.462
402.163;   95.449; -313.296; -252.467
402.454;  214.410; -123.291; -163.475
402.744;  150.936; -844.297; -813.465
403.035;  844.281; -226.293;  -86.471
403.326; 1038.200; -366.292; -384.474
403.617;  691.311;  204.701;  165.539
403.907;  347.711; -593.283; -679.490
404.198; 3132.601; -545.307; -599.446
404.489; 8047.118; -618.283; -588.491
404.779; 3202.373; -618.302; -660.456
405.070;  428.042;  -67.304; -174.451
405.360;  518.784; -259.293; -238.472
405.651;  603.889;  125.699;   98.542
405.942;  421.271;  209.714;  127.516
406.232;  637.592; -432.285; -413.487
406.523; 1086.274;  641.706;  758.530
406.813;  212.774; -579.286; -644.484
407.104;  817.592;  261.708;  144.527
407.394;  489.013; -604.299; -591.462
407.685;  379.790;  336.715;  222.513
407.975;  170.116; -400.283; -382.490
408.265;  246.130; -134.289; -190.478
408.556;  150.805; -472.291; -459.475
408.846;  363.875;  474.706;  429.530
409.137;  214.643;   -1.288; -216.480
409.427;  113.991; -193.285; -271.487
409.717;   59.038; -776.273; -692.508
410.007;  310.982;    4.715; -170.486
410.298;  191.263; -360.295; -342.469
410.588;  145.387; -495.285; -510.486
410.878;   46.059; -792.287; -873.482
411.168;  167.323; -481.298; -478.463
411.459;  232.108; -295.283; -242.489
411.749;  106.903; -609.292; -507.474
412.039;   81.340; -755.289; -386.480
412.329;  366.477;   40.722;  132.501
412.619;  358.574;  -62.286; -148.485
412.909;  742.835;  639.711;  594.521
413.199;  605.250; -130.280; -251.495
413.490;  817.621;  521.710;  352.523
413.780;  210.356;-1013.279; -913.496
414.070;  573.705;  -46.276;  235.497
414.360;  631.572; -729.278; -666.498
414.650;  628.953; -726.288; -688.482
414.940;  784.455; -538.280; -441.496
415.230; 1409.049;   50.712;   74.519
415.520; 8867.183;  155.730;   66.486
415.809;33019.331; -305.281; -125.493
416.099;25921.491; -388.277; -229.501
416.389; 6679.422;  435.726;  236.494
416.679; 4041.373;   91.738;   85.473
416.969;  763.265; -527.287; -503.483
417.259;  948.859;  341.721;  171.503
417.549; 1075.329;  522.718;  318.508
417.838; 2275.207; -205.268; -147.518
418.128; 7039.829;  650.710;  492.522
418.418; 5914.347; -491.272; -579.509
418.708; 4071.822;    9.726;  -48.506
418.997;14526.816; -474.275; -480.505
419.287;15286.032; -733.273; -790.507
419.577;13842.507; -160.283; -123.489
419.866;45705.988; -588.277; -498.501
420.156;49238.877; -242.270;  -55.513
420.446; 9881.863; -112.263;  -26.526
420.735; 1579.068; -376.271; -446.512
421.025; 1562.971; 1830.722;  315.502
421.314; 1367.865; -203.271; -226.512
421.604; 3243.997;   89.732;  233.484
421.893; 1896.060; -705.271; -602.511
422.183;  346.763; -487.263; -461.526
422.472;  674.362;  -36.271; -107.511
422.762;  731.333; -416.266; -379.521
423.051;  390.806; -916.276; -916.503
423.341;  529.235; -491.273; -439.507
423.630;  718.842; -121.265;   15.477
423.919;  629.115;   58.725;   49.495
424.209;  575.071;  -31.263;   56.473
424.498;  734.303;   68.732;  161.483
424.787; 1435.213; -535.267; -601.518
425.077; 4670.940;   34.735;   29.478
425.366; 7242.779; -734.262; -744.528
425.655;12510.236;  639.727;  259.493
425.945;22908.166; -313.247; -268.554
426.234;13401.912;  117.741;  300.467
426.523; 6995.619;  -86.259; -350.534
426.812; 9637.327;  107.734;  159.480
427.101;13491.291; -127.269; -323.515
427.390;17237.982;  -55.270;  -86.514
427.680; 4986.148; -624.257; -411.538
427.969;  964.063; -330.255; -301.540
428.258;  533.236; -385.257; -477.536
428.547; 1027.353;  449.728;  397.490
428.836; 2409.887; -421.253; -398.543
429.125; 3401.522; -199.259;  -72.534
429.414; 1511.520; -330.251; -294.548
429.703; 4495.720; -231.251; -213.548
429.992;12082.225; -938.250; -828.549
430.281; 8112.552; -397.264; -331.524
430.570; 1103.606;  -21.252;   32.454
430.859; 1268.418;  279.741;  352.466
431.148; 1102.960;  636.752;  631.446
431.437;  707.705;  391.748;  367.454
431.725;  286.438; -544.257; -481.536
432.014;  176.297; -845.253; -756.545
432.303;  642.869; -149.239; -105.569
432.592; 1067.162; -460.263; -178.525
432.881; 1558.761; -601.248; -437.554
433.169; 7758.965; -343.255;  -61.540
433.458;15268.018;  445.765;  540.424
433.747; 7014.587; -397.261; -289.529
434.036; 1730.534; -275.242; -280.564
434.324; 2993.843; -395.249; -379.551
434.613; 4824.325;   40.757;  159.437
434.902; 2018.155;  333.760;  439.433
435.190; 1448.867;   75.761;  295.431
435.479;  859.398;  -52.245;   83.441
435.767;  310.110; -411.244; -427.561
436.056;  500.328; -340.242; -294.563
436.345;  587.658; -372.240; -223.568
436.633;  730.636;   60.750;  383.450
436.922;  632.161;  208.760;  414.432
437.210; 1601.103; -194.236;    1.426
437.499; 4877.715; -583.235; -432.576
437.787; 5383.103; -339.236;  -10.574
438.075; 1357.075;   56.761;  162.430
438.364; 1635.579;  -44.238;  250.429
438.652; 1042.830; -286.226; -138.592
438.941;  350.679;    3.770;  269.415
439.229;   75.502; -665.252; -466.545
439.517;  102.727; -160.234;  -85.577
439.806;   25.953; -501.225; -290.595
440.094;  427.238;  377.766;  650.421
440.382;  422.144; -653.233; -302.580
440.670;  514.815; -361.235; -285.576
440.959;   93.378; -347.223; -170.599
441.247;  183.095; -151.229; -109.587
441.535;  252.025; -266.235;   31.423
441.823;   73.134; -497.234; -305.578
442.111;  399.801;  173.771;  327.412
442.400; 1224.197; -628.245; -335.559
442.688; 3249.538; -111.234; -620.579
442.976; 2423.905; -786.213; -450.617
443.264;  292.063; -324.224; -364.597
443.552;  212.132; -258.226;   51.408
443.840;  371.223;  602.765;  876.423
444.128;  301.143;  265.767;  269.420
444.416;   44.205; -694.228; -312.588
444.704;   84.721; -465.219;  -92.605
444.992;  204.636;   -0.226;  240.407
445.280;  120.780; -517.230;  -94.585
445.568;   88.311; -694.212; -396.618
445.856;  736.798; -174.221;  357.398
446.143; 1604.316;  -54.220;   -7.604
446.431; 1348.810;  -25.228;  625.411
446.719;  511.749;  489.783;  675.391
447.007;  412.071;  481.769;  705.416
447.295;  394.674;  597.777;  871.402
447.583;  203.392; -464.229;  -34.587
447.870;  292.494; -434.221; -202.601
448.158;  812.578; -104.230;  129.415
448.446;  648.417; -800.219; -338.604
448.733;  301.865;   13.776;  269.403
449.021;  455.210;   60.788;  341.382
449.309;  308.032; -296.210;  208.379
449.596;  384.144;  128.783;   59.392
449.884;  256.884; -571.222; -325.600
450.172;  201.818; -756.227; -406.590
450.459;  644.481;  645.786;  780.387
450.747; 2816.842; -411.218; -147.608
451.034; 8621.412;  493.772;  889.411
451.322; 7144.585; -413.214; -170.614
451.609;  752.767;  292.777;  508.403
451.897;  763.623; -550.203; -183.634
452.184; 2276.675; -622.223; -400.598
452.472; 2185.862;   97.792;  269.375
452.759;  618.318;  512.781;  864.395
453.047;  242.706; -407.212; -125.617
453.334;  184.330; -732.219; -216.606
453.621;  209.189; -438.214; -161.615
453.909;  289.811;   13.796;  384.368
454.196;  267.477; -299.199; -123.641
454.483;  470.041;  317.798;  540.364
454.771;  301.167; -215.208;  196.374
455.058;   98.172; -316.207;  102.374
455.345;  200.656;   71.807;  344.347
455.632;  161.276; -128.207;  235.373
455.919;  112.209;  -82.196;  182.354
456.207;  -89.917; -774.198; -450.642
456.494;   26.559; -475.200;  -66.639
456.781;   45.335; -399.202; -198.635
457.068;  116.586; -253.206;  -29.628
457.355;   13.987; -698.206; -401.629
457.642;   18.395; -552.205; -290.630
457.929;   32.343; -778.194; -417.651
458.216;  102.707; -575.212; -354.617
458.503;  324.350; -173.193;  -19.652
458.790;  273.364; -864.208; -630.625
459.077;  508.542;  -77.202;  110.364
459.364; 1101.733; -350.195; -210.649
459.651; 2141.383;  -46.206;  220.372
459.938; 1036.850; -864.209; -665.623
460.225;  333.647;  132.799;  276.363
460.512;  -65.295; -836.197; -688.645
460.799;  243.340;  -32.218;  320.392
461.086;  233.765; -370.200; -251.640
461.372;  161.684; -509.198; -279.642
461.659;  278.311; -165.196;  108.354
461.946;  182.648; -445.193;  -54.651
462.233;  503.262;  842.800;  888.361
462.519;  548.157; -814.201; -464.639
462.806; 1293.606; -768.197; -497.645
463.093; 1182.578; -445.191;  -66.656
463.380;  -52.462; -920.186; -824.664
463.666;  145.808; -259.197;  -18.646
463.953;  173.126; -406.195; -243.648
464.239;  279.726; -173.195;  -77.648
464.526;  689.241;  413.806;  743.350
464.813;  669.995; -565.190; -304.658
465.099;  673.450;  606.807;  607.348
465.386;  718.255;  903.807;  921.348
465.672;  171.406; -694.197; -522.645
465.959;  178.621; -598.188; -520.662
466.245;  106.455; -468.193; -359.652
466.532;  280.923; -109.195;   63.352
466.818;  225.937; -357.186; -216.664
467.104;   60.495; -488.182; -415.672
467.391;   35.198; -628.189; -459.658
467.677;  158.843; -289.186;    9.335
467.964;   81.207; -682.189; -471.660
468.250;  219.846; -331.186; -160.665
468.536;  228.499;   90.811;  180.341
468.822;  -23.036; -821.184; -574.668
469.109;  338.512;  351.827;  471.311
469.395;  443.369;  729.808;  787.346
469.681;  402.904;   46.811;  156.341
469.967; 1714.610; -699.188; -382.660
470.254; 3381.122; -494.188; -306.662
470.540; 2250.009; -601.196; -476.646
470.826;  349.611; -488.181; -397.675
471.112;  453.269;  288.816;  113.331
471.398;  212.475; -253.183;  -58.670
471.684;  140.352; -626.177; -447.680
471.970;  -44.283; -918.180; -981.675
472.256;   84.068; -521.192; -441.654
472.542;   78.928; -499.171; -434.691
472.828;   81.790; -743.182; -607.672
473.114;  110.491; -380.166; -283.700
473.400;  115.676; -504.175; -293.684
473.686;  158.800; -452.166; -400.701
473.972;  178.297; -230.174; -131.687
474.258; -108.888; -925.173; -843.689
474.544;  281.940; -183.178;   -2.679
474.830;  347.379;  -65.175;   45.316
475.116;  513.097; -123.190; -196.658
475.401;  697.120; -558.180; -467.676
475.687;  215.419; -725.180; -718.676
475.973;   45.601; -673.181; -770.673
476.259;  590.282;  736.825;  764.315
476.544;  541.364; -539.176; -437.682
476.830;  930.422; -398.172; -322.690
477.116;  718.962; -430.177; -336.682
477.401;  308.219;  346.820;  358.324
477.687;   43.976; -289.175; -405.684
477.973;  126.006;   21.819;   28.326
478.258;   -1.571; -448.163; -348.706
478.544;  149.554;   21.815;   61.334
478.829;  -60.764; -818.171; -738.692
479.115;  -38.678; -749.172; -651.690
479.401;    8.391; -444.174; -449.686
479.686;   60.318; -253.180;  -74.676
479.972;  -95.952; -886.178; -776.680
480.257;   76.193; -258.166;  -65.700
480.542;   35.141; -614.170; -469.693
480.828;  566.674; 1288.824; 1392.317
481.113;   -8.629; -464.176; -426.683
481.399;   55.964; -236.161; -202.711
481.684;  -64.608; -620.166; -462.700
481.969;   87.683; -158.159;  -73.713
482.255;   20.357; -439.169; -285.695
482.540;   -3.952; -569.178; -441.680
482.825;    4.030; -395.187; -404.663
483.110;  196.962;  -85.169; -105.696
483.396;  144.814; -840.157; -652.718
483.681;  672.297;  543.826;  730.313
483.966;  153.874; -696.160; -700.712
484.251;   70.696; -404.174; -310.687
484.536;   69.407; -356.165; -378.703
484.822;   81.900; -205.173; -218.687
485.107;  -30.131; -599.152; -502.726
485.392;  295.116;  662.836;  541.296
485.677;  191.676;  354.832;  163.302
485.962;  242.011;  160.843;  270.283
486.247;  216.841;  -14.162;   -8.707
486.532;   91.794; -178.166; -325.701
486.817;  336.156;  381.839;  431.291
487.102;  176.045; -453.154; -514.722
487.387;  678.417; -637.156; -652.718
487.672; 1205.823; -154.164;  -38.705
487.957;  822.066; -394.160; -286.711
488.241;  319.194; -290.150; -314.729
488.526;  818.471; -280.152; -148.726
488.811; 1238.751; -881.177; -818.680
489.096; 1007.849; -666.154; -702.723
489.381;  667.466;    3.847;  162.275
489.666;  378.563; -428.161; -510.710
489.950;  329.353;  558.846;  627.277
490.235;  -24.814; -480.151; -458.728
490.520;  -70.538; -756.161; -723.710
490.804;  -83.280; -827.156; -736.719
491.089;   46.916; -469.149; -299.732
491.374;   72.721; -132.164;  -75.704
491.658;   -3.767; -817.147; -717.735
491.943;  290.678; -657.152; -609.727
492.227;  442.039; -178.155;  -38.721
492.512;  104.610; -294.157; -341.717
492.797; -101.793; -713.149; -716.731
493.081; -102.963; -588.147; -598.735
493.366;  -63.736; -751.161; -635.711
493.650;  420.014;  831.859;  917.254
493.935;   31.032; -648.147; -447.734
494.219;  -63.805; -778.142; -687.743
494.503;  -59.000; -585.150; -487.730
494.788;   95.998;   46.842;   74.285
495.072;  210.395;  184.850;  434.271
495.356;  211.121; -463.148; -343.733
495.641;  578.346; -812.146; -736.736
495.925;  597.727; -976.156; -903.719
496.209;  102.415; -599.149; -451.732
496.494;  -55.404; -763.142; -544.744
496.778;   67.545; -364.154; -360.722
497.062; -112.074; -819.156; -627.719
497.346; -111.732; -869.160; -640.711
497.631;  287.326;  580.852;  560.266
497.915;  183.961;  -64.145;  175.261
498.199;  156.914; -341.157; -277.718
498.483;  111.869; -562.152; -508.725
498.767;  279.497;  301.850;  300.271
499.051;  235.012; -126.149; -100.732
499.335;  -18.491; -693.149; -739.731
499.619;   -4.140; -381.129; -423.767
499.903;   85.637; -272.155;  -65.721
500.187;   58.855; -588.153; -316.724
500.471;    4.876; -796.152; -595.727
500.755;  218.662;   62.839;  -96.710
501.039;   99.038; -270.155; -357.721
501.323;  241.716;  -21.141;  264.254
501.607;  110.330; -447.163; -503.706
501.891;   63.416; -607.156; -512.718
502.174;  -43.522; -726.144; -585.741
502.458;  144.782;   89.849;  370.273
502.742;   62.951; -180.138; -191.751
503.026;  131.331; -412.147; -254.734
503.310;  174.082; -437.159; -375.713
503.593;  156.834; -464.147; -325.735
503.877;  217.109; -232.133; -156.760
504.161;  274.359;    2.847;  -50.724
504.444;  144.101; -841.158; -710.716
504.728;  464.320; -487.164; -522.704
505.012;  818.393; -257.150;  -76.729
505.295;  679.564; -417.161; -212.711
505.579;  668.726; -256.156; -496.719
505.862;  830.456; -555.145; -333.738
506.146;  713.185; -681.159; -758.714
506.429;  616.186;  568.841;  461.286
506.713;   68.088; -732.151; -667.728
506.996;  456.344;   90.846;  295.278
507.280;  361.413; -633.165; -474.703
507.563;  285.335; -469.155; -261.721
507.847;  102.056; -423.153; -112.724
508.130;   63.765; -665.161; -456.711
508.413;  125.786; -758.167; -577.700
508.697;  313.387; -151.167;   12.300
508.980;  195.458; -422.153; -312.724
509.263;   17.130; -466.155; -450.720
509.547;   76.192; -124.150;   82.271
509.830;  101.968; -172.160;  140.289
510.113;  191.726;  128.844;  298.281
510.396;   67.067; -530.152; -300.725
510.680;  437.458; -818.145; -812.738
510.963; 1603.851;  184.846;  180.277
511.246; 1388.403; -493.150; -357.730
511.529;  493.865; -482.145;  -83.739
511.812;  407.304; -250.134;   10.241
512.095;  247.084; -740.151; -396.728
512.378;  116.040; -317.147; -245.736
512.661;   38.362; -703.137; -623.753
512.944;   46.798; -750.142; -637.744
513.227;   99.158; -170.137; -171.752
513.510;   64.378; -479.144; -671.741
513.793;   68.922; -485.140; -435.747
514.076;  268.790;  -43.127;  -39.771
514.359;  216.617; -294.149; -135.732
514.642;  128.502; -442.142; -567.744
514.925;  950.520;  581.860;  561.253
515.208; 1019.199; -498.134; -443.758
515.491;  748.518; -276.133; -182.761
515.773;  417.683; -410.143; -337.742
516.056; 2372.071;  249.864;  409.246
516.339; 3144.576; -754.136; -652.755
516.622; 3027.600; -518.150; -488.730
516.904; 2774.793;  882.857;  975.257
517.187; 1185.556; -730.138; -523.752
517.470;  595.391; -568.143; -510.743
517.752;  470.881; -624.136; -470.756
518.035;  301.938; -708.139; -725.749
518.318;  328.577; -799.136; -744.755
518.600; 2474.024; -300.132; -325.762
518.883; 3362.301;  310.858;   88.256
519.165; 1792.945; -585.138; -426.751
519.448;  593.523;  -61.132;  -19.762
519.730;  284.001; -573.126; -415.773
520.013;  602.213;  588.867;  664.240
520.295; 1858.506;  -94.134;  -15.759
520.578; 3991.842; -335.131; -305.764
520.860; 4395.823; -254.132;   56.238
521.143; 2203.984; -763.135; -584.756
521.425;  664.719; -251.125; -279.775
521.707;  826.290; -622.127; -380.771
521.990; 2030.291; -199.127;  167.229
522.272; 2244.125; -116.140;   -4.748
522.554; 1296.784; -237.143; -157.742
522.836;  736.103;  -24.134;   99.241
523.119;  436.030; -496.148; -189.734
523.401;  235.352; -448.130; -314.766
523.683;   76.462; -865.137; -693.753
523.965;  381.653;  408.862;  260.248
524.247;  328.750;   54.878;  170.220
524.529;  245.606; -451.134; -367.759
524.812;  512.155;   -3.130;  191.234
525.094;  877.052; -773.138; -631.751
525.376; 1478.332; -143.124;   78.223
525.658;  899.172; -441.136; -339.754
525.940;  -27.263; -805.131; -671.764
526.222;  124.478; -188.136;  -88.755
526.504;  268.834; -190.131;   32.237
526.786;  398.210; -960.133; -647.760
527.068;  670.540; -124.123;  -67.778
527.349;  254.368; -865.137; -774.754
527.631;  225.623; -137.132;   22.238
527.913;   85.589; -664.127; -450.771
528.195;  136.909; -761.125; -639.774
528.477;  227.499;  -93.134;  -30.758
528.759;   73.354; -648.130; -522.766
529.040;   48.538; -569.123; -293.778
529.322;   78.713; -235.125;  -10.774
529.604;  307.558;  -47.130;   93.233
529.886;  220.100; -546.126; -302.773
530.167;  246.046;  232.870;  192.235
530.449;  106.539;    1.853;   63.265
530.731;   -7.252; -572.122; -459.779
531.012;   17.978; -513.120; -216.784
531.294;   87.235; -118.116;  -43.792
531.575;  246.319;  290.875;  538.225
531.857;    7.191; -548.135; -266.757
532.138;  202.714; -113.141;   40.254
532.420;  388.786;  294.865;  403.244
532.701;  362.813; -722.133; -751.760
532.983;  680.817;  232.867;  182.239
533.264;  269.197; -243.126;  175.228
533.546;  -27.523; -491.136; -508.755
533.827;  161.408;  173.867;   -1.759
534.109;  162.191; -352.135;  -80.757
534.390;  165.429; -725.132; -582.762
534.671;  404.386; -270.135;  -82.756
534.953;  156.142; -751.123; -611.779
535.234;   57.113; -426.117; -255.789
535.515; -147.709; -891.119; -735.785
535.796;   -9.817; -431.128; -193.770
536.078; -220.468;-1050.124; -904.777
536.359;   34.843;  -22.123;    3.221
536.640;   13.911; -480.125; -197.774
536.921;  293.365;  225.871;  143.232
537.202;  473.147;  -87.138;  -16.751
537.483;  568.241;  251.869;  377.236
537.764;  229.846;   17.870;   98.235
538.045;  -63.703; -543.134; -371.758
538.326;  -67.532; -596.129; -447.768
538.607;   -9.008; -686.127; -476.771
538.888;  199.366;   98.879;    5.218
539.169;  178.258; -704.122; -535.781
539.450;  467.764;  236.871;   16.233
539.731;  277.371; -361.121; -182.783
540.012;  234.978;  199.880;  412.216
540.293;  164.324;   82.876;  158.224
540.574;   17.365; -895.113; -717.796
540.855;  751.269;  435.879;  377.218
541.136;  712.554;   47.878;  139.220
541.416;  374.855; -161.130; -220.766
541.697;  243.135; -274.131; -170.763
541.978; 1129.989; -270.135; -315.757
542.259; 1422.391; -211.127; -236.771
542.539;  747.526; -191.116; -186.790
542.820;  364.219;  461.875;  480.225
543.101;  236.861;  -52.145;  -77.738
543.381;   -4.009; -638.127; -591.771
543.662;  389.587;  159.873; -254.771
543.942;  549.585; -751.127; -830.770
544.223; 1161.356;  193.878;  161.219
544.504;  744.731; -275.124; -182.777
544.784;  707.500; -592.126; -408.773
545.065; 1968.531;  104.884; -254.791
545.345; 2323.991;  227.881;   14.215
545.626; 1467.064;  -14.113; -108.796
545.906;  923.145;   77.869;   98.235
546.186;  381.207;   92.874;  -95.773
546.467;  265.935;   99.877;  -95.778
546.747;  429.526;  264.884;  327.210
547.027;  479.329;   91.876;  111.223
547.308;  334.884; -376.127; -530.770
547.588;  512.069;  299.871;  371.232
547.868;  312.047;  458.870;  588.235
548.149;  343.742;  609.885;  593.207
548.429;  132.589; -347.127; -299.771
548.709;  152.678; -645.120; -461.784
548.989;  526.705;   84.882;   88.213
549.269; 2308.621;   10.868;  139.239
549.550; 5047.741;  215.877;  117.222
549.830; 4456.590; -758.111; -556.799
550.110;  931.000; -468.110; -320.801
550.390;  944.949; -128.122;  -56.779
550.670; 1109.958; -868.114; -783.795
550.950;  849.169; -509.121; -471.782
551.230;  314.063;  549.879;  460.218
551.510;   18.867; -381.121; -326.782
551.790;   43.912; -173.109; -127.803
552.070;  494.635;  940.877; 1181.223
552.350;  414.896; -492.119; -377.786
552.630;  636.060;   -2.121;   77.219
552.909;  446.832;  181.884;   73.209
553.189;  266.630;  -49.132;   33.237
553.469;  139.996; -703.119; -514.786
553.749;  139.893; -469.127; -357.772
554.029;  215.019;   33.883;  -24.790
554.308;  192.248; -154.115;  -37.794
554.588;   34.182; -196.128; -204.770
554.868;   37.770; -366.121;  -47.782
555.147;  151.644; -114.115;  -46.793
555.427;  673.635; -260.116; -250.792
555.707; 4155.141; -284.115; -200.793
555.986; 4631.994; -719.111; -538.800
556.266; 2637.724;   23.884;   72.210
556.546;   30.667; -888.121; -675.782
556.825;  241.254; -657.114; -556.794
557.105; 1917.279; -125.128;   17.230
557.384; 2151.930;  122.884;  187.209
557.664;  758.535; -717.116; -508.792
557.943;  107.569; -557.121; -411.782
558.222;  166.509; -345.118; -344.788
558.502;  362.846; -116.115;  -76.793
558.781;  604.040;  194.885;  499.208
559.061;  424.509; -232.118; -227.788
559.340;  356.616;  302.883;  353.211
559.619;  754.524;   93.884;  148.210
559.899;  985.518; -239.117; -266.789
560.178;  851.245; -778.115; -593.793
560.457; 3289.121; -623.117; -562.790
560.736; 4267.996; -472.111; -482.800
561.015; 2902.976; -500.128; -502.769
561.295;  438.540;  180.893;  215.193
561.574;  445.042;  119.885;  116.207
561.853;  620.018;  274.891;  303.197
562.132;  541.849;  -45.114;  182.206
562.411;  524.460;  396.879;  553.219
562.690;  122.739; -592.115; -458.792
562.969;  256.574;  472.888;  630.203
563.248;  972.957; 2966.878; 2487.219
563.527;  253.095; -290.111; -408.800
563.806;  327.289; -650.127; -521.771
564.085;  399.962; -297.105; -206.810
564.364;  208.723; -594.117; -405.790
564.643;  574.261; -276.121; -223.781
564.922; 1963.209;  221.890;  397.198
565.201; 1721.114; -640.109; -700.803
565.479;  869.137; -297.115; -219.792
565.758;  273.379; -810.128; -712.770
566.037;  506.616; -155.109; -100.803
566.316;  269.831; -286.116;  -28.791
566.595;   88.341;  -17.115;  -12.793
566.873;  239.098; -166.111;  -79.801
567.152;  -75.327; -490.113; -590.797
567.431;   38.525; -113.116;    6.210
567.709;   22.541; -344.107; -212.807
567.988;  217.654; -810.114; -769.794
568.266;  596.341; -160.115;  -68.793
568.545;  391.530; -644.100; -514.819
568.824;  643.336;  160.885;  356.208
569.102;  502.354; -351.114; -235.794
569.381;  208.835; -492.116; -407.792
569.659; -111.032; -553.113; -553.796
569.938;   12.555; -743.122; -465.780
570.216;   87.520; -225.109; -225.804
570.494;  -64.942; -632.114; -572.795
570.773;  106.267;  202.879;  114.218
571.051;   -9.661; -373.123; -357.778
571.330;   47.765; -221.113; -174.796
571.608;   69.956; -181.098; -173.823
571.886; -139.913; -671.111; -581.799
572.164; -128.430; -739.121; -621.782
572.443;  -85.532; -562.105; -512.811
572.721;  -65.479; -399.117; -289.790
572.999;  -72.088; -280.117; -168.788
573.277;  187.058;  379.894;  620.191
573.555;  348.561;   94.894;   37.190
573.834; 1369.911;  -86.117; -114.788
574.112; 1653.344;  880.893;  811.193
574.390;  492.997; -143.111;  -96.801
574.668;   10.975;  -91.112;  -61.797
574.946;  -17.438; -165.106; -187.810
575.224;   48.114;   71.891;  -16.803
575.502;    6.028; -200.116; -204.791
575.780; -140.524; -767.112; -829.798
576.058;  515.295; 1589.889; 1004.200
576.336;  -22.297; -210.110; -129.801
576.614;  -90.323; -511.112; -340.798
576.891;   -9.852; -711.115; -823.794
577.169;  473.831; -158.108; -285.805
577.447;  627.443;  169.893;  202.193
577.725;  401.383;  629.888;  854.201
578.003;    8.480;  -71.112; -371.798
578.280;  134.180; -208.104; -242.812
578.558;  108.846; -450.115; -422.793
578.836;  203.058; -210.114; -145.795
579.114;   24.174; -630.112; -670.797
579.391;  124.714;   -6.117;  -18.789
579.669; -134.651; -595.114; -704.794
579.947;  214.239; -326.107; -127.806
580.224;  234.838; -692.107; -524.806
580.502;  363.744;  127.893;   76.193
580.779;   43.622;  -42.117;   75.210
581.057; -117.180; -584.109; -470.804
581.334; -187.898; -726.102; -695.815
581.612;   68.763;   54.895;  511.190
581.889;  -48.779;  -83.101; -129.818
582.167;  -37.858; -298.099; -190.821
582.444; -140.787; -845.102; -814.817
582.721;  254.514;  657.899;  715.183
582.999;   80.938; -326.100; -167.821
583.276;  428.745; -812.123; -713.779
583.553;  627.307; -364.102; -294.816
583.831;  205.276; -607.104; -631.812
584.108;  132.828;  349.892;  174.195
584.385;    1.001; -122.102;  -98.815
584.662; -147.601; -651.111; -828.801
584.940;  105.397;  204.889;  204.199
585.217;  -17.433;  -73.113; -303.796
585.494;   55.710;   71.890;  118.198
585.771;  221.221; -250.109; -354.804
586.048;  532.967; -196.113;  -76.796
586.325;  290.102; -721.110; -773.801
586.602;  149.981;  230.896;  213.188
586.879;  -97.267; -499.100; -580.820
587.156;   56.464; -156.105; -331.810
587.433; -112.090; -701.102; -667.817
587.710;  113.378;  152.888;  234.202
587.987;  364.871; -264.105; -236.811
588.264;  998.980;  315.888;  387.202
588.541; 1671.785;  -61.104;   26.187
588.818; 3104.524;   72.892;  171.196
589.095; 2698.778; -163.104; -174.812
589.371;  414.418; -459.109; -414.804
589.648;  -19.056; -581.107; -437.807
589.925;    2.159; -517.114; -621.795
590.202;  -65.023; -741.112; -607.798
590.478;  121.974; -166.105;  -73.811
590.755;  269.933; -241.108; -132.806
591.032; 2482.205; -741.110; -699.802
591.308; 3171.614; -732.094; -790.831
591.585; 1712.305; -573.110; -560.802
591.862;   31.612;-1056.102; -950.817
592.138;   46.430; -475.108; -474.805
592.415;  137.382; -486.104; -495.813
592.691; 1741.979;  460.896;  518.188
592.968; 1959.259; -208.098; -123.824
593.244;  908.426; -695.116; -595.790
593.521;  122.313; -105.102;  -42.817
593.797; -106.549; -810.122; -720.780
594.074;  327.677; -611.096; -588.826
594.350;  800.793;  828.905;  729.172
594.626;  345.999; -303.111; -283.801
594.903;   81.414; -643.101; -645.817
595.179;  258.288;  243.896;  418.187
595.455;   14.146; -136.107; -150.807
595.731;   66.990;  -19.103;  -38.814
596.008;  -60.509; -464.111; -434.800
596.284;   16.636; -187.100; -242.820
596.560;   10.823; -501.093; -493.833
596.836;  196.667; -173.105;  -70.810
597.112;  332.431; -582.108; -437.805
597.388;  301.174;  -49.097;  -48.826
597.665;  216.171;  437.887;  530.203
597.941; -114.935; -572.089; -658.839
598.217;   15.410; -323.110; -293.802
598.493;  305.724;   61.891; -204.804
598.769;  560.928; -175.100;  -50.819
599.045;  267.635; -490.108; -562.806
599.321;   18.535; -193.100; -261.820
599.597;  133.023; -355.109; -476.804
599.872;  582.184;  409.896;  429.187
600.148;  362.476;  -61.097; -172.826
600.424;  377.442;   91.893;  202.193
600.700;  233.345; -170.107; -280.807
600.976;  126.968; -442.097; -464.825
601.252;  247.518; -226.109; -272.803
601.527;  120.586; -833.104; -840.813
601.803;  129.175; -453.105; -404.812
602.079;  238.028; -124.100; -118.819
602.354;  539.537; -620.092; -531.835
602.630;  829.867; -140.113; -482.796
602.906; 2543.321; -910.101; -863.818
603.181; 6846.396; -627.119; -534.786
603.457; 5996.673;   98.903; -278.826
603.733;  877.072; -605.120; -626.783
604.008; 1124.962; -245.106; -164.810
604.284; 3143.316; -636.101; -580.817
604.559; 2909.583;   -3.112;  -42.799
604.835;  526.666; -163.105; -225.810
605.110;  361.642; -732.099; -892.821
605.385;  806.927;  224.907;  267.167
605.661;  665.697; -625.095; -729.829
605.936; 1074.535; -664.108; -737.806
606.211; 1016.099;  -17.103; -170.815
606.487;  197.352; -329.114; -376.794
606.762;  -77.403; -791.119; -745.786
607.037;  -82.433; -501.105; -433.810
607.313; -120.213; -589.096; -574.828
607.588;    2.462; -375.106; -137.810
607.863;   62.120;  -28.101; -143.818
608.138;  265.208;  513.890;  516.198
608.413;  -43.552; -576.099; -592.822
608.688;   37.230; -203.108; -267.805
608.964;  147.253; -509.106; -218.809
609.239;  205.863; -107.105; -212.810
609.514;  298.774;  281.895;  240.188
609.789;  586.081; -187.104; -716.812
610.064;  851.685; -435.096; -609.827
610.339;  802.518; -855.109; -799.804
610.614; 1129.435; -131.100; -315.820
610.889;  714.575;  215.895;  107.188
611.163;    4.276; -407.104; -591.812
611.438;  111.254;   81.886; -167.794
611.713;  -35.484; -467.101; -499.817
611.988;   50.919; -144.101; -328.818
612.263; -146.898; -771.102; -717.815
612.538;  261.866;  385.887;  251.204
612.812;   61.037; -832.100; -911.820
613.087;   88.655; -358.098; -338.823
613.362; -115.454; -497.107; -557.807
613.637;   86.594;  261.897;  138.186
613.911;  -21.362; -256.092; -345.835
614.186;  101.243; -249.107; -292.807
614.460;  556.773; -842.081; -758.854
614.735;  791.299;  -55.087;  -17.843
615.010;  180.584;   43.912;  -82.841
615.284;  351.529;  360.892;  246.195
615.559;  302.636; -792.092; -955.835
615.833;  338.145;  -76.099;  -87.822
616.108;   -2.347; -225.090; -390.837
616.382;  219.501;  274.913;  402.156
616.656;  170.054; -241.090; -232.837
616.931;  495.746; -785.099; -700.822
617.205; 1007.286; -973.104; -979.813
617.480; 1038.816;  -91.125;    6.225
617.754;  138.012; -396.125; -128.774
618.028;  -19.830; -369.129; -382.768
618.302;  100.227;   73.892;  -25.805
618.577; -120.404; -371.103; -518.815
618.851; -119.387; -399.109; -600.803
619.125;  -79.194; -335.134; -378.759
619.399;  -54.613; -244.104; -374.813
619.673;  -71.063; -330.115; -515.792
619.947; -108.642; -333.114; -448.795
620.222;  -28.100; -198.110; -204.801
620.496;   -7.731;  -47.121;  -96.782
620.770;   20.857; -187.122;  -93.781
621.044;  283.464;  323.895;  346.190
621.318;  769.173; -653.120; -614.783
621.592;  624.970; -430.121; -409.783
621.866;  263.284; -476.112; -572.799
622.140;   25.328; -207.116; -356.791
622.413;  104.190;  138.889;  112.200
622.687;  -84.184; -746.101; -492.817
622.961;   48.027; -130.108; -143.805
623.235; -138.708; -633.111; -661.800
623.509; -207.326; -816.105; -848.811
623.783;   32.340;  -12.107;   48.193
624.056;  -32.325; -254.120; -280.783
624.330;   91.875;   63.888;   -3.797
624.604;   41.623; -271.116; -355.790
624.877;   72.706;  180.890;   26.198
625.151;   47.850; -249.114; -238.794
625.425;  -38.210; -150.103; -283.814
625.698;  -77.312; -367.119; -374.785
625.972; -172.190; -799.110; -765.802
626.245;  178.126;  685.884;  484.210
626.519;  -80.819; -426.120; -340.784
626.792;  -24.555; -192.107; -380.807
627.066; -156.553; -485.122; -662.779
627.339; -151.896; -736.110; -663.802
627.613;   84.479;  351.880;  148.216
627.886;  119.713;  187.891; -612.803
628.160;  -13.127;  312.880; -161.783
628.433; -176.880; -695.125; -703.775
628.706; -143.619; -517.120; -615.784
628.979;   67.829;  296.876;  117.223
629.253; -172.705; -785.119; -833.786
629.526;  344.098; -334.126; -253.772
629.799;  240.440; -641.123; -479.778
630.072;   99.672; -497.128; -516.769
630.346; -224.474;-1115.116;-1080.790
630.619;  429.446; -467.107; -545.808
630.892;  726.192;  709.889;  593.200
631.165;  429.487;  790.896;  679.187
631.438; -203.120;-1092.112;-1055.798
631.711;  125.744;  453.877;  257.221
631.984; -123.281; -523.117; -624.789
632.257; -127.786; -636.117; -681.789
632.530; -106.311; -412.119; -433.785
632.803;   56.947; -109.115;    7.207
633.076; -114.865; -360.123; -422.777
633.349;   57.178;  173.872;  121.231
633.622;  -62.013; -187.119; -240.785
633.895; -239.025; -903.120; -823.783
634.167;  -79.399; -496.126; -525.773
634.440;   51.435;  -19.116; -137.792
634.713;    3.594;  -22.119; -120.786
634.986;  214.763;  593.871;  453.233
635.258; -152.855; -507.115; -597.793
635.531;  199.908;  742.882; -343.788
635.804;  -24.183; -303.117; -318.789
636.077; -179.771; -830.116; -852.791
636.349; -105.658; -586.115; -474.793
636.622;  687.997; 1695.874; 1392.228
636.894;  189.681; -474.120; -909.784
637.167;   32.188; -836.127; -789.771
637.439;   40.383; -278.128; -213.770
637.712;  -53.501; -312.126; -293.772
637.984; -157.970; -635.116; -707.791
638.257;  550.436;  515.877;  488.222
638.529;  576.421; -881.125; -924.776
638.802;  248.172; -508.128; -449.769
639.074; -213.244; -927.122; -952.781
639.346; -218.506; -942.135; -930.757
639.619;   -0.800;  -79.142; -319.744
639.891;    5.447;  -83.122; -168.779
640.163; -135.650; -689.122; -756.780
640.435;  111.652;  273.878;  103.220
640.708;   26.755;  -72.122; -132.780
640.980;  -61.342; -366.122; -362.781
641.252;  309.260;  -25.121;  -71.781
641.524; 2334.363;  580.879;  573.219
641.796; 2117.666;-1094.121; -907.782
642.068;  415.568; -191.121; -300.782
642.340; -121.829; -486.121; -566.783
642.613;  141.773;  294.880;  323.217
642.885; -150.324; -787.120; -878.783
643.157; -136.321; -810.120; -658.784
643.428;  155.581;  170.880;  218.216
643.700; -106.416; -498.120; -425.784
643.972;  -17.713;  -16.119; -133.785
644.244; -140.711; -474.119; -559.785
644.516;  -53.108; -250.119; -114.786
644.788;  198.795;  662.881;  548.214
645.060;   -3.903;  -12.119; -124.786
645.332; -119.100; -525.118; -535.787
645.603;  109.002;  479.882;  342.213
645.875; -112.795; -334.118; -369.787
646.147;  354.908; 1487.882; 1242.212
646.418; -178.290; -931.117; -918.788
646.690;   30.713; -714.117; -715.789
646.962;  -22.384; -413.117; -451.789
647.233;   24.018;   15.883;   11.211
647.505; -161.079; -595.117; -475.790
647.776;   97.024;  328.884;  229.210
648.048;  -11.174; -248.116; -418.790
648.320; -167.371; -752.116; -679.791
648.591; -244.769;-1055.116; -958.791
648.862; -133.066; -505.116; -577.792
649.134;   55.637;  115.885;  198.208
649.405; -116.961; -661.115; -618.792
649.677;  -95.158; -475.115; -598.793
649.948;   21.445; -181.115; -296.793
650.219;   23.047;  -37.115; -147.793
650.491; -129.650; -431.114; -520.794
650.762; -207.147; -705.114; -731.794
651.033; -131.945; -437.114; -424.795
651.304; -191.242; -743.114; -728.795
651.576; -134.340; -680.114; -645.795
651.847;  -40.137; -250.113; -140.796
652.118;    6.066;  -32.113; -189.796
652.389; -156.932; -639.113; -722.796
652.660;   -7.629; -147.113;  -89.797
652.931; -231.526; -897.112; -871.797
653.202; -126.824; -382.112; -541.798
653.473; -112.421; -633.112; -533.798
653.744;  128.482; -595.112; -590.798
654.015;  119.784; -356.112; -303.799
654.286; -134.613; -642.111; -663.799
654.557;  -99.611; -586.111; -521.799
654.828; -284.208;-1114.111;-1088.800
655.099; -114.205; -404.111; -291.800
655.370; -126.103; -427.111; -543.801
655.641; -190.900; -656.110; -714.801
655.911; -141.697; -618.110; -638.801
656.182;  204.405;  437.890;  387.198
656.453;  278.208;  830.890;  746.198
656.724;  -95.989; -466.110; -426.802
656.994; -121.887; -553.109; -568.803
657.265; -190.584; -862.109; -873.803
657.536; -118.282; -500.109; -377.804
657.806; -145.579; -561.109; -593.804
658.077; -246.176; -866.109; -950.804
658.347; -153.174; -523.108; -598.805
658.618; -213.571; -646.108; -694.805
658.888;   -1.168;  -41.108;  112.195
659.159; -145.766; -432.108; -548.806
659.429;  -15.363; -292.108; -349.806
659.700;  -15.460; -435.107; -390.807
659.970;  -41.558; -370.107; -359.807
660.241;  -70.055; -754.107; -921.807
660.511;  534.747; -147.107; -174.808
660.781;   55.950; -793.106; -748.808
661.052;  -36.947; -222.106; -381.808
661.322;    1.455;   21.894;   -9.809
661.592;   68.758;  257.894;  148.191
661.862; -111.739; -369.106; -382.810
662.133; -133.037; -551.105; -502.810
662.403; -206.334; -770.105; -676.810
662.673;  -63.231; -256.105; -213.811
662.943; -132.529; -612.105; -551.811
663.213;    2.674;  -85.105;  -81.811
663.483; -127.524; -593.104; -568.812
663.753;  -29.621; -194.104; -152.812
664.023;   42.382;   68.896;  -32.813
664.293; -116.816; -319.104; -126.813
664.563; -183.013; -694.104; -648.813
664.833; -221.110; -743.103; -608.814
665.103; -240.808; -730.103; -793.814
665.373; -231.105; -766.103; -806.814
665.643; -190.302; -863.103; -918.815
665.913;    4.100; -534.103; -714.815
666.182;  101.703; -685.102; -719.816
666.452;  297.905;  -22.102;  -89.816
666.722;  -95.092; -724.102; -784.816
666.992; -221.989; -948.102; -921.817
667.261; -182.287; -824.102; -808.817
667.531;  317.516;  134.899;   45.183
667.801;  702.219; -440.101; -412.818
668.070;  441.021;  714.899;  697.182
668.340; -175.076; -883.101; -840.819
668.609;  195.427;  588.900;  301.181
668.879; -129.871; -490.100; -558.819
669.149; -119.068; -539.100; -516.820
669.418; -160.066; -698.100; -726.820
669.688;  -96.363; -482.100; -666.820
669.957;   27.140; -423.099; -546.821
670.226;  -29.158; -268.099; -331.821
670.496; -141.355; -431.099; -635.822
670.765; -143.152; -418.099; -501.822
671.034; -258.550; -872.099; -828.822
671.304;   29.653;   55.902; -111.823
671.573; -273.344;-1085.098; -957.823
671.842;   24.058; -380.098; -294.823
672.112;  -12.339; -692.098; -586.824
672.381;   -8.837; -239.098; -214.824
672.650; -246.934;-1005.097;-1021.825
672.919; -159.731; -631.097; -507.825
673.188; -162.129; -681.097; -878.825
673.457; -281.826;-1101.097;-1143.826
673.726; -160.123; -579.096; -646.826
673.995;  -82.721; -533.096; -479.826
674.265;  -26.318; -263.096; -333.827
674.534;    9.785; -183.096; -235.827
674.802;  -56.013; -618.096; -703.828
675.071; 1018.790; -886.095; -801.828
675.340; 4001.592; -464.095; -339.828
675.609; 1403.895;  103.905;   82.171
675.878;  -12.302; -949.095; -893.829
676.147;   37.700;  -26.095;   -8.829
676.416;   61.103; -210.094; -294.830
676.685;  878.906; 1000.906; -622.830
676.953;   70.508; -603.094; -452.831
677.222;  -36.989; -193.094; -273.831
677.491;  -12.486;  -24.094; -127.831
677.759;   34.616;   11.907;  172.168
678.028;   -5.881; -279.093; -222.832
678.297;   24.921;   71.907;  197.168
678.565; -238.676; -898.093; -944.833
678.834; -100.773; -311.093; -268.833
679.102; -117.971; -411.092; -391.834
679.371; -238.468; -898.092; -727.834
679.639; -219.465; -797.092; -786.834
679.908; -231.763; -794.092; -724.835
680.176; -268.760; -895.091; -941.835
680.445;  -79.657; -346.091; -352.835
680.713;   22.445;  -58.091;  -23.836
680.982; -166.852; -523.091; -525.836
681.250; -167.650; -578.091; -507.837
681.518; -143.047; -534.090; -751.837
681.787;  -21.544; -204.090; -167.837
682.055; -115.442; -490.090; -422.838
682.323; -272.239; -993.090; -992.838
682.591;   40.064; -216.090; -538.838
682.859;   77.166;    9.911;  -35.839
683.128;   81.369;  232.911;  497.161
683.396; -299.628;-1102.089;-1122.840
683.664;  -36.226; -241.089;   21.160
683.932;   23.077;  144.911;  -76.840
684.200; -144.521; -576.088; -320.841
684.468;   -6.118;  -73.088; -124.841
684.736;  -14.415; -214.088; -175.841
685.004; -254.513;-1024.088; -982.842
685.272; -148.110; -880.088; -774.842
685.540; -130.507; -499.087; -557.843
685.808; -146.305; -651.087; -682.843
686.076; -217.702; -894.087; -969.843
686.343; -126.499; -601.087; -815.844
686.611;   67.803; -195.087; -224.844
686.879;  551.406; -530.086; -553.844
687.147; 3370.408; -483.086; -480.845
687.414; 1000.411;  -12.086; -169.845
687.682;  -80.286; -658.086; -757.846
687.950;  357.516;  259.915;  263.154
688.217;  -49.781; -792.085; -760.846
688.485;  -46.878; -632.085; -636.847
688.753;  583.824;  -11.085; -102.847
689.020;   66.127; -820.085; -851.847
689.288; -169.870; -853.084; -787.848
689.555;   -6.068; -195.084; -148.848
689.823;  -44.065; -241.084; -345.849
690.090; -147.963; -546.084; -651.849
690.358; -286.460; -877.084; -897.849
690.625;   54.843;  120.917;   45.150
690.892; -114.355; -403.083; -369.850
691.160;   -8.852;   72.917;  -35.850
691.427;   74.951;  141.917;  130.149
691.694; -253.447; -855.083; -929.851
691.962; -264.544;-1177.082;-1060.852
692.229;   71.759;  127.918;   56.148
692.496;  127.361;  130.918;  -49.852
692.763;   40.264; -164.082; -201.853
693.031; -106.034; -739.082; -716.853
693.298;  -74.031; -509.081; -368.853
693.565;  362.572; -155.081; -163.854
693.832; 1345.474;   -5.081;   -9.854
694.099;  132.277; -643.081; -642.855
694.366; -150.220; -882.081; -896.855
694.633; -116.818; -920.080; -633.855
694.900; 1503.085; 4367.920; -114.856
695.167;  462.688; -214.080; -380.856
695.434;  110.890; -646.080; -623.856
695.701;  331.093;  121.921;  -61.857
695.968;  586.895; -365.079; -361.857
696.234; 1639.898; -415.079; -646.858
696.501;16178.101; -776.079; -614.858
696.768; 7687.703; -554.079; -617.858
697.035;  516.206; -632.078; -667.859
697.302;   85.009; -448.078; -552.859
697.568;   49.511; -458.078; -497.859
697.835;  -65.586; -683.078; -624.860
698.102;   -9.783; -498.078; -407.860
698.368;  208.919;  384.923;  396.139
698.635;  -25.778;  -47.077; -424.861
698.901;   -4.476; -240.077; -348.861
699.168;   75.227; -534.077; -456.862
699.435;   97.230;  -72.077;  -13.862
699.701; -211.668; -868.076; -764.862
699.968;  -56.165;  144.924; -441.863
700.234; -180.962; -783.076; -822.863
700.500;  -57.760; -448.076; -539.864
700.767;   44.043;   -1.075;   26.136
701.033; -232.154;-1015.075; -963.864
701.299;  -76.452; -450.075; -483.865
701.566;  286.551;  950.925;  763.135
701.832;  105.653;  -31.075;  -76.865
702.098; -174.044;-1054.074;-1034.866
702.365; -184.941;-1098.074;-1030.866
702.631;  -72.239;-1038.074;-1063.867
702.897; 1792.164; -765.074; -676.867
703.163; 2671.867;  348.926;  254.133
703.429;  221.069; -256.073; -273.868
703.695;  -88.028; -796.073; -792.868
703.961;   57.875; -214.073; -210.868
704.227; -139.223; -630.073; -725.869
704.493;  272.080;  613.927;  510.131
704.759;    1.882; -565.072; -540.870
705.025;  100.185; -203.072; -194.870
705.291;    5.588; -666.072; -562.870
705.557;  415.490;  719.928;   34.129
705.823;   67.993; -742.072; -694.871
706.089;  269.096; -307.071; -326.871
706.355;  726.498; -315.071; -244.872
706.620;10055.301; -776.071; -729.872
706.886;11885.604; -309.071; -362.873
707.152;  980.206; -818.070; -973.873
707.418;  -55.691;-1153.070;-1186.873
707.683;   13.911; -550.070; -530.874
707.949;  -32.186; -547.070; -578.874
708.215;   49.817; -129.070; -207.874
708.480;  -25.681; -520.069; -420.875
708.746;  153.922;   68.931;   28.125
709.011;  -55.175; -578.069; -612.876
709.277; -104.773; -538.069; -543.876
709.542;  -49.570; -428.069; -387.876
709.808;   24.933;  -59.068;   89.123
710.073; -137.265; -577.068; -695.877
710.339;    4.638; -242.068; -228.877
710.604;   58.640; -780.068; -845.878
710.869;  381.743; -277.068; -366.878
711.135; -108.454; -715.067; -628.879
711.400; -128.252; -507.067; -608.879
711.665;  -74.549; -404.067; -479.879
711.931; -155.346; -661.067; -677.880
712.196; -205.944; -876.067; -954.880
712.461;  102.259; -402.066; -490.880
712.726;   61.562; -727.066; -771.881
712.991; -139.536; -647.066; -664.881
713.256;  -32.133; -350.066; -332.882
713.521; -108.331; -417.065; -381.882
713.787;  -85.128; -454.065; -472.882
714.052;  -14.925; -214.065; -400.883
714.317; -175.723;-1045.065; -981.883
714.581; 1818.680; -374.065; -268.883
714.846; 2162.083; -822.064; -888.884
715.111;  254.885;  261.936;  257.116
715.376;   -7.612;  -86.064; -223.885
715.641;   -0.109; -365.064; -367.885
715.906;  307.393;   15.936; -551.885
716.171;  223.796;  221.937;  209.114
716.436;   83.598;  -78.063; -104.886
716.700; -172.799; -818.063; -692.886
716.965; -198.596; -794.063; -807.887
717.230;  -87.094; -339.063; -392.887
717.494;    6.809;  -40.062; -134.888
717.759; -160.088; -784.062; -640.888
718.024;   80.614;  269.938;  250.112
718.288;  202.417;  685.938;  395.111
718.553; -248.780; -803.062; -977.889
718.817; -259.978; -883.061; -899.889
719.082;  -24.275; -115.061; -125.890
719.346; -223.873;-1000.061; -947.890
719.611;  -68.070; -300.061; -255.891
719.875; -170.767; -568.060; -537.891
720.140;  -95.265; -453.060; -603.891
720.404;   46.038; -136.060; -249.892
720.668;  899.741; -475.060; -411.892
720.933;  376.243;  146.940;  137.108
721.197; -160.954; -667.059; -600.893
721.461; -226.351; -851.059; -826.893
721.725;   32.851;  -21.059; -250.894
721.990;  -51.746; -284.059; -204.894
722.254;   10.656;  -26.059; -108.894
722.518;  -65.341; -286.058; -442.895
722.782; -144.038; -743.058; -594.895
723.046;  257.364;  614.942;  570.105
723.310;  104.767;  374.942;  210.104
723.574; -132.430; -654.058; -614.896
723.838; -160.528; -576.057; -642.897
724.102;  -33.525; -226.057; -239.897
724.366; -255.122;-1032.057; -978.897
724.630; -128.320; -749.057; -571.898
724.894;  -97.117; -722.057; -514.898
725.158;   22.385;   38.944; -295.898
725.422;  -88.112; -394.056; -327.899
725.685;  -62.609; -441.056; -349.899
725.949; -157.007; -566.056; -519.900
726.213; -134.204; -732.056; -811.900
726.477;   83.899;-1020.055; -933.900
726.740;  202.601; -274.055; -104.901
727.004;  546.804; -384.055; -510.901
727.268; 5223.807; -442.055; -400.901
727.531; 1276.009; -961.055; -775.902
727.795;  -69.688; -713.054; -673.902
728.059; -103.586; -552.054; -557.903
728.322; -104.083; -841.054; -669.903
728.586;  -58.480; -692.054; -701.903
728.849; -189.978; -695.053; -756.904
729.112; -194.875; -812.053; -912.904
729.376; -195.472; -959.053; -905.904
729.639; -118.070; -536.053; -536.905
729.903; -158.967; -733.053; -699.905
730.166;  -33.264; -437.052; -399.906
730.429;  -26.262; -317.052; -468.906
730.693; -119.959; -355.052; -894.906
730.956;  376.043;  810.948;  651.093
731.219;  806.046; -310.052; -103.907
731.482;   78.449;-1003.051; -894.907
731.745;   30.251; -794.051; -935.908
732.009;   77.454;  -30.051;   50.092
732.272; -154.643; -904.051; -771.909
732.535;  -39.041; -300.051; -310.909
732.798; -256.138;-1083.050;-1166.909
733.061;  -73.735; -430.050; -456.910
733.324;   65.467;   31.950; -180.910
733.587;  165.670;  290.950;  365.090
733.850; -112.927; -973.049;-1050.911
734.113;  121.275;   33.951;   32.089
734.376;   11.078; -328.049; -447.912
734.639;  420.780; 1188.951; 1011.088
734.901;   96.883; -180.049; -402.912
735.164;  581.386; -883.048; -837.913
735.427; 1476.588; -166.048; -355.913
735.690;  191.291; -205.048; -234.913
735.952;  -85.306; -923.048; -925.914
736.215;  -95.004;-1113.048;-1009.914
736.478;   49.299; -771.047; -774.915
736.740;  327.702;   33.953;  129.085
737.003;  884.404; -658.047; -672.915
737.266; 4532.407;  -94.047;   46.084
737.528;  516.309; -682.047; -660.916
737.791;  456.612; -316.046; -327.916
738.053; 1296.015;  465.954;  649.083
738.316;16346.317; -162.046; -136.917
738.578;10083.720; -770.046; -736.918
738.841;  663.923; -382.046; -446.918
739.103;  230.425; -875.045; -777.918
739.365;  695.028;   79.955;  -69.919
739.628;   -7.469; -884.045; -805.919
739.890;  -45.767; -758.045; -710.919
740.152;  -85.664; -692.044; -754.920
740.414;    0.138; -408.044; -359.920
740.677;  -80.859; -785.044; -634.921
740.939;  -66.056; -587.044; -487.921
741.201;  287.546; -432.044; -572.921
741.463;    0.649; -689.043; -745.922
741.725;   31.252;  -21.043; -199.922
741.987;  119.454;  220.957;  116.078
742.249;  -67.443; -751.043; -859.923
742.511;  191.060; -703.043; -794.923
742.773;    5.562; -546.042; -546.924
743.035;  250.565;  796.958;  533.076
743.297;  -96.233; -963.042;-1013.924
743.559;  951.270; -278.042; -262.925
743.821;   -6.227; -735.042; -744.925
744.083;   84.675;  -44.041; -149.925
744.345; -149.922; -869.041; -892.926
744.607;  107.581;   75.959;  122.074
744.868;  -55.917; -490.041; -554.927
745.130; -192.814; -994.041;-1008.927
745.392;  107.389;   -1.040;  -44.927
745.653;   19.091; -411.040; -378.928
745.915;  351.694;  896.960;  631.072
746.177;  160.496;   35.960;  -43.928
746.438;  -27.101; -428.040; -543.929
746.700; -127.098; -947.039; -988.929
746.961;  -31.796; -659.039; -740.930
747.223;  224.207; -190.039;  -74.930
747.484;  158.310; -391.039; -471.930
747.746;  264.012;  -23.038; -106.931
748.007;  107.715; -647.038; -689.931
748.269;  463.318; -468.038; -440.931
748.530;  518.920; -852.038; -638.932
748.791;  388.523; -354.038; -420.932
749.053;  666.125;  286.963;  163.067
749.314;  617.028; -236.037; -169.933
749.575;  624.831; -945.037; -905.933
749.836; 1126.633; -217.037;   86.066
750.098; 3677.236;  -60.037;  -21.934
750.359;46519.139;  414.964;  555.066
750.620;10702.641; -121.036; -220.935
750.881; 1325.044; -585.036; -513.935
751.142; 1934.447; -950.036; -938.936
751.403;25079.349; -789.036; -705.936
751.664; 9526.952;-1034.035; -999.936
751.925;  771.254; -175.035; -262.937
752.186;  469.457; -298.035; -278.937
752.447;  204.560; -590.035; -445.937
752.708;   97.162; -532.035; -648.938
752.969;   22.065; -566.034; -576.938
753.230;  -36.132; -777.034; -672.939
753.491;    8.970; -650.034; -631.939
753.751;  165.573;  109.966;   19.061
754.012;  213.376;  258.967;  181.060
754.273;  116.978; -174.033;  -71.940
754.534;    7.981; -487.033; -580.940
754.794; -164.117; -926.033; -911.941
755.055;  362.886; 1051.967;  881.059
755.316;  -63.411; -700.032; -566.942
755.576;   -5.709; -606.032; -576.942
755.837;  -66.906; -527.032; -695.942
756.097;  -33.103; -530.032; -564.943
756.358; -129.701; -725.032; -770.943
756.618;  -92.798; -705.031; -641.943
756.879;   17.205; -254.031; -349.944
757.139; -219.293;-1098.031;-1116.944
757.400;  -79.390; -538.031; -553.945
757.660;    8.612; -365.031; -401.945
757.920;   37.615; -266.030; -228.945
758.181;   24.618; -468.030; -351.946
758.441; -159.980; -870.030; -809.946
758.701;   -7.177; -308.030; -215.946
758.961;  -20.574; -220.030; -278.947
759.222;  -53.972; -574.029; -502.947
759.482; -145.769; -683.029; -723.948
759.742;  -89.466; -706.029; -547.948
760.002;   68.536;  -83.029; -143.948
760.262;   86.839;   50.972;  182.051
760.522;  -61.159; -498.028; -574.949
760.782;  -63.256; -738.028; -612.949
761.042;  -36.653; -618.028; -573.950
761.302;  149.849;   55.972;  -18.950
761.562;  141.552; -164.027; -154.951
761.822;  145.155; -710.027; -551.951
762.082;  -68.443;-1104.027;-1093.951
762.342;  158.360; -328.027; -403.952
762.601;  158.063; -567.027; -506.952
762.861;  508.865; -281.026; -207.952
763.121;  731.968; -406.026; -411.953
763.381;13148.270; -499.026; -485.953
763.640;12032.873; -139.026; -307.954
763.900;  596.676; -242.026; -203.954
764.160;  192.578; -458.025; -491.954
764.419;    7.481; -726.025; -782.955
764.679;  -76.216; -795.025; -726.955
764.939;    2.886; -124.025; -210.955
765.198; -106.811; -608.025; -563.956
765.458; -107.808; -710.024; -612.956
765.717;  -98.506; -454.024; -590.957
765.976;  -67.903; -428.024; -411.957
766.236; -115.901; -475.024; -610.957
766.495;  103.302;  260.977;   73.042
766.755; -203.095;-1090.023; -987.958
767.014;  -27.893; -594.023; -665.958
767.273;  -48.590; -373.023; -397.959
767.533;   -8.687; -228.023; -307.959
767.792;  -17.885; -151.022; -188.960
768.051;  -46.482; -228.022; -276.960
768.310; -138.079; -546.022; -650.960
768.569;   50.223; -161.022;    4.039
768.828;   19.026; -285.022; -363.961
769.088; -196.272;-1050.021; -942.961
769.347; -113.369; -755.021; -599.962
769.606; -147.166; -876.021; -857.962
769.865; -204.664;-1016.021;-1033.963
770.124;   51.739; -411.021; -336.963
770.383;  -84.258; -778.020; -910.963
770.641;   36.844; -398.020; -400.964
770.900;  -96.053; -953.020; -846.964
771.159;  -58.850; -851.020; -951.964
771.418;  -10.548; -917.020; -779.965
771.677;  284.455; -224.019; -293.965
771.936;  306.157; -794.019; -865.966
772.194; 4888.960; -465.019; -437.966
772.453;18153.263; -213.019; -391.966
772.712; 1397.565;  416.982;  329.033
772.970;  297.768;   32.982;   63.033
773.229;  268.971;  -22.018;  102.033
773.488; -139.527; -814.018; -770.968
773.746;  179.076;  296.982;  335.032
774.005;   95.279;  190.983;  -22.969
774.263;  108.481;  243.983;  177.031
774.522; -109.816; -422.017; -548.969
774.780;  -85.014; -484.017; -417.970
775.039; -123.311; -551.017; -531.970
775.297;  -17.208; -135.016; -351.970
775.555; -138.306; -489.016; -612.971
775.814; -178.703; -618.016; -570.971
776.072; -195.600; -749.016; -740.971
776.330; -142.698; -630.016; -520.972
776.589; -192.495; -703.015; -721.972
776.847; -214.192; -645.015; -624.973
777.105; -267.690;-1016.015;-1032.973
777.363;  -80.887; -459.015; -454.973
777.621; -198.485; -660.015; -717.974
777.879;   44.718;  -42.014;   32.026
778.138; -142.479; -554.014; -717.974
778.396; -156.177; -585.014; -526.975
778.654; -297.674;-1015.014; -970.975
778.912;  -89.871; -269.014; -371.976
779.170; -218.369; -880.013; -803.976
779.427; -225.266; -922.013; -897.976
779.685; -237.963; -880.013; -832.977
779.943; -131.161; -654.013; -593.977
780.201; -276.358; -964.012; -883.978
780.459; -177.456; -651.012; -610.978
780.717;  -98.253; -440.012; -390.978
780.974;  -90.150; -449.012; -490.979
781.232;  -69.948; -358.012; -338.979
781.490; -134.745; -551.011; -472.979
781.747; -135.042; -555.011; -476.980
782.005;  114.060;  462.989;  254.020
782.263; -280.637; -542.011;-1004.981
782.520;  -97.534; -326.011; -501.981
782.778; -267.232;-1013.010;-1051.981
783.035; -272.329; -962.010; -938.982
783.293;  -70.927; -248.010; -206.982
783.550;  -57.124; -134.010; -198.982
783.808; -211.221; -764.010; -776.983
784.065; -231.019; -745.009; -874.983
784.322;  -11.416;   25.991;  -86.984
784.580; -236.913; -915.009; -771.984
784.837; -117.211; -392.009; -466.984
785.094; -213.108; -783.009; -762.985
785.352;  -81.105; -304.008; -404.985
785.609; -173.303; -934.008; -839.985
785.866; -107.900; -345.008; -401.986
786.123; -178.398; -639.008; -583.986
786.380; -187.695; -665.008; -604.987
786.637;  -31.892; -225.007; -380.987
786.895;  -56.690; -456.007; -543.987
787.152;    5.213; -135.007; -267.988
787.409;  -10.284; -123.007; -225.988
787.666; -124.482; -299.006; -378.988
787.923; -128.479; -616.006; -695.989
788.179; -131.776; -551.006; -584.989
788.436; -173.274; -585.006; -585.990
788.693;   39.829;  -92.006;  -87.990
788.950;  194.831; -125.005; -112.990
789.207;  165.034; -381.005; -372.991
789.464;  -36.863; -161.005; -301.991
789.720;   66.639;  150.995;  110.009
789.977; -279.658;-1003.005; -671.992
790.234;    8.645;   44.996;  -66.992
790.490; -245.753; -884.004;-1031.993
790.747;   35.250;  -85.004;   22.007
791.004;  -18.147; -426.004; -348.993
791.260;  -89.545; -430.004; -560.994
791.517; -165.742; -843.003; -788.994
791.773;  -51.940; -379.003; -342.994
792.030; -169.737; -596.003; -660.995
792.286; -147.434; -686.003; -636.995
792.543;   11.168;  -74.002; -159.995
792.799;  -25.729; -584.002; -382.996
793.055; -269.926;-1179.002;-1210.996
793.312; -156.424; -827.002; -816.997
793.568;  -79.021; -746.002; -599.997
793.824;   29.882; -226.001; -284.997
794.081;   52.484; -447.001; -508.998
794.337;  113.487; -664.001; -561.998
794.593; 2530.889; -319.001; -271.999
794.849; 9563.892; -746.001; -772.999
795.105;  519.995; -270.000; -261.999
795.361;   34.397; -490.000; -457.000
795.617; -122.600; -875.000; -945.000
795.873;  -59.300; -360.000; -407.000
796.129;  -30.500; -368.000; -306.000
796.385;   11.500; -124.000; -156.000
796.641;  196.100;  412.000;  550.000
796.897;  -76.200; -666.000; -635.000
797.153;  211.100;  453.000;  357.000
797.409; -161.200; -785.000; -868.000
797.665; -103.500; -625.000; -732.000
797.921; -112.100; -775.000; -762.000
798.176;  -79.600; -744.000; -747.000
798.432;  -99.000; -824.000; -596.000
798.688; -123.400;-1174.000;-1078.000
798.943;  192.400; -165.000; -147.000
799.199;   10.200;-1005.000; -959.000
799.455;  459.400;  369.000;  316.000
799.710;  260.600; -813.000; -380.000
799.966;  532.300; -162.000; -160.000
800.221;  765.900; -638.000; -721.000
800.477;17396.200; -743.000; -710.000
800.732;12087.200; -773.000; -800.000
800.988; 1090.300;  205.000;  -19.000
801.243; 4538.200; -454.000; -344.000
801.498;15520.300; -814.000; -739.000
801.754;  914.800; -289.000; -163.000
802.009;  220.900; -257.000; -335.000
802.264;  -46.900; -967.000;-1033.000
802.520;  125.900;  222.000;   -3.000
802.775;  -34.700; -524.000; -359.000
803.030;  181.500;  395.000;  356.000
803.285; -189.800; -840.000; -903.000
803.540; -109.600; -686.000; -699.000
803.795;  -82.900; -648.000; -583.000
804.051;  -27.900; -279.000; -346.000
804.306;  103.400;  168.000;  128.000
804.561;  248.200;  451.000;  362.000
804.816;  316.900;  714.000;  861.000
805.071;   17.400; -185.000; -280.000
805.325;  194.500; -257.000; -427.000
805.580; -167.700; -841.000; -877.000
805.835;   23.800; -204.000; -297.000
806.090; -114.800; -760.000; -676.000
806.345;   12.800; -344.000; -264.000
806.600;  -48.800; -549.000; -632.000
806.854;  -44.500; -408.000; -538.000
807.109;  -23.900; -493.000; -577.000
807.364;   61.400; -407.000; -328.000
807.618;   30.700; -415.000; -381.000
807.873;   74.900; -470.000; -494.000
808.128;  187.300; -257.000; -518.000
808.382;  178.300; -224.000; -332.000
808.637;  136.200; -440.000; -511.000
808.891;  320.400; -257.000; -180.000
809.146;  138.700; -902.000; -794.000
809.400;  339.900; -848.000; -923.000
809.654;  465.900; -779.000; -551.000
809.909;  749.900; -841.000; -927.000
810.163;10733.500; -813.000; -651.000
810.418;21660.700; -940.000; -861.000
810.672; 1492.800; -685.000; -690.000
810.926; 1094.800; -993.000; -973.000
811.180; 2559.800; -439.000; -372.000
811.434;54602.100;  240.000;  135.000
811.689;17138.100; -231.000; -365.000
811.943;  958.600; -936.000; -953.000
812.197;  572.800; -893.000; -671.000
812.451;  253.200; -379.000; -514.000
812.705;   -3.100; -809.000; -619.000
812.959;  -64.500; -263.000; -388.000
813.213;   49.000; -283.000; -209.000
813.467;  179.500;  470.000;  253.000
813.721; -154.100; -764.000; -792.000
813.975; -163.700; -826.000; -877.000
814.229;  191.500;  430.000;  353.000
814.482;  -93.600; -517.000; -566.000
814.736; -189.000; -766.000; -744.000
814.990; -207.200; -779.000; -872.000
815.244;  -45.500; -228.000; -285.000
815.497; -144.100; -636.000; -601.000
815.751;    5.800; -141.000;   82.000
816.005; -135.500; -470.000; -586.000
816.258;  -58.700; -510.000; -363.000
816.512; -175.200; -693.000; -610.000
816.766;   63.900;  121.000;  157.000
817.019;  130.600;  148.000;  149.000
817.273; -207.100;-1000.000; -802.000
817.526;    7.700; -206.000; -173.000
817.779; -143.100;-1049.000; -960.000
818.033; -162.000; -693.000; -807.000
818.286; -183.500; -725.000; -792.000
818.540; -128.600; -403.000; -403.000
818.793;  -88.400; -402.000; -489.000
819.046; -121.900; -582.000; -520.000
819.299;  -13.000; -157.000; -166.000
819.553; -170.200; -552.000; -592.000
819.806; -264.800;-1016.000; -838.000
820.059;  -28.200; -334.000; -354.000
820.312;   77.700;  152.000;  185.000
820.565;   32.400;  110.000;  -27.000
820.818;  -13.500;  -59.000; -173.000
821.071; -240.000;-1041.000; -957.000
821.324; -146.600; -536.000; -540.000
821.577; -148.300; -457.000; -483.000
821.830;  -66.400; -270.000; -172.000
822.083; -193.100; -733.000; -288.000
822.336;  -34.600; -261.000; -167.000
822.589; -220.600; -805.000; -688.000
822.842; -231.100; -875.000; -770.000
823.094; -318.500;-1076.000;-1114.000
823.347; -198.900; -925.000; -729.000
823.600;   87.200;  402.000;  187.000
823.853;  -51.200; -311.000; -267.000
824.105;  -81.800; -331.000; -575.000
824.358; -163.400; -617.000; -716.000
824.611;   82.700;  234.000;   40.000
824.863;  -39.400; -612.000; -591.000
825.116;  115.300;  -33.000;   27.000
825.368;   96.500; -366.000; -372.000
825.621;  214.500; -186.000; -240.000
825.873;  113.700; -704.000; -737.000
826.126; 1103.500; -669.000; -641.000
826.378;18416.500; -389.000; -505.000
826.630; 3202.600; -890.000; -898.000
826.883;   49.600; -754.000; -693.000
827.135;  104.300; -279.000; -270.000
827.387; -193.600; -893.000; -839.000
827.639;   10.400;  -86.000;   32.000
827.892; -180.700; -742.000; -582.000
828.144; -258.900; -848.000; -804.000
828.396;    2.200;  104.000;  -80.000
828.648; -117.000; -440.000; -333.000
828.900; -243.100; -702.000; -795.000
829.152; -170.200; -684.000; -683.000
829.404;  -39.300; -215.000; -267.000
829.656;   58.000;  321.000;  214.000
829.908;   73.800;  393.000;  229.000
830.160; -309.800;-1064.000;-1047.000
830.412; -144.400; -481.000; -430.000
830.664; -177.600; -557.000; -665.000
830.916; -100.600; -268.000; -206.000
831.167; -281.800;-1073.000; -951.000
831.419; -171.000; -623.000; -566.000
831.671; -207.700; -764.000; -809.000
831.923; -123.200; -311.000; -447.000
832.174;  -81.600; -273.000; -331.000
832.426; -155.300; -493.000; -582.000
832.678; -299.900;-1043.000;-1091.000
832.929; -285.600; -947.000; -935.000
833.181; -123.900; -575.000; -677.000
833.432;  -15.800;  -59.000; -186.000
833.684;   15.400;  112.000;  -27.000
833.935; -155.800; -610.000; -566.000
834.187; -182.000; -829.000; -823.000
834.438;  -21.400;  -58.000;  -25.000
834.689;  -30.700; -255.000; -123.000
834.941;  -38.700; -343.000; -244.000
835.192; -148.000; -590.000; -533.000
835.443; -139.800; -419.000; -506.000
835.695;   41.000;  138.000;  -16.000
835.946; -143.800; -608.000; -378.000
836.197; -168.100; -599.000; -622.000
836.448; -103.000; -528.000; -395.000
836.699;  -72.900; -253.000; -341.000
836.950;   12.200;   72.000;    7.000
837.201; -254.400;-1003.000; -987.000
837.452;  -39.000; -356.000; -170.000
837.703; -212.700; -791.000; -737.000
837.954;  -29.600; -205.000; -365.000
838.205; -138.400;-1029.000;-1008.000
838.456;  219.200; -196.000; -282.000
838.707;   -3.100; -423.000; -519.000
838.958;   11.100; -634.000; -647.000
839.209;  360.500;   18.000;   40.000
839.460;  166.300; -439.000; -201.000
839.710;  263.900; -135.000; -297.000
839.961;  719.400;  730.000;  612.000
840.212;  482.000; -382.000; -497.000
840.462; 1979.900; -328.000; -277.000
840.713;29612.300; -571.000; -536.000
840.964; 9082.300;  -62.000; -143.000
841.214;  704.200; -384.000; -624.000
841.465;  832.400; -214.000; -141.000
841.715;  685.800; -417.000; -380.000
841.966;  858.000; -746.000; -685.000
842.216;14811.400; -330.000; -431.000
842.466;43676.100; -169.000; -313.000
842.717; 1765.500; -964.000; -952.000
842.967;  419.500; -635.000; -641.000
843.217;  364.200;   20.000;   28.000
843.468;  146.400; -104.000; -132.000
843.718;  -80.300; -718.000; -726.000
843.968; -153.100; -837.000; -765.000
844.218;   37.200; -315.000; -262.000
844.469;  -68.100; -577.000; -561.000
844.719; -157.800; -537.000; -682.000
844.969; -119.600; -550.000; -580.000
845.219; -229.900; -814.000; -862.000
845.469;  -89.700; -392.000; -342.000
845.719; -216.200; -792.000; -884.000
845.969;   14.600;  119.000;  174.000
846.219; -179.000; -738.000; -720.000
846.469;   99.500;  464.000;  432.000
846.718;  -31.200; -115.000;   31.000
846.968; -210.300; -827.000; -827.000
847.218;  -30.600; -224.000; -371.000
847.468; -147.600; -586.000; -555.000
847.718; -241.500; -827.000; -798.000
847.967; -208.900; -826.000; -915.000
848.217; -115.400; -449.000; -569.000
848.467;  -64.700; -405.000; -376.000
848.716; -157.800; -708.000; -725.000
848.966;    2.100; -372.000; -358.000
849.215;  -60.700; -428.000; -419.000
849.465; -137.100; -785.000; -615.000
849.714; -253.500;-1132.000;-1150.000
849.964;  -76.800; -551.000; -613.000
850.213;  -32.600; -393.000; -355.000
850.463;  193.600;  137.000;  340.000
850.712;   13.900; -542.000; -567.000
850.961;   35.300; -739.000; -678.000
851.211;  167.900; -513.000; -504.000
851.460;  249.300; -635.000; -650.000
851.709;  934.400;  -25.000;   18.000
851.958;17698.700; -912.000; -750.000
852.208;16530.500; -859.000; -879.000
852.457;  673.700; -181.000;  -13.000
852.706;   83.000; -791.000; -823.000
852.955;   30.400; -507.000; -528.000
853.204;  -91.900; -521.000; -461.000
853.453;  -96.700; -418.000; -458.000
853.702; -202.900; -660.000; -750.000
853.951; -148.800; -532.000; -520.000
854.200; -148.600; -613.000; -562.000
854.449; -168.500; -695.000; -661.000
854.698; -116.100; -340.000; -279.000
854.946;  -65.700; -181.000; -284.000
855.195; -239.300; -843.000; -868.000
855.444; -130.300; -395.000; -420.000
855.693; -178.400; -345.000; -432.000
855.941; -156.900; -387.000; -516.000
856.190;  -56.000; -256.000; -382.000
856.439; -197.700; -652.000; -703.000
856.687;  -49.200;  -99.000;  -72.000
856.936; -149.400; -621.000; -323.000
857.184; -304.200;-1067.000;-1020.000
857.433; -131.000; -423.000; -512.000
857.681; -285.300; -989.000; -953.000
857.930;  -79.300; -282.000; -433.000
858.178; -264.200; -856.000; -929.000
858.427; -235.700; -802.000; -781.000
858.675; -203.500; -377.000; -544.000
858.923; -148.100; -527.000; -819.000
859.172; -286.800;-1094.000;-1070.000
859.420;  -97.500; -339.000; -239.000
859.668; -219.800; -624.000; -628.000
859.916;   37.200;  109.000;  115.000
860.164; -184.800; -699.000; -603.000
860.413;  295.900; -878.000; -696.000
860.661;  109.900; -709.000; -577.000
860.909;  -81.200; -339.000; -325.000
861.157; -105.000; -277.000; -444.000
861.405; -171.200; -534.000; -670.000
861.653;   82.000;  310.000;  310.000
861.901;  184.900; -543.000; -613.000
862.149; -128.200; -801.000; -824.000
862.396;  -84.000; -297.000; -187.000
862.644; -130.000; -368.000; -347.000
862.892;   25.000;   98.000;  138.000
863.140; -157.400; -549.000; -530.000
863.388; -263.900; -815.000; -759.000
863.635; -160.900; -642.000; -601.000
863.883;   28.200;  231.000;  190.000
864.131; -145.100; -288.000; -357.000
864.378; -217.900; -675.000; -540.000
864.626;  -97.400; -347.000; -415.000
864.873; -165.600; -556.000; -505.000
865.121; -219.800; -714.000; -799.000
865.368;   14.400; -173.000;   75.000
865.616;   17.200;  -33.000;  -40.000
865.863;  -58.900; -462.000; -506.000
866.111; -145.600; -795.000; -824.000
866.358;  210.800; -426.000; -420.000
866.605; 5537.000;  -64.000; -804.000
866.853; 4255.700; -621.000; -537.000
867.100;  -31.900; -728.000; -775.000
867.347; -146.300; -672.000; -611.000
867.594; -113.100; -740.000; -714.000
867.841;  119.600;   97.000;   17.000
868.089; -199.600; -746.000; -698.000
868.336; -137.800; -477.000; -420.000
868.583; -219.700; -637.000; -741.000
868.830;  -22.100; -131.000; -170.000
869.077; -264.200; -859.000; -787.000
869.324; -188.200; -502.000; -458.000
869.571; -205.300; -398.000; -430.000
869.818; -159.600; -485.000; -439.000
870.065; -152.700; -439.000; -513.000
870.311; -155.100; -456.000; -542.000
870.558; -124.000; -332.000; -311.000
870.805; -100.000; -320.000; -384.000
871.052; -147.500; -494.000; -369.000
871.298;  -53.500; -204.000; -131.000
871.545;  -57.700; -151.000; -185.000
871.792;  -97.600; -173.000; -222.000
872.038;  -74.800;   43.000; -126.000
872.285; -170.900; -496.000; -387.000
872.532; -136.000; -357.000; -387.000
872.778;  130.500;  556.000;  403.000
873.025; -108.500; -384.000; -359.000
873.271;  147.700;  501.000;  578.000
873.517;   -3.800; -133.000; -209.000
873.764;  -13.900; -193.000;  -80.000
874.010;  -65.600; -143.000; -230.000
874.257;  -17.500;  123.000;   90.000
874.503; -195.900; -579.000; -479.000
874.749;  -51.100;   31.000;  275.000
874.995;  -48.900;  -80.000;  -20.000
875.242; -182.200; -540.000; -478.000
875.488; -150.000; -414.000; -439.000
875.734;  -30.400; -106.000; -234.000
875.980;  146.100; -872.000;-1032.000
876.226;  354.900; -157.000; -255.000
876.472;   55.300;  343.000;  237.000
876.718;   34.700;  184.000;  158.000
876.964;  -12.200;   56.000;   55.000
877.210; -196.900; -547.000; -677.000
877.456; -198.200; -630.000; -557.000
877.702; -284.200; -821.000; -832.000
877.948; -146.700; -377.000; -497.000
878.193;   90.900;  361.000;  255.000
878.439; -159.300; -487.000; -472.000
878.685; -108.500; -272.000; -343.000
878.931; -193.000; -618.000; -676.000
879.176;  -75.200; -201.000; -201.000
879.422; -260.800; -933.000; -820.000
879.668;  168.500;   10.000;   79.000
879.913;  183.100;   53.000;  137.000
880.159;  -54.100; -112.000;  -17.000
880.404;  -39.500; -152.000; -162.000
880.650;  -15.300;   91.000;  141.000
880.895; -250.000; -670.000; -710.000
881.141; -154.900; -454.000; -428.000
881.386; -238.800; -503.000; -658.000
881.631; -117.300; -311.000; -166.000
881.877;   -7.800;  112.000;  -13.000
882.122; -200.200; -684.000; -600.000
882.367;  -95.000; -136.000; -186.000
882.612;  -81.600;  -80.000; -176.000
882.858; -277.000; -877.000; -823.000
883.103; -123.600; -297.000; -267.000
883.348; -255.100; -759.000; -852.000
883.593; -206.300; -677.000; -602.000
883.838;  -30.000; -311.000;  -24.000
884.083;   94.800;  353.000;  288.000
884.328; -125.400; -564.000; -545.000
884.573;  -51.500; -196.000; -143.000
884.818;  199.400; -694.000; -531.000
885.063;  161.300; -348.000; -315.000
885.308; -162.000; -475.000; -398.000
885.553;   66.500;  245.000;  325.000
885.797; -189.500; -545.000; -615.000
886.042;  -30.000;    8.000;   58.000
886.287;  -77.600; -253.000; -211.000
886.532;   -8.200;   26.000;  204.000
886.776; -122.000; -407.000; -525.000
887.021; -188.700; -621.000; -574.000
887.265; -244.000; -685.000; -689.000
887.510; -192.800; -557.000; -496.000
887.755;  -88.600; -194.000; -164.000
887.999; -196.800; -552.000; -575.000
888.244;  -33.300;  -58.000;  161.000
888.488;   80.400;  371.000;  393.000
888.732; -166.000; -368.000; -520.000
888.977; -192.700; -622.000; -567.000
889.221; -256.300; -683.000; -659.000
889.465; -182.500; -422.000; -566.000
889.710;  -80.600;  -56.000; -299.000
889.954;  101.100;  579.000;  467.000
890.198; -221.900; -584.000; -707.000
890.442; -243.900; -716.000; -712.000
890.687; -245.000; -800.000; -753.000
890.931;  -95.100; -273.000; -210.000
891.175; -201.300; -502.000; -500.000
891.419;  -50.800; -105.000; -110.000
891.663;  -99.000; -239.000; -112.000
891.907; -237.300; -801.000; -545.000
892.151; -270.300; -920.000; -815.000
892.395; -157.900; -274.000; -387.000
892.638;   67.100;  408.000;  291.000
892.882; -288.600; -780.000; -867.000
893.126;  166.400;  758.000;  558.000
893.370;  -96.600; -167.000; -168.000
893.614; -213.200; -714.000; -715.000
893.857; -132.200; -183.000; -197.000
894.101; -187.700; -527.000; -631.000
894.345;  -36.800;  300.000;  150.000
894.588;  151.000;  569.000;  380.000
894.832;  -48.900; -178.000;  -84.000
895.075;  -67.800;   15.000;  -92.000
895.319; -172.400; -552.000; -420.000
895.563; -165.100; -413.000; -353.000
895.806; -227.100; -628.000; -741.000
896.049;  -69.000; -576.000; -368.000
896.293;  185.200;  527.000;  405.000
896.536; -152.300; -465.000; -468.000
896.779;  -54.200; -149.000;   -1.000
897.023; -205.600; -751.000; -714.000
897.266;   10.400;  325.000;  269.000
897.509; -298.600; -900.000; -901.000
897.752;   -4.700;  149.000;  171.000
897.996; -296.900; -972.000; -864.000
898.239;   -7.300;  168.000;  102.000
898.482; -148.200; -431.000; -453.000
898.725;   -9.100;  101.000;   53.000
898.968; -263.100; -609.000; -744.000
899.211; -151.000; -513.000; -361.000
899.454; -194.600; -633.000; -539.000
899.697;  -43.800;   90.000;  -43.000
899.940; -241.100; -761.000; -757.000
900.182; -143.800; -335.000; -405.000
900.425; -119.100; -150.000; -298.000
900.668;   48.600;  491.000;  350.000
900.911; -107.900; -292.000; -345.000
901.154;  -35.700;  141.000;   -3.000
901.396; -189.300; -407.000; -412.000
901.639; -199.100; -430.000; -496.000
901.882; -297.500; -790.000; -809.000
902.124;  -87.400;  -29.000; -143.000
902.367; -139.100; -315.000; -361.000
902.609; -195.300; -476.000; -453.000
902.852;  -90.900; -108.000; -260.000
903.094; -134.500; -458.000; -337.000
903.337;   -7.000;  -26.000;   53.000
903.579; -147.300; -228.000; -441.000
903.821; -258.800; -597.000; -744.000
904.064;  -15.600;   85.000;  127.000
904.306;  -95.100; -126.000; -166.000
904.548; -109.800; -152.000; -366.000
904.790; -117.200; -195.000; -340.000
905.033; -183.300; -625.000; -577.000
905.275; -203.600; -513.000; -524.000
905.517;  129.600;  468.000;  256.000
905.759; -135.800; -667.000; -761.000
906.001; -163.900; -322.000; -369.000
906.243;  -90.200; -162.000; -224.000
906.485;  171.800; -265.000; -207.000
906.727;   76.000; -499.000; -542.000
906.969;  -22.400;  -30.000; -135.000
907.211;  128.900; -316.000; -382.000
907.453;  294.500; -188.000; -237.000
907.695;    6.100; -158.000; -385.000
907.936;  180.600;  818.000;  706.000
908.178;  -46.000;   92.000; -135.000
908.420;  -67.000; -111.000; -162.000
908.662; -188.000; -633.000; -682.000
908.903; -101.400; -208.000; -123.000
909.145;  -68.800; -240.000; -305.000
909.386;   92.200;  315.000;  280.000
909.628;  175.900;  363.000;  397.000
909.870;   92.200;   29.000;  264.000
910.111; -145.300; -809.000; -949.000
910.353;   56.800; -123.000; -161.000
910.594;   29.300; -574.000; -606.000
910.835;  193.000; -265.000; -326.000
911.077;  276.000; -503.000; -604.000
911.318;  577.700; -505.000; -471.000
911.559;  831.100; -577.000; -880.000
911.801; 2634.800; -284.000; -280.000
912.042;22491.200;  -50.000; -159.000
912.283;47286.000;  404.000;  371.000
912.524; 5729.800; -396.000; -457.000
912.765;  915.900; -193.000;   79.000
913.006;  472.200; -307.000; -338.000
913.247;   94.100; -270.000; -290.000
913.488;   35.400;  -43.000;   30.000
913.729;  -86.500; -373.000; -373.000
913.970;  -92.500;  -96.000; -292.000
914.211;  -51.400; -160.000; -198.000
914.452;  -57.900; -118.000;  -11.000
914.693;  128.200;  510.000;  592.000
914.934;  128.800;  510.000;  440.000
915.175;  -53.000;   53.000;  -95.000
915.415;  -77.000; -137.000;   27.000
915.656;  -62.100;  -28.000;  192.000
915.897; -134.600; -252.000;  -82.000
916.137;  -83.300;   74.000;   -9.000
916.378; -197.500; -573.000; -517.000
916.619;  -92.400; -159.000;  -63.000
916.859;    7.200;  303.000;  330.000
917.100;  352.200; 1655.000; 1070.000
917.340;  188.600;  930.000;  728.000
917.581;  167.300;  965.000;  789.000
917.821;  -34.300; -171.000;  143.000
918.061;    9.100; -199.000;  -72.000
918.302;  -89.500; -152.000; -211.000
918.542;   25.100;  -22.000;    3.000
918.782;  142.800;  369.000;  377.000
919.023;  259.900;  360.000;  427.000
919.263; 2443.300; 8131.000;  202.000
919.503; 1440.800; -137.000;  -54.000
919.743;  860.300;  390.000;  266.000
919.983;  297.100; -134.000;  -26.000
920.223;  183.100;  135.000;   14.000
920.463;  300.500;  631.000;  554.000
920.703;  297.900;   84.000;   39.000
920.943;  304.700; -110.000;   90.000
921.183;  453.100; -414.000; -405.000
921.423;  948.700;  307.000;  546.000
921.663; 1332.900; -174.000; -257.000
921.903; 2966.200;  237.000;  173.000
922.143;18050.600;  372.000;  389.000
922.383;60886.700;  158.000;  115.000
922.622;16048.900; -120.000;  -15.000
922.862; 2013.300;  796.000;  785.000
923.102;  830.400;  -51.000;   33.000
923.341;  378.300;   59.000;   74.000
923.581;  169.100;  450.000;  360.000
923.821;  115.800;  301.000;  398.000
924.060;   72.000;  351.000;  193.000
924.300;  -60.600;  -16.000; -128.000
924.539;   58.700;  584.000;  473.000
924.779;  124.000;  812.000;  597.000
925.018;   30.900;  247.000;  353.000
925.257;   83.600;  595.000;  666.000
925.497;  -20.400;  447.000;  412.000
925.736;  -83.000;  -35.000;  102.000
925.975;  111.300;  687.000;  669.000
926.214;  129.600;  907.000;  850.000
926.454;   64.500;  706.000;  757.000
926.693;   37.800;  419.000;  543.000
926.932;  174.300; 1021.000;  825.000
927.171;  239.500; 1107.000; 1044.000
927.410;  210.600; 1144.000;  967.000
927.649;  180.200;  924.000;  742.000
927.888;   74.200;  590.000;  564.000
928.127;   81.100;  680.000;  678.000
928.366;  145.800;  842.000;  826.000
928.605;  132.600;  831.000;  737.000
928.844;  561.100; 1451.000; 1393.000
929.083;  998.800;  770.000;  613.000
929.321;  543.400; 1335.000; 1359.000
929.560;  238.900; 1158.000; 1122.000
929.799;   15.000;  574.000;  475.000
930.038;  273.200; 1025.000; 1394.000
930.276;   -5.800;  334.000;  397.000
930.515;   63.500;  827.000;  681.000
930.753;   28.500;  614.000;  589.000
930.992;   58.300;  664.000;  717.000
931.230;  101.400;  847.000;  847.000
931.469;  498.400; 2162.000;  892.000
931.707;  225.200;  840.000;  751.000
931.946;  233.500; 1278.000; 1344.000
932.184;  234.400; 1437.000; 1175.000
932.423;  203.800; 1265.000;  963.000
932.661;  277.900; 1296.000; 1428.000
932.899;   78.500;  987.000;  821.000
933.137;  104.600;  754.000;  564.000
933.376;  354.500; 1664.000; 1335.000
933.614;  368.100; 1759.000; 1196.000
933.852;  188.000; 1357.000; 1171.000
934.090;  382.700; 1722.000; 1747.000
934.328;  311.800; 1252.000; 1457.000
934.566;  308.100; 1431.000; 1110.000
934.804;  389.000; 1263.000; 1309.000
935.042; 1143.500; 1861.000; 1850.000
935.280; 4586.000; 2088.000; 2063.000
935.518; 3562.800; 2113.000; 2007.000
935.756;  779.100; 2481.000; 2316.000
935.994;  375.800; 1808.000; 1751.000
936.231;  751.500; 2890.000; 2950.000
936.469;  434.000; 2367.000; 2378.000
936.707;  430.100; 2220.000; 2167.000
936.945;  559.600; 2825.000; 2882.000
937.182;  504.300; 2679.000; 2741.000
937.420;  722.700; 3602.000; 3031.000
937.657;  854.400; 3365.000; 3478.000
937.895;  728.100; 3331.000; 3488.000
938.133;  728.900; 3540.000; 3528.000
938.370;  829.500; 3896.000; 4191.000
938.607;  931.200; 4488.000; 4205.000
938.845; 1258.900; 5587.000; 5549.000
939.082; 1089.800; 5387.000; 5177.000
939.320; 1186.500; 5799.000; 5728.000
939.557; 1429.700; 6549.000; 6491.000
939.794; 1544.000; 7285.000; 7097.000
940.031; 1911.900; 8421.000; 8368.000
940.269; 2168.800; 9552.000; 9107.000
940.506; 2323.100;10901.000;10507.000

