
Integration time [ms]: 200.000
Averaging Nr. [scans]: 10
Smoothing Nr. [pixels]: 0
Data measured with spectrometer [name]: 2101013U2
Wave   ;Sample   ;Dark     ;Reference
[nm]   ;[counts] ;[counts] ;[counts] 

394.013;   79.374; -450.257; -315.536
394.305;  320.071; -461.258; -419.536
394.596; 1550.624; -676.269; -527.514
394.887; 3764.048; -796.268; -654.518
395.178; 1532.191;  145.736;   11.476
395.470;   97.007; -210.263; -356.526
395.761;  315.369;  305.734;  394.479
396.052;  530.645; -545.284; -306.489
396.343;  485.644; -557.276; -454.503
396.634;  150.700; -200.279; -290.497
396.926;   67.444; -618.268; -565.517
397.217;  165.851;   11.725;  -17.504
397.508;   49.874; -366.273; -154.507
397.799;  -29.500; -555.279; -571.497
398.090; -101.408; -973.280; -902.495
398.381;  195.037;   11.708;  -11.473
398.672;  -58.561; -585.292; -742.473
398.963;   47.108; -348.279; -373.498
399.254;  135.852;   54.709; -209.475
399.545; -124.136;-1017.266; -883.520
399.836;   37.829; -407.277; -343.501
400.127;   52.303; -205.295; -209.468
400.418;   53.566; -423.274; -392.506
400.709;   88.773; -359.281; -333.493
401.000;   55.357; -268.291; -309.476
401.290;  209.612;  225.698;  115.545
401.581;  101.120; -166.286; -228.485
401.872;  -24.037; -542.298; -486.462
402.163;   48.292; -313.296; -252.467
402.454;  106.053; -123.291; -163.475
402.744;   51.580; -844.297; -813.465
403.035;  570.825; -226.293;  -86.471
403.326;  626.443; -366.292; -384.474
403.617;  553.655;  204.701;  165.539
403.907;  344.253; -593.283; -679.490
404.198; 3421.347; -545.307; -599.446
404.489; 8645.760; -618.283; -588.491
404.779; 2911.217; -618.302; -660.456
405.070;  319.587;  -67.304; -174.451
405.360;  434.627; -259.293; -238.472
405.651;  512.933;  125.699;   98.542
405.942;  291.513;  209.714;  127.516
406.232;  254.034; -432.285; -413.487
406.523;  651.217;  641.706;  758.530
406.813;   80.716; -579.286; -644.484
407.104;  464.336;  261.708;  144.527
407.394;  154.957; -604.299; -591.462
407.685;  260.633;  336.715;  222.513
407.975;   69.758; -400.283; -382.490
408.265;  182.473; -134.289; -190.478
408.556;   54.448; -472.291; -459.475
408.846;  305.319;  474.706;  429.530
409.137;  109.885;   -1.288; -216.480
409.427;   80.733; -193.285; -271.487
409.717;    0.078; -776.273; -692.508
410.007;  231.724;    4.715; -170.486
410.298;   89.907; -360.295; -342.469
410.588;   82.730; -495.285; -510.486
410.878;  -42.199; -792.287; -873.482
411.168;  169.267; -481.298; -478.463
411.459;  146.550; -295.283; -242.489
411.749;   51.146; -609.292; -507.474
412.039;    7.583; -755.289; -386.480
412.329;  286.019;   40.722;  132.501
412.619;  258.017;  -62.286; -148.485
412.909;  551.377;  639.711;  594.521
413.199;  423.992; -130.280; -251.495
413.490;  573.364;  521.710;  352.523
413.780;   88.598;-1013.279; -913.496
414.070;  465.046;  -46.276;  235.497
414.360;  439.513; -729.278; -666.498
414.650;  507.396; -726.288; -688.482
414.940;  694.297; -538.280; -441.496
415.230; 1267.091;   50.712;   74.519
415.520; 8804.922;  155.730;   66.486
415.809;33466.473; -305.281; -125.493
416.099;26928.132; -388.277; -229.501
416.389; 7552.963;  435.726;  236.494
416.679; 4403.912;   91.738;   85.473
416.969;  735.408; -527.287; -503.483
417.259;  876.900;  341.721;  171.503
417.549; 1035.271;  522.718;  318.508
417.838; 2340.547; -205.268; -147.518
418.128; 7819.971;  650.710;  492.522
418.418; 6520.287; -491.272; -579.509
418.708; 4478.163;    9.726;  -48.506
418.997;16374.257; -474.275; -480.505
419.287;17164.972; -733.273; -790.507
419.577;16881.749; -160.283; -123.489
419.866;53132.729; -588.277; -498.501
420.156;54089.017; -242.270;  -55.513
420.446;10228.502; -112.263;  -26.526
420.735; 1179.108; -376.271; -446.512
421.025; 1391.212; 1830.722;  315.502
421.314;  925.405; -203.271; -226.512
421.604; 1815.536;   89.732;  233.484
421.893;  964.200; -705.271; -602.511
422.183;  310.902; -487.263; -461.526
422.472;  537.402;  -36.271; -107.511
422.762;  619.972; -416.266; -379.521
423.051;  276.447; -916.276; -916.503
423.341;  409.975; -491.273; -439.507
423.630;  592.781; -121.265;   15.477
423.919;  524.956;   58.725;   49.495
424.209;  516.910;  -31.263;   56.473
424.498;  745.443;   68.732;  161.483
424.787; 1485.852; -535.267; -601.518
425.077; 4587.779;   34.735;   29.478
425.366; 6246.718; -734.262; -744.528
425.655;14314.676;  639.727;  259.493
425.945;30810.902; -313.247; -268.554
426.234;17670.450;  117.741;  300.467
426.523; 7181.858;  -86.259; -350.534
426.812; 9944.166;  107.734;  159.480
427.101;14651.031; -127.269; -323.515
427.390;18247.322;  -55.270;  -86.514
427.680; 3971.086; -624.257; -411.538
427.969;  659.201; -330.255; -301.540
428.258;  412.174; -385.257; -477.536
428.547;  848.793;  449.728;  397.490
428.836; 1516.424; -421.253; -398.543
429.125; 2199.860; -199.259;  -72.534
429.414; 1057.657; -330.251; -294.548
429.703; 4566.457; -231.251; -213.548
429.992;13049.562; -938.250; -828.549
430.281; 8822.392; -397.264; -331.524
430.570;  896.143;  -21.252;   32.454
430.859;  811.057;  279.741;  352.466
431.148;  698.196;  636.752;  631.446
431.437;  455.342;  391.748;  367.454
431.725;  196.876; -544.257; -481.536
432.014;   97.735; -845.253; -756.545
432.303;  479.404; -149.239; -105.569
432.592;  771.801; -460.263; -178.525
432.881; 1490.598; -601.248; -437.554
433.169; 9000.502; -343.255;  -61.540
433.458;17843.853;  445.765;  540.424
433.747; 7615.126; -397.261; -289.529
434.036; 1206.870; -275.242; -280.564
434.324; 2967.080; -395.249; -379.551
434.613; 5082.561;   40.757;  159.437
434.902; 1782.290;  333.760;  439.433
435.190;  717.903;   75.761;  295.431
435.479;  436.435;  -52.245;   83.441
435.767;  117.846; -411.244; -427.561
436.056;  256.764; -340.242; -294.563
436.345;  492.494; -372.240; -223.568
436.633;  570.773;   60.750;  383.450
436.922;  392.997;  208.760;  414.432
437.210;  717.438; -194.236;    1.426
437.499; 2102.550; -583.235; -432.576
437.787; 2393.638; -339.236;  -10.574
438.075;  694.711;   56.761;  162.430
438.364;  867.614;  -44.238;  250.429
438.652;  490.564; -286.226; -138.592
438.941;  187.113;    3.770;  269.415
439.229;  -42.061; -665.252; -466.545
439.517;   41.162; -160.234;  -85.577
439.806;  -45.013; -501.225; -290.595
440.094;  265.573;  377.766;  650.421
440.382;  165.778; -653.233; -302.580
440.670;  196.649; -361.235; -285.576
440.959;    3.111; -347.223; -170.599
441.247;  108.329; -151.229; -109.587
441.535;  122.460; -266.235;   31.423
441.823;  -14.031; -497.234; -305.578
442.111;  283.835;  173.771;  327.412
442.400;  653.834; -628.245; -335.559
442.688; 1598.772; -111.234; -620.579
442.976; 1117.937; -786.213; -450.617
443.264;  101.096; -324.224; -364.597
443.552;  123.266; -258.226;   51.408
443.840;  294.158;  602.765;  876.423
444.128;  195.677;  265.767;  269.420
444.416;  -60.261; -694.228; -312.588
444.704;   24.954; -465.219;  -92.605
444.992;  111.870;   -0.226;  240.407
445.280;   46.614; -517.230;  -94.585
445.568;   -5.858; -694.212; -396.618
445.856;  420.931; -174.221;  357.398
446.143;  935.548;  -54.220;   -7.604
446.431;  748.144;  -25.228;  625.411
446.719;  383.181;  489.783;  675.391
447.007;  287.706;  481.769;  705.416
447.295;  300.107;  597.777;  871.402
447.583;   84.426; -464.229;  -34.587
447.870;  168.127; -434.221; -202.601
448.158;  500.112; -104.230;  129.415
448.446;  320.250; -800.219; -338.604
448.733;  250.698;   13.776;  269.403
449.021;  339.241;   60.788;  341.382
449.309;  246.263; -296.210;  208.379
449.596;  305.576;  128.783;   59.392
449.884;  175.817; -571.222; -325.600
450.172;  158.552; -756.227; -406.590
450.459;  674.413;  645.786;  780.387
450.747; 3593.474; -411.218; -147.608
451.034;10848.346;  493.772;  889.411
451.322; 9038.517; -413.214; -170.614
451.609;  836.900;  292.777;  508.403
451.897;  898.453; -550.203; -183.634
452.184; 2521.008; -622.223; -400.598
452.472; 2453.493;   97.792;  269.375
452.759;  585.451;  512.781;  864.395
453.047;  140.438; -407.212; -125.617
453.334;   49.362; -732.219; -216.606
453.621;   84.921; -438.214; -161.615
453.909;  181.041;   13.796;  384.368
454.196;  143.506; -299.199; -123.641
454.483;  308.171;  317.798;  540.364
454.771;  198.998; -215.208;  196.374
455.058;   91.002; -316.207;  102.374
455.345;  210.585;   71.807;  344.347
455.632;  144.107; -128.207;  235.373
455.919;  138.638;  -82.196;  182.354
456.207; -128.387; -774.198; -450.642
456.494;  -39.311; -475.200;  -66.639
456.781;  -13.735; -399.202; -198.635
457.068;   70.516; -253.206;  -29.628
457.355;  -43.182; -698.206; -401.629
457.642;  -50.574; -552.205; -290.630
457.929;  -14.128; -778.194; -417.651
458.216;   61.838; -575.212; -354.617
458.503;  373.979; -173.193;  -19.652
458.790;  310.094; -864.208; -630.625
459.077;  369.472;  -77.202;  110.364
459.364; 1146.562; -350.195; -210.649
459.651; 2380.613;  -46.206;  220.372
459.938; 1143.881; -864.209; -665.623
460.225;  234.777;  132.799;  276.363
460.512; -121.866; -836.197; -688.645
460.799;  164.172;  -32.218;  320.392
461.086;   77.995; -370.200; -251.640
461.372;   40.713; -509.198; -279.642
461.659;  126.940; -165.196;  108.354
461.946;   93.877; -445.193;  -54.651
462.233;  368.092;  842.800;  888.361
462.519;  452.187; -814.201; -464.639
462.806; 1372.535; -768.197; -497.645
463.093; 1246.106; -445.191;  -66.656
463.380;  -80.635; -920.186; -824.664
463.666;   92.738; -259.197;  -18.646
463.953;  155.055; -406.195; -243.648
464.239;  317.755; -173.195;  -77.648
464.526;  587.570;  413.806;  743.350
464.813;  415.623; -565.190; -304.658
465.099;  532.678;  606.807;  607.348
465.386;  559.084;  903.807;  921.348
465.672;    5.035; -694.197; -522.645
465.959;  -12.652; -598.188; -520.662
466.245;  -22.816; -468.193; -359.652
466.532;  110.452; -109.195;   63.352
466.818;   72.965; -357.186; -216.664
467.104;    2.922; -488.182; -415.672
467.391;  -40.674; -628.189; -459.658
467.677;   78.870; -289.186;    9.335
467.964;  -18.365; -682.189; -471.660
468.250;  116.474; -331.186; -160.665
468.536;  131.927;   90.811;  180.341
468.822;  -67.609; -821.184; -574.668
469.109;  281.038;  351.827;  471.311
469.395;  376.498;  729.808;  787.346
469.681;  302.932;   46.811;  156.341
469.967; 1862.238; -699.188; -382.660
470.254; 3807.750; -494.188; -306.662
470.540; 2538.838; -601.196; -476.646
470.826;  352.238; -488.181; -397.675
471.112;  500.396;  288.816;  113.331
471.398;  115.902; -253.183;  -58.670
471.684;   58.278; -626.177; -447.680
471.970;  -45.657; -918.180; -981.675
472.256;   26.396; -521.192; -441.654
472.542;   14.653; -499.171; -434.691
472.828;    5.717; -743.182; -607.672
473.114;   21.415; -380.166; -283.700
473.400;   59.602; -504.175; -293.684
473.686;  -30.176; -452.166; -400.701
473.972;  108.323; -230.174; -131.687
474.258; -143.062; -925.173; -843.689
474.544;  337.467; -183.178;   -2.679
474.830;  488.605;  -65.175;   45.316
475.116;  799.925; -123.190; -196.658
475.401;  955.447; -558.180; -467.676
475.687;  297.745; -725.180; -718.676
475.973;  -20.772; -673.181; -770.673
476.259;  428.808;  736.825;  764.315
476.544;  577.090; -539.176; -437.682
476.830; 1215.647; -398.172; -322.690
477.116; 1126.188; -430.177; -336.682
477.401;  332.946;  346.820;  358.324
477.687;  -68.398; -289.175; -405.684
477.973;   89.733;   21.819;   28.326
478.258;  -53.446; -448.163; -348.706
478.544;   87.081;   21.815;   61.334
478.829; -117.539; -818.171; -738.692
479.115;  -78.153; -749.172; -651.690
479.401;  -39.383; -444.174; -449.686
479.686;   85.744; -253.180;  -74.676
479.972;  -69.026; -886.178; -776.680
480.257;   34.517; -258.166;  -65.700
480.542;   -6.533; -614.170; -469.693
480.828;  488.600; 1288.824; 1392.317
481.113;  -95.803; -464.176; -426.683
481.399;  -22.213; -236.161; -202.711
481.684; -109.183; -620.166; -462.700
481.969;   67.007; -158.159;  -73.713
482.255;  -31.618; -439.169; -285.695
482.540;   -9.725; -569.178; -441.680
482.825;   26.058; -395.187; -404.663
483.110;  146.787;  -85.169; -105.696
483.396;  345.338; -840.157; -652.718
483.681;  840.723;  543.826;  730.313
483.966;  218.498; -696.160; -700.712
484.251;    2.822; -404.174; -310.687
484.536;   -3.368; -356.165; -378.703
484.822;   -4.374; -205.173; -218.687
485.107;  -36.008; -599.152; -502.726
485.392;  278.540;  662.836;  541.296
485.677;  137.201;  354.832;  163.302
485.962;  224.034;  160.843;  270.283
486.247;  164.065;  -14.162;   -8.707
486.532;   72.119; -178.166; -325.701
486.817;  287.479;  381.839;  431.291
487.102;  162.068; -453.154; -514.722
487.387; 1097.940; -637.156; -652.718
487.672; 1779.747; -154.164;  -38.705
487.957; 1152.190; -394.160; -286.711
488.241;  322.716; -290.150; -314.729
488.526; 1190.094; -280.152; -148.726
488.811; 1789.777; -881.177; -818.680
489.096; 1379.572; -666.154; -702.723
489.381;  796.089;    3.847;  162.275
489.666;  555.087; -428.161; -510.710
489.950;  360.576;  558.846;  627.277
490.235;  -54.791; -480.151; -458.728
490.520;  -85.714; -756.161; -723.710
490.804; -141.857; -827.156; -736.719
491.089;  -10.362; -469.149; -299.732
491.374;   39.545; -132.164;  -75.704
491.658;  -48.345; -817.147; -717.735
491.943;  158.900; -657.152; -609.727
492.227;  290.362; -178.155;  -38.721
492.512;   70.833; -294.157; -341.717
492.797; -122.170; -713.149; -716.731
493.081; -125.641; -588.147; -598.735
493.366;  -96.912; -751.161; -635.711
493.650;  380.634;  831.859;  917.254
493.935;   22.454; -648.147; -447.734
494.219;  -88.684; -778.142; -687.743
494.503;  -95.178; -585.150; -487.730
494.788;   81.721;   46.842;   74.285
495.072;  232.518;  184.850;  434.271
495.356;  245.943; -463.148; -343.733
495.641;  632.368; -812.146; -736.736
495.925;  535.450; -976.156; -903.719
496.209;    5.337; -599.149; -451.732
496.494; -126.183; -763.142; -544.744
496.778;   16.668; -364.154; -360.722
497.062; -133.451; -819.156; -627.719
497.346;  -89.008; -869.160; -640.711
497.631;  280.148;  580.852;  560.266
497.915;  151.183;  -64.145;  175.261
498.199;   91.638; -341.157; -277.718
498.483;   53.192; -562.152; -508.725
498.767;  320.519;  301.850;  300.271
499.051;  306.034; -126.149; -100.732
499.335;  -22.868; -693.149; -739.731
499.619;  -65.121; -381.129; -423.767
499.903;   37.660; -272.155;  -65.721
500.187;   27.378; -588.153; -316.724
500.471;  -33.201; -796.152; -595.727
500.755;  143.486;   62.839;  -96.710
501.039;   18.361; -270.155; -357.721
501.323;  137.937;  -21.141;  264.254
501.607;   32.954; -447.163; -503.706
501.891;  -40.060; -607.156; -512.718
502.174;  -71.501; -726.144; -585.741
502.458;  101.705;   89.849;  370.273
502.742;   50.971; -180.138; -191.751
503.026;  149.753; -412.147; -254.734
503.310;  288.405; -437.159; -375.713
503.593;  192.556; -464.147; -325.735
503.877;  164.828; -232.133; -156.760
504.161;  262.182;    2.847;  -50.724
504.444;  153.725; -841.158; -710.716
504.728;  734.444; -487.164; -522.704
505.012; 1071.015; -257.150;  -76.729
505.295;  814.488; -417.161; -212.711
505.579;  799.849; -256.156; -496.719
505.862; 1211.278; -555.145; -333.738
506.146; 1086.809; -681.159; -758.714
506.429;  743.909;  568.841;  461.286
506.713;  112.611; -732.151; -667.728
506.996;  554.367;   90.846;  295.278
507.280;  510.637; -633.165; -474.703
507.563;  350.458; -469.155; -261.721
507.847;  142.479; -423.153; -112.724
508.130;  140.789; -665.161; -456.711
508.413;  183.011; -758.167; -577.700
508.697;  396.111; -151.167;   12.300
508.980;  231.581; -422.153; -312.724
509.263;   -8.847; -466.155; -450.720
509.547;   69.614; -124.150;   82.271
509.830;  100.892; -172.160;  140.289
510.113;  156.849;  128.844;  298.281
510.396;   10.989; -530.152; -300.725
510.680;  164.780; -818.145; -812.738
510.963;  789.473;  184.846;  180.277
511.246;  567.825; -493.150; -357.730
511.529;  386.587; -482.145;  -83.739
511.812;  622.924; -250.134;   10.241
512.095;  404.107; -740.151; -396.728
512.378;  115.161; -317.147; -245.736
512.661;   15.382; -703.137; -623.753
512.944;    4.919; -750.142; -637.744
513.227;  138.978; -170.137; -171.752
513.510;   30.099; -479.144; -671.741
513.793;   39.343; -485.140; -435.747
514.076;  196.208;  -43.127;  -39.771
514.359;  168.639; -294.149; -135.732
514.642;  123.623; -442.142; -567.744
514.925; 1270.041;  581.860;  561.253
515.208; 1491.518; -498.134; -443.758
515.491; 1008.938; -276.133; -182.761
515.773;  595.804; -410.143; -337.742
516.056; 3384.491;  249.864;  409.246
516.339; 4085.897; -754.136; -652.755
516.622; 2720.322; -518.150; -488.730
516.904; 1636.414;  882.857;  975.257
517.187;  671.076; -730.138; -523.752
517.470;  571.513; -568.143; -510.743
517.752;  624.701; -624.136; -470.756
518.035;  504.758; -708.139; -725.749
518.318;  577.997; -799.136; -744.755
518.600; 3834.843; -300.132; -325.762
518.883; 4991.322;  310.858;   88.256
519.165; 2463.466; -585.138; -426.751
519.448;  589.043;  -61.132;  -19.762
519.730;  215.319; -573.126; -415.773
520.013;  539.133;  588.867;  664.240
520.295; 1093.326;  -94.134;  -15.759
520.578; 2223.561; -335.131; -305.764
520.860; 2510.543; -254.132;   56.238
521.143; 1349.904; -763.135; -584.756
521.425;  707.238; -251.125; -279.775
521.707; 1047.009; -622.127; -380.771
521.990; 2835.310; -199.127;  167.229
522.272; 3132.846; -116.140;   -4.748
522.554; 1395.505; -237.143; -157.742
522.836;  521.323;  -24.134;   99.241
523.119;  274.251; -496.148; -189.734
523.401;  229.571; -448.130; -314.766
523.683;   85.883; -865.137; -693.753
523.965;  530.873;  408.862;  260.248
524.247;  443.468;   54.878;  170.220
524.529;  317.926; -451.134; -367.759
524.812;  588.574;   -3.130;  191.234
525.094; 1363.672; -773.138; -631.751
525.376; 2032.451; -143.124;   78.223
525.658; 1301.293; -441.136; -339.754
525.940;   28.057; -805.131; -671.764
526.222;   57.298; -188.136;  -88.755
526.504;  163.954; -190.131;   32.237
526.786;  168.629; -960.133; -647.760
527.068;  337.958; -124.123;  -67.778
527.349;   81.688; -865.137; -774.754
527.631;  209.442; -137.132;   22.238
527.913;  183.408; -664.127; -450.771
528.195;  253.228; -761.125; -639.774
528.477;  419.519;  -93.134;  -30.758
528.759;  174.974; -648.130; -522.766
529.040;   84.357; -569.123; -293.778
529.322;   74.631; -235.125;  -10.774
529.604;  245.677;  -47.130;   93.233
529.886;  124.719; -546.126; -302.773
530.167;  194.665;  232.870;  192.235
530.449;   95.661;    1.853;   63.265
530.731;   37.867; -572.122; -459.779
531.012;  104.396; -513.120; -216.784
531.294;  154.752; -118.116;  -43.792
531.575;  319.738;  290.875;  538.225
531.857;   89.311; -548.135; -266.757
532.138;  199.035; -113.141;   40.254
532.420;  281.106;  294.865;  403.244
532.701;  204.633; -722.133; -751.760
532.983;  500.537;  232.867;  182.239
533.264;  191.616; -243.126;  175.228
533.546;  -64.703; -491.136; -508.755
533.827;   89.228;  173.867;   -1.759
534.109;   64.811; -352.135;  -80.757
534.390;  129.248; -725.132; -582.762
534.671;  352.006; -270.135;  -82.756
534.953;  196.561; -751.123; -611.779
535.234;   22.431; -426.117; -255.789
535.515; -152.392; -891.119; -735.785
535.796;  -16.098; -431.128; -193.770
536.078; -210.450;-1050.124; -904.777
536.359;   38.762;  -22.123;    3.221
536.640;  -43.470; -480.125; -197.774
536.921;  289.484;  225.871;  143.232
537.202;  599.568;  -87.138;  -16.751
537.483;  727.261;  251.869;  377.236
537.764;  282.365;   17.870;   98.235
538.045;  -79.583; -543.134; -371.758
538.326;  -87.313; -596.129; -447.768
538.607;    7.910; -686.127; -476.771
538.888;  299.483;   98.879;    5.218
539.169;  260.676; -704.122; -535.781
539.450;  497.483;  236.871;   16.233
539.731;  350.589; -361.121; -182.783
540.012;  224.696;  199.880;  412.216
540.293;  140.142;   82.876;  158.224
540.574;  -66.618; -895.113; -717.796
540.855;  700.087;  435.879;  377.218
541.136;  799.172;   47.878;  139.220
541.416;  432.375; -161.130; -220.766
541.697;  315.254; -274.131; -170.763
541.978; 1697.509; -270.135; -315.757
542.259; 1978.510; -211.127; -236.771
542.539;  994.743; -191.116; -186.790
542.820;  342.737;  461.875;  480.225
543.101;  165.782;  -52.145;  -77.738
543.381;  -17.090; -638.127; -591.771
543.662;  447.806;  159.873; -254.771
543.942;  876.604; -751.127; -830.770
544.223; 1635.074;  193.878;  161.219
544.504; 1061.750; -275.124; -182.777
544.784;  966.319; -592.126; -408.773
545.065; 2424.548;  104.884; -254.791
545.345; 2877.608;  227.881;   14.215
545.626; 2023.880;  -14.113; -108.796
545.906; 1272.464;   77.869;   98.235
546.186;  578.725;   92.874;  -95.773
546.467;  369.853;   99.877;  -95.778
546.747;  539.143;  264.884;  327.210
547.027;  598.848;   91.876;  111.223
547.308;  436.703; -376.127; -530.770
547.588;  649.188;  299.871;  371.232
547.868;  351.966;  458.870;  588.235
548.149;  389.459;  609.885;  593.207
548.429;  178.007; -347.127; -299.771
548.709;  280.396; -645.120; -461.784
548.989;  780.922;   84.882;   88.213
549.269; 3501.641;   10.868;  139.239
549.550; 7417.059;  215.877;  117.222
549.830; 6539.506; -758.111; -556.799
550.110; 1392.517; -468.110; -320.801
550.390; 1386.967; -128.122;  -56.779
550.670; 1619.974; -868.114; -783.795
550.950; 1271.786; -509.121; -471.782
551.230;  352.781;  549.879;  460.218
551.510;   18.685; -381.121; -326.782
551.790;  100.928; -173.109; -127.803
552.070;  516.153;  940.877; 1181.223
552.350;  591.214; -492.119; -377.786
552.630;  898.978;   -2.121;   77.219
552.909;  532.549;  181.884;   73.209
553.189;  406.850;  -49.132;   33.237
553.469;  250.714; -703.119; -514.786
553.749;  301.812; -469.127; -357.772
554.029;  265.237;   33.883;  -24.790
554.308;  238.165; -154.115;  -37.794
554.588;  106.501; -196.128; -204.770
554.868;  124.788; -366.121;  -47.782
555.147;  210.161; -114.115;  -46.793
555.427; 1024.253; -260.116; -250.792
555.707; 6146.158; -284.115; -200.793
555.986; 6796.911; -719.111; -538.800
556.266; 3851.241;   23.884;   72.210
556.546;  188.385; -888.121; -675.782
556.825;  454.171; -657.114; -556.794
557.105; 2854.598; -125.128;   17.230
557.384; 3131.448;  122.884;  187.209
557.664; 1232.152; -717.116; -508.792
557.943;  188.387; -557.121; -411.782
558.222;  260.526; -345.118; -344.788
558.502;  442.763; -116.115;  -76.793
558.781;  830.757;  194.885;  499.208
559.061;  607.126; -232.118; -227.788
559.340;  570.533;  302.883;  353.211
559.619; 1183.941;   93.884;  148.210
559.899; 1621.536; -239.117; -266.789
560.178; 1424.662; -778.115; -593.793
560.457; 5172.938; -623.117; -562.790
560.736; 6339.213; -472.111; -482.800
561.015; 4449.395; -500.128; -502.769
561.295;  618.156;  180.893;  215.193
561.574;  548.759;  119.885;  116.207
561.853;  797.034;  274.891;  303.197
562.132;  777.866;  -45.114;  182.206
562.411;  728.978;  396.879;  553.219
562.690;  222.056; -592.115; -458.792
562.969;  280.791;  472.888;  630.203
563.248;  968.175; 2966.878; 2487.219
563.527;  410.512; -290.111; -408.800
563.806;  594.207; -650.127; -521.771
564.085;  668.278; -297.105; -206.810
564.364;  331.640; -594.117; -405.790
564.643;  858.579; -276.121; -223.781
564.922; 2978.325;  221.890;  397.198
565.201; 2660.131; -640.109; -700.803
565.479; 1283.754; -297.115; -219.792
565.758;  498.898; -810.128; -712.770
566.037;  726.632; -155.109; -100.803
566.316;  390.348; -286.116;  -28.791
566.595;  106.358;  -17.115;  -12.793
566.873;  224.114; -166.111;  -79.801
567.152;  -69.310; -490.113; -590.797
567.431;  -25.658; -113.116;    6.210
567.709;   21.257; -344.107; -212.807
567.988;  411.071; -810.114; -769.794
568.266;  787.558; -160.115;  -68.793
568.545;  618.945; -644.100; -514.819
568.824; 1007.454;  160.885;  356.208
569.102;  837.570; -351.114; -235.794
569.381;  399.152; -492.116; -407.792
569.659;  -67.515; -553.113; -553.796
569.938;   58.273; -743.122; -465.780
570.216;  156.836; -225.109; -225.804
570.494;  -26.025; -632.114; -572.795
570.773;   93.485;  202.879;  114.218
571.051;   -0.643; -373.123; -357.778
571.330;  102.681; -221.113; -174.796
571.608;   68.870; -181.098; -173.823
571.886; -131.697; -671.111; -581.799
572.164; -133.012; -739.121; -621.782
572.443;  -95.217; -562.105; -512.811
572.721;  -60.362; -399.117; -289.790
572.999;  -31.471; -280.117; -168.788
573.277;  194.574;  379.894;  620.191
573.555;  534.977;   94.894;   37.190
573.834; 2114.029;  -86.117; -114.788
574.112; 2381.960;  880.893;  811.193
574.390;  773.813; -143.111;  -96.801
574.668;   28.692;  -91.112;  -61.797
574.946;  -34.523; -165.106; -187.810
575.224;   24.330;   71.891;  -16.803
575.502;  -22.655; -200.116; -204.791
575.780; -168.107; -767.112; -829.798
576.058;  544.012; 1589.889; 1004.200
576.336;  -16.280; -210.110; -129.801
576.614;  -59.307; -511.112; -340.798
576.891;   70.865; -711.115; -823.794
577.169;  746.947; -158.108; -285.805
577.447;  957.859;  169.893;  202.193
577.725;  498.300;  629.888;  854.201
578.003;   32.897;  -71.112; -371.798
578.280;  183.096; -208.104; -242.812
578.558;   85.263; -450.115; -422.793
578.836;  184.375; -210.114; -145.795
579.114;   -6.809; -630.112; -670.797
579.391;  166.731;   -6.117;  -18.789
579.669; -164.734; -595.114; -704.794
579.947;  273.555; -326.107; -127.806
580.224;  427.154; -692.107; -524.806
580.502;  513.960;  127.893;   76.193
580.779;   49.040;  -42.117;   75.210
581.057; -117.264; -584.109; -470.804
581.334; -188.083; -726.102; -695.815
581.612;  142.778;   54.895;  511.190
581.889;  -45.264;  -83.101; -129.818
582.167;  -43.744; -298.099; -190.821
582.444; -175.072; -845.102; -814.817
582.721;  250.529;  657.899;  715.183
582.999;  101.553; -326.100; -167.821
583.276;  788.663; -812.123; -713.779
583.553; 1069.122; -364.102; -294.816
583.831;  339.091; -607.104; -631.812
584.108;  142.144;  349.892;  174.195
584.385;   28.316; -122.102;  -98.815
584.662; -130.485; -651.111; -828.801
584.940;   79.914;  204.889;  204.199
585.217;  -37.316;  -73.113; -303.796
585.494;   70.927;   71.890;  118.198
585.771;  341.237; -250.109; -354.804
586.048;  731.684; -196.113;  -76.796
586.325;  448.218; -721.110; -773.801
586.602;  208.296;  230.896;  213.188
586.879;  -49.752; -499.100; -580.820
587.156;   93.479; -156.105; -331.810
587.433;  -90.275; -701.102; -667.817
587.710;  172.994;  152.888;  234.202
587.987;  447.687; -264.105; -236.811
588.264; 1175.897;  315.888;  387.202
588.541; 2172.700;  -61.104;   26.187
588.818; 3973.241;   72.892;  171.196
589.095; 3405.694; -163.104; -174.812
589.371;  533.234; -459.109; -414.804
589.648;   44.560; -581.107; -437.807
589.925;   36.776; -517.114; -621.795
590.202;  -10.006; -741.112; -607.798
590.478;  168.089; -166.105;  -73.811
590.755;  457.249; -241.108; -132.806
591.032; 3946.822; -741.110; -699.802
591.308; 4955.627; -732.094; -790.831
591.585; 2746.021; -573.110; -560.802
591.862;  227.527;-1056.102; -950.817
592.138;   74.246; -475.108; -474.805
592.415;  227.298; -486.104; -495.813
592.691; 2334.694;  460.896;  518.188
592.968; 2744.673; -208.098; -123.824
593.244; 1321.343; -695.116; -595.790
593.521;  122.428; -105.102;  -42.817
593.797;  -50.431; -810.122; -720.780
594.074;  467.691; -611.096; -588.826
594.350; 1074.907;  828.905;  729.172
594.626;  460.915; -303.111; -283.801
594.903;  136.529; -643.101; -645.817
595.179;  299.903;  243.896;  418.187
595.455;  -13.938; -136.107; -150.807
595.731;   55.305;  -19.103;  -38.814
596.008;  -65.393; -464.111; -434.800
596.284;   61.251; -187.100; -242.820
596.560;   84.937; -501.093; -493.833
596.836;  305.782; -173.105;  -70.810
597.112;  521.847; -582.108; -437.805
597.388;  408.488;  -49.097;  -48.826
597.665;  243.188;  437.887;  530.203
597.941; -140.822; -572.089; -658.839
598.217;   27.626; -323.110; -293.802
598.493;  414.340;   61.891; -204.804
598.769;  779.543; -175.100;  -50.819
599.045;  458.451; -490.108; -562.806
599.321;  112.149; -193.100; -261.820
599.597;  250.239; -355.109; -476.804
599.872;  795.300;  409.896;  429.187
600.148;  571.590;  -61.097; -172.826
600.424;  530.658;   91.893;  202.193
600.700;  377.561; -170.107; -280.807
600.976;  206.882; -442.097; -464.825
601.252;  364.034; -226.109; -272.803
601.527;  277.001; -833.104; -840.813
601.803;  266.590; -453.105; -404.812
602.079;  283.943; -124.100; -118.819
602.354;  830.851; -620.092; -531.835
602.630; 1187.684; -140.113; -482.796
602.906; 3846.336; -910.101; -863.818
603.181; 9959.814; -627.119; -534.786
603.457; 8414.887;   98.903; -278.826
603.733; 1281.990; -605.120; -626.783
604.008; 1642.678; -245.106; -164.810
604.284; 4434.231; -636.101; -580.817
604.559; 3914.800;   -3.112;  -42.799
604.835;  790.382; -163.105; -225.810
605.110;  587.257; -732.099; -892.821
605.385; 1093.740;  224.907;  267.167
605.661; 1034.911; -625.095; -729.829
605.936; 1664.451; -664.108; -737.806
606.211; 1531.615;  -17.103; -170.815
606.487;  329.369; -329.114; -376.794
606.762;   20.714; -791.119; -745.786
607.037;  -46.018; -501.105; -433.810
607.313;  -64.299; -589.096; -574.828
607.588;   -9.723; -375.106; -137.810
607.863;   68.035;  -28.101; -143.818
608.138;  341.224;  513.890;  516.198
608.413;   29.363; -576.099; -592.822
608.688;   73.646; -203.108; -267.805
608.964;  325.969; -509.106; -218.809
609.239;  382.778; -107.105; -212.810
609.514;  451.190;  281.895;  240.188
609.789;  983.196; -187.104; -716.812
610.064; 1247.399; -435.096; -609.827
610.339; 1346.434; -855.109; -799.804
610.614; 1679.550; -131.100; -315.820
610.889; 1076.390;  215.895;  107.188
611.163;   63.391; -407.104; -591.812
611.438;  154.471;   81.886; -167.794
611.713;    5.431; -467.101; -499.817
611.988;  105.034; -144.101; -328.818
612.263;  -76.183; -771.102; -717.815
612.538;  406.683;  385.887;  251.204
612.812;  213.452; -832.100; -911.820
613.087;  170.170; -358.098; -338.823
613.362;  -62.739; -497.107; -557.807
613.637;  127.509;  261.897;  138.186
613.911;  -36.648; -256.092; -345.835
614.186;  226.759; -249.107; -292.807
614.460;  975.285; -842.081; -758.854
614.735; 1184.612;  -55.087;  -17.843
615.010;  275.297;   43.912;  -82.841
615.284;  448.145;  360.892;  246.195
615.559;  508.450; -792.092; -955.835
615.833;  462.560;  -76.099;  -87.822
616.108;   -3.933; -225.090; -390.837
616.382;  283.814;  274.913;  402.156
616.656;  224.067; -241.090; -232.837
616.931;  709.061; -785.099; -700.822
617.205; 1564.502; -973.104; -979.813
617.480; 1496.735;  -91.125;    6.225
617.754;  266.331; -396.125; -128.774
618.028;   27.989; -369.129; -382.768
618.302;  118.743;   73.892;  -25.805
618.577;  -71.889; -371.103; -518.815
618.851; -102.470; -399.109; -600.803
619.125;  -53.574; -335.134; -378.759
619.399;  -60.698; -244.104; -374.813
619.673;  -45.146; -330.115; -515.792
619.947;  -95.225; -333.114; -448.795
620.222;  -43.284; -198.110; -204.801
620.496;   22.287;  -47.121;  -96.782
620.770;   69.675; -187.122;  -93.781
621.044;  344.479;  323.895;  346.190
621.318; 1076.091; -653.120; -614.783
621.592; 1012.088; -430.121; -409.783
621.866;  512.801; -476.112; -572.799
622.140;   50.945; -207.116; -356.791
622.413;  150.307;  138.889;  112.200
622.687;  -90.769; -746.101; -492.817
622.961;   67.143; -130.108; -143.805
623.235; -117.592; -633.111; -661.800
623.509; -176.811; -816.105; -848.811
623.783;   46.756;  -12.107;   48.193
624.056;   -1.907; -254.120; -280.783
624.330;   78.292;   63.888;   -3.797
624.604;   84.440; -271.116; -355.790
624.877;  154.023;  180.890;   26.198
625.151;   60.567; -249.114; -238.794
625.425;  -60.395; -150.103; -283.814
625.698;  -91.494; -367.119; -374.785
625.972; -166.574; -799.110; -765.802
626.245;  184.243;  685.884;  484.210
626.519;  -94.702; -426.120; -340.784
626.792;  -80.139; -192.107; -380.807
627.066; -135.935; -485.122; -662.779
627.339; -165.580; -736.110; -663.802
627.613;  125.396;  351.880;  148.216
627.886;  122.429;  187.891; -612.803
628.160;  -28.209;  312.880; -161.783
628.433; -191.662; -695.125; -703.775
628.706; -146.702; -517.120; -615.784
628.979;   92.748;  296.876;  117.223
629.253; -148.487; -785.119; -833.786
629.526;  615.016; -334.126; -253.772
629.799;  475.358; -641.123; -479.778
630.072;  270.591; -497.128; -516.769
630.346; -139.157;-1115.116;-1080.790
630.619;  723.462; -467.107; -545.808
630.892;  980.309;  709.889;  593.200
631.165;  557.602;  790.896;  679.187
631.438; -183.903;-1092.112;-1055.798
631.711;  143.462;  453.877;  257.221
631.984;  -86.364; -523.117; -624.789
632.257; -114.269; -636.117; -681.789
632.530;  -90.594; -412.119; -433.785
632.803;  119.564; -109.115;    7.207
633.076; -127.547; -360.123; -422.777
633.349;   48.997;  173.872;  121.231
633.622;  -50.095; -187.119; -240.785
633.895; -246.507; -903.120; -823.783
634.167; -109.381; -496.126; -525.773
634.440;   12.352;  -19.116; -137.792
634.713;   26.811;  -22.119; -120.786
634.986;  202.382;  593.871;  453.233
635.258; -152.438; -507.115; -597.793
635.531;  255.325;  742.882; -343.788
635.804;  -72.566; -303.117; -318.789
636.077; -175.054; -830.116; -852.791
636.349;  -54.641; -586.115; -474.793
636.622;  764.115; 1695.874; 1392.228
636.894;  341.499; -474.120; -909.784
637.167;  179.407; -836.127; -789.771
637.439;   37.201; -278.128; -213.770
637.712;  -65.882; -312.126; -293.772
637.984; -153.153; -635.116; -707.791
638.257;  686.354;  515.877;  488.222
638.529;  719.240; -881.125; -924.776
638.802;  345.891; -508.128; -449.769
639.074; -212.226; -927.122; -952.781
639.346; -223.186; -942.135; -930.757
639.619;   12.721;  -79.142; -319.744
639.891;    5.865;  -83.122; -168.779
640.163; -139.632; -689.122; -756.780
640.435;   88.870;  273.878;  103.220
640.708;   20.873;  -72.122; -132.780
640.980;  -72.524; -366.122; -362.781
641.252;  372.978;  -25.121;  -71.781
641.524; 2731.181;  580.879;  573.219
641.796; 2527.883;-1094.121; -907.782
642.068;  493.686; -191.121; -300.782
642.340; -119.811; -486.121; -566.783
642.613;  130.291;  294.880;  323.217
642.885; -185.406; -787.120; -878.783
643.157;  -80.704; -810.120; -658.784
643.428;  104.699;  170.880;  218.216
643.700;  -99.798; -498.120; -425.784
643.972;  -26.296;  -16.119; -133.785
644.244; -132.793; -474.119; -559.785
644.516;  -68.490; -250.119; -114.786
644.788;  171.512;  662.881;  548.214
645.060;    0.215;  -12.119; -124.786
645.332; -139.983; -525.118; -535.787
645.603;  130.020;  479.882;  342.213
645.875; -120.377; -334.118; -369.787
646.147;  339.225; 1487.882; 1242.212
646.418;  -90.972; -931.117; -918.788
646.690;  187.030; -714.117; -715.789
646.962;   60.633; -413.117; -451.789
647.233;   -2.464;   15.883;   11.211
647.505; -165.562; -595.117; -475.790
647.776;   77.241;  328.884;  229.210
648.048;   11.843; -248.116; -418.790
648.320; -149.954; -752.116; -679.791
648.591; -238.851;-1055.116; -958.791
648.862; -153.449; -505.116; -577.792
649.134;   74.054;  115.885;  198.208
649.405;  -83.944; -661.115; -618.792
649.677; -112.841; -475.115; -598.793
649.948;   13.862; -181.115; -296.793
650.219;    7.064;  -37.115; -147.793
650.491; -110.233; -431.114; -520.794
650.762; -193.631; -705.114; -731.794
651.033; -142.728; -437.114; -424.795
651.304; -169.125; -743.114; -728.795
651.576; -124.623; -680.114; -645.795
651.847;  -35.220; -250.113; -140.796
652.118;    2.682;  -32.113; -189.796
652.389; -176.615; -639.113; -722.796
652.660;  -15.712; -147.113;  -89.797
652.931; -249.610; -897.112; -871.797
653.202; -127.007; -382.112; -541.798
653.473; -125.204; -633.112; -533.798
653.744;  212.698; -595.112; -590.798
654.015;  180.101; -356.112; -303.799
654.286; -113.697; -642.111; -663.799
654.557; -102.294; -586.111; -521.799
654.828; -301.591;-1114.111;-1088.800
655.099; -101.589; -404.111; -291.800
655.370; -138.386; -427.111; -543.801
655.641; -193.384; -656.110; -714.801
655.911; -165.481; -618.110; -638.801
656.182;  146.622;  437.890;  387.198
656.453;  189.924;  830.890;  746.198
656.724;  -94.873; -466.110; -426.802
656.994; -150.471; -553.109; -568.803
657.265; -181.068; -862.109; -873.803
657.536; -141.465; -500.109; -377.804
657.806; -154.063; -561.109; -593.804
658.077; -250.660; -866.109; -950.804
658.347; -133.358; -523.108; -598.805
658.618; -205.755; -646.108; -694.805
658.888;  -12.852;  -41.108;  112.195
659.159; -103.850; -432.108; -548.806
659.429;  -36.247; -292.108; -349.806
659.700;   29.855; -435.107; -390.807
659.970;    2.958; -370.107; -359.807
660.241;    2.661; -754.107; -921.807
660.511;  727.863; -147.107; -174.808
660.781;  101.266; -793.106; -748.808
661.052;  -37.032; -222.106; -381.808
661.322;  -27.529;   21.894;   -9.809
661.592;   90.474;  257.894;  148.191
661.862;  -85.524; -369.106; -382.810
662.133; -135.521; -551.105; -502.810
662.403; -220.719; -770.105; -676.810
662.673; -103.916; -256.105; -213.811
662.943; -143.713; -612.105; -551.811
663.213;    9.489;  -85.105;  -81.811
663.483; -143.208; -593.104; -568.812
663.753;  -46.505; -194.104; -152.812
664.023;  -16.603;   68.896;  -32.813
664.293;  -84.000; -319.104; -126.813
664.563; -193.098; -694.104; -648.813
664.833; -199.495; -743.103; -608.814
665.103; -235.692; -730.103; -793.814
665.373; -196.790; -766.103; -806.814
665.643; -159.087; -863.103; -918.815
665.913;   31.315; -534.103; -714.815
666.182;  153.318; -685.102; -719.816
666.452;  388.921;  -22.102;  -89.816
666.722;  -54.877; -724.102; -784.816
666.992; -237.574; -948.102; -921.817
667.261; -183.572; -824.102; -808.817
667.531;  334.931;  134.899;   45.183
667.801;  705.134; -440.101; -412.818
668.070;  438.336;  714.899;  697.182
668.340; -180.161; -883.101; -840.819
668.609;  204.941;  588.900;  301.181
668.879; -141.956; -490.100; -558.819
669.149; -112.653; -539.100; -516.820
669.418; -181.451; -698.100; -726.820
669.688;  -40.448; -482.100; -666.820
669.957;  105.154; -423.099; -546.821
670.226;  -21.843; -268.099; -331.821
670.496; -151.740; -431.099; -635.822
670.765; -120.138; -418.099; -501.822
671.034; -246.635; -872.099; -828.822
671.304;   33.667;   55.902; -111.823
671.573; -278.930;-1085.098; -957.823
671.842;  135.573; -380.098; -294.823
672.112;   -1.425; -692.098; -586.824
672.381;    7.778; -239.098; -214.824
672.650; -249.919;-1005.097;-1021.825
672.919; -184.717; -631.097; -507.825
673.188; -133.814; -681.097; -878.825
673.457; -293.412;-1101.097;-1143.826
673.726;  -87.609; -579.096; -646.826
673.995;  -55.306; -533.096; -479.826
674.265;  -12.204; -263.096; -333.827
674.534;   19.399; -183.096; -235.827
674.802;    1.401; -618.096; -703.828
675.071; 1566.504; -886.095; -801.828
675.340; 5579.707; -464.095; -339.828
675.609; 2010.109;  103.905;   82.171
675.878;  108.112; -949.095; -893.829
676.147;   82.014;  -26.095;   -8.829
676.416;  149.817; -210.094; -294.830
676.685; 1209.920; 1000.906; -622.830
676.953;  126.322; -603.094; -452.831
677.222;   -6.375; -193.094; -273.831
677.491;  -24.473;  -24.094; -127.831
677.759;   34.230;   11.907;  172.168
678.028;    4.033; -279.093; -222.832
678.297;   29.335;   71.907;  197.168
678.565; -248.762; -898.093; -944.833
678.834;  -91.260; -311.093; -268.833
679.102; -115.457; -411.092; -391.834
679.371; -248.854; -898.092; -727.834
679.639; -242.152; -797.092; -786.834
679.908; -201.249; -794.092; -724.835
680.176; -257.847; -895.091; -941.835
680.445;  -71.144; -346.091; -352.835
680.713;   27.059;  -58.091;  -23.836
680.982; -130.439; -523.091; -525.836
681.250; -190.536; -578.091; -507.837
681.518; -170.833; -534.090; -751.837
681.787;  -15.631; -204.090; -167.837
682.055; -102.428; -490.090; -422.838
682.323; -249.726; -993.090; -992.838
682.591;  103.277; -216.090; -538.838
682.859;  152.680;    9.911;  -35.839
683.128;   74.882;  232.911;  497.161
683.396; -298.015;-1102.089;-1122.840
683.664;  -29.613; -241.089;   21.160
683.932;   52.190;  144.911;  -76.840
684.200; -142.907; -576.088; -320.841
684.468;   -7.805;  -73.088; -124.841
684.736;  -30.002; -214.088; -175.841
685.004; -238.800;-1024.088; -982.842
685.272;  -94.997; -880.088; -774.842
685.540; -104.094; -499.087; -557.843
685.808; -110.892; -651.087; -682.843
686.076; -199.989; -894.087; -969.843
686.343; -111.487; -601.087; -815.844
686.611;  104.316; -195.087; -224.844
686.879;  827.919; -530.086; -553.844
687.147; 4822.821; -483.086; -480.845
687.414; 1394.224;  -12.086; -169.845
687.682;  -36.174; -658.086; -757.846
687.950;  473.829;  259.915;  263.154
688.217;   14.932; -792.085; -760.846
688.485;  -19.766; -632.085; -636.847
688.753;  797.137;  -11.085; -102.847
689.020;  235.339; -820.085; -851.847
689.288; -176.858; -853.084; -787.848
689.555;   -4.155; -195.084; -148.848
689.823;  -50.653; -241.084; -345.849
690.090; -118.750; -546.084; -651.849
690.358; -238.348; -877.084; -897.849
690.625;   65.355;  120.917;   45.150
690.892; -160.042; -403.083; -369.850
691.160;   33.760;   72.917;  -35.850
691.427;   38.963;  141.917;  130.149
691.694; -220.534; -855.083; -929.851
691.962; -250.332;-1177.082;-1060.852
692.229;   69.571;  127.918;   56.148
692.496;  167.473;  130.918;  -49.852
692.763;   59.676; -164.082; -201.853
693.031;  -78.821; -739.082; -716.853
693.298;  -54.319; -509.081; -368.853
693.565;  526.184; -155.081; -163.854
693.832; 1786.386;   -5.081;   -9.854
694.099;  197.789; -643.081; -642.855
694.366; -146.608; -882.081; -896.855
694.633; -103.806; -920.080; -633.855
694.900; 1494.797; 4367.920; -114.856
695.167;  656.999; -214.080; -380.856
695.434;  158.902; -646.080; -623.856
695.701;  332.905;  121.921;  -61.857
695.968;  685.707; -365.079; -361.857
696.234; 1645.710; -415.079; -646.858
696.501;15055.012; -776.079; -614.858
696.768; 7253.815; -554.079; -617.858
697.035;  488.318; -632.078; -667.859
697.302;   59.320; -448.078; -552.859
697.568;   22.123; -458.078; -497.859
697.835;  -56.375; -683.078; -624.860
698.102;   -1.172; -498.078; -407.860
698.368;  171.131;  384.923;  396.139
698.635;  -52.767;  -47.077; -424.861
698.901;   -4.464; -240.077; -348.861
699.168;  105.238; -534.077; -456.862
699.435;  156.241;  -72.077;  -13.862
699.701; -232.756; -868.076; -764.862
699.968;  -70.154;  144.924; -441.863
700.234; -154.951; -783.076; -822.863
700.500;  -82.048; -448.076; -539.864
700.767;   39.254;   -1.075;   26.136
701.033; -230.443;-1015.075; -963.864
701.299;  -83.041; -450.075; -483.865
701.566;  243.062;  950.925;  763.135
701.832;  105.765;  -31.075;  -76.865
702.098; -189.433;-1054.074;-1034.866
702.365; -160.430;-1098.074;-1030.866
702.631;  -61.728;-1038.074;-1063.867
702.897; 2112.675; -765.074; -676.867
703.163; 3108.278;  348.926;  254.133
703.429;  212.380; -256.073; -273.868
703.695;  -99.917; -796.073; -792.868
703.961;   85.985; -214.073; -210.868
704.227; -122.412; -630.073; -725.869
704.493;  308.291;  613.927;  510.131
704.759;   -9.907; -565.072; -540.870
705.025;   97.196; -203.072; -194.870
705.291;  -12.802; -666.072; -562.870
705.557;  399.001;  719.928;   34.129
705.823;   22.204; -742.072; -694.871
706.089;  251.106; -307.071; -326.871
706.355;  590.109; -315.071; -244.872
706.620; 8208.911; -776.071; -729.872
706.886;10804.314; -309.071; -362.873
707.152;  984.517; -818.070; -973.873
707.418;  -69.781;-1153.070;-1186.873
707.683;   10.122; -550.070; -530.874
707.949;  -61.376; -547.070; -578.874
708.215;   13.227; -129.070; -207.874
708.480;    4.530; -520.069; -420.875
708.746;  197.232;   68.931;   28.125
709.011;  -96.265; -578.069; -612.876
709.277; -127.763; -538.069; -543.876
709.542;  -58.560; -428.069; -387.876
709.808;   -1.357;  -59.068;   89.123
710.073; -138.155; -577.068; -695.877
710.339;  -25.052; -242.068; -228.877
710.604;   93.151; -780.068; -845.878
710.869;  452.153; -277.068; -366.878
711.135; -126.644; -715.067; -628.879
711.400; -150.942; -507.067; -608.879
711.665;  -85.339; -404.067; -479.879
711.931; -156.536; -661.067; -677.880
712.196; -184.634; -876.067; -954.880
712.461;  135.469; -402.066; -490.880
712.726;  164.471; -727.066; -771.881
712.991; -120.826; -647.066; -664.881
713.256;  -39.223; -350.066; -332.882
713.521;  -74.221; -417.065; -381.882
713.787; -109.818; -454.065; -472.882
714.052;  -34.816; -214.065; -400.883
714.317; -186.113;-1045.065; -981.883
714.581; 1477.790; -374.065; -268.883
714.846; 1753.392; -822.064; -888.884
715.111;  292.295;  261.936;  257.116
715.376;  -15.503;  -86.064; -223.885
715.641;   -5.500; -365.064; -367.885
715.906;  429.703;   15.936; -551.885
716.171;  279.705;  221.937;  209.114
716.436;   80.608;  -78.063; -104.886
716.700; -171.090; -818.063; -692.886
716.965; -181.887; -794.063; -807.887
717.230;  -76.884; -339.063; -392.887
717.494;    2.818;  -40.062; -134.888
717.759; -150.679; -784.062; -640.888
718.024;   57.623;  269.938;  250.112
718.288;  195.426;  685.938;  395.111
718.553; -252.071; -803.062; -977.889
718.817; -233.569; -883.061; -899.889
719.082;    9.434; -115.061; -125.890
719.346; -222.063;-1000.061; -947.890
719.611;  -50.461; -300.061; -255.891
719.875; -139.558; -568.060; -537.891
720.140;  -88.556; -453.060; -603.891
720.404;   74.647; -136.060; -249.892
720.668; 1273.750; -475.060; -411.892
720.933;  538.252;  146.940;  137.108
721.197; -144.345; -667.059; -600.893
721.461; -223.643; -851.059; -826.893
721.725;   50.160;  -21.059; -250.894
721.990;  -57.537; -284.059; -204.894
722.254;  -13.535;  -26.059; -108.894
722.518; -110.332; -286.058; -442.895
722.782; -143.030; -743.058; -594.895
723.046;  267.573;  614.942;  570.105
723.310;  103.676;  374.942;  210.104
723.574; -158.522; -654.058; -614.896
723.838; -171.719; -576.057; -642.897
724.102;  -34.117; -226.057; -239.897
724.366; -263.214;-1032.057; -978.897
724.630; -162.511; -749.057; -571.898
724.894; -125.809; -722.057; -514.898
725.158;   10.694;   38.944; -295.898
725.422;  -71.904; -394.056; -327.899
725.685;  -88.501; -441.056; -349.899
725.949; -113.698; -566.056; -519.900
726.213; -136.596; -732.056; -811.900
726.477;  234.107;-1020.055; -933.900
726.740;  204.509; -274.055; -104.901
727.004;  526.012; -384.055; -510.901
727.268; 4650.715; -442.055; -400.901
727.531; 1164.917; -961.055; -775.902
727.795;  -86.880; -713.054; -673.902
728.059;  -91.677; -552.054; -557.903
728.322; -140.175; -841.054; -669.903
728.586;   40.528; -692.054; -701.903
728.849; -159.570; -695.053; -756.904
729.112; -215.567; -812.053; -912.904
729.376; -192.564; -959.053; -905.904
729.639; -109.462; -536.053; -536.905
729.903; -161.459; -733.053; -699.905
730.166;  -68.657; -437.052; -399.906
730.429;    6.946; -317.052; -468.906
730.693; -115.851; -355.052; -894.906
730.956;  479.851;  810.948;  651.093
731.219; 1007.054; -310.052; -103.907
731.482;  142.856;-1003.051; -894.907
731.745;   74.259; -794.051; -935.908
732.009;   86.662;  -30.051;   50.092
732.272; -146.536; -904.051; -771.909
732.535;  -48.233; -300.051; -310.909
732.798; -294.531;-1083.050;-1166.909
733.061;  -86.628; -430.050; -456.910
733.324;   22.675;   31.950; -180.910
733.587;  172.077;  290.950;  365.090
733.850;  -92.920; -973.049;-1050.911
734.113;   87.082;   33.951;   32.089
734.376;   34.285; -328.049; -447.912
734.639;  474.888; 1188.951; 1011.088
734.901;  160.290; -180.049; -402.912
735.164;  791.093; -883.048; -837.913
735.427; 1820.195; -166.048; -355.913
735.690;  221.498; -205.048; -234.913
735.952;  -88.399; -923.048; -925.914
736.215;  -78.197;-1113.048;-1009.914
736.478;   44.306; -771.047; -774.915
736.740;  339.508;   33.953;  129.085
737.003; 1185.011; -658.047; -672.915
737.266; 5874.714;  -94.047;   46.084
737.528;  637.316; -682.047; -660.916
737.791;  470.019; -316.046; -327.916
738.053; 1273.322;  465.954;  649.083
738.316;16053.924; -162.046; -136.917
738.578;10092.127; -770.046; -736.918
738.841;  661.929; -382.046; -446.918
739.103;  288.432; -875.045; -777.918
739.365;  761.435;   79.955;  -69.919
739.628;   -3.563; -884.045; -805.919
739.890;  -21.760; -758.045; -710.919
740.152;  -44.658; -692.044; -754.920
740.414;   27.445; -408.044; -359.920
740.677;  -63.452; -785.044; -634.921
740.939;  -63.350; -587.044; -487.921
741.201;  418.453; -432.044; -572.921
741.463;   55.255; -689.043; -745.922
741.725;   61.058;  -21.043; -199.922
741.987;  147.661;  220.957;  116.078
742.249;   -3.037; -751.043; -859.923
742.511;  311.566; -703.043; -794.923
742.773;    2.368; -546.042; -546.924
743.035;  288.071;  796.958;  533.076
743.297;  -73.626; -963.042;-1013.924
743.559; 1131.476; -278.042; -262.925
743.821;   73.579; -735.042; -744.925
744.083;   34.881;  -44.041; -149.925
744.345; -184.716; -869.041; -892.926
744.607;  109.287;   75.959;  122.074
744.868;  -60.311; -490.041; -554.927
745.130; -190.008; -994.041;-1008.927
745.392;  138.494;   -1.040;  -44.927
745.653;    0.097; -411.040; -378.928
745.915;  330.700;  896.960;  631.072
746.177;  131.902;   35.960;  -43.928
746.438;   -6.495; -428.040; -543.929
746.700;  -76.192; -947.039; -988.929
746.961;    7.010; -659.039; -740.930
747.223;  288.413; -190.039;  -74.930
747.484;  139.815; -391.039; -471.930
747.746;  241.518;  -23.038; -106.931
748.007;  183.321; -647.038; -689.931
748.269;  511.023; -468.038; -440.931
748.530;  696.526; -852.038; -638.932
748.791;  393.228; -354.038; -420.932
749.053;  738.031;  286.963;  163.067
749.314;  715.434; -236.037; -169.933
749.575;  719.936; -945.037; -905.933
749.836; 1299.039; -217.037;   86.066
750.098; 4264.841;  -60.037;  -21.934
750.359;52893.044;  414.964;  555.066
750.620;12580.847; -121.036; -220.935
750.881; 1548.849; -585.036; -513.935
751.142; 2123.252; -950.036; -938.936
751.403;25382.954; -789.036; -705.936
751.664; 9915.957;-1034.035; -999.936
751.925;  826.160; -175.035; -262.937
752.186;  478.462; -298.035; -278.937
752.447;  229.865; -590.035; -445.937
752.708;   71.367; -532.035; -648.938
752.969;   47.670; -566.034; -576.938
753.230;   -8.927; -777.034; -672.939
753.491;   14.675; -650.034; -631.939
753.751;  189.378;  109.966;   19.061
754.012;  239.780;  258.967;  181.060
754.273;  118.883; -174.033;  -71.940
754.534;   10.486; -487.033; -580.940
754.794; -132.512; -926.033; -911.941
755.055;  322.491; 1051.967;  881.059
755.316;  -67.606; -700.032; -566.942
755.576;  -14.004; -606.032; -576.942
755.837;  -54.501; -527.032; -695.942
756.097;  -24.699; -530.032; -564.943
756.358; -116.896; -725.032; -770.943
756.618;  -57.193; -705.031; -641.943
756.879;   51.909; -254.031; -349.944
757.139; -196.488;-1098.031;-1116.944
757.400;  -86.586; -538.031; -553.945
757.660;    2.517; -365.031; -401.945
757.920;   25.220; -266.030; -228.945
758.181;    4.522; -468.030; -351.946
758.441; -149.675; -870.030; -809.946
758.701;  -18.573; -308.030; -215.946
758.961;   -5.470; -220.030; -278.947
759.222;  -39.067; -574.029; -502.947
759.482; -154.765; -683.029; -723.948
759.742; -137.262; -706.029; -547.948
760.002;   50.140;  -83.029; -143.948
760.262;   91.543;   50.972;  182.051
760.522;  -58.754; -498.028; -574.949
760.782;  -41.952; -738.028; -612.949
761.042;  -66.549; -618.028; -573.950
761.302;  131.953;   55.972;  -18.950
761.562;  150.556; -164.027; -154.951
761.822;  137.159; -710.027; -551.951
762.082;  -68.539;-1104.027;-1093.951
762.342;  169.364; -328.027; -403.952
762.601;  147.566; -567.027; -506.952
762.861;  636.269; -281.026; -207.952
763.121;  767.972; -406.026; -411.953
763.381;12761.274; -499.026; -485.953
763.640;12186.477; -139.026; -307.954
763.900;  598.179; -242.026; -203.954
764.160;  155.182; -458.025; -491.954
764.419;  -31.715; -726.025; -782.955
764.679; -103.413; -795.025; -726.955
764.939;   24.690; -124.025; -210.955
765.198; -111.207; -608.025; -563.956
765.458; -106.905; -710.024; -612.956
765.717; -103.002; -454.024; -590.957
765.976;  -64.600; -428.024; -411.957
766.236;  -92.097; -475.024; -610.957
766.495;  127.006;  260.977;   73.042
766.755; -167.292;-1090.023; -987.958
767.014;   16.011; -594.023; -665.958
767.273;  -37.287; -373.023; -397.959
767.533;  -22.784; -228.023; -307.959
767.792;  -29.681; -151.022; -188.960
768.051;  -48.879; -228.022; -276.960
768.310; -111.776; -546.022; -650.960
768.569;   62.926; -161.022;    4.039
768.828;  -30.771; -285.022; -363.961
769.088; -213.568;-1050.021; -942.961
769.347; -113.366; -755.021; -599.962
769.606; -151.863; -876.021; -857.962
769.865; -228.261;-1016.021;-1033.963
770.124;   30.542; -411.021; -336.963
770.383; -116.755; -778.020; -910.963
770.641;   19.047; -398.020; -400.964
770.900; -145.250; -953.020; -846.964
771.159; -113.348; -851.020; -951.964
771.418;  -63.245; -917.020; -779.965
771.677;  210.558; -224.019; -293.965
771.936;  171.660; -794.019; -865.966
772.194; 3771.363; -465.019; -437.966
772.453;15494.565; -213.019; -391.966
772.712; 1203.868;  416.982;  329.033
772.970;  232.571;   32.982;   63.033
773.229;  186.873;  -22.018;  102.033
773.488; -149.424; -814.018; -770.968
773.746;  179.579;  296.982;  335.032
774.005;   53.881;  190.983;  -22.969
774.263;   90.784;  243.983;  177.031
774.522; -133.214; -422.017; -548.969
774.780; -119.011; -484.017; -417.970
775.039; -133.408; -551.017; -531.970
775.297;   11.294; -135.016; -351.970
775.555; -174.603; -489.016; -612.971
775.814; -162.701; -618.016; -570.971
776.072; -172.198; -749.016; -740.971
776.330; -126.895; -630.016; -520.972
776.589; -176.493; -703.015; -721.972
776.847; -177.990; -645.015; -624.973
777.105; -294.188;-1016.015;-1032.973
777.363; -137.385; -459.015; -454.973
777.621; -235.882; -660.015; -717.974
777.879;   27.020;  -42.014;   32.026
778.138; -152.077; -554.014; -717.974
778.396; -135.775; -585.014; -526.975
778.654; -260.272;-1015.014; -970.975
778.912;  -75.269; -269.014; -371.976
779.170; -198.567; -880.013; -803.976
779.427; -224.764; -922.013; -897.976
779.685; -209.862; -880.013; -832.977
779.943; -131.759; -654.013; -593.977
780.201; -284.856; -964.012; -883.978
780.459; -171.854; -651.012; -610.978
780.717; -107.851; -440.012; -390.978
780.974; -146.049; -449.012; -490.979
781.232; -102.046; -358.012; -338.979
781.490; -124.443; -551.011; -472.979
781.747; -150.141; -555.011; -476.980
782.005;  144.362;  462.989;  254.020
782.263; -283.835; -542.011;-1004.981
782.520; -101.933; -326.011; -501.981
782.778; -292.330;-1013.010;-1051.981
783.035; -289.228; -962.010; -938.982
783.293;  -83.325; -248.010; -206.982
783.550;  -43.922; -134.010; -198.982
783.808; -217.320; -764.010; -776.983
784.065; -245.817; -745.009; -874.983
784.322;  -17.515;   25.991;  -86.984
784.580; -204.912; -915.009; -771.984
784.837; -134.609; -392.009; -466.984
785.094; -192.607; -783.009; -762.985
785.352;  -62.404; -304.008; -404.985
785.609; -147.902; -934.008; -839.985
785.866; -105.899; -345.008; -401.986
786.123; -106.496; -639.008; -583.986
786.380; -149.094; -665.008; -604.987
786.637;  -31.491; -225.007; -380.987
786.895;  -18.389; -456.007; -543.987
787.152;   -8.686; -135.007; -267.988
787.409;  -44.483; -123.007; -225.988
787.666; -123.481; -299.006; -378.988
787.923; -174.378; -616.006; -695.989
788.179; -148.476; -551.006; -584.989
788.436; -137.673; -585.006; -585.990
788.693;   11.930;  -92.006;  -87.990
788.950;  287.432; -125.005; -112.990
789.207;  282.335; -381.005; -372.991
789.464;  -25.063; -161.005; -301.991
789.720;   28.440;  150.995;  110.009
789.977; -306.557;-1003.005; -671.992
790.234;   22.345;   44.996;  -66.992
790.490; -246.152; -884.004;-1031.993
790.747;   15.250;  -85.004;   22.007
791.004;  -20.847; -426.004; -348.993
791.260;  -92.344; -430.004; -560.994
791.517; -165.242; -843.003; -788.994
791.773;  -56.139; -379.003; -342.994
792.030; -178.936; -596.003; -660.995
792.286; -161.434; -686.003; -636.995
792.543;   29.969;  -74.002; -159.995
792.799;  -49.229; -584.002; -382.996
793.055; -274.726;-1179.002;-1210.996
793.312; -156.123; -827.002; -816.997
793.568; -122.421; -746.002; -599.997
793.824;   34.382; -226.001; -284.997
794.081;   68.484; -447.001; -508.998
794.337;  119.687; -664.001; -561.998
794.593; 2555.590; -319.001; -271.999
794.849;10169.392; -746.001; -772.999
795.105;  545.695; -270.000; -261.999
795.361;   49.797; -490.000; -457.000
795.617;  -91.000; -875.000; -945.000
795.873;  -37.000; -360.000; -407.000
796.129;  -29.300; -368.000; -306.000
796.385;   18.000; -124.000; -156.000
796.641;  170.100;  412.000;  550.000
796.897;  -98.800; -666.000; -635.000
797.153;  178.800;  453.000;  357.000
797.409; -180.100; -785.000; -868.000
797.665; -132.500; -625.000; -732.000
797.921; -127.200; -775.000; -762.000
798.176;  -91.800; -744.000; -747.000
798.432; -100.100; -824.000; -596.000
798.688; -169.000;-1174.000;-1078.000
798.943;  154.100; -165.000; -147.000
799.199;  -41.500;-1005.000; -959.000
799.455;  439.500;  369.000;  316.000
799.710;  158.500; -813.000; -380.000
799.966;  437.100; -162.000; -160.000
800.221;  693.700; -638.000; -721.000
800.477;16146.900; -743.000; -710.000
800.732;11658.700; -773.000; -800.000
800.988;  954.600;  205.000;  -19.000
801.243; 3219.300; -454.000; -344.000
801.498;11083.100; -814.000; -739.000
801.754;  682.600; -289.000; -163.000
802.009;  181.600; -257.000; -335.000
802.264;  -93.600; -967.000;-1033.000
802.520;   76.900;  222.000;   -3.000
802.775;  -44.900; -524.000; -359.000
803.030;  164.400;  395.000;  356.000
803.285; -176.800; -840.000; -903.000
803.540;  -58.400; -686.000; -699.000
803.795; -104.600; -648.000; -583.000
804.051;  -24.800; -279.000; -346.000
804.306;  100.100;  168.000;  128.000
804.561;  310.500;  451.000;  362.000
804.816;  292.500;  714.000;  861.000
805.071;   57.100; -185.000; -280.000
805.325;  320.500; -257.000; -427.000
805.580; -180.200; -841.000; -877.000
805.835;   15.300; -204.000; -297.000
806.090; -104.400; -760.000; -676.000
806.345;  -42.100; -344.000; -264.000
806.600;  -39.700; -549.000; -632.000
806.854;  -13.900; -408.000; -538.000
807.109;   -7.000; -493.000; -577.000
807.364;   48.700; -407.000; -328.000
807.618;   54.500; -415.000; -381.000
807.873;   77.000; -470.000; -494.000
808.128;  188.900; -257.000; -518.000
808.382;  185.200; -224.000; -332.000
808.637;  136.600; -440.000; -511.000
808.891;  289.200; -257.000; -180.000
809.146;  179.300; -902.000; -794.000
809.400;  385.900; -848.000; -923.000
809.654;  525.600; -779.000; -551.000
809.909;  805.800; -841.000; -927.000
810.163;11903.100; -813.000; -651.000
810.418;24972.200; -940.000; -861.000
810.672; 1576.000; -685.000; -690.000
810.926; 1094.300; -993.000; -973.000
811.180; 2423.900; -439.000; -372.000
811.434;50862.300;  240.000;  135.000
811.689;16713.700; -231.000; -365.000
811.943;  942.400; -936.000; -953.000
812.197;  566.200; -893.000; -671.000
812.451;  217.200; -379.000; -514.000
812.705;  -16.500; -809.000; -619.000
812.959;   25.900; -263.000; -388.000
813.213;   28.200; -283.000; -209.000
813.467;  200.500;  470.000;  253.000
813.721; -154.800; -764.000; -792.000
813.975; -187.200; -826.000; -877.000
814.229;  156.600;  430.000;  353.000
814.482;  -84.800; -517.000; -566.000
814.736; -177.100; -766.000; -744.000
814.990; -213.800; -779.000; -872.000
815.244;  -22.600; -228.000; -285.000
815.497; -109.800; -636.000; -601.000
815.751;   32.800; -141.000;   82.000
816.005; -115.300; -470.000; -586.000
816.258;  -70.000; -510.000; -363.000
816.512; -157.300; -693.000; -610.000
816.766;   48.900;  121.000;  157.000
817.019;   84.000;  148.000;  149.000
817.273; -182.400;-1000.000; -802.000
817.526;  -28.600; -206.000; -173.000
817.779;  -55.300;-1049.000; -960.000
818.033; -117.000; -693.000; -807.000
818.286; -171.100; -725.000; -792.000
818.540; -161.000; -403.000; -403.000
818.793; -100.200; -402.000; -489.000
819.046; -156.500; -582.000; -520.000
819.299;    6.300; -157.000; -166.000
819.553; -177.900; -552.000; -592.000
819.806; -245.500;-1016.000; -838.000
820.059;  -69.300; -334.000; -354.000
820.312;  119.900;  152.000;  185.000
820.565;   28.500;  110.000;  -27.000
820.818;  -48.000;  -59.000; -173.000
821.071; -281.800;-1041.000; -957.000
821.324; -141.400; -536.000; -540.000
821.577; -142.800; -457.000; -483.000
821.830;  -58.200; -270.000; -172.000
822.083; -217.400; -733.000; -288.000
822.336;  -36.200; -261.000; -167.000
822.589; -194.700; -805.000; -688.000
822.842; -250.100; -875.000; -770.000
823.094; -305.000;-1076.000;-1114.000
823.347; -221.500; -925.000; -729.000
823.600;   94.300;  402.000;  187.000
823.853;  -52.500; -311.000; -267.000
824.105;  -91.800; -331.000; -575.000
824.358; -178.800; -617.000; -716.000
824.611;   98.300;  234.000;   40.000
824.863;  -85.100; -612.000; -591.000
825.116;  124.800;  -33.000;   27.000
825.368;  121.200; -366.000; -372.000
825.621;  262.100; -186.000; -240.000
825.873;  180.600; -704.000; -737.000
826.126;  994.100; -669.000; -641.000
826.378;17567.700; -389.000; -505.000
826.630; 3349.400; -890.000; -898.000
826.883;   57.500; -754.000; -693.000
827.135;  123.100; -279.000; -270.000
827.387; -173.600; -893.000; -839.000
827.639;    2.900;  -86.000;   32.000
827.892; -176.800; -742.000; -582.000
828.144; -217.800; -848.000; -804.000
828.396;   10.900;  104.000;  -80.000
828.648; -150.900; -440.000; -333.000
828.900; -228.800; -702.000; -795.000
829.152; -178.500; -684.000; -683.000
829.404;  -65.300; -215.000; -267.000
829.656;   79.600;  321.000;  214.000
829.908;   21.500;  393.000;  229.000
830.160; -292.900;-1064.000;-1047.000
830.412; -122.500; -481.000; -430.000
830.664; -200.100; -557.000; -665.000
830.916;  -63.500; -268.000; -206.000
831.167; -296.700;-1073.000; -951.000
831.419; -157.000; -623.000; -566.000
831.671; -253.200; -764.000; -809.000
831.923; -101.200; -311.000; -447.000
832.174; -110.900; -273.000; -331.000
832.426; -135.000; -493.000; -582.000
832.678; -339.300;-1043.000;-1091.000
832.929; -228.200; -947.000; -935.000
833.181; -124.100; -575.000; -677.000
833.432;   -9.300;  -59.000; -186.000
833.684;   14.900;  112.000;  -27.000
833.935; -158.200; -610.000; -566.000
834.187; -197.600; -829.000; -823.000
834.438;  -21.200;  -58.000;  -25.000
834.689;  -40.100; -255.000; -123.000
834.941;  -16.200; -343.000; -244.000
835.192; -110.700; -590.000; -533.000
835.443; -102.800; -419.000; -506.000
835.695;   30.500;  138.000;  -16.000
835.946; -111.300; -608.000; -378.000
836.197; -141.900; -599.000; -622.000
836.448; -109.600; -528.000; -395.000
836.699;  -48.300; -253.000; -341.000
836.950;   60.300;   72.000;    7.000
837.201; -244.000;-1003.000; -987.000
837.452;  -44.700; -356.000; -170.000
837.703; -159.200; -791.000; -737.000
837.954;  -41.400; -205.000; -365.000
838.205; -166.800;-1029.000;-1008.000
838.456;  301.900; -196.000; -282.000
838.707;   27.400; -423.000; -519.000
838.958;    3.800; -634.000; -647.000
839.209;  473.000;   18.000;   40.000
839.460;  229.500; -439.000; -201.000
839.710;  296.600; -135.000; -297.000
839.961;  739.700;  730.000;  612.000
840.212;  530.800; -382.000; -497.000
840.462; 1879.400; -328.000; -277.000
840.713;28663.000; -571.000; -536.000
840.964; 9119.700;  -62.000; -143.000
841.214;  787.600; -384.000; -624.000
841.465;  921.200; -214.000; -141.000
841.715;  841.400; -417.000; -380.000
841.966; 1076.100; -746.000; -685.000
842.216;17125.100; -330.000; -431.000
842.466;51900.400; -169.000; -313.000
842.717; 2247.500; -964.000; -952.000
842.967;  554.200; -635.000; -641.000
843.217;  483.000;   20.000;   28.000
843.468;  142.600; -104.000; -132.000
843.718;  -58.800; -718.000; -726.000
843.968; -164.900; -837.000; -765.000
844.218;   73.700; -315.000; -262.000
844.469;  -48.000; -577.000; -561.000
844.719; -140.400; -537.000; -682.000
844.969; -119.500; -550.000; -580.000
845.219; -228.100; -814.000; -862.000
845.469;  -89.900; -392.000; -342.000
845.719; -215.400; -792.000; -884.000
845.969;   43.800;  119.000;  174.000
846.219; -159.800; -738.000; -720.000
846.469;   84.900;  464.000;  432.000
846.718;  -44.700; -115.000;   31.000
846.968; -228.000; -827.000; -827.000
847.218;  -50.400; -224.000; -371.000
847.468; -142.900; -586.000; -555.000
847.718; -247.000; -827.000; -798.000
847.967; -208.200; -826.000; -915.000
848.217; -124.700; -449.000; -569.000
848.467;  -59.300; -405.000; -376.000
848.716; -193.500; -708.000; -725.000
848.966;    5.500; -372.000; -358.000
849.215;  -81.700; -428.000; -419.000
849.465; -124.900; -785.000; -615.000
849.714; -266.000;-1132.000;-1150.000
849.964;  -99.400; -551.000; -613.000
850.213;  -20.600; -393.000; -355.000
850.463;  179.600;  137.000;  340.000
850.712;  -26.600; -542.000; -567.000
850.961;    5.300; -739.000; -678.000
851.211;  161.800; -513.000; -504.000
851.460;  226.100; -635.000; -650.000
851.709;  926.200;  -25.000;   18.000
851.958;16989.300; -912.000; -750.000
852.208;16641.800; -859.000; -879.000
852.457;  632.000; -181.000;  -13.000
852.706;  106.400; -791.000; -823.000
852.955;    8.200; -507.000; -528.000
853.204; -106.500; -521.000; -461.000
853.453;  -89.200; -418.000; -458.000
853.702; -207.100; -660.000; -750.000
853.951; -154.300; -532.000; -520.000
854.200; -149.000; -613.000; -562.000
854.449; -207.000; -695.000; -661.000
854.698; -141.100; -340.000; -279.000
854.946;  -61.800; -181.000; -284.000
855.195; -204.800; -843.000; -868.000
855.444; -121.300; -395.000; -420.000
855.693; -184.000; -345.000; -432.000
855.941; -131.000; -387.000; -516.000
856.190;  -58.300; -256.000; -382.000
856.439; -197.300; -652.000; -703.000
856.687;  -51.300;  -99.000;  -72.000
856.936; -153.500; -621.000; -323.000
857.184; -314.400;-1067.000;-1020.000
857.433; -164.500; -423.000; -512.000
857.681; -300.000; -989.000; -953.000
857.930; -113.600; -282.000; -433.000
858.178; -292.000; -856.000; -929.000
858.427; -220.800; -802.000; -781.000
858.675; -204.200; -377.000; -544.000
858.923; -159.800; -527.000; -819.000
859.172; -297.000;-1094.000;-1070.000
859.420;  -91.600; -339.000; -239.000
859.668; -185.700; -624.000; -628.000
859.916;   15.100;  109.000;  115.000
860.164; -174.100; -699.000; -603.000
860.413;  503.400; -878.000; -696.000
860.661;  238.900; -709.000; -577.000
860.909; -104.200; -339.000; -325.000
861.157;  -98.100; -277.000; -444.000
861.405; -175.400; -534.000; -670.000
861.653;  112.500;  310.000;  310.000
861.901;  329.300; -543.000; -613.000
862.149;  -62.000; -801.000; -824.000
862.396;  -85.600; -297.000; -187.000
862.644; -140.000; -368.000; -347.000
862.892;   -8.600;   98.000;  138.000
863.140; -170.200; -549.000; -530.000
863.388; -229.000; -815.000; -759.000
863.635; -186.000; -642.000; -601.000
863.883;   34.200;  231.000;  190.000
864.131; -135.700; -288.000; -357.000
864.378; -209.400; -675.000; -540.000
864.626; -148.700; -347.000; -415.000
864.873; -191.400; -556.000; -505.000
865.121; -231.000; -714.000; -799.000
865.368;    8.300; -173.000;   75.000
865.616;  -24.200;  -33.000;  -40.000
865.863; -112.100; -462.000; -506.000
866.111; -183.500; -795.000; -824.000
866.358;   66.100; -426.000; -420.000
866.605; 3607.200;  -64.000; -804.000
866.853; 2965.100; -621.000; -537.000
867.100;  -72.000; -728.000; -775.000
867.347; -152.000; -672.000; -611.000
867.594; -133.500; -740.000; -714.000
867.841;  189.900;   97.000;   17.000
868.089; -237.600; -746.000; -698.000
868.336; -128.800; -477.000; -420.000
868.583; -229.700; -637.000; -741.000
868.830;  -29.600; -131.000; -170.000
869.077; -261.900; -859.000; -787.000
869.324; -181.200; -502.000; -458.000
869.571; -195.200; -398.000; -430.000
869.818; -180.000; -485.000; -439.000
870.065; -131.400; -439.000; -513.000
870.311; -127.700; -456.000; -542.000
870.558; -143.900; -332.000; -311.000
870.805;  -96.600; -320.000; -384.000
871.052; -135.700; -494.000; -369.000
871.298;  -36.100; -204.000; -131.000
871.545;  -80.500; -151.000; -185.000
871.792; -117.900; -173.000; -222.000
872.038;  -55.600;   43.000; -126.000
872.285; -174.200; -496.000; -387.000
872.532; -104.000; -357.000; -387.000
872.778;  120.400;  556.000;  403.000
873.025; -132.500; -384.000; -359.000
873.271;  121.100;  501.000;  578.000
873.517;   22.900; -133.000; -209.000
873.764;   -5.900; -193.000;  -80.000
874.010;  -77.900; -143.000; -230.000
874.257;   12.400;  123.000;   90.000
874.503; -207.200; -579.000; -479.000
874.749;  -64.300;   31.000;  275.000
874.995;  -87.500;  -80.000;  -20.000
875.242; -180.100; -540.000; -478.000
875.488; -163.300; -414.000; -439.000
875.734;  -35.300; -106.000; -234.000
875.980;  336.200; -872.000;-1032.000
876.226;  550.600; -157.000; -255.000
876.472;   58.300;  343.000;  237.000
876.718;    5.800;  184.000;  158.000
876.964;    2.000;   56.000;   55.000
877.210; -205.400; -547.000; -677.000
877.456; -202.600; -630.000; -557.000
877.702; -263.700; -821.000; -832.000
877.948; -163.400; -377.000; -497.000
878.193;  108.000;  361.000;  255.000
878.439; -155.600; -487.000; -472.000
878.685; -134.900; -272.000; -343.000
878.931; -201.600; -618.000; -676.000
879.176;  -88.600; -201.000; -201.000
879.422; -282.900; -933.000; -820.000
879.668;  175.700;   10.000;   79.000
879.913;  228.000;   53.000;  137.000
880.159;  -62.600; -112.000;  -17.000
880.404;  -88.800; -152.000; -162.000
880.650;    1.100;   91.000;  141.000
880.895; -271.900; -670.000; -710.000
881.141; -155.800; -454.000; -428.000
881.386; -239.800; -503.000; -658.000
881.631;  -82.700; -311.000; -166.000
881.877;   14.700;  112.000;  -13.000
882.122; -193.800; -684.000; -600.000
882.367;  -83.700; -136.000; -186.000
882.612;  -60.900;  -80.000; -176.000
882.858; -298.100; -877.000; -823.000
883.103; -100.700; -297.000; -267.000
883.348; -238.300; -759.000; -852.000
883.593; -217.000; -677.000; -602.000
883.838;  -44.200; -311.000;  -24.000
884.083;  106.900;  353.000;  288.000
884.328; -140.300; -564.000; -545.000
884.573;  -32.400; -196.000; -143.000
884.818;  346.700; -694.000; -531.000
885.063;  268.700; -348.000; -315.000
885.308; -122.300; -475.000; -398.000
885.553;   77.300;  245.000;  325.000
885.797; -190.800; -545.000; -615.000
886.042;  -41.500;    8.000;   58.000
886.287;  -91.400; -253.000; -211.000
886.532;   -0.400;   26.000;  204.000
886.776; -138.000; -407.000; -525.000
887.021; -201.800; -621.000; -574.000
887.265; -235.600; -685.000; -689.000
887.510; -196.600; -557.000; -496.000
887.755; -110.900; -194.000; -164.000
887.999; -216.000; -552.000; -575.000
888.244;  -52.000;  -58.000;  161.000
888.488;   79.000;  371.000;  393.000
888.732; -166.300; -368.000; -520.000
888.977; -175.500; -622.000; -567.000
889.221; -266.400; -683.000; -659.000
889.465; -194.200; -422.000; -566.000
889.710;  -97.400;  -56.000; -299.000
889.954;   67.000;  579.000;  467.000
890.198; -237.900; -584.000; -707.000
890.442; -219.400; -716.000; -712.000
890.687; -295.000; -800.000; -753.000
890.931; -128.200; -273.000; -210.000
891.175; -187.600; -502.000; -500.000
891.419;  -88.600; -105.000; -110.000
891.663; -110.800; -239.000; -112.000
891.907; -263.600; -801.000; -545.000
892.151; -297.600; -920.000; -815.000
892.395; -147.600; -274.000; -387.000
892.638;   51.900;  408.000;  291.000
892.882; -249.600; -780.000; -867.000
893.126;  123.600;  758.000;  558.000
893.370; -120.800; -167.000; -168.000
893.614; -205.500; -714.000; -715.000
893.857; -120.700; -183.000; -197.000
894.101; -194.600; -527.000; -631.000
894.345;  -30.300;  300.000;  150.000
894.588;  118.700;  569.000;  380.000
894.832;  -92.700; -178.000;  -84.000
895.075;  -80.400;   15.000;  -92.000
895.319; -149.800; -552.000; -420.000
895.563; -160.800; -413.000; -353.000
895.806; -236.400; -628.000; -741.000
896.049;  -80.100; -576.000; -368.000
896.293;  233.700;  527.000;  405.000
896.536; -130.900; -465.000; -468.000
896.779;  -48.600; -149.000;   -1.000
897.023; -226.900; -751.000; -714.000
897.266;   29.800;  325.000;  269.000
897.509; -301.900; -900.000; -901.000
897.752;   13.000;  149.000;  171.000
897.996; -285.800; -972.000; -864.000
898.239;    3.400;  168.000;  102.000
898.482; -202.900; -431.000; -453.000
898.725;   13.900;  101.000;   53.000
898.968; -243.200; -609.000; -744.000
899.211; -171.500; -513.000; -361.000
899.454; -181.700; -633.000; -539.000
899.697;  -48.000;   90.000;  -43.000
899.940; -246.100; -761.000; -757.000
900.182; -141.100; -335.000; -405.000
900.425; -130.400; -150.000; -298.000
900.668;   35.100;  491.000;  350.000
900.911; -137.800; -292.000; -345.000
901.154;  -22.200;  141.000;   -3.000
901.396; -209.000; -407.000; -412.000
901.639; -216.300; -430.000; -496.000
901.882; -294.600; -790.000; -809.000
902.124;  -94.300;  -29.000; -143.000
902.367; -142.900; -315.000; -361.000
902.609; -174.500; -476.000; -453.000
902.852;  -99.200; -108.000; -260.000
903.094; -193.700; -458.000; -337.000
903.337;  -65.300;  -26.000;   53.000
903.579; -141.900; -228.000; -441.000
903.821; -246.800; -597.000; -744.000
904.064;  -40.100;   85.000;  127.000
904.306;  -89.900; -126.000; -166.000
904.548; -123.400; -152.000; -366.000
904.790; -125.700; -195.000; -340.000
905.033; -188.200; -625.000; -577.000
905.275; -182.700; -513.000; -524.000
905.517;  184.600;  468.000;  256.000
905.759; -123.500; -667.000; -761.000
906.001; -110.000; -322.000; -369.000
906.243;  -84.200; -162.000; -224.000
906.485;  265.000; -265.000; -207.000
906.727;  166.400; -499.000; -542.000
906.969;   -8.900;  -30.000; -135.000
907.211;  247.100; -316.000; -382.000
907.453;  511.100; -188.000; -237.000
907.695;   19.100; -158.000; -385.000
907.936;  153.300;  818.000;  706.000
908.178;  -64.400;   92.000; -135.000
908.420;  -57.000; -111.000; -162.000
908.662; -216.500; -633.000; -682.000
908.903;  -87.900; -208.000; -123.000
909.145;  -61.400; -240.000; -305.000
909.386;   67.400;  315.000;  280.000
909.628;  124.500;  363.000;  397.000
909.870;   56.400;   29.000;  264.000
910.111; -179.300; -809.000; -949.000
910.353;   84.900; -123.000; -161.000
910.594;   42.800; -574.000; -606.000
910.835;  212.700; -265.000; -326.000
911.077;  288.800; -503.000; -604.000
911.318;  535.700; -505.000; -471.000
911.559;  814.900; -577.000; -880.000
911.801; 2520.900; -284.000; -280.000
912.042;20948.100;  -50.000; -159.000
912.283;45515.500;  404.000;  371.000
912.524; 5701.000; -396.000; -457.000
912.765;  851.900; -193.000;   79.000
913.006;  482.500; -307.000; -338.000
913.247;  118.800; -270.000; -290.000
913.488;   52.400;  -43.000;   30.000
913.729; -107.300; -373.000; -373.000
913.970;  -64.900;  -96.000; -292.000
914.211;  -36.700; -160.000; -198.000
914.452;  -67.100; -118.000;  -11.000
914.693;  111.100;  510.000;  592.000
914.934;   92.700;  510.000;  440.000
915.175;  -50.200;   53.000;  -95.000
915.415;  -64.400; -137.000;   27.000
915.656;  -53.200;  -28.000;  192.000
915.897; -112.900; -252.000;  -82.000
916.137;  -62.000;   74.000;   -9.000
916.378; -193.400; -573.000; -517.000
916.619; -104.500; -159.000;  -63.000
916.859;    7.100;  303.000;  330.000
917.100;  349.300; 1655.000; 1070.000
917.340;  203.100;  930.000;  728.000
917.581;  151.400;  965.000;  789.000
917.821;  -12.400; -171.000;  143.000
918.061;   30.200; -199.000;  -72.000
918.302;  -38.900; -152.000; -211.000
918.542;   27.600;  -22.000;    3.000
918.782;  109.000;  369.000;  377.000
919.023;  280.800;  360.000;  427.000
919.263; 3603.000; 8131.000;  202.000
919.503; 1758.900; -137.000;  -54.000
919.743; 1073.700;  390.000;  266.000
919.983;  392.400; -134.000;  -26.000
920.223;  167.700;  135.000;   14.000
920.463;  287.900;  631.000;  554.000
920.703;  240.800;   84.000;   39.000
920.943;  280.900; -110.000;   90.000
921.183;  392.200; -414.000; -405.000
921.423;  867.200;  307.000;  546.000
921.663; 1119.700; -174.000; -257.000
921.903; 2601.200;  237.000;  173.000
922.143;15322.200;  372.000;  389.000
922.383;53554.300;  158.000;  115.000
922.622;14578.700; -120.000;  -15.000
922.862; 1776.100;  796.000;  785.000
923.102;  732.800;  -51.000;   33.000
923.341;  359.700;   59.000;   74.000
923.581;  176.200;  450.000;  360.000
923.821;  105.800;  301.000;  398.000
924.060;   69.700;  351.000;  193.000
924.300;  -43.500;  -16.000; -128.000
924.539;   37.300;  584.000;  473.000
924.779;  137.300;  812.000;  597.000
925.018;  -15.800;  247.000;  353.000
925.257;   68.800;  595.000;  666.000
925.497;  -15.100;  447.000;  412.000
925.736;  -76.600;  -35.000;  102.000
925.975;   66.700;  687.000;  669.000
926.214;  142.600;  907.000;  850.000
926.454;   96.600;  706.000;  757.000
926.693;   34.400;  419.000;  543.000
926.932;  158.100; 1021.000;  825.000
927.171;  289.800; 1107.000; 1044.000
927.410;  190.500; 1144.000;  967.000
927.649;  150.400;  924.000;  742.000
927.888;   91.200;  590.000;  564.000
928.127;   96.300;  680.000;  678.000
928.366;  138.200;  842.000;  826.000
928.605;  152.400;  831.000;  737.000
928.844;  518.200; 1451.000; 1393.000
929.083; 1107.200;  770.000;  613.000
929.321;  579.300; 1335.000; 1359.000
929.560;  243.500; 1158.000; 1122.000
929.799;   26.200;  574.000;  475.000
930.038;  247.000; 1025.000; 1394.000
930.276;  -17.600;  334.000;  397.000
930.515;   68.500;  827.000;  681.000
930.753;   54.300;  614.000;  589.000
930.992;   45.400;  664.000;  717.000
931.230;   80.200;  847.000;  847.000
931.469;  425.900; 2162.000;  892.000
931.707;  254.500;  840.000;  751.000
931.946;  206.700; 1278.000; 1344.000
932.184;  179.000; 1437.000; 1175.000
932.423;  182.200; 1265.000;  963.000
932.661;  295.200; 1296.000; 1428.000
932.899;  135.900;  987.000;  821.000
933.137;   57.100;  754.000;  564.000
933.376;  403.400; 1664.000; 1335.000
933.614;  409.900; 1759.000; 1196.000
933.852;  207.200; 1357.000; 1171.000
934.090;  353.400; 1722.000; 1747.000
934.328;  295.200; 1252.000; 1457.000
934.566;  226.200; 1431.000; 1110.000
934.804;  313.900; 1263.000; 1309.000
935.042;  864.500; 1861.000; 1850.000
935.280; 3092.900; 2088.000; 2063.000
935.518; 2484.600; 2113.000; 2007.000
935.756;  680.500; 2481.000; 2316.000
935.994;  408.000; 1808.000; 1751.000
936.231;  764.400; 2890.000; 2950.000
936.469;  436.800; 2367.000; 2378.000
936.707;  442.800; 2220.000; 2167.000
936.945;  555.800; 2825.000; 2882.000
937.182;  479.700; 2679.000; 2741.000
937.420;  697.200; 3602.000; 3031.000
937.657;  900.700; 3365.000; 3478.000
937.895;  775.400; 3331.000; 3488.000
938.133;  723.900; 3540.000; 3528.000
938.370;  788.600; 3896.000; 4191.000
938.607;  875.400; 4488.000; 4205.000
938.845; 1176.300; 5587.000; 5549.000
939.082; 1042.900; 5387.000; 5177.000
939.320; 1184.700; 5799.000; 5728.000
939.557; 1363.900; 6549.000; 6491.000
939.794; 1579.900; 7285.000; 7097.000
940.031; 1949.500; 8421.000; 8368.000
940.269; 2195.800; 9552.000; 9107.000
940.506; 2298.700;10901.000;10507.000

