
Integration time [ms]: 100.000
Averaging Nr. [scans]: 40
Smoothing Nr. [pixels]: 0
Data measured with spectrometer [name]: 2101013U2
Wave   ;Sample   ;Dark     ;Reference
[nm]   ;[counts] ;[counts] ;[counts] 

394.013;   70.955; -450.257; -315.536
394.305;  282.978; -461.258; -419.536
394.596; 1140.148; -676.269; -527.514
394.887; 2592.440; -796.268; -654.518
395.178; 1017.996;  145.736;   11.476
395.470;   98.608; -210.263; -356.526
395.761;  256.605;  305.734;  394.479
396.052;  444.596; -545.284; -306.489
396.343;  465.542; -557.276; -454.503
396.634;  159.235; -200.279; -290.497
396.926;  192.688; -618.268; -565.517
397.217;  148.122;   11.725;  -17.504
397.508;   81.463; -366.273; -154.507
397.799;   81.885; -555.279; -571.497
398.090;   28.104; -973.280; -902.495
398.381;  165.245;   11.708;  -11.473
398.672;   23.596; -585.292; -742.473
398.963;   72.466; -348.279; -373.498
399.254;  142.355;   54.709; -209.475
399.545;    2.327;-1017.266; -883.520
399.836;   97.956; -407.277; -343.501
400.127;   47.595; -205.295; -209.468
400.418;   85.707; -423.274; -392.506
400.709;  105.141; -359.281; -333.493
401.000;   76.134; -268.291; -309.476
401.290;  125.931;  225.698;  115.545
401.581;   73.503; -166.286; -228.485
401.872;   31.642; -542.298; -486.462
402.163;   76.038; -313.296; -252.467
402.454;  118.481; -123.291; -163.475
402.744;  124.079; -844.297; -813.465
403.035;  560.486; -226.293;  -86.471
403.326;  738.874; -366.292; -384.474
403.617;  453.611;  204.701;  165.539
403.907;  271.577; -593.283; -679.490
404.198; 2340.559; -545.307; -599.446
404.489; 6140.332; -618.283; -588.491
404.779; 2138.609; -618.302; -660.456
405.070;  254.988;  -67.304; -174.451
405.360;  348.838; -259.293; -238.472
405.651;  371.046;  125.699;   98.542
405.942;  208.148;  209.714;  127.516
406.232;  397.513; -432.285; -413.487
406.523;  603.705;  641.706;  758.530
406.813;  140.926; -579.286; -644.484
407.104;  451.618;  261.708;  144.527
407.394;  287.462; -604.299; -591.462
407.685;  173.087;  336.715;  222.513
407.975;  105.355; -400.283; -382.490
408.265;  131.745; -134.289; -190.478
408.556;   99.377; -472.291; -459.475
408.846;  175.606;  474.706;  429.530
409.137;   91.979;   -1.288; -216.480
409.427;   58.938; -193.285; -271.487
409.717;   58.591; -776.273; -692.508
410.007;  136.806;    4.715; -170.486
410.298;  111.198; -360.295; -342.469
410.588;   84.485; -495.285; -510.486
410.878;   57.140; -792.287; -873.482
411.168;  133.494; -481.298; -478.463
411.459;  136.550; -295.283; -242.489
411.749;   81.901; -609.292; -507.474
412.039;   89.027; -755.289; -386.480
412.329;  221.474;   40.722;  132.501
412.619;  233.826;  -62.286; -148.485
412.909;  404.573;  639.711;  594.521
413.199;  384.855; -130.280; -251.495
413.490;  446.038;  521.710;  352.523
413.780;  169.284;-1013.279; -913.496
414.070;  358.043;  -46.276;  235.497
414.360;  424.245; -729.278; -666.498
414.650;  460.736; -726.288; -688.482
414.940;  541.433; -538.280; -441.496
415.230;  947.383;   50.712;   74.519
415.520; 5994.047;  155.730;   66.486
415.809;23500.391; -305.281; -125.493
416.099;17870.258; -388.277; -229.501
416.389; 4903.305;  435.726;  236.494
416.679; 2876.986;   91.738;   85.473
416.969;  523.895; -527.287; -503.483
417.259;  466.536;  341.721;  171.503
417.549;  720.515;  522.718;  318.508
417.838; 1613.790; -205.268; -147.518
418.128; 5252.469;  650.710;  492.522
418.418; 4303.447; -491.272; -579.509
418.708; 2925.680;    9.726;  -48.506
418.997;11015.951; -474.275; -480.505
419.287;11318.462; -733.273; -790.507
419.577;10539.649; -160.283; -123.489
419.866;35431.631; -588.277; -498.501
420.156;36659.593; -242.270;  -55.513
420.446; 6605.454; -112.263;  -26.526
420.735;  998.912; -376.271; -446.512
421.025;  870.194; 1830.722;  315.502
421.314;  811.135; -203.271; -226.512
421.604; 1917.082;   89.732;  233.484
421.893; 1097.757; -705.271; -602.511
422.183;  239.479; -487.263; -461.526
422.472;  408.583;  -36.271; -107.511
422.762;  499.433; -416.266; -379.521
423.051;  288.593; -916.276; -916.503
423.341;  360.339; -491.273; -439.507
423.630;  467.389; -121.265;   15.477
423.919;  412.550;   58.725;   49.495
424.209;  389.610;  -31.263;   56.473
424.498;  499.887;   68.732;  161.483
424.787; 1103.194; -535.267; -601.518
425.077; 3365.638;   34.735;   29.478
425.366; 5098.890; -734.262; -744.528
425.655; 9487.239;  639.727;  259.493
425.945;19414.271; -313.247; -268.554
426.234;10629.488;  117.741;  300.467
426.523; 4984.669;  -86.259; -350.534
426.812; 6764.354;  107.734;  159.480
427.101; 9867.654; -127.269; -323.515
427.390;12554.222;  -55.270;  -86.514
427.680; 3234.589; -624.257; -411.538
427.969;  528.725; -330.255; -301.540
428.258;  378.980; -385.257; -477.536
428.547;  594.002;  449.728;  397.490
428.836; 1559.441; -421.253; -398.543
429.125; 2223.470; -199.259;  -72.534
429.414;  915.914; -330.251; -294.548
429.703; 3049.289; -231.251; -213.548
429.992; 9070.293; -938.250; -828.549
430.281; 5805.797; -397.264; -331.524
430.570;  649.904;  -21.252;   32.454
430.859;  697.718;  279.741;  352.466
431.148;  504.292;  636.752;  631.446
431.437;  340.804;  391.748;  367.454
431.725;  182.782; -544.257; -481.536
432.014;  152.098; -845.253; -756.545
432.303;  441.969; -149.239; -105.569
432.592;  732.128; -460.263; -178.525
432.881; 1078.118; -601.248; -437.554
433.169; 5776.775; -343.255;  -61.540
433.458;11815.479;  445.765;  540.424
433.747; 4980.071; -397.261; -289.529
434.036; 1043.020; -275.242; -280.564
434.324; 2117.930; -395.249; -379.551
434.613; 3551.463;   40.757;  159.437
434.902; 1252.609;  333.760;  439.433
435.190;  817.143;   75.761;  295.431
435.479;  440.020;  -52.245;   83.441
435.767;  164.478; -411.244; -427.561
436.056;  278.415; -340.242; -294.563
436.345;  411.037; -372.240; -223.568
436.633;  418.376;   60.750;  383.450
436.922;  348.314;  208.760;  414.432
437.210;  845.343; -194.236;    1.426
437.499; 2848.177; -583.235; -432.576
437.787; 3059.393; -339.236;  -10.574
438.075;  736.349;   56.761;  162.430
438.364; 1010.026;  -44.238;  250.429
438.652;  625.358; -286.226; -138.592
438.941;  164.046;    3.770;  269.415
439.229;   42.502; -665.252; -466.545
439.517;   53.060; -160.234;  -85.577
439.806;   28.924; -501.225; -290.595
440.094;  220.793;  377.766;  650.421
440.382;  279.422; -653.233; -302.580
440.670;  285.226; -361.235; -285.576
440.959;   61.916; -347.223; -170.599
441.247;  105.883; -151.229; -109.587
441.535;  145.408; -266.235;   31.423
441.823;   59.540; -497.234; -305.578
442.111;  226.387;  173.771;  327.412
442.400;  694.819; -628.245; -335.559
442.688; 1952.567; -111.234; -620.579
442.976; 1445.206; -786.213; -450.617
443.264;  159.305; -324.224; -364.597
443.552;  138.509; -258.226;   51.408
443.840;  188.407;  602.765;  876.423
444.128;  120.721;  265.767;  269.420
444.416;   39.665; -694.228; -312.588
444.704;   38.572; -465.219;  -92.605
444.992;   89.187;   -0.226;  240.407
445.280;   79.972; -517.230;  -94.585
445.568;   77.434; -694.212; -396.618
445.856;  444.055; -174.221;  357.398
446.143; 1024.743;  -54.220;   -7.604
446.431;  834.693;  -25.228;  625.411
446.719;  293.191;  489.783;  675.391
447.007;  196.091;  481.769;  705.416
447.295;  196.413;  597.777;  871.402
447.583;  109.130; -464.229;  -34.587
447.870;  188.377; -434.221; -202.601
448.158;  525.921; -104.230;  129.415
448.446;  425.669; -800.219; -338.604
448.733;  214.007;   13.776;  269.403
449.021;  296.259;   60.788;  341.382
449.309;  191.349; -296.210;  208.379
449.596;  248.387;  128.783;   59.392
449.884;  163.895; -571.222; -325.600
450.172;  164.149; -756.227; -406.590
450.459;  413.989;  645.786;  780.387
450.747; 2167.711; -411.218; -147.608
451.034; 7012.095;  493.772;  889.411
451.322; 5618.917; -413.214; -170.614
451.609;  480.883;  292.777;  508.403
451.897;  582.263; -550.203; -183.634
452.184; 1689.889; -622.223; -400.598
452.472; 1612.896;   97.792;  269.375
452.759;  365.344;  512.781;  864.395
453.047;  156.881; -407.212; -125.617
453.334;  119.502; -732.219; -216.606
453.621;  124.444; -438.214; -161.615
453.909;  139.280;   13.796;  384.368
454.196;  134.451; -299.199; -123.641
454.483;  236.576;  317.798;  540.364
454.771;  178.574; -215.208;  196.374
455.058;   36.702; -316.207;  102.374
455.345;  118.382;   71.807;  344.347
455.632;   75.055; -128.207;  235.373
455.919;   67.499;  -82.196;  182.354
456.207;  -53.094; -774.198; -450.642
456.494;   18.389; -475.200;  -66.639
456.781;   24.372; -399.202; -198.635
457.068;   93.662; -253.206;  -29.628
457.355;   16.313; -698.206; -401.629
457.642;   26.569; -552.205; -290.630
457.929;   19.548; -778.194; -417.651
458.216;   77.782; -575.212; -354.617
458.503;  210.328; -173.193;  -19.652
458.790;  239.047; -864.208; -630.625
459.077;  272.827;  -77.202;  110.364
459.364;  781.841; -350.195; -210.649
459.651; 1620.360;  -46.206;  220.372
459.938;  756.562; -864.209; -665.623
460.225;  163.980;  132.799;  276.363
460.512;  -22.654; -836.197; -688.645
460.799;  113.034;  -32.218;  320.392
461.086;   99.968; -370.200; -251.640
461.372;   72.706; -509.198; -279.642
461.659;  144.000; -165.196;  108.354
461.946;   90.651; -445.193;  -54.651
462.233;  253.541;  842.800;  888.361
462.519;  362.488; -814.201; -464.639
462.806;  988.847; -768.197; -497.645
463.093;  827.522; -445.191;  -66.656
463.380;  -13.161; -920.186; -824.664
463.666;   68.523; -259.197;  -18.646
463.953;  103.861; -406.195; -243.648
464.239;  190.536; -173.195;  -77.648
464.526;  419.371;  413.806;  743.350
464.813;  393.059; -565.190; -304.658
465.099;  393.277;  606.807;  607.348
465.386;  371.681;  903.807;  921.348
465.672;   76.847; -694.197; -522.645
465.959;   50.277; -598.188; -520.662
466.245;   29.156; -468.193; -359.652
466.532;  131.858; -109.195;   63.352
466.818;  107.064; -357.186; -216.664
467.104;   26.830; -488.182; -415.672
467.391;   -3.639; -628.189; -459.658
467.677;   46.168; -289.186;    9.335
467.964;   33.668; -682.189; -471.660
468.250;  100.970; -331.186; -160.665
468.536;   89.937;   90.811;  180.341
468.822;  -20.418; -821.184; -574.668
469.109;  150.062;  351.827;  471.311
469.395;  205.141;  729.808;  787.346
469.681;  217.315;   46.811;  156.341
469.967; 1191.095; -699.188; -382.660
470.254; 2534.978; -494.188; -306.662
470.540; 1615.474; -601.196; -476.646
470.826;  242.691; -488.181; -397.675
471.112;  273.061;  288.816;  113.331
471.398;   98.466; -253.183;  -58.670
471.684;   67.820; -626.177; -447.680
471.970;   18.270; -918.180; -981.675
472.256;   44.390; -521.192; -441.654
472.542;   32.423; -499.171; -434.691
472.828;   43.726; -743.182; -607.672
473.114;   58.517; -380.166; -283.700
473.400;   42.262; -504.175; -293.684
473.686;   59.799; -452.166; -400.701
473.972;   60.651; -230.174; -131.687
474.258;  -32.563; -925.173; -843.689
474.544;  181.136; -183.178;   -2.679
474.830;  268.013;  -65.175;   45.316
475.116;  408.486; -123.190; -196.658
475.401;  596.147; -558.180; -467.676
475.687;  192.021; -725.180; -718.676
475.973;   48.134; -673.181; -770.673
476.259;  273.616;  736.825;  764.315
476.544;  365.753; -539.176; -437.682
476.830;  748.544; -398.172; -322.690
477.116;  630.827; -430.177; -336.682
477.401;  144.897;  346.820;  358.324
477.687;   -5.763; -289.175; -405.684
477.973;   51.737;   21.819;   28.326
478.258;    8.794; -448.163; -348.706
478.544;   59.801;   21.815;   61.334
478.829;  -34.297; -818.171; -738.692
479.115;  -35.357; -749.172; -651.690
479.401;    3.222; -444.174; -449.686
479.686;   32.971; -253.180;  -74.676
479.972;  -25.583; -886.178; -776.680
480.257;   49.269; -258.166;  -65.700
480.542;   23.857; -614.170; -469.693
480.828;  220.585; 1288.824; 1392.317
481.113;  -18.167; -464.176; -426.683
481.399;    9.968; -236.161; -202.711
481.684;  -37.982; -620.166; -462.700
481.969;   23.882; -158.159;  -73.713
482.255;   29.043; -439.169; -285.695
482.540;   -5.308; -569.178; -441.680
482.825;   19.659; -395.187; -404.663
483.110;   86.072;  -85.169; -105.696
483.396;  171.054; -840.157; -652.718
483.681;  439.077;  543.826;  730.313
483.966;  133.726; -696.160; -700.712
484.251;   10.401; -404.174; -310.687
484.536;   27.804; -356.165; -378.703
484.822;   20.454; -205.173; -218.687
485.107;  -27.257; -599.152; -502.726
485.392;  131.410;  662.836;  541.296
485.677;   90.507;  354.832;  163.302
485.962;  101.451;  160.843;  270.283
486.247;  121.102;  -14.162;   -8.707
486.532;   56.195; -178.166; -325.701
486.817;  190.838;  381.839;  431.291
487.102;  135.776; -453.154; -514.722
487.387;  596.281; -637.156; -652.718
487.672; 1041.015; -154.164;  -38.705
487.957;  668.945; -394.160; -286.711
488.241;  188.060; -290.150; -314.729
488.526;  646.369; -280.152; -148.726
488.811; 1059.844; -881.177; -818.680
489.096;  809.178; -666.154; -702.723
489.381;  474.265;    3.847;  162.275
489.666;  326.618; -428.161; -510.710
489.950;  160.781;  558.846;  627.277
490.235;  -14.545; -480.151; -458.728
490.520;  -29.633; -756.161; -723.710
490.804;  -42.417; -827.156; -736.719
491.089;    1.476; -469.149; -299.732
491.374;   32.014; -132.164;  -75.704
491.658;   11.037; -817.147; -717.735
491.943;  215.223; -657.152; -609.727
492.227;  302.321; -178.155;  -38.721
492.512;   69.001; -294.157; -341.717
492.797;  -76.155; -713.149; -716.731
493.081;  -32.510; -588.147; -598.735
493.366;  -32.231; -751.161; -635.711
493.650;  213.069;  831.859;  917.254
493.935;   36.587; -648.147; -447.734
494.219;  -31.869; -778.142; -687.743
494.503;  -37.111; -585.150; -487.730
494.788;   50.768;   46.842;   74.285
495.072;  107.061;  184.850;  434.271
495.356;  176.704; -463.148; -343.733
495.641;  474.597; -812.146; -736.736
495.925;  493.863; -976.156; -903.719
496.209;   44.725; -599.149; -451.732
496.494;  -26.068; -763.142; -544.744
496.778;    9.476; -364.154; -360.722
497.062;  -39.638; -819.156; -627.719
497.346;  -34.028; -869.160; -640.711
497.631;  134.383;  580.852;  560.266
497.915;   84.232;  -64.145;  175.261
498.199;   69.504; -341.157; -277.718
498.483;   53.467; -562.152; -508.725
498.767;  179.437;  301.850;  300.271
499.051;  173.573; -126.149; -100.732
499.335;   41.996; -693.149; -739.731
499.619;  -25.753; -381.129; -423.767
499.903;   36.245; -272.155;  -65.721
500.187;   32.533; -588.153; -316.724
500.471;   50.123; -796.152; -595.727
500.755;  142.667;   62.839;  -96.710
501.039;   43.320; -270.155; -357.721
501.323;   82.896;  -21.141;  264.254
501.607;   65.820; -447.163; -503.706
501.891;   12.581; -607.156; -512.718
502.174;  -12.006; -726.144; -585.741
502.458;   71.777;   89.849;  370.273
502.742;   50.795; -180.138; -191.751
503.026;   94.836; -412.147; -254.734
503.310;  153.306; -437.159; -375.713
503.593;  108.638; -464.147; -325.735
503.877;  129.836; -232.133; -156.760
504.161;  199.910;    2.847;  -50.724
504.444;  155.520; -841.158; -710.716
504.728;  406.813; -487.164; -522.704
505.012;  649.084; -257.150;  -76.729
505.295;  522.819; -417.161; -212.711
505.579;  511.187; -256.156; -496.719
505.862;  641.329; -555.145; -333.738
506.146;  645.333; -681.159; -758.714
506.429;  362.809;  568.841;  461.286
506.713;   71.606; -732.151; -667.728
506.996;  291.400;   90.846;  295.278
507.280;  318.608; -633.165; -474.703
507.563;  225.343; -469.155; -261.721
507.847;   94.834; -423.153; -112.724
508.130;   80.444; -665.161; -456.711
508.413;  101.864; -758.167; -577.700
508.697;  219.464; -151.167;   12.300
508.980;  149.460; -422.153; -312.724
509.263;    4.090; -466.155; -450.720
509.547;   53.084; -124.150;   82.271
509.830;   36.646; -172.160;  140.289
510.113;   96.062;  128.844;  298.281
510.396;   43.391; -530.152; -300.725
510.680;  262.455; -818.145; -812.738
510.963;  897.630;  184.846;  180.277
511.246;  817.742; -493.150; -357.730
511.529;  293.535; -482.145;  -83.739
511.812;  321.083; -250.134;   10.241
512.095;  237.403; -740.151; -396.728
512.378;   78.017; -317.147; -245.736
512.661;   14.428; -703.137; -623.753
512.944;   29.033; -750.142; -637.744
513.227;   64.300; -170.137; -171.752
513.510;   44.994; -479.144; -671.741
513.793;   32.675; -485.140; -435.747
514.076;  155.168;  -43.127;  -39.771
514.359;  117.876; -294.149; -135.732
514.642;   91.186; -442.142; -567.744
514.925;  655.299;  581.860;  561.253
515.208;  900.229; -498.134; -443.758
515.491;  568.993; -276.133; -182.761
515.773;  317.923; -410.143; -337.742
516.056; 1836.234;  249.864;  409.246
516.339; 2592.738; -754.136; -652.755
516.622; 2048.989; -518.150; -488.730
516.904; 1655.980;  882.857;  975.257
517.187;  779.574; -730.138; -523.752
517.470;  432.029; -568.143; -510.743
517.752;  403.466; -624.136; -470.756
518.035;  316.911; -708.139; -725.749
518.318;  325.313; -799.136; -744.755
518.600; 2097.296; -300.132; -325.762
518.883; 2917.761;  310.858;   88.256
519.165; 1419.141; -585.138; -426.751
519.448;  431.621;  -61.132;  -19.762
519.730;  237.726; -573.126; -415.773
520.013;  353.839;  588.867;  664.240
520.295; 1126.609;  -94.134;  -15.759
520.578; 2552.659; -335.131; -305.764
520.860; 2776.071; -254.132;   56.238
521.143; 1415.343; -763.135; -584.756
521.425;  499.889; -251.125; -279.775
521.707;  642.243; -622.127; -380.771
521.990; 1600.944; -199.127;  167.229
522.272; 1835.127; -116.140;   -4.748
522.554;  902.723; -237.143; -157.742
522.836;  447.982;  -24.134;   99.241
523.119;  271.560; -496.148; -189.734
523.401;  170.591; -448.130; -314.766
523.683;   89.778; -865.137; -693.753
523.965;  248.597;  408.862;  260.248
524.247;  246.585;   54.878;  170.220
524.529;  174.934; -451.134; -367.759
524.812;  351.618;   -3.130;  191.234
525.094;  762.846; -773.138; -631.751
525.376; 1211.273; -143.124;   78.223
525.658;  728.410; -441.136; -339.754
525.940;    9.981; -805.131; -671.764
526.222;   56.839; -188.136;  -88.755
526.504;  162.954; -190.131;   32.237
526.786;  276.787; -960.133; -647.760
527.068;  434.253; -124.123;  -67.778
527.349;  194.682; -865.137; -774.754
527.631;  164.621; -137.132;   22.238
527.913;  131.742; -664.127; -450.771
528.195;  152.031; -761.125; -639.774
528.477;  223.929;  -93.134;  -30.758
528.759;  102.893; -648.130; -522.766
529.040;   46.002; -569.123; -293.778
529.322;   58.809; -235.125;  -10.774
529.604;  174.195;  -47.130;   93.233
529.886;  178.475; -546.126; -302.773
530.167;  149.087;  232.870;  192.235
530.449;   56.242;    1.853;   63.265
530.731;    4.934; -572.122; -459.779
531.012;   62.105; -513.120; -216.784
531.294;   62.920; -118.116;  -43.792
531.575;  126.014;  290.875;  538.225
531.857;   31.149; -548.135; -266.757
532.138;   88.144; -113.141;   40.254
532.420;  198.070;  294.865;  403.244
532.701;  293.839; -722.133; -751.760
532.983;  430.092;  232.867;  182.239
533.264;  155.198; -243.126;  175.228
533.546;  -34.486; -491.136; -508.755
533.827;   85.211;  173.867;   -1.759
534.109;   70.474; -352.135;  -80.757
534.390;  117.250; -725.132; -582.762
534.671;  264.720; -270.135;  -82.756
534.953;  147.355; -751.123; -611.779
535.234;   24.555; -426.117; -255.789
535.515;  -79.486; -891.119; -735.785
535.796;  -33.687; -431.128; -193.770
536.078; -107.128;-1050.124; -904.777
536.359;   14.231;  -22.123;    3.221
536.640;    0.608; -480.125; -197.774
536.921;  161.626;  225.871;  143.232
537.202;  360.618;  -87.138;  -16.751
537.483;  411.734;  251.869;  377.236
537.764;  155.512;   17.870;   98.235
538.045;  -48.072; -543.134; -371.758
538.326;  -23.923; -596.129; -447.768
538.607;    6.969; -686.127; -476.771
538.888;  173.521;   98.879;    5.218
539.169;  160.191; -704.122; -535.781
539.450;  338.175;  236.871;   16.233
539.731;  208.025; -361.121; -182.783
540.012;  150.430;  199.880;  412.216
540.293;  100.292;   82.876;  158.224
540.574;   50.866; -895.113; -717.796
540.855;  475.399;  435.879;  377.218
541.136;  550.213;   47.878;  139.220
541.416;  261.619; -161.130; -220.766
541.697;  181.354; -274.131; -170.763
541.978;  932.047; -270.135; -315.757
542.259; 1166.619; -211.127; -236.771
542.539;  559.464; -191.116; -186.790
542.820;  192.538;  461.875;  480.225
543.101;  147.657;  -52.145;  -77.738
543.381;   56.619; -638.127; -591.771
543.662;  248.591;  159.873; -254.771
543.942;  526.339; -751.127; -830.770
544.223;  960.140;  193.878;  161.219
544.504;  600.797; -275.124; -182.777
544.784;  523.150; -592.126; -408.773
545.065; 1514.818;  104.884; -254.791
545.345; 1782.389;  227.881;   14.215
545.626; 1139.840;  -14.113; -108.796
545.906;  787.336;   77.869;   98.235
546.186;  316.330;   92.874;  -95.773
546.467;  164.925;   99.877;  -95.778
546.747;  314.264;  264.884;  327.210
547.027;  339.121;   91.876;  111.223
547.308;  289.739; -376.127; -530.770
547.588;  364.753;  299.871;  371.232
547.868;  186.763;  458.870;  588.235
548.149;  191.375;  609.885;  593.207
548.429;  116.367; -347.127; -299.771
548.709;  154.355; -645.120; -461.784
548.989;  424.824;   84.882;   88.213
549.269; 1818.620;   10.868;  139.239
549.550; 4247.129;  215.877;  117.222
549.830; 3786.133; -758.111; -556.799
550.110;  757.666; -468.110; -320.801
550.390;  718.235; -128.122;  -56.779
550.670; 1030.386; -868.114; -783.795
550.950;  708.373; -509.121; -471.782
551.230;  180.070;  549.879;  460.218
551.510;   -4.328; -381.121; -326.782
551.790;   35.374; -173.109; -127.803
552.070;  237.750;  940.877; 1181.223
552.350;  355.968; -492.119; -377.786
552.630;  507.442;   -2.121;   77.219
552.909;  266.793;  181.884;   73.209
553.189;  197.451;  -49.132;   33.237
553.469;  166.318; -703.119; -514.786
553.749;  153.070; -469.127; -357.772
554.029;  134.184;   33.883;  -24.790
554.308;  125.654; -154.115;  -37.794
554.588;   52.687; -196.128; -204.770
554.868;   60.574; -366.121;  -47.782
555.147;  140.776; -114.115;  -46.793
555.427;  522.370; -260.116; -250.792
555.707; 3431.699; -284.115; -200.793
555.986; 4157.462; -719.111; -538.800
556.266; 2149.537;   23.884;   72.210
556.546;  100.222; -888.121; -675.782
556.825;  209.784; -657.114; -556.794
557.105; 1549.960; -125.128;   17.230
557.384; 1844.567;  122.884;  187.209
557.664;  656.970; -717.116; -508.792
557.943;  100.398; -557.121; -411.782
558.222;  155.802; -345.118; -344.788
558.502;  257.228; -116.115;  -76.793
558.781;  440.748;  194.885;  499.208
559.061;  348.502; -232.118; -227.788
559.340;  238.107;  302.883;  353.211
559.619;  603.237;   93.884;  148.210
559.899;  884.233; -239.117; -266.789
560.178;  815.852; -778.115; -593.793
560.457; 2715.210; -623.117; -562.790
560.736; 3871.113; -472.111; -482.800
561.015; 2509.233; -500.128; -502.769
561.295;  355.044;  180.893;  215.193
561.574;  318.550;  119.885;  116.207
561.853;  472.928;  274.891;  303.197
562.132;  438.830;  -45.114;  182.206
562.411;  390.168;  396.879;  553.219
562.690;  109.148; -592.115; -458.792
562.969;  142.422;  472.888;  630.203
563.248;  446.140; 2966.878; 2487.219
563.527;  241.237; -290.111; -408.800
563.806;  334.517; -650.127; -521.771
564.085;  341.510; -297.105; -206.810
564.364;  191.712; -594.117; -405.790
564.643;  435.443; -276.121; -223.781
564.922; 1629.672;  221.890;  397.198
565.201; 1633.151; -640.109; -700.803
565.479;  688.972; -297.115; -219.792
565.758;  291.386; -810.128; -712.770
566.037;  436.852; -155.109; -100.803
566.316;  210.467; -286.116;  -28.791
566.595;   41.700;  -17.115;  -12.793
566.873;   89.314; -166.111;  -79.801
567.152;  -59.753; -490.113; -590.797
567.431;   29.038; -113.116;    6.210
567.709;    8.219; -344.107; -212.807
567.988;  212.333; -810.114; -769.794
568.266;  466.674; -160.115;  -68.793
568.545;  338.957; -644.100; -514.819
568.824;  493.246;  160.885;  356.208
569.102;  471.683; -351.114; -235.794
569.381;  181.695; -492.116; -407.792
569.659;  -43.282; -553.113; -553.796
569.938;   33.288; -743.122; -465.780
570.216;   95.180; -225.109; -225.804
570.494;  -22.138; -632.114; -572.795
570.773;   41.622;  202.879;  114.218
571.051;    5.253; -373.123; -357.778
571.330;   57.291; -221.113; -174.796
571.608;   39.700; -181.098; -173.823
571.886;  -66.643; -671.111; -581.799
572.164;  -76.076; -739.121; -621.782
572.443;  -57.712; -562.105; -512.811
572.721;  -47.590; -399.117; -289.790
572.999;  -25.796; -280.117; -168.788
573.277;   99.807;  379.894;  620.191
573.555;  236.434;   94.894;   37.190
573.834; 1136.728;  -86.117; -114.788
574.112; 1360.672;  880.893;  811.193
574.390;  386.138; -143.111;  -96.801
574.668;   -2.952;  -91.112;  -61.797
574.946;   -7.616; -165.106; -187.810
575.224;    8.801;   71.891;  -16.803
575.502;  -22.510; -200.116; -204.791
575.780;  -78.476; -767.112; -829.798
576.058;  210.938; 1589.889; 1004.200
576.336;  -16.032; -210.110; -129.801
576.614;  -54.300; -511.112; -340.798
576.891;   35.829; -711.115; -823.794
577.169;  408.788; -158.108; -285.805
577.447;  515.496;  169.893;  202.193
577.725;  234.679;  629.888;  854.201
578.003;   17.377;  -71.112; -371.798
578.280;  110.522; -208.104; -242.812
578.558;   88.453; -450.115; -422.793
578.836;  130.436; -210.114; -145.795
579.114;   69.473; -630.112; -670.797
579.391;   66.280;   -6.117;  -18.789
579.669;  -73.120; -595.114; -704.794
579.947;  140.018; -326.107; -127.806
580.224;  274.943; -692.107; -524.806
580.502;  261.647;  127.893;   76.193
580.779;   27.661;  -42.117;   75.210
581.057;  -59.670; -584.109; -470.804
581.334;  -90.238; -726.102; -695.815
581.612;   47.035;   54.895;  511.190
581.889;   -3.774;  -83.101; -129.818
582.167;  -45.385; -298.099; -190.821
582.444;  -82.405; -845.102; -814.817
582.721;  101.821;  657.899;  715.183
582.999;   53.413; -326.100; -167.821
583.276;  434.857; -812.123; -713.779
583.553;  611.566; -364.102; -294.816
583.831;  173.044; -607.104; -631.812
584.108;   60.036;  349.892;  174.195
584.385;   -0.463; -122.102;  -98.815
584.662;  -70.860; -651.111; -828.801
584.940;   23.939;  204.889;  204.199
585.217;   -6.407;  -73.113; -303.796
585.494;   17.023;   71.890;  118.198
585.771;  161.656; -250.109; -354.804
586.048;  454.243; -196.113;  -76.796
586.325;  294.417; -721.110; -773.801
586.602;   77.273;  230.896;  213.188
586.879;  -29.191; -499.100; -580.820
587.156;   47.261; -156.105; -331.810
587.433;  -41.207; -701.102; -667.817
587.710;   53.125;  152.888;  234.202
587.987;  265.466; -264.105; -236.811
588.264;  737.827;  315.888;  387.202
588.541; 1239.025;  -61.104;   26.187
588.818; 2429.883;   72.892;  171.196
589.095; 2119.746; -163.104; -174.812
589.371;  323.179; -459.109; -414.804
589.648;   17.072; -581.107; -437.807
589.925;   19.412; -517.114; -621.795
590.202;    8.775; -741.112; -607.798
590.478;   74.493; -166.105;  -73.811
590.755;  216.214; -241.108; -132.806
591.032; 2131.744; -741.110; -699.802
591.308; 3008.241; -732.094; -790.831
591.585; 1527.544; -573.110; -560.802
591.862;  116.320;-1056.102; -950.817
592.138;   43.487; -475.108; -474.805
592.415;  127.449; -486.104; -495.813
592.691; 1317.946;  460.896;  518.188
592.968; 1707.202; -208.098; -123.824
593.244;  795.713; -695.116; -595.790
593.521;   53.270; -105.102;  -42.817
593.797;  -34.664; -810.122; -720.780
594.074;  283.615; -611.096; -588.826
594.350;  579.676;  828.905;  729.172
594.626;  269.565; -303.111; -283.801
594.903;   84.946; -643.101; -645.817
595.179;  163.002;  243.896;  418.187
595.455;    1.598; -136.107; -150.807
595.731;    5.229;  -19.103;  -38.814
596.008;  -29.441; -464.111; -434.800
596.284;   24.111; -187.100; -242.820
596.560;   29.922; -501.093; -493.833
596.836;  176.338; -173.105;  -70.810
597.112;  287.537; -582.108; -437.805
597.388;  266.113;  -49.097;  -48.826
597.665;   90.645;  437.887;  530.203
597.941;  -66.123; -572.089; -658.839
598.217;    9.698; -323.110; -293.802
598.493;  219.607;   61.891; -204.804
598.769;  449.656; -175.100;  -50.819
599.045;  252.640; -490.108; -562.806
599.321;   37.935; -193.100; -261.820
599.597;  121.107; -355.109; -476.804
599.872;  411.875;  409.896;  429.187
600.148;  316.989;  -61.097; -172.826
600.424;  248.945;   91.893;  202.193
600.700;  213.448; -170.107; -280.807
600.976;  107.759; -442.097; -464.825
601.252;  216.903; -226.109; -272.803
601.527;  173.076; -833.104; -840.813
601.803;  110.793; -453.105; -404.812
602.079;  145.631; -124.100; -118.819
602.354;  497.657; -620.092; -531.835
602.630;  723.543; -140.113; -482.796
602.906; 1986.401; -910.101; -863.818
603.181; 5872.643; -627.119; -534.786
603.457; 4962.587;   98.903; -278.826
603.733;  715.451; -605.120; -626.783
604.008;  843.060; -245.106; -164.810
604.284; 2737.547; -636.101; -580.817
604.559; 2360.854;   -3.112;  -42.799
604.835;  420.487; -163.105; -225.810
605.110;  358.316; -732.099; -892.821
605.385;  609.775;  224.907;  267.167
605.661;  541.354; -625.095; -729.829
605.936;  997.641; -664.108; -737.806
606.211;  858.436;  -17.103; -170.815
606.487;  161.407; -329.114; -376.794
606.762;   10.668; -791.119; -745.786
607.037;  -24.762; -501.105; -433.810
607.313;  -43.953; -589.096; -574.828
607.588;  -11.191; -375.106; -137.810
607.863;   29.325;  -28.101; -143.818
608.138;  163.771;  513.890;  516.198
608.413;   20.670; -576.099; -592.822
608.688;   37.412; -203.108; -267.805
608.964;  158.253; -509.106; -218.809
609.239;  194.285; -107.105; -212.810
609.514;  232.493;  281.895;  240.188
609.789;  558.347; -187.104; -716.812
610.064;  773.671; -435.096; -609.827
610.339;  715.279; -855.109; -799.804
610.614; 1026.861; -131.100; -315.820
610.889;  544.693;  215.895;  107.188
611.163;   23.444; -407.104; -591.812
611.438;   76.033;   81.886; -167.794
611.713;   -2.303; -467.101; -499.817
611.988;   36.749; -144.101; -328.818
612.263;  -42.688; -771.102; -717.815
612.538;  172.067;  385.887;  251.204
612.812;  136.212; -832.100; -911.820
613.087;   99.650; -358.098; -338.823
613.362;  -43.652; -497.107; -557.807
613.637;   31.857;  261.897;  138.186
613.911;  -20.592; -256.092; -345.835
614.186;   91.046; -249.107; -292.807
614.460;  569.403; -842.081; -758.854
614.735;  698.826;  -55.087;  -17.843
615.010;  139.241;   43.912;  -82.841
615.284;  216.411;  360.892;  246.195
615.559;  333.407; -792.092; -955.835
615.833;  244.493;  -76.099;  -87.822
616.108;    0.819; -225.090; -390.837
616.382;  125.152;  274.913;  402.156
616.656;  132.544; -241.090; -232.837
616.931;  428.218; -785.099; -700.822
617.205;  924.027; -973.104; -979.813
617.480;  849.436;  -91.125;    6.225
617.754;  146.384; -396.125; -128.774
618.028;   -6.571; -369.129; -382.768
618.302;   59.235;   73.892;  -25.805
618.577;  -57.292; -371.103; -518.815
618.851;  -61.550; -399.109; -600.803
619.125;  -57.241; -335.134; -378.759
619.399;  -26.273; -244.104; -374.813
619.673;  -64.754; -330.115; -515.792
619.947;  -45.439; -333.114; -448.795
620.222;  -27.134; -198.110; -204.801
620.496;    6.099;  -47.121;  -96.782
620.770;    2.290; -187.122;  -93.781
621.044;  182.011;  323.895;  346.190
621.318;  655.627; -653.120; -614.783
621.592;  594.225; -430.121; -409.783
621.866;  275.305; -476.112; -572.799
622.140;   22.640; -207.116; -356.791
622.413;   47.559;  138.889;  112.200
622.687;  -52.603; -746.101; -492.817
622.961;    3.760; -130.108; -143.805
623.235;  -72.990; -633.111; -661.800
623.509; -110.432; -816.105; -848.811
623.783;    0.469;  -12.107;   48.193
624.056;  -42.597; -254.120; -280.783
624.330;   50.223;   63.888;   -3.797
624.604;   32.337; -271.116; -355.790
624.877;   72.695;  180.890;   26.198
625.151;   30.281; -249.114; -238.794
625.425;  -29.271; -150.103; -283.814
625.698;  -59.313; -367.119; -374.785
625.972;  -98.977; -799.110; -765.802
626.245;   59.813;  685.884;  484.210
626.519;  -49.143; -426.120; -340.784
626.792;  -38.003; -192.107; -380.807
627.066;  -96.367; -485.122; -662.779
627.339; -101.656; -736.110; -663.802
627.613;   38.631;  351.880;  148.216
627.886;   59.625;  187.891; -612.803
628.160;   -7.424;  312.880; -161.783
628.433;  -96.761; -695.125; -703.775
628.706;  -71.693; -517.120; -615.784
628.979;   28.196;  296.876;  117.223
629.253;  -91.983; -785.119; -833.786
629.526;  286.724; -334.126; -253.772
629.799;  280.828; -641.123; -479.778
630.072;  113.331; -497.128; -516.769
630.346;  -67.886;-1115.116;-1080.790
630.619;  377.798; -467.107; -545.808
630.892;  555.735;  709.889;  593.200
631.165;  294.302;  790.896;  679.187
631.438;  -86.798;-1092.112;-1055.798
631.711;   43.931;  453.877;  257.221
631.984;  -58.116; -523.117; -624.789
632.257;  -76.495; -636.117; -681.789
632.530;  -55.862; -412.119; -433.785
632.803;   18.579; -109.115;    7.207
633.076;  -74.200; -360.123; -422.777
633.349;    9.660;  173.872;  121.231
633.622;  -30.789; -187.119; -240.785
633.895; -126.297; -903.120; -823.783
634.167;  -65.424; -496.126; -525.773
634.440;  -23.780;  -19.116; -137.792
634.713;  -16.009;  -22.119; -120.786
634.986;   76.849;  593.871;  453.233
635.258;  -71.773; -507.115; -597.793
635.531;   77.426;  742.882; -343.788
635.804;   -9.993; -303.117; -318.789
636.077;  -82.684; -830.116; -852.791
636.349;  -11.800; -586.115; -474.793
636.622;  351.298; 1695.874; 1392.228
636.894;  203.057; -474.120; -909.784
637.167;  117.392; -836.127; -789.771
637.439;   24.338; -278.128; -213.770
637.712;  -54.176; -312.126; -293.772
637.984;  -68.408; -635.116; -707.791
638.257;  346.150;  515.877;  488.222
638.529;  531.740; -881.125; -924.776
638.802;  219.430; -508.128; -449.769
639.074; -113.160; -927.122; -952.781
639.346; -122.850; -942.135; -930.757
639.619;  -11.566;  -79.142; -319.744
639.891;   -2.617;  -83.122; -168.779
640.163;  -82.215; -689.122; -756.780
640.435;   28.237;  273.878;  103.220
640.708;   20.614;  -72.122; -132.780
640.980;  -33.034; -366.122; -362.781
641.252;  170.393;  -25.121;  -71.781
641.524; 1651.594;  580.879;  573.219
641.796; 1728.596;-1094.121; -907.782
642.068;  297.823; -191.121; -300.782
642.340;  -57.650; -486.121; -566.783
642.613;   32.952;  294.880;  323.217
642.885;  -92.721; -787.120; -878.783
643.157;  -63.469; -810.120; -658.784
643.428;   55.907;  170.880;  218.216
643.700;  -83.891; -498.120; -425.784
643.972;  -33.889;  -16.119; -133.785
644.244;  -85.887; -474.119; -559.785
644.516;  -51.335; -250.119; -114.786
644.788;   57.042;  662.881;  548.214
645.060;  -24.957;  -12.119; -124.786
645.332;  -93.505; -525.118; -535.787
645.603;   40.797;  479.882;  342.213
645.875;  -80.701; -334.118; -369.787
646.147;  157.751; 1487.882; 1242.212
646.418;  -86.772; -931.117; -918.788
646.690;  104.605; -714.117; -715.789
646.962;    2.681; -413.117; -451.789
647.233;    1.233;   15.883;   11.211
647.505; -101.215; -595.117; -475.790
647.776;   24.112;  328.884;  229.210
648.048;  -14.211; -248.116; -418.790
648.320;  -71.359; -752.116; -679.791
648.591; -164.332;-1055.116; -958.791
648.862;  -72.256; -505.116; -577.792
649.134;    9.096;  115.885;  198.208
649.405;  -51.252; -661.115; -618.792
649.677;  -64.600; -475.115; -598.793
649.948;   -1.423; -181.115; -296.793
650.219;  -16.071;  -37.115; -147.793
650.491;  -70.144; -431.114; -520.794
650.762; -123.343; -705.114; -731.794
651.033;  -67.516; -437.114; -424.795
651.304; -106.239; -743.114; -728.795
651.576;  -64.337; -680.114; -645.795
651.847;  -43.010; -250.113; -140.796
652.118;  -20.883;  -32.113; -189.796
652.389; -110.631; -639.113; -722.796
652.660;  -23.930; -147.113;  -89.797
652.931; -149.978; -897.112; -871.797
653.202;  -74.926; -382.112; -541.798
653.473;  -60.574; -633.112; -533.798
653.744;  131.303; -595.112; -590.798
654.015;  112.855; -356.112; -303.799
654.286;  -68.968; -642.111; -663.799
654.557;  -63.542; -586.111; -521.799
654.828; -153.565;-1114.111;-1088.800
655.099;  -71.338; -404.111; -291.800
655.370;  -88.136; -427.111; -543.801
655.641; -124.634; -656.110; -714.801
655.911; -103.082; -618.110; -638.801
656.182;   35.644;  437.890;  387.198
656.453;   97.846;  830.890;  746.198
656.724;  -70.502; -466.110; -426.802
656.994;  -79.650; -553.109; -568.803
657.265; -117.773; -862.109; -873.803
657.536;  -81.246; -500.109; -377.804
657.806; -108.869; -561.109; -593.804
658.077; -131.243; -866.109; -950.804
658.347;  -85.316; -523.108; -598.805
658.618; -100.764; -646.108; -694.805
658.888;  -28.312;  -41.108;  112.195
659.159;  -70.185; -432.108; -548.806
659.429;  -24.408; -292.108; -349.806
659.700;    0.844; -435.107; -390.807
659.970;  -29.330; -370.107; -359.807
660.241;    2.972; -754.107; -921.807
660.511;  434.249; -147.107; -174.808
660.781;   83.901; -793.106; -748.808
661.052;  -57.522; -222.106; -381.808
661.322;  -29.120;   21.894;   -9.809
661.592;    1.432;  257.894;  148.191
661.862;  -67.167; -369.106; -382.810
662.133;  -95.715; -551.105; -502.810
662.403; -106.038; -770.105; -676.810
662.673;  -75.961; -256.105; -213.811
662.943;  -94.859; -612.105; -551.811
663.213;  -19.357;  -85.105;  -81.811
663.483;  -74.705; -593.104; -568.812
663.753;  -59.654; -194.104; -152.812
664.023;  -20.077;   68.896;  -32.813
664.293;  -63.350; -319.104; -126.813
664.563; -101.498; -694.104; -648.813
664.833; -119.646; -743.103; -608.814
665.103; -117.169; -730.103; -793.814
665.373; -118.268; -766.103; -806.814
665.643;  -88.441; -863.103; -918.815
665.913;   22.636; -534.103; -714.815
666.182;  130.138; -685.102; -719.816
666.452;  233.140;  -22.102;  -89.816
666.722;  -25.858; -724.102; -784.816
666.992; -128.556; -948.102; -921.817
667.261;  -99.655; -824.102; -808.817
667.531;  187.622;  134.899;   45.183
667.801;  551.474; -440.101; -412.818
668.070;  221.001;  714.899;  697.182
668.340;  -88.347; -883.101; -840.819
668.609;   90.205;  588.900;  301.181
668.879;  -74.218; -490.100; -558.819
669.149;  -74.667; -539.100; -516.820
669.418;  -90.165; -698.100; -726.820
669.688;  -35.588; -482.100; -666.820
669.957;   57.514; -423.099; -546.821
670.226;  -40.134; -268.099; -331.821
670.496; -103.757; -431.099; -635.822
670.765;  -95.405; -418.099; -501.822
671.034; -121.929; -872.099; -828.822
671.304;  -19.852;   55.902; -111.823
671.573; -153.000;-1085.098; -957.823
671.842;   51.877; -380.098; -294.823
672.112;   -0.196; -692.098; -586.824
672.381;  -14.194; -239.098; -214.824
672.650; -131.542;-1005.097;-1021.825
672.919;  -94.816; -631.097; -507.825
673.188;  -81.889; -681.097; -878.825
673.457; -140.937;-1101.097;-1143.826
673.726;  -74.010; -579.096; -646.826
673.995;  -48.458; -533.096; -479.826
674.265;  -21.256; -263.096; -333.827
674.534;  -20.829; -183.096; -235.827
674.802;   -5.553; -618.096; -703.828
675.071;  806.324; -886.095; -801.828
675.340; 3487.251; -464.095; -339.828
675.609; 1132.828;  103.905;   82.171
675.878;   48.955; -949.095; -893.829
676.147;   28.882;  -26.095;   -8.829
676.416;   72.008; -210.094; -294.830
676.685;  645.035; 1000.906; -622.830
676.953;   92.787; -603.094; -452.831
677.222;  -38.186; -193.094; -273.831
677.491;  -29.809;  -24.094; -127.831
677.759;   -6.782;   11.907;  172.168
678.028;  -19.605; -279.093; -222.832
678.297;  -18.679;   71.907;  197.168
678.565; -127.027; -898.093; -944.833
678.834;  -43.900; -311.093; -268.833
679.102;  -72.648; -411.092; -391.834
679.371; -144.221; -898.092; -727.834
679.639; -137.794; -797.092; -786.834
679.908; -131.192; -794.092; -724.835
680.176; -155.716; -895.091; -941.835
680.445;  -77.789; -346.091; -352.835
680.713;  -19.987;  -58.091;  -23.836
680.982; -104.635; -523.091; -525.836
681.250; -101.258; -578.091; -507.837
681.518; -112.881; -534.090; -751.837
681.787;  -16.004; -204.090; -167.837
682.055;  -71.578; -490.090; -422.838
682.323; -140.651; -993.090; -992.838
682.591;   14.526; -216.090; -538.838
682.859;   69.928;    9.911;  -35.839
683.128;   -2.145;  232.911;  497.161
683.396; -164.918;-1102.089;-1122.840
683.664;  -45.566; -241.089;   21.160
683.932;    0.610;  144.911;  -76.840
684.200;  -88.513; -576.088; -320.841
684.468;  -34.961;  -73.088; -124.841
684.736;  -41.534; -214.088; -175.841
685.004; -133.232;-1024.088; -982.842
685.272;  -53.480; -880.088; -774.842
685.540;  -65.053; -499.087; -557.843
685.808;  -95.927; -651.087; -682.843
686.076;  -90.400; -894.087; -969.843
686.343;  -70.973; -601.087; -815.844
686.611;   21.954; -195.087; -224.844
686.879;  351.956; -530.086; -553.844
687.147; 2946.233; -483.086; -480.845
687.414;  843.834;  -12.086; -169.845
687.682;  -14.764; -658.086; -757.846
687.950;  263.163;  259.915;  263.154
688.217;    3.690; -792.085; -760.846
688.485;  -31.633; -632.085; -636.847
688.753;  433.569;  -11.085; -102.847
689.020;  138.796; -820.085; -851.847
689.288; -102.878; -853.084; -787.848
689.555;  -35.301; -195.084; -148.848
689.823;  -39.374; -241.084; -345.849
690.090;  -86.897; -546.084; -651.849
690.358; -143.170; -877.084; -897.849
690.625;   -4.243;  120.917;   45.150
690.892;  -70.191; -403.083; -369.850
691.160;  -34.115;   72.917;  -35.850
691.427;    7.262;  141.917;  130.149
691.694; -122.536; -855.083; -929.851
691.962; -133.484;-1177.082;-1060.852
692.229;   10.993;  127.918;   56.148
692.496;   78.170;  130.918;  -49.852
692.763;    9.172; -164.082; -201.853
693.031;  -67.202; -739.082; -716.853
693.298;  -46.150; -509.081; -368.853
693.565;  260.477; -155.081; -163.854
693.832; 1128.504;   -5.081;   -9.854
694.099;  136.156; -643.081; -642.855
694.366;  -59.792; -882.081; -896.855
694.633;  -48.790; -920.080; -633.855
694.900;  711.036; 4367.920; -114.856
695.167;  398.813; -214.080; -380.856
695.434;   93.815; -646.080; -623.856
695.701;  198.992;  121.921;  -61.857
695.968;  425.719; -365.079; -361.857
696.234;  948.396; -415.079; -646.858
696.501;10542.873; -776.079; -614.858
696.768; 5657.924; -554.079; -617.858
697.035;  322.701; -632.078; -667.859
697.302;   35.728; -448.078; -552.859
697.568;   18.705; -458.078; -497.859
697.835;  -30.893; -683.078; -624.860
698.102;  -22.466; -498.078; -407.860
698.368;   91.135;  384.923;  396.139
698.635;  -30.438;  -47.077; -424.861
698.901;  -14.011; -240.077; -348.861
699.168;   48.891; -534.077; -456.862
699.435;   65.543;  -72.077;  -13.862
699.701; -101.230; -868.076; -764.862
699.968;    3.897;  144.924; -441.863
700.234;  -87.952; -783.076; -822.863
700.500;  -45.850; -448.076; -539.864
700.767;   -2.798;   -1.075;   26.136
701.033; -121.896;-1015.075; -963.864
701.299;  -45.219; -450.075; -483.865
701.566;  111.508;  950.925;  763.135
701.832;   10.785;  -31.075;  -76.865
702.098;  -97.564;-1054.074;-1034.866
702.365;  -85.087;-1098.074;-1030.866
702.631;  -25.785;-1038.074;-1063.867
702.897; 1241.092; -765.074; -676.867
703.163; 2197.319;  348.926;  254.133
703.429;  160.171; -256.073; -273.868
703.695;  -24.577; -796.073; -792.868
703.961;   15.699; -214.073; -210.868
704.227;  -40.149; -630.073; -725.869
704.493;  130.853;  613.927;  510.131
704.759;   -3.170; -565.072; -540.870
705.025;   25.157; -203.072; -194.870
705.291;   -2.841; -666.072; -562.870
705.557;  205.286;  719.928;   34.129
705.823;   43.687; -742.072; -694.871
706.089;  171.164; -307.071; -326.871
706.355;  365.616; -315.071; -244.872
706.620; 5882.668; -776.071; -729.872
706.886; 8491.095; -309.071; -362.873
707.152;  775.897; -818.070; -973.873
707.418;    5.149;-1153.070;-1186.873
707.683;    6.200; -550.070; -530.874
707.949;  -35.348; -547.070; -578.874
708.215;  -12.571; -129.070; -207.874
708.480;  -25.619; -520.069; -420.875
708.746;   88.383;   68.931;   28.125
709.011;  -60.390; -578.069; -612.876
709.277;  -72.464; -538.069; -543.876
709.542;  -46.812; -428.069; -387.876
709.808;   -3.235;  -59.068;   89.123
710.073;  -65.808; -577.068; -695.877
710.339;  -22.031; -242.068; -228.877
710.604;   52.246; -780.068; -845.878
710.869;  315.448; -277.068; -366.878
711.135;  -62.226; -715.067; -628.879
711.400;  -89.099; -507.067; -608.879
711.665;  -48.897; -404.067; -479.879
711.931;  -88.295; -661.067; -677.880
712.196; -116.593; -876.067; -954.880
712.461;   62.284; -402.066; -490.880
712.726;  115.211; -727.066; -771.881
712.991;  -89.513; -647.066; -664.881
713.256;  -54.986; -350.066; -332.882
713.521;  -62.934; -417.065; -381.882
713.787;  -64.357; -454.065; -472.882
714.052;  -36.805; -214.065; -400.883
714.317;  -93.478;-1045.065; -981.883
714.581; 1078.049; -374.065; -268.883
714.846; 1615.575; -822.064; -888.884
715.111;  130.627;  261.936;  257.116
715.376;  -20.846;  -86.064; -223.885
715.641;  -24.019; -365.064; -367.885
715.906;  258.558;   15.936; -551.885
716.171;  116.410;  221.937;  209.114
716.436;   33.987;  -78.063; -104.886
716.700;  -90.362; -818.063; -692.886
716.965; -125.735; -794.063; -807.887
717.230;  -77.158; -339.063; -392.887
717.494;  -20.681;  -40.062; -134.888
717.759; -101.129; -784.062; -640.888
718.024;   -2.777;  269.938;  250.112
718.288;   67.824;  685.938;  395.111
718.553; -149.474; -803.062; -977.889
718.817; -125.122; -883.061; -899.889
719.082;  -27.945; -115.061; -125.890
719.346; -144.293;-1000.061; -947.890
719.611;  -35.866; -300.061; -255.891
719.875;  -99.564; -568.060; -537.891
720.140;  -67.063; -453.060; -603.891
720.404;    3.414; -136.060; -249.892
720.668;  746.516; -475.060; -411.892
720.933;  300.318;  146.940;  137.108
721.197; -108.655; -667.059; -600.893
721.461; -141.078; -851.059; -826.893
721.725;  -11.876;  -21.059; -250.894
721.990;  -74.925; -284.059; -204.894
722.254;  -22.898;  -26.059; -108.894
722.518;  -78.546; -286.058; -442.895
722.782;  -89.294; -743.058; -594.895
723.046;  110.733;  614.942;  570.105
723.310;   41.635;  374.942;  210.104
723.574; -102.313; -654.058; -614.896
723.838;  -97.162; -576.057; -642.897
724.102;  -49.860; -226.057; -239.897
724.366; -129.333;-1032.057; -978.897
724.630; -102.256; -749.057; -571.898
724.894;  -71.404; -722.057; -514.898
725.158;    2.423;   38.944; -295.898
725.422;  -53.375; -394.056; -327.899
725.685;  -56.274; -441.056; -349.899
725.949;  -83.447; -566.056; -519.900
726.213;  -90.570; -732.056; -811.900
726.477;  125.457;-1020.055; -933.900
726.740;  129.884; -274.055; -104.901
727.004;  315.161; -384.055; -510.901
727.268; 3490.713; -442.055; -400.901
727.531; 1060.489; -961.055; -775.902
727.795;  -35.509; -713.054; -673.902
728.059;  -51.482; -552.054; -557.903
728.322;  -74.255; -841.054; -669.903
728.586;   29.522; -692.054; -701.903
728.849;  -72.051; -695.053; -756.904
729.112; -111.075; -812.053; -912.904
729.376; -127.848; -959.053; -905.904
729.639;  -87.096; -536.053; -536.905
729.903; -111.819; -733.053; -699.905
730.166;  -43.617; -437.052; -399.906
730.429;  -42.365; -317.052; -468.906
730.693;  -81.538; -355.052; -894.906
730.956;  173.788;  810.948;  651.093
731.219;  649.440; -310.052; -103.907
731.482;   94.167;-1003.051; -894.907
731.745;   83.294; -794.051; -935.908
732.009;   15.596;  -30.051;   50.092
732.272;  -96.902; -904.051; -771.909
732.535;  -51.825; -300.051; -310.909
732.798; -148.899;-1083.050;-1166.909
733.061;  -69.697; -430.050; -456.910
733.324;   10.280;   31.950; -180.910
733.587;   65.132;  290.950;  365.090
733.850;  -74.816; -973.049;-1050.911
734.113;   19.211;   33.951;   32.089
734.376;   -3.737; -328.049; -447.912
734.639;  200.139; 1188.951; 1011.088
734.901;   53.116; -180.049; -402.912
735.164;  419.593; -883.048; -837.913
735.427; 1227.845; -166.048; -355.913
735.690;  103.222; -205.048; -234.913
735.952;  -27.626; -923.048; -925.914
736.215;  -42.049;-1113.048;-1009.914
736.478;   30.627; -771.047; -774.915
736.740;  205.279;   33.953;  129.085
737.003;  564.206; -658.047; -672.915
737.266; 3692.983;  -94.047;   46.084
737.528;  424.810; -682.047; -660.916
737.791;  323.487; -316.046; -327.916
738.053;  780.939;  465.954;  649.083
738.316;10603.915; -162.046; -136.917
738.578; 8237.117; -770.046; -736.918
738.841;  473.344; -382.046; -446.918
739.103;  175.921; -875.045; -777.918
739.365;  495.073;   79.955;  -69.919
739.628;    1.950; -884.045; -805.919
739.890;  -31.474; -758.045; -710.919
740.152;  -29.297; -692.044; -754.920
740.414;  -22.495; -408.044; -359.920
740.677;  -49.918; -785.044; -634.921
740.939;  -63.716; -587.044; -487.921
741.201;  235.786; -432.044; -572.921
741.463;   43.263; -689.043; -745.922
741.725;   19.464;  -21.043; -199.922
741.987;   35.966;  220.957;  116.078
742.249;  -10.707; -751.043; -859.923
742.511;  185.770; -703.043; -794.923
742.773;   23.897; -546.042; -546.924
743.035;  112.324;  796.958;  533.076
743.297;  -44.324; -963.042;-1013.924
743.559;  700.652; -278.042; -262.925
743.821;   47.054; -735.042; -744.925
744.083;    9.881;  -44.041; -149.925
744.345;  -87.017; -869.041; -892.926
744.607;   21.135;   75.959;  122.074
744.868;  -52.738; -490.041; -554.927
745.130; -127.211; -994.041;-1008.927
745.392;   47.565;   -1.040;  -44.927
745.653;  -10.058; -411.040; -378.928
745.915;  149.344;  896.960;  631.072
746.177;   53.396;   35.960;  -43.928
746.438;    8.573; -428.040; -543.929
746.700;  -45.425; -947.039; -988.929
746.961;    6.852; -659.039; -740.930
747.223;  129.828; -190.039;  -74.930
747.484;   86.155; -391.039; -471.930
747.746;  128.882;  -23.038; -106.931
748.007;   97.909; -647.038; -689.931
748.269;  271.261; -468.038; -440.931
748.530;  465.413; -852.038; -638.932
748.791;  245.990; -354.038; -420.932
749.053;  413.291;  286.963;  163.067
749.314;  440.368; -236.037; -169.933
749.575;  484.770; -945.037; -905.933
749.836;  814.422; -217.037;   86.066
750.098; 2189.224;  -60.037;  -21.934
750.359;34261.201;  414.964;  555.066
750.620; 9664.477; -121.036; -220.935
750.881;  993.429; -585.036; -513.935
751.142; 1279.831; -950.036; -938.936
751.403;16015.558; -789.036; -705.936
751.664; 7926.610;-1034.035; -999.936
751.925;  487.962; -175.035; -262.937
752.186;  282.789; -298.035; -278.937
752.447;  135.165; -590.035; -445.937
752.708;   49.967; -532.035; -648.938
752.969;   -0.006; -566.034; -576.938
753.230;   -5.404; -777.034; -672.939
753.491;  -19.977; -650.034; -631.939
753.751;   75.350;  109.966;   19.061
754.012;   88.102;  258.967;  181.060
754.273;   46.553; -174.033;  -71.940
754.534;  -18.120; -487.033; -580.940
754.794;  -83.643; -926.033; -911.941
755.055;  136.909; 1051.967;  881.059
755.316;  -45.539; -700.032; -566.942
755.576;  -42.112; -606.032; -576.942
755.837;  -49.710; -527.032; -695.942
756.097;  -47.009; -530.032; -564.943
756.358;  -69.807; -725.032; -770.943
756.618;  -46.080; -705.031; -641.943
756.879;    5.922; -254.031; -349.944
757.139; -125.051;-1098.031;-1116.944
757.400;  -54.574; -538.031; -553.945
757.660;  -13.747; -365.031; -401.945
757.920;   14.079; -266.030; -228.945
758.181;  -21.969; -468.030; -351.946
758.441;  -87.342; -870.030; -809.946
758.701;  -30.465; -308.030; -215.946
758.961;   -6.913; -220.030; -278.947
759.222;  -55.911; -574.029; -502.947
759.482;  -79.134; -683.029; -723.948
759.742;  -80.758; -706.029; -547.948
760.002;   18.544;  -83.029; -143.948
760.262;   17.821;   50.972;  182.051
760.522;  -33.077; -498.028; -574.949
760.782;  -57.950; -738.028; -612.949
761.042;  -36.348; -618.028; -573.950
761.302;   37.778;   55.972;  -18.950
761.562;   41.155; -164.027; -154.951
761.822;   68.382; -710.027; -551.951
762.082;  -33.916;-1104.027;-1093.951
762.342;   71.136; -328.027; -403.952
762.601;   92.013; -567.027; -506.952
762.861;  323.865; -281.026; -207.952
763.121;  386.791; -406.026; -411.953
763.381; 6992.393; -499.026; -485.953
763.640; 8763.320; -139.026; -307.954
763.900;  384.972; -242.026; -203.954
764.160;  110.099; -458.025; -491.954
764.419;  -21.724; -726.025; -782.955
764.679;  -53.547; -795.025; -726.955
764.939;   -9.046; -124.025; -210.955
765.198;  -74.969; -608.025; -563.956
765.458;  -84.067; -710.024; -612.956
765.717;  -86.890; -454.024; -590.957
765.976;  -59.863; -428.024; -411.957
766.236;  -67.761; -475.024; -610.957
766.495;    8.741;  260.977;   73.042
766.755;  -84.408;-1090.023; -987.958
767.014;   -7.806; -594.023; -665.958
767.273;  -45.979; -373.023; -397.959
767.533;  -47.527; -228.023; -307.959
767.792;  -43.875; -151.022; -188.960
768.051;  -57.823; -228.022; -276.960
768.310;  -79.746; -546.022; -650.960
768.569;   -8.320; -161.022;    4.039
768.828;  -31.468; -285.022; -363.961
769.088; -120.616;-1050.021; -942.961
769.347;  -70.714; -755.021; -599.962
769.606;  -98.162; -876.021; -857.962
769.865; -112.310;-1016.021;-1033.963
770.124;   -9.584; -411.021; -336.963
770.383;  -41.532; -778.020; -910.963
770.641;   -0.080; -398.020; -400.964
770.900;  -47.503; -953.020; -846.964
771.159;  -39.451; -851.020; -951.964
771.418;   12.051; -917.020; -779.965
771.677;  129.678; -224.019; -293.965
771.936;  172.904; -794.019; -865.966
772.194; 2149.556; -465.019; -437.966
772.453;12135.108; -213.019; -391.966
772.712;  871.885;  416.982;  329.033
772.970;  129.987;   32.982;   63.033
773.229;   85.264;  -22.018;  102.033
773.488;  -70.309; -814.018; -770.968
773.746;   48.792;  296.982;  335.032
774.005;   13.344;  190.983;  -22.969
774.263;    9.596;  243.983;  177.031
774.522;  -38.077; -422.017; -548.969
774.780;  -77.425; -484.017; -417.970
775.039;  -74.173; -551.017; -531.970
775.297;  -41.946; -135.016; -351.970
775.555;  -98.620; -489.016; -612.971
775.814; -124.618; -618.016; -570.971
776.072; -114.041; -749.016; -740.971
776.330; -107.714; -630.016; -520.972
776.589; -105.637; -703.015; -721.972
776.847; -127.410; -645.015; -624.973
777.105; -150.233;-1016.015;-1032.973
777.363;  -79.357; -459.015; -454.973
777.621; -137.205; -660.015; -717.974
777.879;  -35.028;  -42.014;   32.026
778.138;  -85.726; -554.014; -717.974
778.396; -110.649; -585.014; -526.975
778.654; -166.822;-1015.014; -970.975
778.912;  -64.270; -269.014; -371.976
779.170; -123.944; -880.013; -803.976
779.427; -160.217; -922.013; -897.976
779.685; -131.115; -880.013; -832.977
779.943;  -96.813; -654.013; -593.977
780.201; -152.311; -964.012; -883.978
780.459; -117.684; -651.012; -610.978
780.717;  -87.808; -440.012; -390.978
780.974; -110.481; -449.012; -490.979
781.232;  -68.679; -358.012; -338.979
781.490;  -82.602; -551.011; -472.979
781.747;  -94.325; -555.011; -476.980
782.005;   17.252;  462.989;  254.020
782.263; -161.996; -542.011;-1004.981
782.520;  -80.470; -326.011; -501.981
782.778; -160.843;-1013.010;-1051.981
783.035; -162.116; -962.010; -938.982
783.293;  -66.464; -248.010; -206.982
783.550;  -60.687; -134.010; -198.982
783.808; -135.785; -764.010; -776.983
784.065; -155.183; -745.009; -874.983
784.322;  -54.157;   25.991;  -86.984
784.580; -156.730; -915.009; -771.984
784.837;  -95.653; -392.009; -466.984
785.094; -137.976; -783.009; -762.985
785.352;  -68.699; -304.008; -404.985
785.609; -115.947; -934.008; -839.985
785.866;  -84.845; -345.008; -401.986
786.123;  -80.994; -639.008; -583.986
786.380;  -98.942; -665.008; -604.987
786.637;  -61.440; -225.007; -380.987
786.895;  -10.138; -456.007; -543.987
787.152;  -49.061; -135.007; -267.988
787.409;  -46.334; -123.007; -225.988
787.666;  -88.082; -299.006; -378.988
787.923; -110.331; -616.006; -695.989
788.179; -110.004; -551.006; -584.989
788.436; -109.377; -585.006; -585.990
788.693;  -31.525;  -92.006;  -87.990
788.950;   98.027; -125.005; -112.990
789.207;  192.654; -381.005; -372.991
789.464;  -47.394; -161.005; -301.991
789.720;  -22.068;  150.995;  110.009
789.977; -166.041;-1003.005; -671.992
790.234;  -43.889;   44.996;  -66.992
790.490; -145.387; -884.004;-1031.993
790.747;  -12.310;  -85.004;   22.007
791.004;  -22.533; -426.004; -348.993
791.260;  -81.882; -430.004; -560.994
791.517; -102.430; -843.003; -788.994
791.773;  -49.078; -379.003; -342.994
792.030; -106.351; -596.003; -660.995
792.286; -104.024; -686.003; -636.995
792.543;   -0.847;  -74.002; -159.995
792.799;  -54.845; -584.002; -382.996
793.055; -156.644;-1179.002;-1210.996
793.312; -103.867; -827.002; -816.997
793.568;  -52.615; -746.002; -599.997
793.824;   10.562; -226.001; -284.997
794.081;   16.164; -447.001; -508.998
794.337;   59.141; -664.001; -561.998
794.593; 1137.543; -319.001; -271.999
794.849; 6671.369; -746.001; -772.999
795.105;  364.596; -270.000; -261.999
795.361;   13.748; -490.000; -457.000
795.617;  -55.375; -875.000; -945.000
795.873;  -42.400; -360.000; -407.000
796.129;  -43.400; -368.000; -306.000
796.385;  -16.175; -124.000; -156.000
796.641;   55.625;  412.000;  550.000
796.897;  -91.950; -666.000; -635.000
797.153;   60.150;  453.000;  357.000
797.409;  -93.350; -785.000; -868.000
797.665;  -74.250; -625.000; -732.000
797.921;  -65.150; -775.000; -762.000
798.176;  -45.300; -744.000; -747.000
798.432;  -53.000; -824.000; -596.000
798.688;  -66.950;-1174.000;-1078.000
798.943;   75.975; -165.000; -147.000
799.199;   25.550;-1005.000; -959.000
799.455;  242.750;  369.000;  316.000
799.710;  147.950; -813.000; -380.000
799.966;  304.900; -162.000; -160.000
800.221;  513.650; -638.000; -721.000
800.477; 9904.300; -743.000; -710.000
800.732;10385.225; -773.000; -800.000
800.988;  682.900;  205.000;  -19.000
801.243; 1820.925; -454.000; -344.000
801.498; 9325.850; -814.000; -739.000
801.754;  580.175; -289.000; -163.000
802.009;   97.950; -257.000; -335.000
802.264;  -18.200; -967.000;-1033.000
802.520;   25.500;  222.000;   -3.000
802.775;  -33.100; -524.000; -359.000
803.030;   38.125;  395.000;  356.000
803.285; -102.175; -840.000; -903.000
803.540;  -71.400; -686.000; -699.000
803.795;  -30.775; -648.000; -583.000
804.051;  -40.650; -279.000; -346.000
804.306;   18.375;  168.000;  128.000
804.561;  139.425;  451.000;  362.000
804.816;  143.425;  714.000;  861.000
805.071;  -13.150; -185.000; -280.000
805.325;  174.850; -257.000; -427.000
805.580; -100.950; -841.000; -877.000
805.835;  -11.675; -204.000; -297.000
806.090;  -69.250; -760.000; -676.000
806.345;   -3.250; -344.000; -264.000
806.600;  -29.000; -549.000; -632.000
806.854;  -34.150; -408.000; -538.000
807.109;   -6.875; -493.000; -577.000
807.364;    4.550; -407.000; -328.000
807.618;    0.275; -415.000; -381.000
807.873;   55.425; -470.000; -494.000
808.128;   99.875; -257.000; -518.000
808.382;  102.575; -224.000; -332.000
808.637;   57.775; -440.000; -511.000
808.891;  177.500; -257.000; -180.000
809.146;   86.850; -902.000; -794.000
809.400;  260.525; -848.000; -923.000
809.654;  322.475; -779.000; -551.000
809.909;  468.300; -841.000; -927.000
810.163; 5538.050; -813.000; -651.000
810.418;16932.550; -940.000; -861.000
810.672; 1103.225; -685.000; -690.000
810.926;  733.550; -993.000; -973.000
811.180; 1390.825; -439.000; -372.000
811.434;31710.500;  240.000;  135.000
811.689;15282.400; -231.000; -365.000
811.943;  736.025; -936.000; -953.000
812.197;  358.075; -893.000; -671.000
812.451;  172.725; -379.000; -514.000
812.705;   -5.325; -809.000; -619.000
812.959;   10.375; -263.000; -388.000
813.213;   -2.475; -283.000; -209.000
813.467;   72.875;  470.000;  253.000
813.721;  -99.325; -764.000; -792.000
813.975; -110.525; -826.000; -877.000
814.229;   31.350;  430.000;  353.000
814.482;  -57.000; -517.000; -566.000
814.736; -118.325; -766.000; -744.000
814.990; -122.875; -779.000; -872.000
815.244;  -63.125; -228.000; -285.000
815.497;  -81.075; -636.000; -601.000
815.751;  -10.375; -141.000;   82.000
816.005;  -99.600; -470.000; -586.000
816.258;  -72.825; -510.000; -363.000
816.512; -102.175; -693.000; -610.000
816.766;    6.075;  121.000;  157.000
817.019;   27.000;  148.000;  149.000
817.273; -118.900;-1000.000; -802.000
817.526;  -18.575; -206.000; -173.000
817.779;  -61.825;-1049.000; -960.000
818.033;  -76.400; -693.000; -807.000
818.286; -119.950; -725.000; -792.000
818.540;  -78.425; -403.000; -403.000
818.793;  -68.400; -402.000; -489.000
819.046;  -99.575; -582.000; -520.000
819.299;  -44.850; -157.000; -166.000
819.553;  -98.625; -552.000; -592.000
819.806; -158.525;-1016.000; -838.000
820.059;  -66.200; -334.000; -354.000
820.312;    4.300;  152.000;  185.000
820.565;  -25.550;  110.000;  -27.000
820.818;  -51.925;  -59.000; -173.000
821.071; -155.775;-1041.000; -957.000
821.324; -106.000; -536.000; -540.000
821.577; -101.600; -457.000; -483.000
821.830;  -70.750; -270.000; -172.000
822.083; -123.575; -733.000; -288.000
822.336;  -60.575; -261.000; -167.000
822.589; -134.700; -805.000; -688.000
822.842; -135.475; -875.000; -770.000
823.094; -174.125;-1076.000;-1114.000
823.347; -137.775; -925.000; -729.000
823.600;   10.375;  402.000;  187.000
823.853;  -54.125; -311.000; -267.000
824.105;  -69.425; -331.000; -575.000
824.358; -113.400; -617.000; -716.000
824.611;   28.850;  234.000;   40.000
824.863;  -54.275; -612.000; -591.000
825.116;   54.550;  -33.000;   27.000
825.368;   50.250; -366.000; -372.000
825.621;  161.825; -186.000; -240.000
825.873;   75.375; -704.000; -737.000
826.126;  521.450; -669.000; -641.000
826.378;11194.425; -389.000; -505.000
826.630; 3430.850; -890.000; -898.000
826.883;   65.350; -754.000; -693.000
827.135;   47.500; -279.000; -270.000
827.387; -113.425; -893.000; -839.000
827.639;  -24.100;  -86.000;   32.000
827.892; -128.125; -742.000; -582.000
828.144; -137.275; -848.000; -804.000
828.396;  -39.350;  104.000;  -80.000
828.648;  -94.175; -440.000; -333.000
828.900; -151.575; -702.000; -795.000
829.152; -120.875; -684.000; -683.000
829.404;  -68.800; -215.000; -267.000
829.656;  -13.075;  321.000;  214.000
829.908;  -22.825;  393.000;  229.000
830.160; -164.850;-1064.000;-1047.000
830.412;  -90.650; -481.000; -430.000
830.664; -118.675; -557.000; -665.000
830.916;  -79.500; -268.000; -206.000
831.167; -182.525;-1073.000; -951.000
831.419; -123.425; -623.000; -566.000
831.671; -140.375; -764.000; -809.000
831.923;  -92.050; -311.000; -447.000
832.174;  -69.000; -273.000; -331.000
832.426; -125.600; -493.000; -582.000
832.678; -184.750;-1043.000;-1091.000
832.929; -152.125; -947.000; -935.000
833.181;  -69.275; -575.000; -677.000
833.432;  -63.125;  -59.000; -186.000
833.684;  -19.125;  112.000;  -27.000
833.935; -117.850; -610.000; -566.000
834.187; -132.575; -829.000; -823.000
834.438;  -53.300;  -58.000;  -25.000
834.689;  -64.250; -255.000; -123.000
834.941;  -76.325; -343.000; -244.000
835.192;  -93.475; -590.000; -533.000
835.443; -117.500; -419.000; -506.000
835.695;   -5.425;  138.000;  -16.000
835.946; -106.925; -608.000; -378.000
836.197;  -93.675; -599.000; -622.000
836.448;  -84.050; -528.000; -395.000
836.699;  -57.400; -253.000; -341.000
836.950;  -14.850;   72.000;    7.000
837.201; -139.150;-1003.000; -987.000
837.452;  -49.725; -356.000; -170.000
837.703; -116.850; -791.000; -737.000
837.954;  -44.225; -205.000; -365.000
838.205;  -88.475;-1029.000;-1008.000
838.456;  150.175; -196.000; -282.000
838.707;    1.700; -423.000; -519.000
838.958;  -10.775; -634.000; -647.000
839.209;  248.675;   18.000;   40.000
839.460;  114.725; -439.000; -201.000
839.710;  148.625; -135.000; -297.000
839.961;  417.175;  730.000;  612.000
840.212;  347.275; -382.000; -497.000
840.462; 1023.650; -328.000; -277.000
840.713;17174.700; -571.000; -536.000
840.964; 8288.700;  -62.000; -143.000
841.214;  518.825; -384.000; -624.000
841.465;  535.500; -214.000; -141.000
841.715;  474.850; -417.000; -380.000
841.966;  596.125; -746.000; -685.000
842.216; 7242.950; -330.000; -431.000
842.466;32764.975; -169.000; -313.000
842.717; 2232.575; -964.000; -952.000
842.967;  296.525; -635.000; -641.000
843.217;  253.025;   20.000;   28.000
843.468;   49.175; -104.000; -132.000
843.718;  -41.875; -718.000; -726.000
843.968; -101.525; -837.000; -765.000
844.218;   -1.350; -315.000; -262.000
844.469;  -48.400; -577.000; -561.000
844.719; -105.575; -537.000; -682.000
844.969; -100.225; -550.000; -580.000
845.219; -135.625; -814.000; -862.000
845.469;  -86.800; -392.000; -342.000
845.719; -127.975; -792.000; -884.000
845.969;  -26.325;  119.000;  174.000
846.219; -113.900; -738.000; -720.000
846.469;    9.975;  464.000;  432.000
846.718;  -32.750; -115.000;   31.000
846.968; -144.700; -827.000; -827.000
847.218;  -38.875; -224.000; -371.000
847.468;   -9.550; -586.000; -555.000
847.718; -149.125; -827.000; -798.000
847.967; -132.775; -826.000; -915.000
848.217;  -72.375; -449.000; -569.000
848.467;  -70.675; -405.000; -376.000
848.716; -105.925; -708.000; -725.000
848.966;   -3.950; -372.000; -358.000
849.215;  -66.675; -428.000; -419.000
849.465;  -94.400; -785.000; -615.000
849.714; -131.550;-1132.000;-1150.000
849.964;  -76.775; -551.000; -613.000
850.213;  -25.475; -393.000; -355.000
850.463;   66.975;  137.000;  340.000
850.712;   17.150; -542.000; -567.000
850.961;   20.875; -739.000; -678.000
851.211;  103.825; -513.000; -504.000
851.460;  184.200; -635.000; -650.000
851.709;  556.275;  -25.000;   18.000
851.958; 9567.400; -912.000; -750.000
852.208;14212.000; -859.000; -879.000
852.457;  556.550; -181.000;  -13.000
852.706;   82.025; -791.000; -823.000
852.955;   32.300; -507.000; -528.000
853.204;  -60.700; -521.000; -461.000
853.453;  -79.100; -418.000; -458.000
853.702; -119.100; -660.000; -750.000
853.951;  -94.400; -532.000; -520.000
854.200; -110.725; -613.000; -562.000
854.449; -137.125; -695.000; -661.000
854.698; -107.875; -340.000; -279.000
854.946;  -74.775; -181.000; -284.000
855.195; -140.175; -843.000; -868.000
855.444; -107.900; -395.000; -420.000
855.693; -120.100; -345.000; -432.000
855.941; -107.225; -387.000; -516.000
856.190;  -62.850; -256.000; -382.000
856.439; -131.450; -652.000; -703.000
856.687;  -69.725;  -99.000;  -72.000
856.936; -126.700; -621.000; -323.000
857.184; -179.225;-1067.000;-1020.000
857.433; -119.075; -423.000; -512.000
857.681; -173.125; -989.000; -953.000
857.930;  -83.575; -282.000; -433.000
858.178; -177.500; -856.000; -929.000
858.427; -162.550; -802.000; -781.000
858.675; -121.875; -377.000; -544.000
858.923; -117.875; -527.000; -819.000
859.172; -168.075;-1094.000;-1070.000
859.420;  -91.650; -339.000; -239.000
859.668; -141.050; -624.000; -628.000
859.916;  -32.775;  109.000;  115.000
860.164; -122.850; -699.000; -603.000
860.413;  198.200; -878.000; -696.000
860.661;  221.575; -709.000; -577.000
860.909;  -89.125; -339.000; -325.000
861.157;  -94.800; -277.000; -444.000
861.405; -124.700; -534.000; -670.000
861.653;   21.275;  310.000;  310.000
861.901;  120.900; -543.000; -613.000
862.149;    8.225; -801.000; -824.000
862.396;  -79.900; -297.000; -187.000
862.644;  -87.700; -368.000; -347.000
862.892;  -48.350;   98.000;  138.000
863.140; -119.050; -549.000; -530.000
863.388; -156.750; -815.000; -759.000
863.635; -128.650; -642.000; -601.000
863.883;  -20.375;  231.000;  190.000
864.131;  -93.075; -288.000; -357.000
864.378; -137.825; -675.000; -540.000
864.626;  -98.050; -347.000; -415.000
864.873; -129.375; -556.000; -505.000
865.121; -145.650; -714.000; -799.000
865.368;  -48.650; -173.000;   75.000
865.616;  -32.025;  -33.000;  -40.000
865.863;  -75.300; -462.000; -506.000
866.111;  -95.875; -795.000; -824.000
866.358;   44.625; -426.000; -420.000
866.605; 2432.725;  -64.000; -804.000
866.853; 2985.925; -621.000; -537.000
867.100;   -0.825; -728.000; -775.000
867.347;  -96.950; -672.000; -611.000
867.594;  -81.400; -740.000; -714.000
867.841;   59.475;   97.000;   17.000
868.089; -144.825; -746.000; -698.000
868.336; -111.775; -477.000; -420.000
868.583; -138.225; -637.000; -741.000
868.830;  -53.850; -131.000; -170.000
869.077; -167.425; -859.000; -787.000
869.324; -137.375; -502.000; -458.000
869.571; -122.200; -398.000; -430.000
869.818; -134.125; -485.000; -439.000
870.065; -115.050; -439.000; -513.000
870.311; -112.700; -456.000; -542.000
870.558;  -96.250; -332.000; -311.000
870.805;  -99.300; -320.000; -384.000
871.052; -114.875; -494.000; -369.000
871.298;  -75.850; -204.000; -131.000
871.545;  -76.800; -151.000; -185.000
871.792; -100.200; -173.000; -222.000
872.038;  -67.850;   43.000; -126.000
872.285; -122.150; -496.000; -387.000
872.532; -100.875; -357.000; -387.000
872.778;   -4.575;  556.000;  403.000
873.025; -104.750; -384.000; -359.000
873.271;   13.000;  501.000;  578.000
873.517;  -53.100; -133.000; -209.000
873.764;  -48.775; -193.000;  -80.000
874.010;  -65.575; -143.000; -230.000
874.257;  -63.675;  123.000;   90.000
874.503; -130.975; -579.000; -479.000
874.749;  -72.050;   31.000;  275.000
874.995;  -68.075;  -80.000;  -20.000
875.242; -133.950; -540.000; -478.000
875.488; -120.350; -414.000; -439.000
875.734;  -63.000; -106.000; -234.000
875.980;  116.550; -872.000;-1032.000
876.226;  329.450; -157.000; -255.000
876.472;    3.350;  343.000;  237.000
876.718;  -51.200;  184.000;  158.000
876.964;  -30.825;   56.000;   55.000
877.210; -151.175; -547.000; -677.000
877.456; -127.175; -630.000; -557.000
877.702; -187.600; -821.000; -832.000
877.948; -104.600; -377.000; -497.000
878.193;   -0.625;  361.000;  255.000
878.439;  -97.075; -487.000; -472.000
878.685; -106.375; -272.000; -343.000
878.931; -126.550; -618.000; -676.000
879.176;  -93.275; -201.000; -201.000
879.422; -170.050; -933.000; -820.000
879.668;   27.075;   10.000;   79.000
879.913;  130.375;   53.000;  137.000
880.159;  -58.075; -112.000;  -17.000
880.404;  -61.575; -152.000; -162.000
880.650;  -47.975;   91.000;  141.000
880.895; -162.175; -670.000; -710.000
881.141; -132.025; -454.000; -428.000
881.386; -159.075; -503.000; -658.000
881.631;  -92.500; -311.000; -166.000
881.877;  -35.775;  112.000;  -13.000
882.122; -135.250; -684.000; -600.000
882.367;  -92.850; -136.000; -186.000
882.612;  -76.275;  -80.000; -176.000
882.858; -179.950; -877.000; -823.000
883.103; -103.575; -297.000; -267.000
883.348; -152.250; -759.000; -852.000
883.593; -158.500; -677.000; -602.000
883.838;  -67.700; -311.000;  -24.000
884.083;    0.575;  353.000;  288.000
884.328;  -90.700; -564.000; -545.000
884.573;  -68.600; -196.000; -143.000
884.818;  130.100; -694.000; -531.000
885.063;  175.025; -348.000; -315.000
885.308; -107.175; -475.000; -398.000
885.553;  -15.925;  245.000;  325.000
885.797; -130.225; -545.000; -615.000
886.042;  -62.200;    8.000;   58.000
886.287;  -91.975; -253.000; -211.000
886.532;  -67.450;   26.000;  204.000
886.776;  -94.075; -407.000; -525.000
887.021; -145.125; -621.000; -574.000
887.265; -145.975; -685.000; -689.000
887.510; -132.625; -557.000; -496.000
887.755;  -99.575; -194.000; -164.000
887.999; -142.000; -552.000; -575.000
888.244;  -55.475;  -58.000;  161.000
888.488;  -24.875;  371.000;  393.000
888.732; -114.800; -368.000; -520.000
888.977; -135.950; -622.000; -567.000
889.221; -151.650; -683.000; -659.000
889.465; -124.075; -422.000; -566.000
889.710;  -73.425;  -56.000; -299.000
889.954;  -10.500;  579.000;  467.000
890.198; -146.700; -584.000; -707.000
890.442; -153.625; -716.000; -712.000
890.687; -154.150; -800.000; -753.000
890.931; -101.225; -273.000; -210.000
891.175; -132.825; -502.000; -500.000
891.419;  -84.725; -105.000; -110.000
891.663;  -82.675; -239.000; -112.000
891.907; -157.975; -801.000; -545.000
892.151; -172.150; -920.000; -815.000
892.395; -122.100; -274.000; -387.000
892.638;  -33.000;  408.000;  291.000
892.882; -176.250; -780.000; -867.000
893.126;    4.725;  758.000;  558.000
893.370;  -91.425; -167.000; -168.000
893.614; -140.675; -714.000; -715.000
893.857; -107.550; -183.000; -197.000
894.101; -130.375; -527.000; -631.000
894.345;  -69.425;  300.000;  150.000
894.588;   14.300;  569.000;  380.000
894.832;  -88.175; -178.000;  -84.000
895.075;  -79.800;   15.000;  -92.000
895.319; -138.950; -552.000; -420.000
895.563; -121.750; -413.000; -353.000
895.806; -149.600; -628.000; -741.000
896.049;  -74.575; -576.000; -368.000
896.293;   74.425;  527.000;  405.000
896.536;  -73.725; -465.000; -468.000
896.779;  -77.825; -149.000;   -1.000
897.023; -147.075; -751.000; -714.000
897.266;  -36.750;  325.000;  269.000
897.509; -176.900; -900.000; -901.000
897.752;  -63.125;  149.000;  171.000
897.996; -189.050; -972.000; -864.000
898.239;  -59.100;  168.000;  102.000
898.482; -118.550; -431.000; -453.000
898.725;  -44.075;  101.000;   53.000
898.968; -145.200; -609.000; -744.000
899.211; -124.025; -513.000; -361.000
899.454; -127.075; -633.000; -539.000
899.697;  -80.200;   90.000;  -43.000
899.940; -169.825; -761.000; -757.000
900.182; -116.450; -335.000; -405.000
900.425;  -95.650; -150.000; -298.000
900.668;  -39.100;  491.000;  350.000
900.911; -111.100; -292.000; -345.000
901.154;  -67.000;  141.000;   -3.000
901.396; -130.900; -407.000; -412.000
901.639; -139.175; -430.000; -496.000
901.882; -180.700; -790.000; -809.000
902.124;  -83.000;  -29.000; -143.000
902.367; -113.275; -315.000; -361.000
902.609; -132.825; -476.000; -453.000
902.852;  -88.600; -108.000; -260.000
903.094; -122.350; -458.000; -337.000
903.337;  -70.275;  -26.000;   53.000
903.579; -124.800; -228.000; -441.000
903.821; -146.300; -597.000; -744.000
904.064;  -58.175;   85.000;  127.000
904.306;  -89.925; -126.000; -166.000
904.548; -111.125; -152.000; -366.000
904.790; -100.575; -195.000; -340.000
905.033; -138.250; -625.000; -577.000
905.275; -122.675; -513.000; -524.000
905.517;    1.725;  468.000;  256.000
905.759;  -75.525; -667.000; -761.000
906.001; -122.375; -322.000; -369.000
906.243;  -63.675; -162.000; -224.000
906.485;   67.150; -265.000; -207.000
906.727;  103.825; -499.000; -542.000
906.969;  -22.925;  -30.000; -135.000
907.211;   79.775; -316.000; -382.000
907.453;  225.650; -188.000; -237.000
907.695;   11.475; -158.000; -385.000
907.936;   26.525;  818.000;  706.000
908.178;  -60.725;   92.000; -135.000
908.420;  -81.775; -111.000; -162.000
908.662; -133.225; -633.000; -682.000
908.903; -102.400; -208.000; -123.000
909.145;  -67.225; -240.000; -305.000
909.386;   -6.450;  315.000;  280.000
909.628;   39.500;  363.000;  397.000
909.870;   -1.575;   29.000;  264.000
910.111;  -84.375; -809.000; -949.000
910.353;    2.275; -123.000; -161.000
910.594;   12.875; -574.000; -606.000
910.835;   73.850; -265.000; -326.000
911.077;  155.600; -503.000; -604.000
911.318;  279.350; -505.000; -471.000
911.559;  483.475; -577.000; -880.000
911.801; 1273.575; -284.000; -280.000
912.042; 9615.175;  -50.000; -159.000
912.283;28164.850;  404.000;  371.000
912.524; 5081.000; -396.000; -457.000
912.765;  524.725; -193.000;   79.000
913.006;  240.225; -307.000; -338.000
913.247;   61.600; -270.000; -290.000
913.488;  -10.950;  -43.000;   30.000
913.729;  -82.350; -373.000; -373.000
913.970;  -72.925;  -96.000; -292.000
914.211;  -73.575; -160.000; -198.000
914.452;  -69.375; -118.000;  -11.000
914.693;    9.325;  510.000;  592.000
914.934;    8.475;  510.000;  440.000
915.175;  -62.700;   53.000;  -95.000
915.415;  -72.450; -137.000;   27.000
915.656;  -68.875;  -28.000;  192.000
915.897;  -88.925; -252.000;  -82.000
916.137;  -72.025;   74.000;   -9.000
916.378; -114.550; -573.000; -517.000
916.619;  -99.225; -159.000;  -63.000
916.859;  -19.300;  303.000;  330.000
917.100;  117.225; 1655.000; 1070.000
917.340;   44.300;  930.000;  728.000
917.581;   52.025;  965.000;  789.000
917.821;  -50.700; -171.000;  143.000
918.061;   -5.600; -199.000;  -72.000
918.302;  -65.900; -152.000; -211.000
918.542;  -38.050;  -22.000;    3.000
918.782;   43.150;  369.000;  377.000
919.023;  119.025;  360.000;  427.000
919.263; 1629.300; 8131.000;  202.000
919.503; 1104.175; -137.000;  -54.000
919.743;  603.100;  390.000;  266.000
919.983;  274.200; -134.000;  -26.000
920.223;  103.025;  135.000;   14.000
920.463;  148.075;  631.000;  554.000
920.703;  144.900;   84.000;   39.000
920.943;  188.800; -110.000;   90.000
921.183;  262.050; -414.000; -405.000
921.423;  533.375;  307.000;  546.000
921.663;  768.650; -174.000; -257.000
921.903; 1605.100;  237.000;  173.000
922.143; 8611.750;  372.000;  389.000
922.383;35280.375;  158.000;  115.000
922.622;14187.100; -120.000;  -15.000
922.862; 1465.525;  796.000;  785.000
923.102;  549.500;  -51.000;   33.000
923.341;  214.100;   59.000;   74.000
923.581;  112.050;  450.000;  360.000
923.821;   19.100;  301.000;  398.000
924.060;   13.675;  351.000;  193.000
924.300;  -59.775;  -16.000; -128.000
924.539;   -3.775;  584.000;  473.000
924.779;   -2.175;  812.000;  597.000
925.018;  -43.050;  247.000;  353.000
925.257;    1.750;  595.000;  666.000
925.497;  -45.375;  447.000;  412.000
925.736;  -85.125;  -35.000;  102.000
925.975;   -0.675;  687.000;  669.000
926.214;   26.975;  907.000;  850.000
926.454;   26.750;  706.000;  757.000
926.693;  -44.275;  419.000;  543.000
926.932;   30.725; 1021.000;  825.000
927.171;   49.850; 1107.000; 1044.000
927.410;   65.750; 1144.000;  967.000
927.649;    3.275;  924.000;  742.000
927.888;  -10.375;  590.000;  564.000
928.127;  -13.475;  680.000;  678.000
928.366;   19.350;  842.000;  826.000
928.605;   28.500;  831.000;  737.000
928.844;  211.550; 1451.000; 1393.000
929.083;  559.350;  770.000;  613.000
929.321;  349.450; 1335.000; 1359.000
929.560;   93.725; 1158.000; 1122.000
929.799;  -27.000;  574.000;  475.000
930.038;   72.400; 1025.000; 1394.000
930.276;  -45.000;  334.000;  397.000
930.515;   -2.675;  827.000;  681.000
930.753;  -18.125;  614.000;  589.000
930.992;  -31.525;  664.000;  717.000
931.230;   16.000;  847.000;  847.000
931.469;  161.100; 2162.000;  892.000
931.707;   78.050;  840.000;  751.000
931.946;   64.550; 1278.000; 1344.000
932.184;   55.975; 1437.000; 1175.000
932.423;   33.750; 1265.000;  963.000
932.661;   76.800; 1296.000; 1428.000
932.899;   17.600;  987.000;  821.000
933.137;   14.350;  754.000;  564.000
933.376;  136.025; 1664.000; 1335.000
933.614;  162.700; 1759.000; 1196.000
933.852;   53.275; 1357.000; 1171.000
934.090;  120.200; 1722.000; 1747.000
934.328;  103.550; 1252.000; 1457.000
934.566;  104.525; 1431.000; 1110.000
934.804;  149.825; 1263.000; 1309.000
935.042;  497.725; 1861.000; 1850.000
935.280; 2033.700; 2088.000; 2063.000
935.518; 2175.250; 2113.000; 2007.000
935.756;  446.675; 2481.000; 2316.000
935.994;  191.000; 1808.000; 1751.000
936.231;  339.875; 2890.000; 2950.000
936.469;  191.650; 2367.000; 2378.000
936.707;  164.625; 2220.000; 2167.000
936.945;  249.300; 2825.000; 2882.000
937.182;  203.750; 2679.000; 2741.000
937.420;  306.900; 3602.000; 3031.000
937.657;  375.000; 3365.000; 3478.000
937.895;  336.375; 3331.000; 3488.000
938.133;  304.125; 3540.000; 3528.000
938.370;  337.525; 3896.000; 4191.000
938.607;  401.725; 4488.000; 4205.000
938.845;  532.875; 5587.000; 5549.000
939.082;  475.725; 5387.000; 5177.000
939.320;  533.850; 5799.000; 5728.000
939.557;  641.350; 6549.000; 6491.000
939.794;  713.075; 7285.000; 7097.000
940.031;  890.475; 8421.000; 8368.000
940.269; 1072.350; 9552.000; 9107.000
940.506; 1107.725;10901.000;10507.000

