
Integration time [ms]: 200.000
Averaging Nr. [scans]: 10
Smoothing Nr. [pixels]: 0
Data measured with spectrometer [name]: 2101013U2
Wave   ;Sample   ;Dark     ;Reference
[nm]   ;[counts] ;[counts] ;[counts] 

394.013;   93.568; -450.257; -315.536
394.305;  438.864; -461.258; -419.536
394.596; 1796.307; -676.269; -527.514
394.887; 4250.833; -796.268; -654.518
395.178; 1692.179;  145.736;   11.476
395.470;  174.896; -210.263; -356.526
395.761;  416.455;  305.734;  394.479
396.052;  608.117; -545.284; -306.489
396.343;  647.523; -557.276; -454.503
396.634;  222.576; -200.279; -290.497
396.926;  225.029; -618.268; -565.517
397.217;  238.930;   11.725;  -17.504
397.508;   79.354; -366.273; -154.507
397.799;   95.076; -555.279; -571.497
398.090;  -36.533; -973.280; -902.495
398.381;  225.203;   11.708;  -11.473
398.672;    9.304; -585.292; -742.473
398.963;  114.385; -348.279; -373.498
399.254;  232.218;   54.709; -209.475
399.545;  -44.750;-1017.266; -883.520
399.836;  125.406; -407.277; -343.501
400.127;  125.466; -205.295; -209.468
400.418;  139.046; -423.274; -392.506
400.709;  163.747; -359.281; -333.493
401.000;  133.624; -268.291; -309.476
401.290;  250.170;  225.698;  115.545
401.581;  146.391; -166.286; -228.485
401.872;   30.124; -542.298; -486.462
402.163;  116.655; -313.296; -252.467
402.454;  177.719; -123.291; -163.475
402.744;   79.842; -844.297; -813.465
403.035;  732.989; -226.293;  -86.471
403.326;  908.409; -366.292; -384.474
403.617;  658.815;  204.701;  165.539
403.907;  394.525; -593.283; -679.490
404.198; 3893.100; -545.307; -599.446
404.489; 9620.033; -618.283; -588.491
404.779; 3536.075; -618.302; -660.456
405.070;  422.143;  -67.304; -174.451
405.360;  637.592; -259.293; -238.472
405.651;  625.392;  125.699;   98.542
405.942;  318.983;  209.714;  127.516
406.232;  514.405; -432.285; -413.487
406.523;  934.981;  641.706;  758.530
406.813;  153.887; -579.286; -644.484
407.104;  668.901;  261.708;  144.527
407.394;  349.517; -604.299; -591.462
407.685;  322.304;  336.715;  222.513
407.975;  145.931; -400.283; -382.490
408.265;  234.341; -134.289; -190.478
408.556;  117.714; -472.291; -459.475
408.846;  342.083;  474.706;  429.530
409.137;  186.654;   -1.288; -216.480
409.427;  129.705; -193.285; -271.487
409.717;   52.859; -776.273; -692.508
410.007;  308.595;    4.715; -170.486
410.298;  169.270; -360.295; -342.469
410.588;  107.501; -495.285; -510.486
410.878;   19.571; -792.287; -873.482
411.168;  224.228; -481.298; -478.463
411.459;  193.023; -295.283; -242.489
411.749;  136.612; -609.292; -507.474
412.039;   96.851; -755.289; -386.480
412.329;  426.696;   40.722;  132.501
412.619;  404.687;  -62.286; -148.485
412.909;  738.445;  639.711;  594.521
413.199;  630.367; -130.280; -251.495
413.490;  802.131;  521.710;  352.523
413.780;  257.473;-1013.279; -913.496
414.070;  611.125;  -46.276;  235.497
414.360;  621.390; -729.278; -666.498
414.650;  694.465; -726.288; -688.482
414.940;  827.372; -538.280; -441.496
415.230; 1557.260;   50.712;   74.519
415.520;10092.106;  155.730;   66.486
415.809;38072.947; -305.281; -125.493
416.099;30250.410; -388.277; -229.501
416.389; 8025.442;  435.726;  236.494
416.679; 4893.402;   91.738;   85.473
416.969;  834.578; -527.287; -503.483
417.259; 1023.476;  341.721;  171.503
417.549; 1152.645;  522.718;  318.508
417.838; 2711.132; -205.268; -147.518
418.128; 8495.639;  650.710;  492.522
418.418; 7138.069; -491.272; -579.509
418.708; 5078.943;    9.726;  -48.506
418.997;18013.336; -474.275; -480.505
419.287;18564.753; -733.273; -790.507
419.577;17796.722; -160.283; -123.489
419.866;56279.607; -588.277; -498.501
420.156;58258.900; -242.270;  -55.513
420.446;11449.590; -112.263;  -26.526
420.735; 1481.491; -376.271; -446.512
421.025; 1563.389; 1830.722;  315.502
421.314; 1242.088; -203.271; -226.512
421.604; 2538.621;   89.732;  233.484
421.893; 1529.182; -705.271; -602.511
422.183;  432.291; -487.263; -461.526
422.472;  674.785;  -36.271; -107.511
422.762;  746.659; -416.266; -379.521
423.051;  400.925; -916.276; -916.503
423.341;  522.856; -491.273; -439.507
423.630;  729.368; -121.265;   15.477
423.919;  670.835;   58.725;   49.495
424.209;  679.599;  -31.263;   56.473
424.498;  870.128;   68.732;  161.483
424.787; 1711.538; -535.267; -601.518
425.077; 5182.566;   34.735;   29.478
425.366; 7488.608; -734.262; -744.528
425.655;15179.857;  639.727;  259.493
425.945;30777.004; -313.247; -268.554
426.234;17973.242;  117.741;  300.467
426.523; 8137.050;  -86.259; -350.534
426.812;11139.453;  107.734;  159.480
427.101;15921.815; -127.269; -323.515
427.390;20098.006;  -55.270;  -86.514
427.680; 4836.180; -624.257; -411.538
427.969;  923.096; -330.255; -301.540
428.258;  584.467; -385.257; -477.536
428.547;  990.275;  449.728;  397.490
428.836; 2163.021; -421.253; -398.543
429.125; 3019.353; -199.259;  -72.534
429.414; 1369.455; -330.251; -294.548
429.703; 5183.355; -231.251; -213.548
429.992;14465.961; -938.250; -828.549
430.281; 9812.780; -397.264; -331.524
430.570; 1147.441;  -21.252;   32.454
430.859; 1144.149;  279.741;  352.466
431.148;  962.298;  636.752;  631.446
431.437;  661.040;  391.748;  367.454
431.725;  282.969; -544.257; -481.536
432.014;  204.632; -845.253; -756.545
432.303;  624.213; -149.239; -105.569
432.592; 1060.890; -460.263; -178.525
432.881; 1712.299; -601.248; -437.554
433.169; 9700.498; -343.255;  -61.540
433.458;19081.564;  445.765;  540.424
433.747; 8428.616; -397.261; -289.529
434.036; 1604.576; -275.242; -280.564
434.324; 3401.780; -395.249; -379.551
434.613; 5609.666;   40.757;  159.437
434.902; 2097.698;  333.760;  439.433
435.190; 1103.911;   75.761;  295.431
435.479;  667.838;  -52.245;   83.441
435.767;  252.051; -411.244; -427.561
436.056;  425.869; -340.242; -294.563
436.345;  621.101; -372.240; -223.568
436.633;  727.573;   60.750;  383.450
436.922;  537.505;  208.760;  414.432
437.210; 1189.149; -194.236;    1.426
437.499; 3563.361; -583.235; -432.576
437.787; 3964.048; -339.236;  -10.574
438.075; 1060.219;   56.761;  162.430
438.364; 1345.223;  -44.238;  250.429
438.652;  844.582; -286.226; -138.592
438.941;  327.328;    3.770;  269.415
439.229;   26.837; -665.252; -466.545
439.517;  117.574; -160.234;  -85.577
439.806;   -7.094; -501.225; -290.595
440.094;  388.786;  377.766;  650.421
440.382;  364.791; -653.233; -302.580
440.670;  401.061; -361.235; -285.576
440.959;   77.433; -347.223; -170.599
441.247;  184.245; -151.229; -109.587
441.535;  252.071; -266.235;   31.423
441.823;   56.281; -497.234; -305.578
442.111;  335.352;  173.771;  327.412
442.400;  949.137; -628.245; -335.559
442.688; 2519.885; -111.234; -620.579
442.976; 1846.366; -786.213; -450.617
443.264;  202.417; -324.224; -364.597
443.552;  213.584; -258.226;   51.408
443.840;  376.269;  602.765;  876.423
444.128;  278.390;  265.767;  269.420
444.416;   15.255; -694.228; -312.588
444.704;   82.778; -465.219;  -92.605
444.992;  170.588;   -0.226;  240.407
445.280;  129.929; -517.230;  -94.585
445.568;   93.572; -694.212; -396.618
445.856;  635.154; -174.221;  357.398
446.143; 1282.572;  -54.220;   -7.604
446.431; 1151.061;  -25.228;  625.411
446.719;  492.107;  489.783;  675.391
447.007;  362.420;  481.769;  705.416
447.295;  358.728;  597.777;  871.402
447.583;  153.342; -464.229;  -34.587
447.870;  267.449; -434.221; -202.601
448.158;  712.927; -104.230;  129.415
448.446;  519.174; -800.219; -338.604
448.733;  318.019;   13.776;  269.403
449.021;  480.571;   60.788;  341.382
449.309;  324.394; -296.210;  208.379
449.596;  393.501;  128.783;   59.392
449.884;  261.839; -571.222; -325.600
450.172;  211.369; -756.227; -406.590
450.459;  740.441;  645.786;  780.387
450.747; 3606.199; -411.218; -147.608
451.034;11227.063;  493.772;  889.411
451.322; 9308.645; -413.214; -170.614
451.609;  929.921;  292.777;  508.403
451.897;  954.190; -550.203; -183.634
452.184; 2777.729; -622.223; -400.598
452.472; 2719.326;   97.792;  269.375
452.759;  690.775;  512.781;  864.395
453.047;  210.867; -407.212; -125.617
453.334;  178.887; -732.219; -216.606
453.621;  149.749; -438.214; -161.615
453.909;  265.277;   13.796;  384.368
454.196;  218.446; -299.199; -123.641
454.483;  421.209;  317.798;  540.364
454.771;  270.331; -215.208;  196.374
455.058;  126.036; -316.207;  102.374
455.345;  238.030;   71.807;  344.347
455.632;  201.541; -128.207;  235.373
455.919;  113.981;  -82.196;  182.354
456.207;  -79.047; -774.198; -450.642
456.494;    6.928; -475.200;  -66.639
456.781;   34.403; -399.202; -198.635
457.068;  136.551; -253.206;  -29.628
457.355;   20.753; -698.206; -401.629
457.642;  -14.939; -552.205; -290.630
457.929;   22.417; -778.194; -417.651
458.216;  120.568; -575.212; -354.617
458.503;  380.824; -173.193;  -19.652
458.790;  346.228; -864.208; -630.625
459.077;  481.310;  -77.202;  110.364
459.364; 1267.206; -350.195; -210.649
459.651; 2529.348;  -46.206;  220.372
459.938; 1234.113; -864.209; -665.623
460.225;  344.415;  132.799;  276.363
460.512;  -79.524; -836.197; -688.645
460.799;  236.197;  -32.218;  320.392
461.086;  190.835; -370.200; -251.640
461.372;  100.654; -509.198; -279.642
461.659;  240.683; -165.196;  108.354
461.946;  132.022; -445.193;  -54.651
462.233;  506.331;  842.800;  888.361
462.519;  616.926; -814.201; -464.639
462.806; 1557.477; -768.197; -497.645
463.093; 1378.953; -445.191;  -66.656
463.380;  -63.984; -920.186; -824.664
463.666;  135.480; -259.197;  -18.646
463.953;  178.098; -406.195; -243.648
464.239;  304.898; -173.195;  -77.648
464.526;  711.914;  413.806;  743.350
464.813;  591.471; -565.190; -304.658
465.099;  645.623;  606.807;  607.348
465.386;  683.029;  903.807;  921.348
465.672;   60.777; -694.197; -522.645
465.959;   69.798; -598.188; -520.662
466.245;   95.929; -468.193; -359.652
466.532;  267.695; -109.195;   63.352
466.818;  144.715; -357.186; -216.664
467.104;   59.976; -488.182; -415.672
467.391;   -8.526; -628.189; -459.658
467.677;  120.721; -289.186;    9.335
467.964;   36.483; -682.189; -471.660
468.250;  194.825; -331.186; -160.665
468.536;  186.775;   90.811;  180.341
468.822;    0.243; -821.184; -574.668
469.109;  328.399;  351.827;  471.311
469.395;  426.544;  729.808;  787.346
469.681;  401.980;   46.811;  156.341
469.967; 2013.087; -699.188; -382.660
470.254; 3977.299; -494.188; -306.662
470.540; 2746.980; -601.196; -476.646
470.826;  413.193; -488.181; -397.675
471.112;  545.648;  288.816;  113.331
471.398;  205.655; -253.183;  -58.670
471.684;  104.336; -626.177; -447.680
471.970;  -12.801; -918.180; -981.675
472.256;   76.742; -521.192; -441.654
472.542;   80.016; -499.171; -434.691
472.828;   64.270; -743.182; -607.672
473.114;   74.882; -380.166; -283.700
473.400;   49.361; -504.175; -293.684
473.686;   88.691; -452.166; -400.701
473.972;  176.484; -230.174; -131.687
474.258;  -78.301; -925.173; -843.689
474.544;  348.924; -183.178;   -2.679
474.830;  461.364;  -65.175;   45.316
475.116;  774.173; -123.190; -196.658
475.401;  983.203; -558.180; -467.676
475.687;  317.601; -725.180; -718.676
475.973;   17.382; -673.181; -770.673
476.259;  495.167;  736.825;  764.315
476.544;  571.148; -539.176; -437.682
476.830; 1240.210; -398.172; -322.690
477.116; 1095.446; -430.177; -336.682
477.401;  340.302;  346.820;  358.324
477.687;    4.762; -289.175; -405.684
477.973;  129.288;   21.819;   28.326
478.258;   33.322; -448.163; -348.706
478.544;  138.333;   21.815;   61.334
478.829;  -89.476; -818.171; -738.692
479.115;  -34.391; -749.172; -651.690
479.401;   -8.923; -444.174; -449.686
479.686;  121.800; -253.180;  -74.676
479.972;  -46.569; -886.178; -776.680
480.257;  104.284; -258.166;  -65.700
480.542;   24.630; -614.170; -469.693
480.828;  518.859; 1288.824; 1392.317
481.113;  -37.844; -464.176; -426.683
481.399;    8.559; -236.161; -202.711
481.684;  -75.317; -620.166; -462.700
481.969;   47.379; -158.159;  -73.713
482.255;   17.246; -439.169; -285.695
482.540;    4.332; -569.178; -441.680
482.825;   21.008; -395.187; -404.663
483.110;  174.651;  -85.169; -105.696
483.396;  249.212; -840.157; -652.718
483.681;  816.884;  543.826;  730.313
483.966;  248.270; -696.160; -700.712
484.251;   53.382; -404.174; -310.687
484.536;   63.799; -356.165; -378.703
484.822;   94.587; -205.173; -218.687
485.107;  -27.530; -599.152; -502.726
485.392;  334.208;  662.836;  541.296
485.677;  172.566;  354.832;  163.302
485.962;  302.108;  160.843;  270.283
486.247;  229.935;  -14.162;   -8.707
486.532;  120.486; -178.166; -325.701
486.817;  315.150;  381.839;  431.291
487.102;  221.344; -453.154; -514.722
487.387; 1030.315; -637.156; -652.718
487.672; 1651.016; -154.164;  -38.705
487.957; 1060.961; -394.160; -286.711
488.241;  360.995; -290.150; -314.729
488.526; 1147.972; -280.152; -148.726
488.811; 1726.435; -881.177; -818.680
489.096; 1329.748; -666.154; -702.723
489.381;  805.766;    3.847;  162.275
489.666;  529.458; -428.161; -510.710
489.950;  381.053;  558.846;  627.277
490.235;  -41.712; -480.151; -458.728
490.520;  -48.543; -756.161; -723.710
490.804; -113.882; -827.156; -736.719
491.089;   15.319; -469.149; -299.732
491.374;  100.614; -132.164;  -75.704
491.658;   -7.164; -817.147; -717.735
491.943;  274.078; -657.152; -609.727
492.227;  466.838; -178.155;  -38.721
492.512;   65.807; -294.157; -341.717
492.797; -100.090; -713.149; -716.731
493.081;  -63.859; -588.147; -598.735
493.366;  -53.041; -751.161; -635.711
493.650;  438.821;  831.859;  917.254
493.935;   67.736; -648.147; -447.734
494.219; -103.998; -778.142; -687.743
494.503;  -51.398; -585.150; -487.730
494.788;  124.895;   46.842;   74.285
495.072;  228.897;  184.850;  434.271
495.356;  248.024; -463.148; -343.733
495.641;  699.051; -812.146; -736.736
495.925;  620.725; -976.156; -903.719
496.209;   81.718; -599.149; -451.732
496.494;  -62.797; -763.142; -544.744
496.778;   80.744; -364.154; -360.722
497.062;  -94.776; -819.156; -627.719
497.346;  -44.536; -869.160; -640.711
497.631;  295.629;  580.852;  560.266
497.915;  164.267;  -64.145;  175.261
498.199;   88.912; -341.157; -277.718
498.483;   87.869; -562.152; -508.725
498.767;  369.499;  301.850;  300.271
499.051;  301.615; -126.149; -100.732
499.335;   29.012; -693.149; -739.731
499.619;  -26.125; -381.129; -423.767
499.903;   77.536; -272.155;  -65.721
500.187;   74.355; -588.153; -316.724
500.471;   13.977; -796.152; -595.727
500.755;  222.357;   62.839;  -96.710
501.039;   42.236; -270.155; -357.721
501.323;  201.124;  -21.141;  264.254
501.607;   92.823; -447.163; -503.706
501.891;   -7.886; -607.156; -512.718
502.174;  -47.816; -726.144; -585.741
502.458;  179.683;   89.849;  370.273
502.742;   89.860; -180.138; -191.751
503.026;  152.635; -412.147; -254.734
503.310;  227.277; -437.159; -375.713
503.593;  177.137; -464.147; -325.735
503.877;  204.221; -232.133; -156.760
504.161;  317.659;    2.847;  -50.724
504.444;  190.698; -841.158; -710.716
504.728;  696.913; -487.164; -522.704
505.012; 1072.294; -257.150;  -76.729
505.295;  863.059; -417.161; -212.711
505.579;  865.224; -256.156; -496.719
505.862; 1079.761; -555.145; -333.738
506.146; 1026.881; -681.159; -758.714
506.429;  721.082;  568.841;  461.286
506.713;  121.990; -732.151; -667.728
506.996;  505.043;   90.846;  295.278
507.280;  506.505; -633.165; -474.703
507.563;  367.933; -469.155; -261.721
507.847;  191.056; -423.153; -112.724
508.130;  129.760; -665.161; -456.711
508.413;  190.077; -758.167; -577.700
508.697;  386.878; -151.167;   12.300
508.980;  223.058; -422.153; -312.724
509.263;   21.628; -466.155; -450.720
509.547;  100.294; -124.150;   82.271
509.830;  139.863; -172.160;  140.289
510.113;  177.524;  128.844;  298.281
510.396;   65.667; -530.152; -300.725
510.680;  303.163; -818.145; -812.738
510.963; 1242.050;  184.846;  180.277
511.246;  983.805; -493.150; -357.730
511.529;  460.071; -482.145;  -83.739
511.812;  575.016; -250.134;   10.241
512.095;  358.185; -740.151; -396.728
512.378;  117.844; -317.147; -245.736
512.661;   69.872; -703.137; -623.753
512.944;   39.205; -750.142; -637.744
513.227;  152.468; -170.137; -171.752
513.510;   48.384; -479.144; -671.741
513.793;   72.531; -485.140; -435.747
514.076;  240.706;  -43.127;  -39.771
514.359;  217.820; -294.149; -135.732
514.642;  144.810; -442.142; -567.744
514.925; 1227.728;  581.860;  561.253
515.208; 1409.811; -498.134; -443.758
515.491;  998.232; -276.133; -182.761
515.773;  571.489; -410.143; -337.742
516.056; 3125.482;  249.864;  409.246
516.339; 4045.688; -754.136; -652.755
516.622; 3105.802; -518.150; -488.730
516.904; 2290.400;  882.857;  975.257
517.187; 1017.466; -730.138; -523.752
517.470;  652.398; -568.143; -510.743
517.752;  649.892; -624.136; -470.756
518.035;  497.647; -708.139; -725.749
518.318;  532.188; -799.136; -744.755
518.600; 3472.437; -300.132; -325.762
518.883; 4639.209;  310.858;   88.256
519.165; 2313.055; -585.138; -426.751
519.448;  655.137;  -61.132;  -19.762
519.730;  315.718; -573.126; -415.773
520.013;  591.126;  588.867;  664.240
520.295; 1501.319;  -94.134;  -15.759
520.578; 3282.956; -335.131; -305.764
520.860; 3570.337; -254.132;   56.238
521.143; 1872.595; -763.135; -584.756
521.425;  772.937; -251.125; -279.775
521.707; 1045.807; -622.127; -380.771
521.990; 2616.908; -199.127;  167.229
522.272; 2882.433; -116.140;   -4.748
522.554; 1455.790; -237.143; -157.742
522.836;  644.616;  -24.134;   99.241
523.119;  355.233; -496.148; -189.734
523.401;  252.067; -448.130; -314.766
523.683;   87.273; -865.137; -693.753
523.965;  511.763;  408.862;  260.248
524.247;  392.370;   54.878;  170.220
524.529;  305.919; -451.134; -367.759
524.812;  591.970;   -3.130;  191.234
525.094; 1229.762; -773.138; -631.751
525.376; 1893.251; -143.124;   78.223
525.658; 1192.083; -441.136; -339.754
525.940;   15.151; -805.131; -671.764
526.222;  103.789; -188.136;  -88.755
526.504;  227.248; -190.131;   32.237
526.786;  347.722; -960.133; -647.760
527.068;  549.160; -124.123;  -67.778
527.349;  245.878; -865.137; -774.754
527.631;  250.136; -137.132;   22.238
527.913;  185.306; -664.127; -450.771
528.195;  202.727; -761.125; -639.774
528.477;  413.511;  -93.134;  -30.758
528.759;  190.269; -648.130; -522.766
529.040;   47.558; -569.123; -293.778
529.322;   86.031; -235.125;  -10.774
529.604;  253.173;  -47.130;   93.233
529.886;  188.618; -546.126; -302.773
530.167;  265.660;  232.870;  192.235
530.449;  137.443;    1.853;   63.265
530.731;    2.968; -572.122; -459.779
531.012;   97.300; -513.120; -216.784
531.294;  140.859; -118.116;  -43.792
531.575;  296.537;  290.875;  538.225
531.857;   54.203; -548.135; -266.757
532.138;  229.022; -113.141;   40.254
532.420;  341.698;  294.865;  403.244
532.701;  337.926; -722.133; -751.760
532.983;  636.631;  232.867;  182.239
533.264;  248.715; -243.126;  175.228
533.546;   -7.712; -491.136; -508.755
533.827;  134.221;  173.867;   -1.759
534.109;  106.403; -352.135;  -80.757
534.390;  145.743; -725.132; -582.762
534.671;  445.197; -270.135;  -82.756
534.953;  196.762; -751.123; -611.779
535.234;   55.037; -426.117; -255.789
535.515; -126.587; -891.119; -735.785
535.796;   -4.000; -431.128; -193.770
536.078; -206.549;-1050.124; -904.777
536.359;   49.463;  -22.123;    3.221
536.640;   23.629; -480.125; -197.774
536.921;  318.381;  225.871;  143.232
537.202;  557.457;  -87.138;  -16.751
537.483;  705.656;  251.869;  377.236
537.764;  304.260;   17.870;   98.235
538.045;  -16.690; -543.134; -371.758
538.326;  -78.017; -596.129; -447.768
538.607;   28.609; -686.127; -476.771
538.888;  300.086;   98.879;    5.218
539.169;  272.478; -704.122; -535.781
539.450;  522.779;  236.871;   16.233
539.731;  340.792; -361.121; -182.783
540.012;  253.200;  199.880;  412.216
540.293;  205.543;   82.876;  158.224
540.574;  -13.909; -895.113; -717.796
540.855;  764.990;  435.879;  377.218
541.136;  862.374;   47.878;  139.220
541.416;  438.971; -161.130; -220.766
541.697;  271.649; -274.131; -170.763
541.978; 1528.301; -270.135; -315.757
542.259; 1893.208; -211.127; -236.771
542.539;  961.950; -191.116; -186.790
542.820;  350.537;  461.875;  480.225
543.101;  236.666;  -52.145;  -77.738
543.381;   22.708; -638.127; -591.771
543.662;  466.004;  159.873; -254.771
543.942;  814.801; -751.127; -830.770
544.223; 1615.376;  193.878;  161.219
544.504;  941.250; -275.124; -182.777
544.784;  869.017; -592.126; -408.773
545.065; 2429.256;  104.884; -254.791
545.345; 2826.813;  227.881;   14.215
545.626; 1861.490;  -14.113; -108.796
545.906; 1295.160;   77.869;   98.235
546.186;  573.024;   92.874;  -95.773
546.467;  329.854;   99.877;  -95.778
546.747;  519.050;  264.884;  327.210
547.027;  594.748;   91.876;  111.223
547.308;  461.500; -376.127; -530.770
547.588;  647.385;  299.871;  371.232
547.868;  375.861;  458.870;  588.235
548.149;  380.767;  609.885;  593.207
548.429;  194.505; -347.127; -299.771
548.709;  272.299; -645.120; -461.784
548.989;  751.127;   84.882;   88.213
549.269; 3078.934;   10.868;  139.239
549.550; 6749.661;  215.877;  117.222
549.830; 6026.017; -758.111; -556.799
550.110; 1274.028; -468.110; -320.801
550.390; 1276.369; -128.122;  -56.779
550.670; 1617.483; -868.114; -783.795
550.950; 1172.389; -509.121; -471.782
551.230;  380.584;  549.879;  460.218
551.510;   32.288; -381.121; -326.782
551.790;   78.240; -173.109; -127.803
552.070;  521.854;  940.877; 1181.223
552.350;  540.719; -492.119; -377.786
552.630;  830.680;   -2.121;   77.219
552.909;  500.356;  181.884;   73.209
553.189;  346.744;  -49.132;   33.237
553.469;  244.518; -703.119; -514.786
553.749;  270.210; -469.127; -357.772
554.029;  297.043;   33.883;  -24.790
554.308;  210.373; -154.115;  -37.794
554.588;  116.398; -196.128; -204.770
554.868;  101.291; -366.121;  -47.782
555.147;  230.669; -114.115;  -46.793
555.427;  929.960; -260.116; -250.792
555.707; 5647.866; -284.115; -200.793
555.986; 6300.722; -719.111; -538.800
556.266; 3550.848;   23.884;   72.210
556.546;  139.288; -888.121; -675.782
556.825;  340.380; -657.114; -556.794
557.105; 2563.595; -125.128;   17.230
557.384; 2958.455;  122.884;  187.209
557.664; 1096.159; -717.116; -508.792
557.943;  172.290; -557.121; -411.782
558.222;  246.332; -345.118; -344.788
558.502;  399.671; -116.115;  -76.793
558.781;  757.864;  194.885;  499.208
559.061;  550.832; -232.118; -227.788
559.340;  490.039;  302.883;  353.211
559.619; 1046.848;   93.884;  148.210
559.899; 1410.242; -239.117; -266.789
560.178; 1336.770; -778.115; -593.793
560.457; 4506.644; -623.117; -562.790
560.736; 5870.924; -472.111; -482.800
561.015; 4156.792; -500.128; -502.769
561.295;  590.070;  180.893;  215.193
561.574;  547.667;  119.885;  116.207
561.853;  784.246;  274.891;  303.197
562.132;  732.074;  -45.114;  182.206
562.411;  703.081;  396.879;  553.219
562.690;  170.764; -592.115; -458.792
562.969;  274.600;  472.888;  630.203
563.248; 1020.678; 2966.878; 2487.219
563.527;  400.023; -290.111; -408.800
563.806;  605.705; -650.127; -521.771
564.085;  598.793; -297.105; -206.810
564.364;  316.947; -594.117; -405.790
564.643;  733.682; -276.121; -223.781
564.922; 2613.237;  221.890;  397.198
565.201; 2516.643; -640.109; -700.803
565.479; 1151.462; -297.115; -219.792
565.758;  398.096; -810.128; -712.770
566.037;  705.145; -155.109; -100.803
566.316;  384.355; -286.116;  -28.791
566.595;   92.266;  -17.115;  -12.793
566.873;  229.526; -166.111;  -79.801
567.152;  -73.100; -490.113; -590.797
567.431;   57.749; -113.116;    6.210
567.709;   48.571; -344.107; -212.807
567.988;  355.079; -810.114; -769.794
568.266;  765.566; -160.115;  -68.793
568.545;  528.764; -644.100; -514.819
568.824;  910.861;  160.885;  356.208
569.102;  760.579; -351.114; -235.794
569.381;  321.860; -492.116; -407.792
569.659;  -67.706; -553.113; -553.796
569.938;   34.275; -743.122; -465.780
570.216;  173.248; -225.109; -225.804
570.494;  -57.716; -632.114; -572.795
570.773;  120.487;  202.879;  114.218
571.051;   39.659; -373.123; -357.778
571.330;   92.490; -221.113; -174.796
571.608;   70.192; -181.098; -173.823
571.886; -128.186; -671.111; -581.799
572.164; -108.909; -739.121; -621.782
572.443;  -77.901; -562.105; -512.811
572.721;  -54.155; -399.117; -289.790
572.999;  -48.365; -280.117; -168.788
573.277;  253.089;  379.894;  620.191
573.555;  423.692;   94.894;   37.190
573.834; 1853.034;  -86.117; -114.788
574.112; 2214.974;  880.893;  811.193
574.390;  673.124; -143.111;  -96.801
574.668;   27.801;  -91.112;  -61.797
574.946;   31.792; -165.106; -187.810
575.224;   71.143;   71.891;  -16.803
575.502;   41.352; -200.116; -204.791
575.780; -127.497; -767.112; -829.798
576.058;  526.123; 1589.889; 1004.200
576.336;   34.231; -210.110; -129.801
576.614;  -81.097; -511.112; -340.798
576.891;   36.073; -711.115; -823.794
577.169;  664.161; -158.108; -285.805
577.447;  866.573;  169.893;  202.193
577.725;  481.310;  629.888;  854.201
578.003;   41.107;  -71.112; -371.798
578.280;  154.912; -208.104; -242.812
578.558;  118.671; -450.115; -422.793
578.836;  219.184; -210.114; -145.795
579.114;   45.201; -630.112; -670.797
579.391;  198.837;   -6.117;  -18.789
579.669; -146.826; -595.114; -704.794
579.947;  275.168; -326.107; -127.806
580.224;  436.068; -692.107; -524.806
580.502;  500.674;  127.893;   76.193
580.779;   81.746;  -42.117;   75.210
581.057;  -91.051; -584.109; -470.804
581.334; -184.565; -726.102; -695.815
581.612;  102.194;   54.895;  511.190
581.889;  -29.545;  -83.101; -129.818
582.167;  -35.123; -298.099; -190.821
582.444; -166.153; -845.102; -814.817
582.721;  206.048;  657.899;  715.183
582.999;   91.073; -326.100; -167.821
583.276;  671.465; -812.123; -713.779
583.553;  932.640; -364.102; -294.816
583.831;  313.607; -607.104; -631.812
584.108;  131.957;  349.892;  174.195
584.385;   33.334; -122.102;  -98.815
584.662; -112.874; -651.111; -828.801
584.940;  113.425;  204.889;  204.199
585.217;  -14.507;  -73.113; -303.796
585.494;  118.739;   71.890;  118.198
585.771;  313.150; -250.109; -354.804
586.048;  720.793; -196.113;  -76.796
586.325;  417.830; -721.110; -773.801
586.602;  171.413;  230.896;  213.188
586.879;  -46.633; -499.100; -580.820
587.156;  105.295; -156.105; -331.810
587.433;  -97.056; -701.102; -667.817
587.710;  170.404;  152.888;  234.202
587.987;  456.803; -264.105; -236.811
588.264; 1230.707;  315.888;  387.202
588.541; 2095.617;  -61.104;   26.187
588.818; 3881.354;   72.892;  171.196
589.095; 3373.610; -163.104; -174.812
589.371;  529.447; -459.109; -414.804
589.648;   22.974; -581.107; -437.807
589.925;   49.485; -517.114; -621.795
590.202;  -16.796; -741.112; -607.798
590.478;  165.706; -166.105;  -73.811
590.755;  427.163; -241.108; -132.806
591.032; 3540.233; -741.110; -699.802
591.308; 4488.852; -732.094; -790.831
591.585; 2498.733; -573.110; -560.802
591.862;  109.946;-1056.102; -950.817
592.138;   93.459; -475.108; -474.805
592.415;  223.314; -486.104; -495.813
592.691; 2280.211;  460.896;  518.188
592.968; 2683.694; -208.098; -123.824
593.244; 1339.449; -695.116; -595.790
593.521;  101.747; -105.102;  -42.817
593.797;  -53.429; -810.122; -720.780
594.074;  467.814; -611.096; -588.826
594.350; 1041.230;  828.905;  729.172
594.626;  431.627; -303.111; -283.801
594.903;  129.847; -643.101; -645.817
595.179;  348.020;  243.896;  418.187
595.455;   62.476; -136.107; -150.807
595.731;   78.422;  -19.103;  -38.814
596.008;  -29.682; -464.111; -434.800
596.284;   82.471; -187.100; -242.820
596.560;   97.662; -501.093; -493.833
596.836;  315.798; -173.105;  -70.810
597.112;  459.760; -582.108; -437.805
597.388;  409.910;  -49.097;  -48.826
597.665;  231.497;  437.887;  530.203
597.941;  -89.193; -572.089; -658.839
598.217;   39.738; -323.110; -293.802
598.493;  407.253;   61.891; -204.804
598.769;  746.562; -175.100;  -50.819
599.045;  415.665; -490.108; -562.806
599.321;  103.769; -193.100; -261.820
599.597;  186.852; -355.109; -476.804
599.872;  749.817;  409.896;  429.187
600.148;  512.413;  -61.097; -172.826
600.424;  458.572;   91.893;  202.193
600.700;  336.075; -170.107; -280.807
600.976;  148.404; -442.097; -464.825
601.252;  331.446; -226.109; -272.803
601.527;  243.618; -833.104; -840.813
601.803;  221.406; -453.105; -404.812
602.079;  290.462; -124.100; -118.819
602.354;  807.477; -620.092; -531.835
602.630; 1161.393; -140.113; -482.796
602.906; 3410.455; -910.101; -863.818
603.181; 8970.819; -627.119; -534.786
603.457; 7904.609;   98.903; -278.826
603.733; 1179.594; -605.120; -626.783
604.008; 1512.993; -245.106; -164.810
604.284; 4114.849; -636.101; -580.817
604.559; 3756.410;   -3.112;  -42.799
604.835;  738.298; -163.105; -225.810
605.110;  559.577; -732.099; -892.821
605.385; 1032.766;  224.907;  267.167
605.661;  915.534; -625.095; -729.829
605.936; 1562.065; -664.108; -737.806
606.211; 1388.832;  -17.103; -170.815
606.487;  283.577; -329.114; -376.794
606.762;  -20.281; -791.119; -745.786
607.037;   -9.402; -501.105; -433.810
607.313;  -87.176; -589.096; -574.828
607.588;   39.093; -375.106; -137.810
607.863;   63.354;  -28.101; -143.818
608.138;  321.636;  513.890;  516.198
608.413;    9.783; -576.099; -592.822
608.688;   61.859; -203.108; -267.805
608.964;  231.584; -509.106; -218.809
609.239;  368.094; -107.105; -212.810
609.514;  433.806;  281.895;  240.188
609.789;  950.612; -187.104; -716.812
610.064; 1171.323; -435.096; -609.827
610.339; 1205.847; -855.109; -799.804
610.614; 1599.570; -131.100; -315.820
610.889;  948.506;  215.895;  107.188
611.163;   66.307; -407.104; -591.812
611.438;  148.379;   81.886; -167.794
611.713;  -16.650; -467.101; -499.817
611.988;  112.453; -144.101; -328.818
612.263;  -61.765; -771.102; -717.815
612.538;  401.992;  385.887;  251.204
612.812;  167.272; -832.100; -911.820
613.087;  201.891; -358.098; -338.823
613.362; -132.824; -497.107; -557.807
613.637;  121.426;  261.897;  138.186
613.911;  -35.922; -256.092; -345.835
614.186;  208.773; -249.107; -292.807
614.460;  852.720; -842.081; -758.854
614.735; 1039.642;  -55.087;  -17.843
615.010;  247.527;   43.912;  -82.841
615.284;  414.959;  360.892;  246.195
615.559;  425.476; -792.092; -955.835
615.833;  480.280;  -76.099;  -87.822
616.108;    5.694; -225.090; -390.837
616.382;  269.144;  274.913;  402.156
616.656;  208.495; -241.090; -232.837
616.931;  671.981; -785.099; -700.822
617.205; 1473.819; -973.104; -979.813
617.480; 1353.134;  -91.125;    6.225
617.754;  219.130; -396.125; -128.774
618.028;    1.786; -369.129; -382.768
618.302;  117.256;   73.892;  -25.805
618.577;  -66.572; -371.103; -518.815
618.851;  -76.658; -399.109; -600.803
619.125;  -70.981; -335.134; -378.759
619.399;  -38.881; -244.104; -374.813
619.673;  -81.539; -330.115; -515.792
619.947;  -73.417; -333.114; -448.795
620.222;  -17.072; -198.110; -204.801
620.496;    8.990;  -47.121;  -96.782
620.770;   54.478; -187.122;  -93.781
621.044;  361.495;  323.895;  346.190
621.318; 1010.995; -653.120; -614.783
621.592;  915.091; -430.121; -409.783
621.866;  471.011; -476.112; -572.799
622.140;   29.752; -207.116; -356.791
622.413;  172.118;  138.889;  112.200
622.687;  -59.050; -746.101; -492.817
622.961;   23.557; -130.108; -143.805
623.235; -122.981; -633.111; -661.800
623.509; -194.495; -816.105; -848.811
623.783;   53.069;  -12.107;   48.193
624.056;   -8.504; -254.120; -280.783
624.330;  102.001;   63.888;   -3.797
624.604;  102.447; -271.116; -355.790
624.877;  136.435;  180.890;   26.198
625.151;   41.175; -249.114; -238.794
625.425;  -24.478; -150.103; -283.814
625.698;  -68.790; -367.119; -374.785
625.972; -161.162; -799.110; -765.802
626.245;  195.150;  685.884;  484.210
626.519;  -83.198; -426.120; -340.784
626.792;  -35.025; -192.107; -380.807
627.066; -150.733; -485.122; -662.779
627.339; -153.868; -736.110; -663.802
627.613;  128.400;  351.880;  148.216
627.886;  131.741;  187.891; -612.803
628.160;  -23.306;  312.880; -161.783
628.433; -160.161; -695.125; -703.775
628.706; -131.998; -517.120; -615.784
628.979;  110.248;  296.876;  117.223
629.253; -145.882; -785.119; -833.786
629.526;  545.515; -334.126; -253.772
629.799;  402.459; -641.123; -479.778
630.072;  215.088; -497.128; -516.769
630.346; -145.750;-1115.116;-1080.790
630.619;  617.477; -467.107; -545.808
630.892;  883.520;  709.889;  593.200
631.165;  581.819;  790.896;  679.187
631.438; -215.393;-1092.112;-1055.798
631.711;  150.864;  453.877;  257.221
631.984;  -80.358; -523.117; -624.789
632.257; -109.963; -636.117; -681.789
632.530;  -77.789; -412.119; -433.785
632.803;  102.172; -109.115;    7.207
633.076; -117.446; -360.123; -422.777
633.349;   81.294;  173.872;  121.231
633.622;  -21.191; -187.119; -240.785
633.895; -230.504; -903.120; -823.783
634.167;  -99.382; -496.126; -525.773
634.440;   17.959;  -19.116; -137.792
634.713;   45.816;  -22.119; -120.786
634.986;  194.879;  593.871;  453.233
635.258; -112.531; -507.115; -597.793
635.531;  228.031;  742.882; -343.788
635.804;  -22.960; -303.117; -318.789
636.077; -172.447; -830.116; -852.791
636.349;  -29.333; -586.115; -474.793
636.622;  741.914; 1695.874; 1392.228
636.894;  305.803; -474.120; -909.784
637.167;  151.305; -836.127; -789.771
637.439;   52.099; -278.128; -213.770
637.712;  -58.584; -312.126; -293.772
637.984; -126.346; -635.116; -707.791
638.257;  667.255;  515.877;  488.222
638.529;  713.640; -881.125; -924.776
638.802;  342.788; -508.128; -449.769
639.074; -219.824; -927.122; -952.781
639.346; -210.394; -942.135; -930.757
639.619;   15.407;  -79.142; -319.744
639.891;   28.667;  -83.122; -168.779
640.163; -132.130; -689.122; -756.780
640.435;   92.872;  273.878;  103.220
640.708;   29.475;  -72.122; -132.780
640.980;  -51.522; -366.122; -362.781
641.252;  376.881;  -25.121;  -71.781
641.524; 2737.184;  580.879;  573.219
641.796; 2531.986;-1094.121; -907.782
642.068;  499.289; -191.121; -300.782
642.340;  -60.808; -486.121; -566.783
642.613;  129.195;  294.880;  323.217
642.885; -173.903; -787.120; -878.783
643.157;  -77.600; -810.120; -658.784
643.428;  151.603;  170.880;  218.216
643.700;  -90.894; -498.120; -425.784
643.972;  -26.191;  -16.119; -133.785
644.244; -146.689; -474.119; -559.785
644.516;  -65.586; -250.119; -114.786
644.788;  189.917;  662.881;  548.214
645.060;    9.320;  -12.119; -124.786
645.332; -160.278; -525.118; -535.787
645.603;  114.825;  479.882;  342.213
645.875;  -87.672; -334.118; -369.787
646.147;  389.531; 1487.882; 1242.212
646.418; -114.567; -931.117; -918.788
646.690;  114.636; -714.117; -715.789
646.962;   28.639; -413.117; -451.789
647.233;   35.642;   15.883;   11.211
647.505; -136.255; -595.117; -475.790
647.776;   92.947;  328.884;  229.210
648.048;   37.450; -248.116; -418.790
648.320; -159.147; -752.116; -679.791
648.591; -247.144;-1055.116; -958.791
648.862; -139.542; -505.116; -577.792
649.134;   75.661;  115.885;  198.208
649.405;  -76.336; -661.115; -618.792
649.677;  -96.333; -475.115; -598.793
649.948;  -16.930; -181.115; -296.793
650.219;   59.772;  -37.115; -147.793
650.491; -101.825; -431.114; -520.794
650.762; -200.822; -705.114; -731.794
651.033; -112.919; -437.114; -424.795
651.304; -164.017; -743.114; -728.795
651.576; -110.214; -680.114; -645.795
651.847;  -35.111; -250.113; -140.796
652.118;  -12.108;  -32.113; -189.796
652.389; -172.506; -639.113; -722.796
652.660;   -9.003; -147.113;  -89.797
652.931; -229.400; -897.112; -871.797
653.202; -144.297; -382.112; -541.798
653.473;  -85.794; -633.112; -533.798
653.744;  220.208; -595.112; -590.798
654.015;  202.311; -356.112; -303.799
654.286; -121.786; -642.111; -663.799
654.557; -125.583; -586.111; -521.799
654.828; -259.681;-1114.111;-1088.800
655.099; -104.278; -404.111; -291.800
655.370; -124.675; -427.111; -543.801
655.641; -179.672; -656.110; -714.801
655.911; -153.469; -618.110; -638.801
656.182;  155.033;  437.890;  387.198
656.453;  264.836;  830.890;  746.198
656.724;  -90.161; -466.110; -426.802
656.994; -132.758; -553.109; -568.803
657.265; -185.256; -862.109; -873.803
657.536; -132.453; -500.109; -377.804
657.806; -152.650; -561.109; -593.804
658.077; -236.147; -866.109; -950.804
658.347; -104.945; -523.108; -598.805
658.618; -177.542; -646.108; -694.805
658.888;   23.261;  -41.108;  112.195
659.159; -123.436; -432.108; -548.806
659.429;  -11.233; -292.108; -349.806
659.700;   11.569; -435.107; -390.807
659.970;    9.372; -370.107; -359.807
660.241;    3.375; -754.107; -921.807
660.511;  708.378; -147.107; -174.808
660.781;   85.780; -793.106; -748.808
661.052;  -48.717; -222.106; -381.808
661.322;    7.086;   21.894;   -9.809
661.592;   70.589;  257.894;  148.191
661.862; -117.008; -369.106; -382.810
662.133; -146.906; -551.105; -502.810
662.403; -212.903; -770.105; -676.810
662.673;  -62.700; -256.105; -213.811
662.943; -122.397; -612.105; -551.811
663.213;   49.705;  -85.105;  -81.811
663.483; -124.692; -593.104; -568.812
663.753;  -42.689; -194.104; -152.812
664.023;   36.514;   68.896;  -32.813
664.293;  -58.084; -319.104; -126.813
664.563; -199.481; -694.104; -648.813
664.833; -216.778; -743.103; -608.814
665.103; -223.675; -730.103; -793.814
665.373; -186.872; -766.103; -806.814
665.643; -187.270; -863.103; -918.815
665.913;   24.633; -534.103; -714.815
666.182;  178.036; -685.102; -719.816
666.452;  387.039;  -22.102;  -89.816
666.722;  -75.959; -724.102; -784.816
666.992; -236.256; -948.102; -921.817
667.261; -195.653; -824.102; -808.817
667.531;  407.450;  134.899;   45.183
667.801;  814.553; -440.101; -412.818
668.070;  470.055;  714.899;  697.182
668.340; -175.042; -883.101; -840.819
668.609;  231.961;  588.900;  301.181
668.879; -119.036; -490.100; -558.819
669.149; -107.334; -539.100; -516.820
669.418; -189.131; -698.100; -726.820
669.688;  -47.628; -482.100; -666.820
669.957;   87.675; -423.099; -546.821
670.226;  -12.523; -268.099; -331.821
670.496; -129.120; -431.099; -635.822
670.765; -111.417; -418.099; -501.822
671.034; -251.314; -872.099; -828.822
671.304;    2.689;   55.902; -111.823
671.573; -268.809;-1085.098; -957.823
671.842;  127.794; -380.098; -294.823
672.112;   -9.203; -692.098; -586.824
672.381;   34.200; -239.098; -214.824
672.650; -247.098;-1005.097;-1021.825
672.919; -154.795; -631.097; -507.825
673.188; -161.992; -681.097; -878.825
673.457; -274.289;-1101.097;-1143.826
673.726; -113.286; -579.096; -646.826
673.995;  -78.784; -533.096; -479.826
674.265;  -21.981; -263.096; -333.827
674.534;   26.922; -183.096; -235.827
674.802;  -16.775; -618.096; -703.828
675.071; 1443.827; -886.095; -801.828
675.340; 5094.630; -464.095; -339.828
675.609; 1806.733;  103.905;   82.171
675.878;   35.936; -949.095; -893.829
676.147;   76.738;  -26.095;   -8.829
676.416;  164.241; -210.094; -294.830
676.685; 1140.044; 1000.906; -622.830
676.953;  144.147; -603.094; -452.831
677.222;   -9.250; -193.094; -273.831
677.491;  -20.848;  -24.094; -127.831
677.759;   50.655;   11.907;  172.168
678.028;  -18.342; -279.093; -222.832
678.297;   46.761;   71.907;  197.168
678.565; -270.737; -898.093; -944.833
678.834;  -46.234; -311.093; -268.833
679.102; -102.031; -411.092; -391.834
679.371; -260.428; -898.092; -727.834
679.639; -229.325; -797.092; -786.834
679.908; -182.223; -794.092; -724.835
680.176; -260.520; -895.091; -941.835
680.445;  -84.217; -346.091; -352.835
680.713;    8.786;  -58.091;  -23.836
680.982; -100.212; -523.091; -525.836
681.250; -173.709; -578.091; -507.837
681.518; -140.906; -534.090; -751.837
681.787;  -20.903; -204.090; -167.837
682.055;  -86.701; -490.090; -422.838
682.323; -265.498; -993.090; -992.838
682.591;   80.705; -216.090; -538.838
682.859;  103.808;    9.911;  -35.839
683.128;   85.511;  232.911;  497.161
683.396; -292.287;-1102.089;-1122.840
683.664;  -21.684; -241.089;   21.160
683.932;   42.519;  144.911;  -76.840
684.200; -109.378; -576.088; -320.841
684.468;   -8.576;  -73.088; -124.841
684.736;  -30.473; -214.088; -175.841
685.004; -222.970;-1024.088; -982.842
685.272;  -76.467; -880.088; -774.842
685.540;  -54.464; -499.087; -557.843
685.808; -135.962; -651.087; -682.843
686.076; -181.259; -894.087; -969.843
686.343; -110.456; -601.087; -815.844
686.611;   86.647; -195.087; -224.844
686.879;  713.949; -530.086; -553.844
687.147; 4395.552; -483.086; -480.845
687.414; 1258.555;  -12.086; -169.845
687.682;   -8.642; -658.086; -757.846
687.950;  478.060;  259.915;  263.154
688.217;  -30.937; -792.085; -760.846
688.485;  -12.134; -632.085; -636.847
688.753;  724.369;  -11.085; -102.847
689.020;  185.672; -820.085; -851.847
689.288; -159.526; -853.084; -787.848
689.555;  -17.023; -195.084; -148.848
689.823;  -44.120; -241.084; -345.849
690.090; -143.417; -546.084; -651.849
690.358; -260.215; -877.084; -897.849
690.625;   62.288;  120.917;   45.150
690.892;  -82.909; -403.083; -369.850
691.160;   12.594;   72.917;  -35.850
691.427;   84.097;  141.917;  130.149
691.694; -216.701; -855.083; -929.851
691.962; -246.098;-1177.082;-1060.852
692.229;   86.105;  127.918;   56.148
692.496;  142.908;  130.918;  -49.852
692.763;   45.910; -164.082; -201.853
693.031;  -93.687; -739.082; -716.853
693.298;  -61.984; -509.081; -368.853
693.565;  478.119; -155.081; -163.854
693.832; 1708.221;   -5.081;   -9.854
694.099;  180.024; -643.081; -642.855
694.366; -105.373; -882.081; -896.855
694.633; -100.570; -920.080; -633.855
694.900; 1561.933; 4367.920; -114.856
695.167;  616.535; -214.080; -380.856
695.434;  137.938; -646.080; -623.856
695.701;  384.341;  121.921;  -61.857
695.968;  686.644; -365.079; -361.857
696.234; 1800.346; -415.079; -646.858
696.501;16788.949; -776.079; -614.858
696.768; 8063.852; -554.079; -617.858
697.035;  520.155; -632.078; -667.859
697.302;   79.357; -448.078; -552.859
697.568;   51.160; -458.078; -497.859
697.835;  -40.137; -683.078; -624.860
698.102;  -14.834; -498.078; -407.860
698.368;  215.969;  384.923;  396.139
698.635;  -22.229;  -47.077; -424.861
698.901;  -10.626; -240.077; -348.861
699.168;  100.077; -534.077; -456.862
699.435;  136.780;  -72.077;  -13.862
699.701; -182.518; -868.076; -764.862
699.968;  -49.615;  144.924; -441.863
700.234; -141.112; -783.076; -822.863
700.500;  -61.609; -448.076; -539.864
700.767;   47.094;   -1.075;   26.136
701.033; -215.704;-1015.075; -963.864
701.299;  -60.301; -450.075; -483.865
701.566;  267.202;  950.925;  763.135
701.832;  116.305;  -31.075;  -76.865
702.098; -181.993;-1054.074;-1034.866
702.365; -123.190;-1098.074;-1030.866
702.631;  -88.987;-1038.074;-1063.867
702.897; 2013.016; -765.074; -676.867
703.163; 3097.018;  348.926;  254.133
703.429;  254.921; -256.073; -273.868
703.695;  -65.076; -796.073; -792.868
703.961;   98.027; -214.073; -210.868
704.227;  -71.170; -630.073; -725.869
704.493;  287.132;  613.927;  510.131
704.759;  -42.365; -565.072; -540.870
705.025;  113.138; -203.072; -194.870
705.291;   27.041; -666.072; -562.870
705.557;  446.543;  719.928;   34.129
705.823;   67.946; -742.072; -694.871
706.089;  287.149; -307.071; -326.871
706.355;  724.752; -315.071; -244.872
706.620; 9890.955; -776.071; -729.872
706.886;12121.857; -309.071; -362.873
707.152; 1071.760; -818.070; -973.873
707.418;  -29.637;-1153.070;-1186.873
707.683;   55.066; -550.070; -530.874
707.949;  -49.032; -547.070; -578.874
708.215;   70.671; -129.070; -207.874
708.480;   -1.826; -520.069; -420.875
708.746;  195.277;   68.931;   28.125
709.011;  -64.321; -578.069; -612.876
709.277;  -91.018; -538.069; -543.876
709.542;  -61.215; -428.069; -387.876
709.808;   73.888;  -59.068;   89.123
710.073; -146.609; -577.068; -695.877
710.339;   -6.507; -242.068; -228.877
710.604;  128.296; -780.068; -845.878
710.869;  481.399; -277.068; -366.878
711.135; -108.398; -715.067; -628.879
711.400;  -94.396; -507.067; -608.879
711.665;  -76.893; -404.067; -479.879
711.931; -133.790; -661.067; -677.880
712.196; -195.287; -876.067; -954.880
712.461;  198.716; -402.066; -490.880
712.726;  167.218; -727.066; -771.881
712.991; -126.279; -647.066; -664.881
713.256;  -47.476; -350.066; -332.882
713.521;  -60.273; -417.065; -381.882
713.787;  -88.471; -454.065; -472.882
714.052;   -1.968; -214.065; -400.883
714.317; -163.165;-1045.065; -981.883
714.581; 1805.038; -374.065; -268.883
714.846; 2110.540; -822.064; -888.884
715.111;  287.143;  261.936;  257.116
715.376;   -9.154;  -86.064; -223.885
715.641;   20.349; -365.064; -367.885
715.906;  410.552;   15.936; -551.885
716.171;  277.654;  221.937;  209.114
716.436;   81.357;  -78.063; -104.886
716.700; -173.440; -818.063; -692.886
716.965; -200.137; -794.063; -807.887
717.230;  -72.135; -339.063; -392.887
717.494;   -8.332;  -40.062; -134.888
717.759; -158.429; -784.062; -640.888
718.024;   78.074;  269.938;  250.112
718.288;  199.977;  685.938;  395.111
718.553; -247.821; -803.062; -977.889
718.817; -228.818; -883.061; -899.889
719.082;   -7.815; -115.061; -125.890
719.346; -209.712;-1000.061; -947.890
719.611;  -34.410; -300.061; -255.891
719.875; -106.307; -568.060; -537.891
720.140; -102.104; -453.060; -603.891
720.404;  110.099; -136.060; -249.892
720.668; 1117.701; -475.060; -411.892
720.933;  479.104;  146.940;  137.108
721.197; -156.393; -667.059; -600.893
721.461; -219.190; -851.059; -826.893
721.725;   58.013;  -21.059; -250.894
721.990;  -47.785; -284.059; -204.894
722.254;   13.018;  -26.059; -108.894
722.518;  -76.979; -286.058; -442.895
722.782; -126.176; -743.058; -594.895
723.046;  287.326;  614.942;  570.105
723.310;  124.329;  374.942;  210.104
723.574; -122.468; -654.058; -614.896
723.838; -158.365; -576.057; -642.897
724.102;  -36.862; -226.057; -239.897
724.366; -228.560;-1032.057; -978.897
724.630; -125.057; -749.057; -571.898
724.894; -110.154; -722.057; -514.898
725.158;   39.549;   38.944; -295.898
725.422;  -16.549; -394.056; -327.899
725.685;  -98.846; -441.056; -349.899
725.949; -123.343; -566.056; -519.900
726.213; -102.640; -732.056; -811.900
726.477;  174.462;-1020.055; -933.900
726.740;  227.265; -274.055; -104.901
727.004;  598.768; -384.055; -510.901
727.268; 5352.571; -442.055; -400.901
727.531; 1309.974; -961.055; -775.902
727.795;  -59.924; -713.054; -673.902
728.059;  -78.921; -552.054; -557.903
728.322; -129.918; -841.054; -669.903
728.586;  -13.115; -692.054; -701.903
728.849; -142.813; -695.053; -756.904
729.112; -193.610; -812.053; -912.904
729.376; -205.007; -959.053; -905.904
729.639; -102.204; -536.053; -536.905
729.903; -159.901; -733.053; -699.905
730.166;  -66.199; -437.052; -399.906
730.429;   -7.796; -317.052; -468.906
730.693;  -89.393; -355.052; -894.906
730.956;  469.410;  810.948;  651.093
731.219;  965.412; -310.052; -103.907
731.482;  151.015;-1003.051; -894.907
731.745;   70.618; -794.051; -935.908
732.009;   93.821;  -30.051;   50.092
732.272; -145.577; -904.051; -771.909
732.535;  -40.074; -300.051; -310.909
732.798; -298.871;-1083.050;-1166.909
733.061;  -58.768; -430.050; -456.910
733.324;   51.035;   31.950; -180.910
733.587;  145.037;  290.950;  365.090
733.850; -114.960; -973.049;-1050.911
734.113;  127.043;   33.951;   32.089
734.376;   26.746; -328.049; -447.912
734.639;  465.248; 1188.951; 1011.088
734.901;  150.851; -180.049; -402.912
735.164;  760.854; -883.048; -837.913
735.427; 1729.157; -166.048; -355.913
735.690;  227.060; -205.048; -234.913
735.952;  -91.038; -923.048; -925.914
736.215;  -57.835;-1113.048;-1009.914
736.478;   43.268; -771.047; -774.915
736.740;  368.971;   33.953;  129.085
737.003; 1130.173; -658.047; -672.915
737.266; 5438.576;  -94.047;   46.084
737.528;  634.579; -682.047; -660.916
737.791;  533.582; -316.046; -327.916
738.053; 1425.584;  465.954;  649.083
738.316;17862.087; -162.046; -136.917
738.578;10987.890; -770.046; -736.918
738.841;  719.193; -382.046; -446.918
739.103;  296.696; -875.045; -777.918
739.365;  834.898;   79.955;  -69.919
739.628;  -28.799; -884.045; -805.919
739.890;   10.204; -758.045; -710.919
740.152;  -68.093; -692.044; -754.920
740.414;    5.809; -408.044; -359.920
740.677;  -80.988; -785.044; -634.921
740.939;  -36.285; -587.044; -487.921
741.201;  379.318; -432.044; -572.921
741.463;   50.821; -689.043; -745.922
741.725;   63.523;  -21.043; -199.922
741.987;  171.426;  220.957;  116.078
742.249;  -35.571; -751.043; -859.923
742.511;  265.432; -703.043; -794.923
742.773;   33.034; -546.042; -546.924
743.035;  275.337;  796.958;  533.076
743.297;  -57.560; -963.042;-1013.924
743.559; 1086.443; -278.042; -262.925
743.821;   64.245; -735.042; -744.925
744.083;  109.348;  -44.041; -149.925
744.345; -143.449; -869.041; -892.926
744.607;  118.254;   75.959;  122.074
744.868;  -86.343; -490.041; -554.927
745.130; -151.941; -994.041;-1008.927
745.392;  106.862;   -1.040;  -44.927
745.653;   37.565; -411.040; -378.928
745.915;  325.268;  896.960;  631.072
746.177;  149.270;   35.960;  -43.928
746.438;    4.273; -428.040; -543.929
746.700;  -62.324; -947.039; -988.929
746.961;    6.779; -659.039; -740.930
747.223;  271.682; -190.039;  -74.930
747.484;  152.884; -391.039; -471.930
747.746;  291.787;  -23.038; -106.931
748.007;  162.890; -647.038; -689.931
748.269;  487.793; -468.038; -440.931
748.530;  658.895; -852.038; -638.932
748.791;  402.598; -354.038; -420.932
749.053;  744.301;  286.963;  163.067
749.314;  725.304; -236.037; -169.933
749.575;  745.406; -945.037; -905.933
749.836; 1323.609; -217.037;   86.066
750.098; 4259.012;  -60.037;  -21.934
750.359;52464.915;  414.964;  555.066
750.620;11998.818; -121.036; -220.935
750.881; 1566.220; -585.036; -513.935
751.142; 2125.323; -950.036; -938.936
751.403;26739.826; -789.036; -705.936
751.664;10107.929;-1034.035; -999.936
751.925;  830.331; -175.035; -262.937
752.186;  477.634; -298.035; -278.937
752.447;  266.337; -590.035; -445.937
752.708;  115.240; -532.035; -648.938
752.969;   57.343; -566.034; -576.938
753.230;    5.545; -777.034; -672.939
753.491;   11.548; -650.034; -631.939
753.751;  157.151;  109.966;   19.061
754.012;  247.854;  258.967;  181.060
754.273;  139.256; -174.033;  -71.940
754.534;   55.859; -487.033; -580.940
754.794; -156.338; -926.033; -911.941
755.055;  377.365; 1051.967;  881.059
755.316;  -52.433; -700.032; -566.942
755.576;   -5.130; -606.032; -576.942
755.837;  -58.927; -527.032; -695.942
756.097;  -17.724; -530.032; -564.943
756.358;  -97.421; -725.032; -770.943
756.618;  -66.419; -705.031; -641.943
756.879;   38.384; -254.031; -349.944
757.139; -171.413;-1098.031;-1116.944
757.400;  -86.510; -538.031; -553.945
757.660;   -6.208; -365.031; -401.945
757.920;   34.595; -266.030; -228.945
758.181;   25.398; -468.030; -351.946
758.441; -157.699; -870.030; -809.946
758.701;  -19.296; -308.030; -215.946
758.961;   27.006; -220.030; -278.947
759.222;  -20.291; -574.029; -502.947
759.482; -135.788; -683.029; -723.948
759.742; -132.885; -706.029; -547.948
760.002;   42.117;  -83.029; -143.948
760.262;   92.120;   50.972;  182.051
760.522;  -30.777; -498.028; -574.949
760.782;  -58.674; -738.028; -612.949
761.042;  -19.472; -618.028; -573.950
761.302;  127.431;   55.972;  -18.950
761.562;   92.534; -164.027; -154.951
761.822;  142.937; -710.027; -551.951
762.082;  -63.060;-1104.027;-1093.951
762.342;  172.142; -328.027; -403.952
762.601;  149.945; -567.027; -506.952
762.861;  605.648; -281.026; -207.952
763.121;  798.351; -406.026; -411.953
763.381;13610.853; -499.026; -485.953
763.640;12673.856; -139.026; -307.954
763.900;  663.359; -242.026; -203.954
764.160;  181.762; -458.025; -491.954
764.419;   -2.435; -726.025; -782.955
764.679; -112.333; -795.025; -726.955
764.939;   47.070; -124.025; -210.955
765.198; -105.627; -608.025; -563.956
765.458;  -95.824; -710.024; -612.956
765.717; -133.122; -454.024; -590.957
765.976;   -8.219; -428.024; -411.957
766.236; -108.416; -475.024; -610.957
766.495;  106.487;  260.977;   73.042
766.755; -175.511;-1090.023; -987.958
767.014;  -31.108; -594.023; -665.958
767.273;  -49.105; -373.023; -397.959
767.533;  -19.302; -228.023; -307.959
767.792;    6.601; -151.022; -188.960
768.051;  -18.497; -228.022; -276.960
768.310; -132.894; -546.022; -650.960
768.569;   69.009; -161.022;    4.039
768.828;   -1.488; -285.022; -363.961
769.088; -194.986;-1050.021; -942.961
769.347; -110.283; -755.021; -599.962
769.606; -134.080; -876.021; -857.962
769.865; -221.177;-1016.021;-1033.963
770.124;   40.826; -411.021; -336.963
770.383;  -74.772; -778.020; -910.963
770.641;   57.031; -398.020; -400.964
770.900; -102.866; -953.020; -846.964
771.159;  -76.563; -851.020; -951.964
771.418;   10.339; -917.020; -779.965
771.677;  291.942; -224.019; -293.965
771.936;  257.745; -794.019; -865.966
772.194; 4554.348; -465.019; -437.966
772.453;17613.050; -213.019; -391.966
772.712; 1322.653;  416.982;  329.033
772.970;  273.956;   32.982;   63.033
773.229;  195.959;  -22.018;  102.033
773.488; -132.538; -814.018; -770.968
773.746;  178.964;  296.982;  335.032
774.005;   68.967;  190.983;  -22.969
774.263;   90.770;  243.983;  177.031
774.522; -128.227; -422.017; -548.969
774.780;  -94.125; -484.017; -417.970
775.039; -116.722; -551.017; -531.970
775.297;   42.181; -135.016; -351.970
775.555; -141.216; -489.016; -612.971
775.814; -153.913; -618.016; -570.971
776.072; -182.511; -749.016; -740.971
776.330; -132.808; -630.016; -520.972
776.589; -184.705; -703.015; -721.972
776.847; -201.002; -645.015; -624.973
777.105; -289.500;-1016.015;-1032.973
777.363;  -81.597; -459.015; -454.973
777.621; -222.694; -660.015; -717.974
777.879;   59.809;  -42.014;   32.026
778.138; -115.289; -554.014; -717.974
778.396; -109.686; -585.014; -526.975
778.654; -271.583;-1015.014; -970.975
778.912;  -82.080; -269.014; -371.976
779.170; -188.977; -880.013; -803.976
779.427; -214.775; -922.013; -897.976
779.685; -208.572; -880.013; -832.977
779.943; -150.069; -654.013; -593.977
780.201; -249.766; -964.012; -883.978
780.459; -174.864; -651.012; -610.978
780.717; -126.661; -440.012; -390.978
780.974; -116.958; -449.012; -490.979
781.232;  -83.055; -358.012; -338.979
781.490; -123.952; -551.011; -472.979
781.747; -133.850; -555.011; -476.980
782.005;  123.453;  462.989;  254.020
782.263; -295.544; -542.011;-1004.981
782.520; -117.441; -326.011; -501.981
782.778; -283.439;-1013.010;-1051.981
783.035; -276.236; -962.010; -938.982
783.293;  -60.433; -248.010; -206.982
783.550;  -24.230; -134.010; -198.982
783.808; -211.628; -764.010; -776.983
784.065; -251.925; -745.009; -874.983
784.322;  -25.922;   25.991;  -86.984
784.580; -214.119; -915.009; -771.984
784.837; -133.016; -392.009; -466.984
785.094; -212.714; -783.009; -762.985
785.352; -123.411; -304.008; -404.985
785.609; -170.208; -934.008; -839.985
785.866; -115.305; -345.008; -401.986
786.123; -103.003; -639.008; -583.986
786.380; -159.700; -665.008; -604.987
786.637;  -44.697; -225.007; -380.987
786.895;  -32.894; -456.007; -543.987
787.152;  -19.391; -135.007; -267.988
787.409;  -12.989; -123.007; -225.988
787.666; -100.786; -299.006; -378.988
787.923; -159.883; -616.006; -695.989
788.179; -119.880; -551.006; -584.989
788.436; -188.178; -585.006; -585.990
788.693;  -22.975;  -92.006;  -87.990
788.950;  260.128; -125.005; -112.990
789.207;  298.331; -381.005; -372.991
789.464;  -38.467; -161.005; -301.991
789.720;   58.436;  150.995;  110.009
789.977; -295.961;-1003.005; -671.992
790.234;   -0.758;   44.996;  -66.992
790.490; -267.755; -884.004;-1031.993
790.747;   52.347;  -85.004;   22.007
791.004;   -5.150; -426.004; -348.993
791.260; -100.647; -430.004; -560.994
791.517; -160.444; -843.003; -788.994
791.773;  -32.642; -379.003; -342.994
792.030; -168.939; -596.003; -660.995
792.286; -128.236; -686.003; -636.995
792.543;   26.867;  -74.002; -159.995
792.799;  -45.730; -584.002; -382.996
793.055; -288.928;-1179.002;-1210.996
793.312; -153.525; -827.002; -816.997
793.568; -105.122; -746.002; -599.997
793.824;   63.681; -226.001; -284.997
794.081;   79.583; -447.001; -508.998
794.337;  161.286; -664.001; -561.998
794.593; 2669.589; -319.001; -271.999
794.849;10385.492; -746.001; -772.999
795.105;  560.894; -270.000; -261.999
795.361;   44.497; -490.000; -457.000
795.617; -102.100; -875.000; -945.000
795.873;  -22.700; -360.000; -407.000
796.129;  -48.200; -368.000; -306.000
796.385;   42.900; -124.000; -156.000
796.641;  195.000;  412.000;  550.000
796.897; -104.300; -666.000; -635.000
797.153;  200.200;  453.000;  357.000
797.409; -127.500; -785.000; -868.000
797.665; -120.500; -625.000; -732.000
797.921;  -93.600; -775.000; -762.000
798.176;  -84.700; -744.000; -747.000
798.432;  -34.000; -824.000; -596.000
798.688; -123.500;-1174.000;-1078.000
798.943;  210.600; -165.000; -147.000
799.199;   -4.200;-1005.000; -959.000
799.455;  472.600;  369.000;  316.000
799.710;  223.100; -813.000; -380.000
799.966;  516.800; -162.000; -160.000
800.221;  845.300; -638.000; -721.000
800.477;18642.900; -743.000; -710.000
800.732;12925.000; -773.000; -800.000
800.988; 1123.900;  205.000;  -19.000
801.243; 4113.200; -454.000; -344.000
801.498;13692.600; -814.000; -739.000
801.754;  837.700; -289.000; -163.000
802.009;  233.600; -257.000; -335.000
802.264;  -91.500; -967.000;-1033.000
802.520;  136.500;  222.000;   -3.000
802.775;  -37.900; -524.000; -359.000
803.030;  192.500;  395.000;  356.000
803.285; -172.000; -840.000; -903.000
803.540;  -57.000; -686.000; -699.000
803.795;  -87.800; -648.000; -583.000
804.051;   24.500; -279.000; -346.000
804.306;   75.900;  168.000;  128.000
804.561;  296.300;  451.000;  362.000
804.816;  309.800;  714.000;  861.000
805.071;   72.900; -185.000; -280.000
805.325;  328.100; -257.000; -427.000
805.580; -166.400; -841.000; -877.000
805.835;   20.500; -204.000; -297.000
806.090;  -88.200; -760.000; -676.000
806.345;   27.800; -344.000; -264.000
806.600;    1.800; -549.000; -632.000
806.854;   -7.300; -408.000; -538.000
807.109;   43.800; -493.000; -577.000
807.364;   69.800; -407.000; -328.000
807.618;   95.400; -415.000; -381.000
807.873;  108.900; -470.000; -494.000
808.128;  195.200; -257.000; -518.000
808.382;  184.700; -224.000; -332.000
808.637;  171.400; -440.000; -511.000
808.891;  355.700; -257.000; -180.000
809.146;  157.700; -902.000; -794.000
809.400;  441.700; -848.000; -923.000
809.654;  581.900; -779.000; -551.000
809.909;  801.300; -841.000; -927.000
810.163;12080.300; -813.000; -651.000
810.418;24457.700; -940.000; -861.000
810.672; 1647.400; -685.000; -690.000
810.926; 1249.800; -993.000; -973.000
811.180; 2753.600; -439.000; -372.000
811.434;57657.400;  240.000;  135.000
811.689;18295.300; -231.000; -365.000
811.943; 1006.200; -936.000; -953.000
812.197;  639.900; -893.000; -671.000
812.451;  313.300; -379.000; -514.000
812.705;   -4.800; -809.000; -619.000
812.959;    0.800; -263.000; -388.000
813.213;   97.700; -283.000; -209.000
813.467;  208.700;  470.000;  253.000
813.721; -152.000; -764.000; -792.000
813.975; -174.300; -826.000; -877.000
814.229;  179.900;  430.000;  353.000
814.482;  -75.100; -517.000; -566.000
814.736; -145.200; -766.000; -744.000
814.990; -199.100; -779.000; -872.000
815.244;    1.600; -228.000; -285.000
815.497; -138.200; -636.000; -601.000
815.751;   28.400; -141.000;   82.000
816.005;  -93.400; -470.000; -586.000
816.258;  -34.900; -510.000; -363.000
816.512; -167.300; -693.000; -610.000
816.766;   82.700;  121.000;  157.000
817.019;  103.600;  148.000;  149.000
817.273; -168.100;-1000.000; -802.000
817.526;   -2.600; -206.000; -173.000
817.779;  -94.900;-1049.000; -960.000
818.033; -109.600; -693.000; -807.000
818.286; -159.800; -725.000; -792.000
818.540; -120.900; -403.000; -403.000
818.793;  -89.600; -402.000; -489.000
819.046; -132.100; -582.000; -520.000
819.299;    5.400; -157.000; -166.000
819.553; -171.800; -552.000; -592.000
819.806; -241.800;-1016.000; -838.000
820.059;  -48.300; -334.000; -354.000
820.312;   85.300;  152.000;  185.000
820.565;   29.800;  110.000;  -27.000
820.818;   -1.300;  -59.000; -173.000
821.071; -259.400;-1041.000; -957.000
821.324; -114.100; -536.000; -540.000
821.577; -136.400; -457.000; -483.000
821.830;  -27.500; -270.000; -172.000
822.083; -191.300; -733.000; -288.000
822.336;  -36.300; -261.000; -167.000
822.589; -197.700; -805.000; -688.000
822.842; -240.400; -875.000; -770.000
823.094; -298.300;-1076.000;-1114.000
823.347; -199.900; -925.000; -729.000
823.600;  110.500;  402.000;  187.000
823.853;  -35.200; -311.000; -267.000
824.105;  -76.600; -331.000; -575.000
824.358; -158.600; -617.000; -716.000
824.611;   84.500;  234.000;   40.000
824.863;  -54.100; -612.000; -591.000
825.116;  131.400;  -33.000;   27.000
825.368;  159.300; -366.000; -372.000
825.621;  285.700; -186.000; -240.000
825.873;  136.900; -704.000; -737.000
826.126; 1123.600; -669.000; -641.000
826.378;19109.200; -389.000; -505.000
826.630; 3482.500; -890.000; -898.000
826.883;   57.900; -754.000; -693.000
827.135;  120.500; -279.000; -270.000
827.387; -166.900; -893.000; -839.000
827.639;   10.000;  -86.000;   32.000
827.892; -168.900; -742.000; -582.000
828.144; -232.400; -848.000; -804.000
828.396;   19.100;  104.000;  -80.000
828.648; -128.600; -440.000; -333.000
828.900; -203.600; -702.000; -795.000
829.152; -180.500; -684.000; -683.000
829.404;  -73.700; -215.000; -267.000
829.656;   58.900;  321.000;  214.000
829.908;   38.700;  393.000;  229.000
830.160; -299.700;-1064.000;-1047.000
830.412; -107.300; -481.000; -430.000
830.664; -183.400; -557.000; -665.000
830.916;  -96.600; -268.000; -206.000
831.167; -275.600;-1073.000; -951.000
831.419; -127.700; -623.000; -566.000
831.671; -262.100; -764.000; -809.000
831.923;  -87.900; -311.000; -447.000
832.174;  -84.200; -273.000; -331.000
832.426; -158.900; -493.000; -582.000
832.678; -315.500;-1043.000;-1091.000
832.929; -273.400; -947.000; -935.000
833.181;  -96.900; -575.000; -677.000
833.432;  -46.800;  -59.000; -186.000
833.684;   38.700;  112.000;  -27.000
833.935; -143.100; -610.000; -566.000
834.187; -174.900; -829.000; -823.000
834.438;  -39.600;  -58.000;  -25.000
834.689;  -25.800; -255.000; -123.000
834.941;  -55.900; -343.000; -244.000
835.192; -128.900; -590.000; -533.000
835.443; -114.200; -419.000; -506.000
835.695;   52.200;  138.000;  -16.000
835.946;  -81.000; -608.000; -378.000
836.197; -172.300; -599.000; -622.000
836.448; -123.900; -528.000; -395.000
836.699;  -61.900; -253.000; -341.000
836.950;   79.500;   72.000;    7.000
837.201; -253.300;-1003.000; -987.000
837.452;  -22.100; -356.000; -170.000
837.703; -184.900; -791.000; -737.000
837.954;  -24.600; -205.000; -365.000
838.205; -161.600;-1029.000;-1008.000
838.456;  281.000; -196.000; -282.000
838.707;   32.800; -423.000; -519.000
838.958;   55.300; -634.000; -647.000
839.209;  416.700;   18.000;   40.000
839.460;  198.000; -439.000; -201.000
839.710;  317.300; -135.000; -297.000
839.961;  759.300;  730.000;  612.000
840.212;  553.700; -382.000; -497.000
840.462; 2055.000; -328.000; -277.000
840.713;30390.100; -571.000; -536.000
840.964; 9430.600;  -62.000; -143.000
841.214;  831.300; -384.000; -624.000
841.465;  934.700; -214.000; -141.000
841.715;  755.900; -417.000; -380.000
841.966; 1103.100; -746.000; -685.000
842.216;17028.100; -330.000; -431.000
842.466;49561.000; -169.000; -313.000
842.717; 1902.200; -964.000; -952.000
842.967;  523.400; -635.000; -641.000
843.217;  464.000;   20.000;   28.000
843.468;  187.100; -104.000; -132.000
843.718;  -58.300; -718.000; -726.000
843.968; -108.100; -837.000; -765.000
844.218;   87.400; -315.000; -262.000
844.469;  -60.100; -577.000; -561.000
844.719; -138.500; -537.000; -682.000
844.969; -124.600; -550.000; -580.000
845.219; -240.800; -814.000; -862.000
845.469;  -57.200; -392.000; -342.000
845.719; -204.300; -792.000; -884.000
845.969;   76.100;  119.000;  174.000
846.219; -184.400; -738.000; -720.000
846.469;  144.300;  464.000;  432.000
846.718;  -38.300; -115.000;   31.000
846.968; -162.000; -827.000; -827.000
847.218;  -31.700; -224.000; -371.000
847.468; -141.400; -586.000; -555.000
847.718; -242.600; -827.000; -798.000
847.967; -232.300; -826.000; -915.000
848.217;  -97.900; -449.000; -569.000
848.467;  -63.100; -405.000; -376.000
848.716; -171.000; -708.000; -725.000
848.966;   45.500; -372.000; -358.000
849.215;  -76.500; -428.000; -419.000
849.465; -105.500; -785.000; -615.000
849.714; -255.300;-1132.000;-1150.000
849.964;  -90.600; -551.000; -613.000
850.213;   14.600; -393.000; -355.000
850.463;  213.800;  137.000;  340.000
850.712;  -20.900; -542.000; -567.000
850.961;   43.500; -739.000; -678.000
851.211;  202.900; -513.000; -504.000
851.460;  277.100; -635.000; -650.000
851.709; 1048.800;  -25.000;   18.000
851.958;18690.400; -912.000; -750.000
852.208;17652.800; -859.000; -879.000
852.457;  696.800; -181.000;  -13.000
852.706;  138.200; -791.000; -823.000
852.955;   42.700; -507.000; -528.000
853.204;  -71.000; -521.000; -461.000
853.453; -117.200; -418.000; -458.000
853.702; -225.700; -660.000; -750.000
853.951; -133.300; -532.000; -520.000
854.200; -164.300; -613.000; -562.000
854.449; -206.400; -695.000; -661.000
854.698; -100.000; -340.000; -279.000
854.946;  -92.900; -181.000; -284.000
855.195; -224.000; -843.000; -868.000
855.444; -113.900; -395.000; -420.000
855.693; -165.100; -345.000; -432.000
855.941; -147.300; -387.000; -516.000
856.190;  -39.700; -256.000; -382.000
856.439; -180.900; -652.000; -703.000
856.687;  -22.900;  -99.000;  -72.000
856.936; -144.800; -621.000; -323.000
857.184; -309.500;-1067.000;-1020.000
857.433; -130.100; -423.000; -512.000
857.681; -260.700; -989.000; -953.000
857.930;  -45.200; -282.000; -433.000
858.178; -281.200; -856.000; -929.000
858.427; -219.700; -802.000; -781.000
858.675; -156.800; -377.000; -544.000
858.923; -127.600; -527.000; -819.000
859.172; -274.200;-1094.000;-1070.000
859.420; -101.700; -339.000; -239.000
859.668; -229.900; -624.000; -628.000
859.916;   18.100;  109.000;  115.000
860.164; -181.900; -699.000; -603.000
860.413;  469.200; -878.000; -696.000
860.661;  206.600; -709.000; -577.000
860.909; -106.300; -339.000; -325.000
861.157;  -90.800; -277.000; -444.000
861.405; -182.500; -534.000; -670.000
861.653;  106.800;  310.000;  310.000
861.901;  310.800; -543.000; -613.000
862.149;  -95.600; -801.000; -824.000
862.396;  -80.700; -297.000; -187.000
862.644; -107.600; -368.000; -347.000
862.892;   32.000;   98.000;  138.000
863.140; -163.500; -549.000; -530.000
863.388; -230.100; -815.000; -759.000
863.635; -192.900; -642.000; -601.000
863.883;   41.400;  231.000;  190.000
864.131; -168.000; -288.000; -357.000
864.378; -204.600; -675.000; -540.000
864.626; -159.300; -347.000; -415.000
864.873; -189.300; -556.000; -505.000
865.121; -239.500; -714.000; -799.000
865.368;  -18.700; -173.000;   75.000
865.616;  -19.200;  -33.000;  -40.000
865.863;  -94.900; -462.000; -506.000
866.111; -167.900; -795.000; -824.000
866.358;  127.800; -426.000; -420.000
866.605; 4758.800;  -64.000; -804.000
866.853; 3652.100; -621.000; -537.000
867.100;  -62.500; -728.000; -775.000
867.347; -122.400; -672.000; -611.000
867.594; -126.500; -740.000; -714.000
867.841;  189.500;   97.000;   17.000
868.089; -233.400; -746.000; -698.000
868.336; -122.600; -477.000; -420.000
868.583; -212.200; -637.000; -741.000
868.830;  -38.700; -131.000; -170.000
869.077; -276.700; -859.000; -787.000
869.324; -168.700; -502.000; -458.000
869.571; -184.100; -398.000; -430.000
869.818; -147.900; -485.000; -439.000
870.065; -172.900; -439.000; -513.000
870.311; -130.100; -456.000; -542.000
870.558; -130.300; -332.000; -311.000
870.805;  -88.800; -320.000; -384.000
871.052; -136.700; -494.000; -369.000
871.298;  -19.000; -204.000; -131.000
871.545;  -45.600; -151.000; -185.000
871.792;  -84.400; -173.000; -222.000
872.038;  -53.300;   43.000; -126.000
872.285; -146.000; -496.000; -387.000
872.532; -137.900; -357.000; -387.000
872.778;  128.400;  556.000;  403.000
873.025; -137.200; -384.000; -359.000
873.271;  127.000;  501.000;  578.000
873.517;   15.000; -133.000; -209.000
873.764;  -16.300; -193.000;  -80.000
874.010;  -80.700; -143.000; -230.000
874.257;   15.500;  123.000;   90.000
874.503; -217.700; -579.000; -479.000
874.749;  -19.300;   31.000;  275.000
874.995;  -42.800;  -80.000;  -20.000
875.242; -154.400; -540.000; -478.000
875.488; -170.000; -414.000; -439.000
875.734;  -46.000; -106.000; -234.000
875.980;  273.000; -872.000;-1032.000
876.226;  491.500; -157.000; -255.000
876.472;   49.000;  343.000;  237.000
876.718;  -23.900;  184.000;  158.000
876.964;  -18.000;   56.000;   55.000
877.210; -199.700; -547.000; -677.000
877.456; -208.300; -630.000; -557.000
877.702; -273.200; -821.000; -832.000
877.948; -142.900; -377.000; -497.000
878.193;  120.100;  361.000;  255.000
878.439; -125.800; -487.000; -472.000
878.685;  -98.500; -272.000; -343.000
878.931; -198.400; -618.000; -676.000
879.176; -102.300; -201.000; -201.000
879.422; -286.500; -933.000; -820.000
879.668;  202.100;   10.000;   79.000
879.913;  228.400;   53.000;  137.000
880.159;  -17.800; -112.000;  -17.000
880.404;  -57.300; -152.000; -162.000
880.650;   39.100;   91.000;  141.000
880.895; -232.700; -670.000; -710.000
881.141; -145.200; -454.000; -428.000
881.386; -229.000; -503.000; -658.000
881.631; -114.500; -311.000; -166.000
881.877;    3.600;  112.000;  -13.000
882.122; -184.700; -684.000; -600.000
882.367; -102.100; -136.000; -186.000
882.612;  -54.100;  -80.000; -176.000
882.858; -289.800; -877.000; -823.000
883.103;  -80.400; -297.000; -267.000
883.348; -234.400; -759.000; -852.000
883.593; -202.400; -677.000; -602.000
883.838;  -31.600; -311.000;  -24.000
884.083;  117.000;  353.000;  288.000
884.328;  -94.100; -564.000; -545.000
884.573;  -27.300; -196.000; -143.000
884.818;  334.600; -694.000; -531.000
885.063;  207.500; -348.000; -315.000
885.308; -122.500; -475.000; -398.000
885.553;   84.500;  245.000;  325.000
885.797; -189.600; -545.000; -615.000
886.042;  -28.100;    8.000;   58.000
886.287; -113.500; -253.000; -211.000
886.532;    7.300;   26.000;  204.000
886.776; -116.700; -407.000; -525.000
887.021; -195.400; -621.000; -574.000
887.265; -208.000; -685.000; -689.000
887.510; -189.700; -557.000; -496.000
887.755;  -91.600; -194.000; -164.000
887.999; -182.100; -552.000; -575.000
888.244;  -51.300;  -58.000;  161.000
888.488;  103.500;  371.000;  393.000
888.732; -150.100; -368.000; -520.000
888.977; -179.200; -622.000; -567.000
889.221; -255.800; -683.000; -659.000
889.465; -142.000; -422.000; -566.000
889.710;  -70.900;  -56.000; -299.000
889.954;   73.500;  579.000;  467.000
890.198; -209.600; -584.000; -707.000
890.442; -236.000; -716.000; -712.000
890.687; -254.000; -800.000; -753.000
890.931;  -80.900; -273.000; -210.000
891.175; -215.100; -502.000; -500.000
891.419;  -62.800; -105.000; -110.000
891.663; -102.200; -239.000; -112.000
891.907; -268.700; -801.000; -545.000
892.151; -279.400; -920.000; -815.000
892.395; -140.700; -274.000; -387.000
892.638;   33.300;  408.000;  291.000
892.882; -273.200; -780.000; -867.000
893.126;  143.200;  758.000;  558.000
893.370;  -76.900; -167.000; -168.000
893.614; -225.800; -714.000; -715.000
893.857; -107.300; -183.000; -197.000
894.101; -195.400; -527.000; -631.000
894.345;    7.300;  300.000;  150.000
894.588;  117.900;  569.000;  380.000
894.832;  -89.300; -178.000;  -84.000
895.075;  -75.500;   15.000;  -92.000
895.319; -150.100; -552.000; -420.000
895.563; -152.800; -413.000; -353.000
895.806; -196.900; -628.000; -741.000
896.049;  -83.500; -576.000; -368.000
896.293;  229.300;  527.000;  405.000
896.536; -120.100; -465.000; -468.000
896.779;  -49.000; -149.000;   -1.000
897.023; -221.900; -751.000; -714.000
897.266;   49.800;  325.000;  269.000
897.509; -292.000; -900.000; -901.000
897.752;  -22.500;  149.000;  171.000
897.996; -292.200; -972.000; -864.000
898.239;   32.200;  168.000;  102.000
898.482; -163.900; -431.000; -453.000
898.725;   -7.400;  101.000;   53.000
898.968; -244.200; -609.000; -744.000
899.211; -150.700; -513.000; -361.000
899.454; -201.100; -633.000; -539.000
899.697;  -40.300;   90.000;  -43.000
899.940; -253.000; -761.000; -757.000
900.182;  -95.900; -335.000; -405.000
900.425; -103.400; -150.000; -298.000
900.668;   32.600;  491.000;  350.000
900.911; -103.500; -292.000; -345.000
901.154;  -11.400;  141.000;   -3.000
901.396; -193.200; -407.000; -412.000
901.639; -187.100; -430.000; -496.000
901.882; -321.600; -790.000; -809.000
902.124;  -74.700;  -29.000; -143.000
902.367; -147.400; -315.000; -361.000
902.609; -164.900; -476.000; -453.000
902.852;  -61.200; -108.000; -260.000
903.094; -152.400; -458.000; -337.000
903.337;  -19.200;  -26.000;   53.000
903.579; -145.600; -228.000; -441.000
903.821; -278.600; -597.000; -744.000
904.064;  -28.200;   85.000;  127.000
904.306; -115.200; -126.000; -166.000
904.548; -111.400; -152.000; -366.000
904.790; -146.100; -195.000; -340.000
905.033; -183.900; -625.000; -577.000
905.275; -198.900; -513.000; -524.000
905.517;  168.400;  468.000;  256.000
905.759; -128.300; -667.000; -761.000
906.001; -112.400; -322.000; -369.000
906.243;  -77.000; -162.000; -224.000
906.485;  256.200; -265.000; -207.000
906.727;  126.000; -499.000; -542.000
906.969;   -7.600;  -30.000; -135.000
907.211;  230.600; -316.000; -382.000
907.453;  434.700; -188.000; -237.000
907.695;   48.300; -158.000; -385.000
907.936;  190.900;  818.000;  706.000
908.178;  -10.700;   92.000; -135.000
908.420;  -40.600; -111.000; -162.000
908.662; -194.300; -633.000; -682.000
908.903;  -52.800; -208.000; -123.000
909.145;  -36.400; -240.000; -305.000
909.386;   81.600;  315.000;  280.000
909.628;  103.200;  363.000;  397.000
909.870;   72.800;   29.000;  264.000
910.111; -152.700; -809.000; -949.000
910.353;  111.300; -123.000; -161.000
910.594;   12.700; -574.000; -606.000
910.835;  228.300; -265.000; -326.000
911.077;  286.400; -503.000; -604.000
911.318;  550.100; -505.000; -471.000
911.559;  868.800; -577.000; -880.000
911.801; 2707.100; -284.000; -280.000
912.042;23226.400;  -50.000; -159.000
912.283;48509.200;  404.000;  371.000
912.524; 5802.400; -396.000; -457.000
912.765;  898.700; -193.000;   79.000
913.006;  485.700; -307.000; -338.000
913.247;  151.300; -270.000; -290.000
913.488;   56.400;  -43.000;   30.000
913.729;  -87.500; -373.000; -373.000
913.970;  -40.000;  -96.000; -292.000
914.211;  -69.900; -160.000; -198.000
914.452;  -45.400; -118.000;  -11.000
914.693;  121.900;  510.000;  592.000
914.934;  117.200;  510.000;  440.000
915.175;  -38.000;   53.000;  -95.000
915.415;  -47.500; -137.000;   27.000
915.656;  -39.500;  -28.000;  192.000
915.897; -114.100; -252.000;  -82.000
916.137;  -52.600;   74.000;   -9.000
916.378; -186.300; -573.000; -517.000
916.619;  -97.800; -159.000;  -63.000
916.859;   45.900;  303.000;  330.000
917.100;  375.300; 1655.000; 1070.000
917.340;  190.100;  930.000;  728.000
917.581;  182.600;  965.000;  789.000
917.821;   26.500; -171.000;  143.000
918.061;   50.700; -199.000;  -72.000
918.302;  -51.900; -152.000; -211.000
918.542;   13.500;  -22.000;    3.000
918.782;  131.300;  369.000;  377.000
919.023;  289.400;  360.000;  427.000
919.263; 2630.100; 8131.000;  202.000
919.503; 1699.500; -137.000;  -54.000
919.743;  999.900;  390.000;  266.000
919.983;  384.700; -134.000;  -26.000
920.223;  198.300;  135.000;   14.000
920.463;  358.000;  631.000;  554.000
920.703;  296.400;   84.000;   39.000
920.943;  324.300; -110.000;   90.000
921.183;  430.100; -414.000; -405.000
921.423;  972.700;  307.000;  546.000
921.663; 1306.600; -174.000; -257.000
921.903; 3008.500;  237.000;  173.000
922.143;18048.500;  372.000;  389.000
922.383;60352.400;  158.000;  115.000
922.622;15722.700; -120.000;  -15.000
922.862; 1929.900;  796.000;  785.000
923.102;  792.400;  -51.000;   33.000
923.341;  335.600;   59.000;   74.000
923.581;  240.900;  450.000;  360.000
923.821;  124.400;  301.000;  398.000
924.060;  100.200;  351.000;  193.000
924.300;  -45.500;  -16.000; -128.000
924.539;   66.000;  584.000;  473.000
924.779;  123.200;  812.000;  597.000
925.018;  -27.500;  247.000;  353.000
925.257;   93.200;  595.000;  666.000
925.497;   24.600;  447.000;  412.000
925.736;  -66.100;  -35.000;  102.000
925.975;   82.700;  687.000;  669.000
926.214;  164.400;  907.000;  850.000
926.454;  130.700;  706.000;  757.000
926.693;    9.300;  419.000;  543.000
926.932;  158.300; 1021.000;  825.000
927.171;  252.200; 1107.000; 1044.000
927.410;  198.200; 1144.000;  967.000
927.649;  144.200;  924.000;  742.000
927.888;  102.400;  590.000;  564.000
928.127;   94.400;  680.000;  678.000
928.366;  162.800;  842.000;  826.000
928.605;  186.100;  831.000;  737.000
928.844;  522.000; 1451.000; 1393.000
929.083; 1119.400;  770.000;  613.000
929.321;  573.800; 1335.000; 1359.000
929.560;  248.000; 1158.000; 1122.000
929.799;   22.600;  574.000;  475.000
930.038;  282.000; 1025.000; 1394.000
930.276;  -22.800;  334.000;  397.000
930.515;   74.400;  827.000;  681.000
930.753;   23.200;  614.000;  589.000
930.992;   58.800;  664.000;  717.000
931.230;  109.100;  847.000;  847.000
931.469;  477.600; 2162.000;  892.000
931.707;  263.600;  840.000;  751.000
931.946;  246.000; 1278.000; 1344.000
932.184;  209.500; 1437.000; 1175.000
932.423;  164.100; 1265.000;  963.000
932.661;  264.300; 1296.000; 1428.000
932.899;  151.700;  987.000;  821.000
933.137;   89.600;  754.000;  564.000
933.376;  348.000; 1664.000; 1335.000
933.614;  393.000; 1759.000; 1196.000
933.852;  202.900; 1357.000; 1171.000
934.090;  373.600; 1722.000; 1747.000
934.328;  300.600; 1252.000; 1457.000
934.566;  245.300; 1431.000; 1110.000
934.804;  356.800; 1263.000; 1309.000
935.042; 1075.800; 1861.000; 1850.000
935.280; 4015.000; 2088.000; 2063.000
935.518; 3100.600; 2113.000; 2007.000
935.756;  716.200; 2481.000; 2316.000
935.994;  383.000; 1808.000; 1751.000
936.231;  774.400; 2890.000; 2950.000
936.469;  468.900; 2367.000; 2378.000
936.707;  448.800; 2220.000; 2167.000
936.945;  524.200; 2825.000; 2882.000
937.182;  528.900; 2679.000; 2741.000
937.420;  709.300; 3602.000; 3031.000
937.657;  866.900; 3365.000; 3478.000
937.895;  747.300; 3331.000; 3488.000
938.133;  768.600; 3540.000; 3528.000
938.370;  777.500; 3896.000; 4191.000
938.607;  906.100; 4488.000; 4205.000
938.845; 1234.500; 5587.000; 5549.000
939.082; 1072.100; 5387.000; 5177.000
939.320; 1205.200; 5799.000; 5728.000
939.557; 1417.400; 6549.000; 6491.000
939.794; 1586.200; 7285.000; 7097.000
940.031; 1945.800; 8421.000; 8368.000
940.269; 2288.400; 9552.000; 9107.000
940.506; 2348.700;10901.000;10507.000

