
Integration time [ms]: 100.000
Averaging Nr. [scans]: 40
Smoothing Nr. [pixels]: 0
Data measured with spectrometer [name]: 2101013U2
Wave   ;Sample   ;Dark     ;Reference
[nm]   ;[counts] ;[counts] ;[counts] 

394.013;   62.050; -450.257; -315.536
394.305;  206.748; -461.258; -419.536
394.596; 1014.821; -676.269; -527.514
394.887; 2471.263; -796.268; -654.518
395.178;  973.868;  145.736;   11.476
395.470;   77.479; -210.263; -356.526
395.761;  232.478;  305.734;  394.479
396.052;  295.323; -545.284; -306.489
396.343;  322.417; -557.276; -454.503
396.634;  143.811; -200.279; -290.497
396.926;  150.685; -618.268; -565.517
397.217;  135.721;   11.725;  -17.504
397.508;   59.737; -366.273; -154.507
397.799;   54.786; -555.279; -571.497
398.090;   11.805; -973.280; -902.495
398.381;  113.199;   11.708;  -11.473
398.672;   17.800; -585.292; -742.473
398.963;   66.992; -348.279; -373.498
399.254;  134.109;   54.709; -209.475
399.545;  -11.751;-1017.266; -883.520
399.836;   76.531; -407.277; -343.501
400.127;   49.475; -205.295; -209.468
400.418;   83.331; -423.274; -392.506
400.709;   77.043; -359.281; -333.493
401.000;   64.563; -268.291; -309.476
401.290;  112.788;  225.698;  115.545
401.581;   88.381; -166.286; -228.485
401.872;   29.423; -542.298; -486.462
402.163;   60.818; -313.296; -252.467
402.454;  119.710; -123.291; -163.475
402.744;  104.409; -844.297; -813.465
403.035;  529.115; -226.293;  -86.471
403.326;  665.028; -366.292; -384.474
403.617;  430.067;  204.701;  165.539
403.907;  253.504; -593.283; -679.490
404.198; 2249.843; -545.307; -599.446
404.489; 5843.308; -618.283; -588.491
404.779; 2087.416; -618.302; -660.456
405.070;  246.420;  -67.304; -174.451
405.360;  337.792; -259.293; -238.472
405.651;  378.227;  125.699;   98.542
405.942;  224.151;  209.714;  127.516
406.232;  333.091; -432.285; -413.487
406.523;  577.960;  641.706;  758.530
406.813;  129.203; -579.286; -644.484
407.104;  397.023;  261.708;  144.527
407.394;  228.444; -604.299; -591.462
407.685;  168.240;  336.715;  222.513
407.975;   85.307; -400.283; -382.490
408.265;  127.874; -134.289; -190.478
408.556;   84.482; -472.291; -459.475
408.846;  181.186;  474.706;  429.530
409.137;   85.807;   -1.288; -216.480
409.427;   74.065; -193.285; -271.487
409.717;   52.140; -776.273; -692.508
410.007;  159.759;    4.715; -170.486
410.298;  105.578; -360.295; -342.469
410.588;   70.188; -495.285; -510.486
410.878;   36.593; -792.287; -873.482
411.168;  135.350; -481.298; -478.463
411.459;  128.877; -295.283; -242.489
411.749;   69.405; -609.292; -507.474
412.039;   65.281; -755.289; -386.480
412.329;  204.774;   40.722;  132.501
412.619;  218.229;  -62.286; -148.485
412.909;  385.577;  639.711;  594.521
413.199;  354.656; -130.280; -251.495
413.490;  448.292;  521.710;  352.523
413.780;  147.135;-1013.279; -913.496
414.070;  340.393;  -46.276;  235.497
414.360;  385.320; -729.278; -666.498
414.650;  432.814; -726.288; -688.482
414.940;  515.459; -538.280; -441.496
415.230;  897.136;   50.712;   74.519
415.520; 5776.171;  155.730;   66.486
415.809;22771.442; -305.281; -125.493
416.099;17734.808; -388.277; -229.501
416.389; 4819.504;  435.726;  236.494
416.679; 2825.308;   91.738;   85.473
416.969;  519.023; -527.287; -503.483
417.259;  568.861;  341.721;  171.503
417.549;  685.916;  522.718;  318.508
417.838; 1558.287; -205.268; -147.518
418.128; 5066.448;  650.710;  492.522
418.418; 4247.421; -491.272; -579.509
418.708; 2916.079;    9.726;  -48.506
418.997;10697.125; -474.275; -480.505
419.287;11175.636; -733.273; -790.507
419.577;10340.376; -160.283; -123.489
419.866;34402.056; -588.277; -498.501
420.156;35857.017; -242.270;  -55.513
420.446; 6653.725; -112.263;  -26.526
420.735;  931.811; -376.271; -446.512
421.025;  866.944; 1830.722;  315.502
421.314;  761.484; -203.271; -226.512
421.604; 1738.330;   89.732;  233.484
421.893; 1026.780; -705.271; -602.511
422.183;  243.525; -487.263; -461.526
422.472;  377.107;  -36.271; -107.511
422.762;  451.030; -416.266; -379.521
423.051;  265.693; -916.276; -916.503
423.341;  326.238; -491.273; -439.507
423.630;  438.936; -121.265;   15.477
423.919;  397.350;   58.725;   49.495
424.209;  380.506;  -31.263;   56.473
424.498;  478.960;   68.732;  161.483
424.787; 1007.241; -535.267; -601.518
425.077; 3220.560;   34.735;   29.478
425.366; 4805.261; -734.262; -744.528
425.655; 9126.464;  639.727;  259.493
425.945;18765.814; -313.247; -268.554
426.234;10658.259;  117.741;  300.467
426.523; 4819.239;  -86.259; -350.534
426.812; 6587.076;  107.734;  159.480
427.101; 9533.302; -127.269; -323.515
427.390;12213.771;  -55.270;  -86.514
427.680; 3071.133; -624.257; -411.538
427.969;  508.444; -330.255; -301.540
428.258;  325.525; -385.257; -477.536
428.547;  553.675;  449.728;  397.490
428.836; 1412.435; -421.253; -398.543
429.125; 2040.466; -199.259;  -72.534
429.414;  894.532; -330.251; -294.548
429.703; 2946.832; -231.251; -213.548
429.992; 8731.711; -938.250; -828.549
430.281; 5766.668; -397.264; -331.524
430.570;  631.523;  -21.252;   32.454
430.859;  650.913;  279.741;  352.466
431.148;  508.960;  636.752;  631.446
431.437;  340.097;  391.748;  367.454
431.725;  166.751; -544.257; -481.536
432.014;  133.942; -845.253; -756.545
432.303;  422.709; -149.239; -105.569
432.592;  676.850; -460.263; -178.525
432.881; 1029.886; -601.248; -437.554
433.169; 5626.720; -343.255;  -61.540
433.458;11534.817;  445.765;  540.424
433.747; 4998.317; -397.261; -289.529
434.036;  998.510; -275.242; -280.564
434.324; 2004.673; -395.249; -379.551
434.613; 3415.379;   40.757;  159.437
434.902; 1235.599;  333.760;  439.433
435.190;  727.833;   75.761;  295.431
435.479;  401.586;  -52.245;   83.441
435.767;  145.944; -411.244; -427.561
436.056;  257.631; -340.242; -294.563
436.345;  374.577; -372.240; -223.568
436.633;  421.893;   60.750;  383.450
436.922;  306.804;  208.760;  414.432
437.210;  782.333; -194.236;    1.426
437.499; 2540.691; -583.235; -432.576
437.787; 2831.732; -339.236;  -10.574
438.075;  678.638;   56.761;  162.430
438.364;  908.216;  -44.238;  250.429
438.652;  552.919; -286.226; -138.592
438.941;  184.259;    3.770;  269.415
439.229;   28.245; -665.252; -466.545
439.517;   53.974; -160.234;  -85.577
439.806;    7.760; -501.225; -290.595
440.094;  209.431;  377.766;  650.421
440.382;  236.235; -653.233; -302.580
440.670;  261.990; -361.235; -285.576
440.959;   50.252; -347.223; -170.599
441.247;   85.145; -151.229; -109.587
441.535;  117.472; -266.235;   31.423
441.823;   58.604; -497.234; -305.578
442.111;  218.024;  173.771;  327.412
442.400;  647.710; -628.245; -335.559
442.688; 1790.306; -111.234; -620.579
442.976; 1333.613; -786.213; -450.617
443.264;  143.341; -324.224; -364.597
443.552;  148.970; -258.226;   51.408
443.840;  167.371;  602.765;  876.423
444.128;  124.984;  265.767;  269.420
444.416;   13.977; -694.228; -312.588
444.704;   33.956; -465.219;  -92.605
444.992;   96.573;   -0.226;  240.407
445.280;   70.309; -517.230;  -94.585
445.568;   59.392; -694.212; -396.618
445.856;  424.615; -174.221;  357.398
446.143;  938.027;  -54.220;   -7.604
446.431;  782.455;  -25.228;  625.411
446.719;  276.750;  489.783;  675.391
447.007;  199.679;  481.769;  705.416
447.295;  212.574;  597.777;  871.402
447.583;  108.893; -464.229;  -34.587
447.870;  167.187; -434.221; -202.601
448.158;  494.808; -104.230;  129.415
448.446;  381.403; -800.219; -338.604
448.733;  195.693;   13.776;  269.403
449.021;  290.041;   60.788;  341.382
449.309;  199.331; -296.210;  208.379
449.596;  229.446;  128.783;   59.392
449.884;  163.281; -571.222; -325.600
450.172;  139.561; -756.227; -406.590
450.459;  416.672;  645.786;  780.387
450.747; 2157.120; -411.218; -147.608
451.034; 6809.581;  493.772;  889.411
451.322; 5613.400; -413.214; -170.614
451.609;  504.769;  292.777;  508.403
451.897;  542.193; -550.203; -183.634
452.184; 1646.624; -622.223; -400.598
452.472; 1608.002;   97.792;  269.375
452.759;  361.804;  512.781;  864.395
453.047;  138.839; -407.212; -125.617
453.334;  106.212; -732.219; -216.606
453.621;  106.602; -438.214; -161.615
453.909;  141.285;   13.796;  384.368
454.196;  127.730; -299.199; -123.641
454.483;  225.156;  317.798;  540.364
454.771;  152.005; -215.208;  196.374
455.058;   58.334; -316.207;  102.374
455.345;  103.784;   71.807;  344.347
455.632;  107.962; -128.207;  235.373
455.919;   56.227;  -82.196;  182.354
456.207;  -46.640; -774.198; -450.642
456.494;    2.568; -475.200;  -66.639
456.781;   20.902; -399.202; -198.635
457.068;   75.493; -253.206;  -29.628
457.355;    2.444; -698.206; -401.629
457.642;   -0.375; -552.205; -290.630
457.929;    7.626; -778.194; -417.651
458.216;   47.639; -575.212; -354.617
458.503;  212.880; -173.193;  -19.652
458.790;  212.328; -864.208; -630.625
459.077;  267.257;  -77.202;  110.364
459.364;  762.869; -350.195; -210.649
459.651; 1555.916;  -46.206;  220.372
459.938;  751.469; -864.209; -665.623
460.225;  183.735;  132.799;  276.363
460.512;  -33.276; -836.197; -688.645
460.799;  120.119;  -32.218;  320.392
461.086;   91.347; -370.200; -251.640
461.372;   75.260; -509.198; -279.642
461.659;  128.078; -165.196;  108.354
461.946;   95.729; -445.193;  -54.651
462.233;  252.445;  842.800;  888.361
462.519;  335.942; -814.201; -464.639
462.806;  944.775; -768.197; -497.645
463.093;  821.474; -445.191;  -66.656
463.380;  -18.085; -920.186; -824.664
463.666;   72.927; -259.197;  -18.646
463.953;   84.589; -406.195; -243.648
464.239;  184.939; -173.195;  -77.648
464.526;  410.599;  413.806;  743.350
464.813;  362.711; -565.190; -304.658
465.099;  375.930;  606.807;  607.348
465.386;  364.409;  903.807;  921.348
465.672;   51.325; -694.197; -522.645
465.959;   42.503; -598.188; -520.662
466.245;   27.834; -468.193; -359.652
466.532;  116.436; -109.195;   63.352
466.818;   87.940; -357.186; -216.664
467.104;   25.804; -488.182; -415.672
467.391;   -8.113; -628.189; -459.658
467.677;   49.093; -289.186;    9.335
467.964;   26.269; -682.189; -471.660
468.250;   77.271; -331.186; -160.665
468.536;  111.289;   90.811;  180.341
468.822;  -17.943; -821.184; -574.668
469.109;  155.709;  351.827;  471.311
469.395;  214.843;  729.808;  787.346
469.681;  212.692;   46.811;  156.341
469.967; 1156.621; -699.188; -382.660
470.254; 2485.704; -494.188; -306.662
470.540; 1644.902; -601.196; -476.646
470.826;  217.865; -488.181; -397.675
471.112;  280.186;  288.816;  113.331
471.398;   81.115; -253.183;  -58.670
471.684;   46.968; -626.177; -447.680
471.970;    8.894; -918.180; -981.675
472.256;   36.667; -521.192; -441.654
472.542;   32.419; -499.171; -434.691
472.828;   21.175; -743.182; -607.672
473.114;   49.212; -380.166; -283.700
473.400;   35.159; -504.175; -293.684
473.686;   59.094; -452.166; -400.701
473.972;   65.749; -230.174; -131.687
474.258;  -42.441; -925.173; -843.689
474.544;  180.460; -183.178;   -2.679
474.830;  261.686;  -65.175;   45.316
475.116;  404.312; -123.190; -196.658
475.401;  568.996; -558.180; -467.676
475.687;  195.120; -725.180; -718.676
475.973;   19.333; -673.181; -770.673
476.259;  270.038;  736.825;  764.315
476.544;  351.876; -539.176; -437.682
476.830;  720.241; -398.172; -322.690
477.116;  605.675; -430.177; -336.682
477.401;  147.296;  346.820;  358.324
477.687;   -6.391; -289.175; -405.684
477.973;   52.911;   21.819;   28.326
478.258;    0.489; -448.163; -348.706
478.544;   48.976;   21.815;   61.334
478.829;  -45.050; -818.171; -738.692
479.115;  -29.385; -749.172; -651.690
479.401;   -2.906; -444.174; -449.686
479.686;   40.219; -253.180;  -74.676
479.972;  -44.035; -886.178; -776.680
480.257;   51.214; -258.166;  -65.700
480.542;  -11.021; -614.170; -469.693
480.828;  248.358; 1288.824; 1392.317
481.113;  -30.045; -464.176; -426.683
481.399;    9.712; -236.161; -202.711
481.684;  -43.262; -620.166; -462.700
481.969;   19.200; -158.159;  -73.713
482.255;   -2.036; -439.169; -285.695
482.540;   -1.085; -569.178; -441.680
482.825;   -1.365; -395.187; -404.663
483.110;   79.867;  -85.169; -105.696
483.396;  147.772; -840.157; -652.718
483.681;  436.249;  543.826;  730.313
483.966;  131.944; -696.160; -700.712
484.251;   11.173; -404.174; -310.687
484.536;   13.599; -356.165; -378.703
484.822;   33.851; -205.173; -218.687
485.107;  -20.291; -599.152; -502.726
485.392;  138.979;  662.836;  541.296
485.677;   83.352;  354.832;  163.302
485.962;  115.544;  160.843;  270.283
486.247;   93.971;  -14.162;   -8.707
486.532;   33.315; -178.166; -325.701
486.817;  164.406;  381.839;  431.291
487.102;  115.642; -453.154; -514.722
487.387;  559.248; -637.156; -652.718
487.672;  999.584; -154.164;  -38.705
487.957;  650.339; -394.160; -286.711
488.241;  171.351; -290.150; -314.729
488.526;  644.535; -280.152; -148.726
488.811; 1031.842; -881.177; -818.680
489.096;  798.420; -666.154; -702.723
489.381;  454.432;    3.847;  162.275
489.666;  318.112; -428.161; -510.710
489.950;  174.723;  558.846;  627.277
490.235;  -35.079; -480.151; -458.728
490.520;  -29.689; -756.161; -723.710
490.804;  -60.450; -827.156; -736.719
491.089;   -7.459; -469.149; -299.732
491.374;   36.908; -132.164;  -75.704
491.658;    1.002; -817.147; -717.735
491.943;  186.765; -657.152; -609.727
492.227;  288.538; -178.155;  -38.721
492.512;   55.844; -294.157; -341.717
492.797;  -62.390; -713.149; -716.731
493.081;  -46.645; -588.147; -598.735
493.366;  -41.838; -751.161; -635.711
493.650;  201.157;  831.859;  917.254
493.935;   18.477; -648.147; -447.734
494.219;  -37.205; -778.142; -687.743
494.503;  -32.695; -585.150; -487.730
494.788;   52.560;   46.842;   74.285
495.072;  106.302;  184.850;  434.271
495.356;  184.894; -463.148; -343.733
495.641;  456.387; -812.146; -736.736
495.925;  440.555; -976.156; -903.719
496.209;   68.065; -599.149; -451.732
496.494;  -30.230; -763.142; -544.744
496.778;   20.167; -364.154; -360.722
497.062;  -65.320; -819.156; -627.719
497.346;  -25.235; -869.160; -640.711
497.631;  130.773;  580.852;  560.266
497.915;   81.472;  -64.145;  175.261
498.199;   59.172; -341.157; -277.718
498.483;   44.634; -562.152; -508.725
498.767;  180.203;  301.850;  300.271
499.051;  169.338; -126.149; -100.732
499.335;   30.086; -693.149; -739.731
499.619;  -32.418; -381.129; -423.767
499.903;   39.362; -272.155;  -65.721
500.187;   35.349; -588.153; -316.724
500.471;   25.389; -796.152; -595.727
500.755;  124.136;   62.839;  -96.710
501.039;   32.812; -270.155; -357.721
501.323;   85.009;  -21.141;  264.254
501.607;   52.789; -447.163; -503.706
501.891;    0.623; -607.156; -512.718
502.174;  -13.167; -726.144; -585.741
502.458;   82.568;   89.849;  370.273
502.742;   28.983; -180.138; -191.751
503.026;   82.026; -412.147; -254.734
503.310;  141.624; -437.159; -375.713
503.593;  108.778; -464.147; -325.735
503.877;  129.422; -232.133; -156.760
504.161;  183.027;    2.847;  -50.724
504.444;  127.288; -841.158; -710.716
504.728;  404.332; -487.164; -522.704
505.012;  642.050; -257.150;  -76.729
505.295;  498.962; -417.161; -212.711
505.579;  474.655; -256.156; -496.719
505.862;  651.543; -555.145; -333.738
506.146;  611.377; -681.159; -758.714
506.429;  398.077;  568.841;  461.286
506.713;   56.672; -732.151; -667.728
506.996;  298.392;   90.846;  295.278
507.280;  308.427; -633.165; -474.703
507.563;  210.586; -469.155; -261.721
507.847;   75.675; -423.153; -112.724
508.130;   82.138; -665.161; -456.711
508.413;  104.334; -758.167; -577.700
508.697;  212.735; -151.167;   12.300
508.980;  139.402; -422.153; -312.724
509.263;    4.482; -466.155; -450.720
509.547;   32.650; -124.150;   82.271
509.830;   53.090; -172.160;  140.289
510.113;   74.904;  128.844;  298.281
510.396;   46.832; -530.152; -300.725
510.680;  225.320; -818.145; -812.738
510.963;  824.446;  184.846;  180.277
511.246;  752.182; -493.150; -357.730
511.529;  287.649; -482.145;  -83.739
511.812;  330.619; -250.134;   10.241
512.095;  213.544; -740.151; -396.728
512.378;   69.707; -317.147; -245.736
512.661;   22.465; -703.137; -623.753
512.944;   22.472; -750.142; -637.744
513.227;   70.987; -170.137; -171.752
513.510;   35.733; -479.144; -671.741
513.793;   35.238; -485.140; -435.747
514.076;  134.452;  -43.127;  -39.771
514.359;  105.841; -294.149; -135.732
514.642;   80.100; -442.142; -567.744
514.925;  683.412;  581.860;  561.253
515.208;  837.765; -498.134; -443.758
515.491;  577.354; -276.133; -182.761
515.773;  339.661; -410.143; -337.742
516.056; 1807.171;  249.864;  409.246
516.339; 2525.525; -754.136; -652.755
516.622; 2008.055; -518.150; -488.730
516.904; 1532.143;  882.857;  975.257
517.187;  711.586; -730.138; -523.752
517.470;  399.967; -568.143; -510.743
517.752;  387.153; -624.136; -470.756
518.035;  306.674; -708.139; -725.749
518.318;  311.050; -799.136; -744.755
518.600; 2039.357; -300.132; -325.762
518.883; 2857.649;  310.858;   88.256
519.165; 1408.079; -585.138; -426.751
519.448;  406.307;  -61.132;  -19.762
519.730;  203.810; -573.126; -415.773
520.013;  351.050;  588.867;  664.240
520.295; 1062.146;  -94.134;  -15.759
520.578; 2291.270; -335.131; -305.764
520.860; 2530.357; -254.132;   56.238
521.143; 1280.755; -763.135; -584.756
521.425;  491.747; -251.125; -279.775
521.707;  616.228; -622.127; -380.771
521.990; 1573.103; -199.127;  167.229
522.272; 1752.415; -116.140;   -4.748
522.554;  877.387; -237.143; -157.742
522.836;  432.193;  -24.134;   99.241
523.119;  253.025; -496.148; -189.734
523.401;  163.552; -448.130; -314.766
523.683;   67.941; -865.137; -693.753
523.965;  253.609;  408.862;  260.248
524.247;  249.818;   54.878;  170.220
524.529;  203.770; -451.134; -367.759
524.812;  344.628;   -3.130;  191.234
525.094;  762.108; -773.138; -631.751
525.376; 1173.506; -143.124;   78.223
525.658;  725.673; -441.136; -339.754
525.940;   11.167; -805.131; -671.764
526.222;   51.101; -188.136;  -88.755
526.504;  137.640; -190.131;   32.237
526.786;  218.698; -960.133; -647.760
527.068;  372.112; -124.123;  -67.778
527.349;  178.894; -865.137; -774.754
527.631;  144.407; -137.132;   22.238
527.913;  114.827; -664.127; -450.771
528.195;  128.066; -761.125; -639.774
528.477;  213.240;  -93.134;  -30.758
528.759;  115.353; -648.130; -522.766
529.040;   43.736; -569.123; -293.778
529.322;   52.618; -235.125;  -10.774
529.604;  157.181;  -47.130;   93.233
529.886;  148.660; -546.126; -302.773
530.167;  140.922;  232.870;  192.235
530.449;   49.056;    1.853;   63.265
530.731;   15.142; -572.122; -459.779
531.012;   48.038; -513.120; -216.784
531.294;   59.926; -118.116;  -43.792
531.575;  146.597;  290.875;  538.225
531.857;   52.535; -548.135; -266.757
532.138;  103.108; -113.141;   40.254
532.420;  190.482;  294.865;  403.244
532.701;  253.200; -722.133; -751.760
532.983;  387.203;  232.867;  182.239
533.264;  150.183; -243.126;  175.228
533.546;  -22.874; -491.136; -508.755
533.827;   66.122;  173.867;   -1.759
534.109;   60.235; -352.135;  -80.757
534.390;  112.261; -725.132; -582.762
534.671;  251.631; -270.135;  -82.756
534.953;  147.263; -751.123; -611.779
535.234;   33.537; -426.117; -255.789
535.515;  -76.754; -891.119; -735.785
535.796;  -10.327; -431.128; -193.770
536.078; -111.294;-1050.124; -904.777
536.359;    6.189;  -22.123;    3.221
536.640;  -13.033; -480.125; -197.774
536.921;  162.386;  225.871;  143.232
537.202;  335.155;  -87.138;  -16.751
537.483;  404.969;  251.869;  377.236
537.764;  156.172;   17.870;   98.235
538.045;  -50.885; -543.134; -371.758
538.326;  -25.488; -596.129; -447.768
538.607;    4.729; -686.127; -476.771
538.888;  161.979;   98.879;    5.218
539.169;  171.674; -704.122; -535.781
539.450;  329.585;  236.871;   16.233
539.731;  224.408; -361.121; -182.783
540.012;  132.313;  199.880;  412.216
540.293;   90.801;   82.876;  158.224
540.574;    8.797; -895.113; -717.796
540.855;  452.382;  435.879;  377.218
541.136;  520.046;   47.878;  139.220
541.416;  260.079; -161.130; -220.766
541.697;  162.015; -274.131; -170.763
541.978;  917.484; -270.135; -315.757
542.259; 1153.503; -211.127; -236.771
542.539;  564.620; -191.116; -186.790
542.820;  199.222;  461.875;  480.225
543.101;  140.821;  -52.145;  -77.738
543.381;   30.378; -638.127; -591.771
543.662;  249.501;  159.873; -254.771
543.942;  504.674; -751.127; -830.770
544.223;  936.873;  193.878;  161.219
544.504;  623.481; -275.124; -182.777
544.784;  528.334; -592.126; -408.773
545.065; 1486.474;  104.884; -254.791
545.345; 1785.921;  227.881;   14.215
545.626; 1156.071;  -14.113; -108.796
545.906;  761.847;   77.869;   98.235
546.186;  320.114;   92.874;  -95.773
546.467;  181.008;   99.877;  -95.778
546.747;  297.645;  264.884;  327.210
547.027;  342.554;   91.876;  111.223
547.308;  279.998; -376.127; -530.770
547.588;  365.463;  299.871;  371.232
547.868;  183.223;  458.870;  588.235
548.149;  177.556;  609.885;  593.207
548.429;   96.927; -347.127; -299.771
548.709;  152.238; -645.120; -461.784
548.989;  403.706;   84.882;   88.213
549.269; 1836.331;   10.868;  139.239
549.550; 4148.212;  215.877;  117.222
549.830; 3724.239; -758.111; -556.799
550.110;  756.421; -468.110; -320.801
550.390;  727.993; -128.122;  -56.779
550.670;  970.992; -868.114; -783.795
550.950;  693.156; -509.121; -471.782
551.230;  184.977;  549.879;  460.218
551.510;    2.805; -381.121; -326.782
551.790;   23.654; -173.109; -127.803
552.070;  242.283;  940.877; 1181.223
552.350;  357.850; -492.119; -377.786
552.630;  496.225;   -2.121;   77.219
552.909;  295.900;  181.884;   73.209
553.189;  207.187;  -49.132;   33.237
553.469;  134.175; -703.119; -514.786
553.749;  152.430; -469.127; -357.772
554.029;  142.691;   33.883;  -24.790
554.308;  116.110; -154.115;  -37.794
554.588;   61.322; -196.128; -204.770
554.868;   64.382; -366.121;  -47.782
555.147;  139.708; -114.115;  -46.793
555.427;  516.652; -260.116; -250.792
555.707; 3353.631; -284.115; -200.793
555.986; 4014.517; -719.111; -538.800
556.266; 2142.069;   23.884;   72.210
556.546;   89.480; -888.121; -675.782
556.825;  206.265; -657.114; -556.794
557.105; 1531.520; -125.128;   17.230
557.384; 1814.998;  122.884;  187.209
557.664;  680.226; -717.116; -508.792
557.943;   77.331; -557.121; -411.782
558.222;  138.809; -345.118; -344.788
558.502;  226.259; -116.115;  -76.793
558.781;  439.030;  194.885;  499.208
559.061;  342.458; -232.118; -227.788
559.340;  266.038;  302.883;  353.211
559.619;  606.894;   93.884;  148.210
559.899;  857.315; -239.117; -266.789
560.178;  783.409; -778.115; -593.793
560.457; 2718.792; -623.117; -562.790
560.736; 3748.418; -472.111; -482.800
561.015; 2487.018; -500.128; -502.769
561.295;  356.948;  180.893;  215.193
561.574;  320.531;  119.885;  116.207
561.853;  461.933;  274.891;  303.197
562.132;  441.336;  -45.114;  182.206
562.411;  402.901;  396.879;  553.219
562.690;  113.254; -592.115; -458.792
562.969;  134.378;  472.888;  630.203
563.248;  505.098; 2966.878; 2487.219
563.527;  244.192; -290.111; -408.800
563.806;  313.227; -650.127; -521.771
564.085;  343.313; -297.105; -206.810
564.364;  192.418; -594.117; -405.790
564.643;  443.401; -276.121; -223.781
564.922; 1600.202;  221.890;  397.198
565.201; 1578.731; -640.109; -700.803
565.479;  689.203; -297.115; -219.792
565.758;  257.245; -810.128; -712.770
566.037;  406.207; -155.109; -100.803
566.316;  208.174; -286.116;  -28.791
566.595;   36.606;  -17.115;  -12.793
566.873;   87.369; -166.111;  -79.801
567.152;  -56.798; -490.113; -590.797
567.431;   13.845; -113.116;    6.210
567.709;   12.324; -344.107; -212.807
567.988;  205.989; -810.114; -769.794
568.266;  479.856; -160.115;  -68.793
568.545;  334.634; -644.100; -514.819
568.824;  505.677;  160.885;  356.208
569.102;  448.464; -351.114; -235.794
569.381;  189.602; -492.116; -407.792
569.659;  -49.301; -553.113; -553.796
569.938;   38.722; -743.122; -465.780
570.216;  104.859; -225.109; -225.804
570.494;  -36.608; -632.114; -572.795
570.773;   36.105;  202.879;  114.218
571.051;  -15.939; -373.123; -357.778
571.330;   53.247; -221.113; -174.796
571.608;   29.202; -181.098; -173.823
571.886;  -73.238; -671.111; -581.799
572.164;  -60.668; -739.121; -621.782
572.443;  -35.658; -562.105; -512.811
572.721;  -31.908; -399.117; -289.790
572.999;  -23.814; -280.117; -168.788
573.277;   95.285;  379.894;  620.191
573.555;  252.212;   94.894;   37.190
573.834; 1116.660;  -86.117; -114.788
574.112; 1354.951;  880.893;  811.193
574.390;  402.044; -143.111;  -96.801
574.668;   -4.246;  -91.112;  -61.797
574.946;  -19.312; -165.106; -187.810
575.224;    5.930;   71.891;  -16.803
575.502;  -17.403; -200.116; -204.791
575.780;  -86.395; -767.112; -829.798
576.058;  204.668; 1589.889; 1004.200
576.336;  -22.577; -210.110; -129.801
576.614;  -60.220; -511.112; -340.798
576.891;   19.810; -711.115; -823.794
577.169;  418.292; -158.108; -285.805
577.447;  490.050;  169.893;  202.193
577.725;  254.984;  629.888;  854.201
578.003;    7.857;  -71.112; -371.798
578.280;   91.901; -208.104; -242.812
578.558;   49.934; -450.115; -422.793
578.836;  120.742; -210.114; -145.795
579.114;   53.578; -630.112; -670.797
579.391;   73.587;   -6.117;  -18.789
579.669;  -73.839; -595.114; -704.794
579.947;  133.697; -326.107; -127.806
580.224;  266.822; -692.107; -524.806
580.502;  265.351;  127.893;   76.193
580.779;   22.368;  -42.117;   75.210
581.057;  -71.765; -584.109; -470.804
581.334;  -95.835; -726.102; -695.815
581.612;   35.113;   54.895;  511.190
581.889;  -18.322;  -83.101; -129.818
582.167;  -26.358; -298.099; -190.821
582.444; -105.877; -845.102; -814.817
582.721;  108.549;  657.899;  715.183
582.999;   37.990; -326.100; -167.821
583.276;  441.140; -812.123; -713.779
583.553;  575.568; -364.102; -294.816
583.831;  180.847; -607.104; -631.812
584.108;   52.640;  349.892;  174.195
584.385;   16.190; -122.102;  -98.815
584.662;  -64.355; -651.111; -828.801
584.940;   38.894;  204.889;  204.199
585.217;   -8.451;  -73.113; -303.796
585.494;   33.228;   71.890;  118.198
585.771;  180.010; -250.109; -354.804
586.048;  433.298; -196.113;  -76.796
586.325;  259.322; -721.110; -773.801
586.602;   88.126;  230.896;  213.188
586.879;  -27.189; -499.100; -580.820
587.156;   40.464; -156.105; -331.810
587.433;  -46.929; -701.102; -667.817
587.710;   64.880;  152.888;  234.202
587.987;  275.444; -264.105; -236.811
588.264;  719.832;  315.888;  387.202
588.541; 1237.403;  -61.104;   26.187
588.818; 2375.137;   72.892;  171.196
589.095; 2083.124; -163.104; -174.812
589.371;  336.458; -459.109; -414.804
589.648;    0.426; -581.107; -437.807
589.925;   28.368; -517.114; -621.795
590.202;   -2.570; -741.112; -607.798
590.478;   70.221; -166.105;  -73.811
590.755;  221.593; -241.108; -132.806
591.032; 2113.124; -741.110; -699.802
591.308; 2927.966; -732.094; -790.831
591.585; 1526.024; -573.110; -560.802
591.862;  100.147;-1056.102; -950.817
592.138;   46.566; -475.108; -474.805
592.415;  128.177; -486.104; -495.813
592.691; 1315.875;  460.896;  518.188
592.968; 1679.079; -208.098; -123.824
593.244;  798.495; -695.116; -595.790
593.521;   58.923; -105.102;  -42.817
593.797;  -18.031; -810.122; -720.780
594.074;  282.716; -611.096; -588.826
594.350;  600.377;  828.905;  729.172
594.626;  272.470; -303.111; -283.801
594.903;   76.498; -643.101; -645.817
595.179;  168.855;  243.896;  418.187
595.455;   14.877; -136.107; -150.807
595.731;    6.157;  -19.103;  -38.814
596.008;  -39.336; -464.111; -434.800
596.284;   15.214; -187.100; -242.820
596.560;   50.973; -501.093; -493.833
596.836;  168.391; -173.105;  -70.810
597.112;  288.892; -582.108; -437.805
597.388;  238.339;  -49.097;  -48.826
597.665;   90.576;  437.887;  530.203
597.941;  -69.349; -572.089; -658.839
598.217;    7.927; -323.110; -293.802
598.493;  235.437;   61.891; -204.804
598.769;  435.283; -175.100;  -50.819
599.045;  261.620; -490.108; -562.806
599.321;   39.913; -193.100; -261.820
599.597;  111.411; -355.109; -476.804
599.872;  409.203;  409.896;  429.187
600.148;  305.391;  -61.097; -172.826
600.424;  259.874;   91.893;  202.193
600.700;  197.852; -170.107; -280.807
600.976;   83.235; -442.097; -464.825
601.252;  202.183; -226.109; -272.803
601.527;  175.129; -833.104; -840.813
601.803;  133.447; -453.105; -404.812
602.079;  160.058; -124.100; -118.819
602.354;  506.207; -620.092; -531.835
602.630;  707.549; -140.113; -482.796
602.906; 2003.428; -910.101; -863.818
603.181; 5790.675; -627.119; -534.786
603.457; 4906.288;   98.903; -278.826
603.733;  725.409; -605.120; -626.783
604.008;  856.913; -245.106; -164.810
604.284; 2671.175; -636.101; -580.817
604.559; 2340.134;   -3.112;  -42.799
604.835;  430.666; -163.105; -225.810
605.110;  352.893; -732.099; -892.821
605.385;  626.800;  224.907;  267.167
605.661;  543.305; -625.095; -729.829
605.936;  979.120; -664.108; -737.806
606.211;  856.939;  -17.103; -170.815
606.487;  157.463; -329.114; -376.794
606.762;   -5.925; -791.119; -745.786
607.037;  -23.809; -501.105; -433.810
607.313;  -59.477; -589.096; -574.828
607.588;   -5.212; -375.106; -137.810
607.863;   29.528;  -28.101; -143.818
608.138;  171.001;  513.890;  516.198
608.413;   -0.853; -576.099; -592.822
608.688;   43.391; -203.108; -267.805
608.964;  164.032; -509.106; -218.809
609.239;  204.889; -107.105; -212.810
609.514;  214.821;  281.895;  240.188
609.789;  558.751; -187.104; -716.812
610.064;  752.622; -435.096; -609.827
610.339;  746.233; -855.109; -799.804
610.614;  998.113; -131.100; -315.820
610.889;  549.747;  215.895;  107.188
611.163;   22.472; -407.104; -591.812
611.438;   75.614;   81.886; -167.794
611.713;  -15.000; -467.101; -499.817
611.988;   27.327; -144.101; -328.818
612.263;  -37.835; -771.102; -717.815
612.538;  188.148;  385.887;  251.204
612.812;  133.164; -832.100; -911.820
613.087;   99.577; -358.098; -338.823
613.362;  -56.798; -497.107; -557.807
613.637;   36.860;  261.897;  138.186
613.911;   -9.317; -256.092; -345.835
614.186;  100.425; -249.107; -292.807
614.460;  556.025; -842.081; -758.854
614.735;  661.124;  -55.087;  -17.843
615.010;  138.264;   43.912;  -82.841
615.284;  235.166;  360.892;  246.195
615.559;  301.732; -792.092; -955.835
615.833;  268.445;  -76.099;  -87.822
616.108;  -14.707; -225.090; -390.837
616.382;  122.951;  274.913;  402.156
616.656;  131.019; -241.090; -232.837
616.931;  431.495; -785.099; -700.822
617.205;  910.830; -973.104; -979.813
617.480;  824.395;  -91.125;    6.225
617.754;  136.918; -396.125; -128.774
618.028;    9.964; -369.129; -382.768
618.302;   49.139;   73.892;  -25.805
618.577;  -46.389; -371.103; -518.815
618.851;  -63.245; -399.109; -600.803
619.125;  -47.380; -335.134; -378.759
619.399;  -30.670; -244.104; -374.813
619.673;  -56.622; -330.115; -515.792
619.947;  -56.308; -333.114; -448.795
620.222;  -18.029; -198.110; -204.801
620.496;  -16.443;  -47.121;  -96.782
620.770;   -3.152; -187.122;  -93.781
621.044;  176.089;  323.895;  346.190
621.318;  648.584; -653.120; -614.783
621.592;  566.482; -430.121; -409.783
621.866;  275.210; -476.112; -572.799
622.140;   18.446; -207.116; -356.791
622.413;   56.264;  138.889;  112.200
622.687;  -48.250; -746.101; -492.817
622.961;    1.489; -130.108; -143.805
623.235;  -67.610; -633.111; -661.800
623.509; -108.929; -816.105; -848.811
623.783;   11.948;  -12.107;   48.193
624.056;  -29.340; -254.120; -280.783
624.330;   51.004;   63.888;   -3.797
624.604;   30.043; -271.116; -355.790
624.877;   62.600;  180.890;   26.198
625.151;   24.712; -249.114; -238.794
625.425;  -36.143; -150.103; -283.814
625.698;  -59.005; -367.119; -374.785
625.972; -106.672; -799.110; -765.802
626.245;   80.145;  685.884;  484.210
626.519;  -54.936; -426.120; -340.784
626.792;  -29.399; -192.107; -380.807
627.066;  -89.059; -485.122; -662.779
627.339; -102.726; -736.110; -663.802
627.613;   24.963;  351.880;  148.216
627.886;   55.629;  187.891; -612.803
628.160;  -10.691;  312.880; -161.783
628.433;  -85.477; -695.125; -703.775
628.706;  -86.011; -517.120; -615.784
628.979;   20.504;  296.876;  117.223
629.253;  -89.226; -785.119; -833.786
629.526;  302.158; -334.126; -253.772
629.799;  269.011; -641.123; -479.778
630.072;  111.490; -497.128; -516.769
630.346;  -81.730;-1115.116;-1080.790
630.619;  381.102; -467.107; -545.808
630.892;  536.066;  709.889;  593.200
631.165;  308.280;  790.896;  679.187
631.438;  -87.293;-1092.112;-1055.798
631.711;   41.215;  453.877;  257.221
631.984;  -57.010; -523.117; -624.789
632.257;  -73.513; -636.117; -681.789
632.530;  -60.130; -412.119; -433.785
632.803;   24.810; -109.115;    7.207
633.076;  -72.142; -360.123; -422.777
633.349;   13.519;  173.872;  121.231
633.622;  -44.331; -187.119; -240.785
633.895; -123.565; -903.120; -823.783
634.167;  -66.840; -496.126; -525.773
634.440;   -7.299;  -19.116; -137.792
634.713;  -10.352;  -22.119; -120.786
634.986;   85.659;  593.871;  453.233
635.258;  -86.867; -507.115; -597.793
635.531;   98.808;  742.882; -343.788
635.804;  -39.086; -303.117; -318.789
636.077;  -89.252; -830.116; -852.791
636.349;   -7.644; -586.115; -474.793
636.622;  371.357; 1695.874; 1392.228
636.894;  194.715; -474.120; -909.784
637.167;  114.401; -836.127; -789.771
637.439;   11.973; -278.128; -213.770
637.712;  -58.341; -312.126; -293.772
637.984;  -91.552; -635.116; -707.791
638.257;  356.409;  515.877;  488.222
638.529;  493.874; -881.125; -924.776
638.802;  219.790; -508.128; -449.769
639.074; -105.852; -927.122; -952.781
639.346; -113.588; -942.135; -930.757
639.619;    4.448;  -79.142; -319.744
639.891;   -1.408;  -83.122; -168.779
640.163;  -84.257; -689.122; -756.780
640.435;   23.095;  273.878;  103.220
640.708;   -0.478;  -72.122; -132.780
640.980;  -25.126; -366.122; -362.781
641.252;  191.401;  -25.121;  -71.781
641.524; 1680.852;  580.879;  573.219
641.796; 1692.279;-1094.121; -907.782
642.068;  287.931; -191.121; -300.782
642.340;  -66.042; -486.121; -566.783
642.613;   33.385;  294.880;  323.217
642.885; -109.764; -787.120; -878.783
643.157;  -61.437; -810.120; -658.784
643.428;   54.015;  170.880;  218.216
643.700;  -75.433; -498.120; -425.784
643.972;  -29.357;  -16.119; -133.785
644.244;  -94.580; -474.119; -559.785
644.516;  -56.903; -250.119; -114.786
644.788;   60.874;  662.881;  548.214
645.060;  -16.324;  -12.119; -124.786
645.332;  -94.048; -525.118; -535.787
645.603;   24.129;  479.882;  342.213
645.875;  -74.119; -334.118; -369.787
646.147;  151.583; 1487.882; 1242.212
646.418;  -78.590; -931.117; -918.788
646.690;  100.036; -714.117; -715.789
646.962;   16.763; -413.117; -451.789
647.233;   -5.935;   15.883;   11.211
647.505;  -98.733; -595.117; -475.790
647.776;   19.069;  328.884;  229.210
648.048;   -1.230; -248.116; -418.790
648.320;  -73.628; -752.116; -679.791
648.591; -165.151;-1055.116; -958.791
648.862;  -82.124; -505.116; -577.792
649.134;    8.853;  115.885;  198.208
649.405;  -70.196; -661.115; -618.792
649.677;  -58.469; -475.115; -598.793
649.948;  -24.542; -181.115; -296.793
650.219;  -15.440;  -37.115; -147.793
650.491;  -91.388; -431.114; -520.794
650.762; -118.312; -705.114; -731.794
651.033;  -80.760; -437.114; -424.795
651.304;  -97.533; -743.114; -728.795
651.576;  -74.256; -680.114; -645.795
651.847;  -41.629; -250.113; -140.796
652.118;  -17.228;  -32.113; -189.796
652.389; -101.751; -639.113; -722.796
652.660;  -39.549; -147.113;  -89.797
652.931; -137.697; -897.112; -871.797
653.202;  -84.745; -382.112; -541.798
653.473;  -66.694; -633.112; -533.798
653.744;  109.958; -595.112; -590.798
654.015;  126.085; -356.112; -303.799
654.286;  -76.388; -642.111; -663.799
654.557;  -72.336; -586.111; -521.799
654.828; -147.835;-1114.111;-1088.800
655.099;  -86.883; -404.111; -291.800
655.370;  -96.881; -427.111; -543.801
655.641; -119.754; -656.110; -714.801
655.911; -112.227; -618.110; -638.801
656.182;   63.199;  437.890;  387.198
656.453;  100.601;  830.890;  746.198
656.724;  -65.672; -466.110; -426.802
656.994;  -79.645; -553.109; -568.803
657.265; -111.193; -862.109; -873.803
657.536;  -89.167; -500.109; -377.804
657.806; -110.115; -561.109; -593.804
658.077; -135.713; -866.109; -950.804
658.347;  -82.586; -523.108; -598.805
658.618; -120.784; -646.108; -694.805
658.888;  -27.508;  -41.108;  112.195
659.159;  -83.906; -432.108; -548.806
659.429;  -26.479; -292.108; -349.806
659.700;    2.148; -435.107; -390.807
659.970;  -27.150; -370.107; -359.807
660.241;    0.051; -754.107; -921.807
660.511;  422.328; -147.107; -174.808
660.781;   63.780; -793.106; -748.808
661.052;  -48.968; -222.106; -381.808
661.322;  -20.642;   21.894;   -9.809
661.592;   17.110;  257.894;  148.191
661.862;  -65.388; -369.106; -382.810
662.133;  -94.336; -551.105; -502.810
662.403; -119.084; -770.105; -676.810
662.673;  -59.358; -256.105; -213.811
662.943; -103.331; -612.105; -551.811
663.213;  -32.604;  -85.105;  -81.811
663.483;  -88.127; -593.104; -568.812
663.753;  -33.775; -194.104; -152.812
664.023;  -14.349;   68.896;  -32.813
664.293;  -61.972; -319.104; -126.813
664.563; -115.895; -694.104; -648.813
664.833; -124.693; -743.103; -608.814
665.103; -129.441; -730.103; -793.814
665.373; -122.140; -766.103; -806.814
665.643;  -96.913; -863.103; -918.815
665.913;   18.514; -534.103; -714.815
666.182;  124.816; -685.102; -719.816
666.452;  237.943;  -22.102;  -89.816
666.722;  -36.831; -724.102; -784.816
666.992; -135.804; -948.102; -921.817
667.261;  -89.977; -824.102; -808.817
667.531;  212.000;  134.899;   45.183
667.801;  510.027; -440.101; -412.818
668.070;  244.678;  714.899;  697.182
668.340; -112.395; -883.101; -840.819
668.609;   91.707;  588.900;  301.181
668.879;  -96.441; -490.100; -558.819
669.149;  -78.189; -539.100; -516.820
669.418; -100.813; -698.100; -726.820
669.688;  -34.061; -482.100; -666.820
669.957;   51.416; -423.099; -546.821
670.226;  -19.257; -268.099; -331.821
670.496; -106.405; -431.099; -635.822
670.765;  -71.154; -418.099; -501.822
671.034; -134.402; -872.099; -828.822
671.304;   -5.100;   55.902; -111.823
671.573; -152.248;-1085.098; -957.823
671.842;   68.104; -380.098; -294.823
672.112;    5.580; -692.098; -586.824
672.381;    0.157; -239.098; -214.824
672.650; -137.366;-1005.097;-1021.825
672.919; -105.814; -631.097; -507.825
673.188;  -96.487; -681.097; -878.825
673.457; -152.611;-1101.097;-1143.826
673.726;  -69.634; -579.096; -646.826
673.995;  -48.082; -533.096; -479.826
674.265;  -24.005; -263.096; -333.827
674.534;   -5.653; -183.096; -235.827
674.802;  -11.727; -618.096; -703.828
675.071;  856.175; -886.095; -801.828
675.340; 3370.027; -464.095; -339.828
675.609; 1125.954;  103.905;   82.171
675.878;   41.106; -949.095; -893.829
676.147;   31.582;  -26.095;   -8.829
676.416;   59.559; -210.094; -294.830
676.685;  660.261; 1000.906; -622.830
676.953;   77.613; -603.094; -452.831
677.222;  -29.160; -193.094; -273.831
677.491;  -33.034;  -24.094; -127.831
677.759;   -7.957;   11.907;  172.168
678.028;  -20.305; -279.093; -222.832
678.297;  -14.403;   71.907;  197.168
678.565; -147.301; -898.093; -944.833
678.834;  -61.550; -311.093; -268.833
679.102;  -74.423; -411.092; -391.834
679.371; -149.296; -898.092; -727.834
679.639; -138.644; -797.092; -786.834
679.908; -120.043; -794.092; -724.835
680.176; -149.216; -895.091; -941.835
680.445;  -69.064; -346.091; -352.835
680.713;   -6.112;  -58.091;  -23.836
680.982;  -99.660; -523.091; -525.836
681.250; -117.734; -578.091; -507.837
681.518;  -93.957; -534.090; -751.837
681.787;  -32.080; -204.090; -167.837
682.055;  -70.578; -490.090; -422.838
682.323; -156.251; -993.090; -992.838
682.591;   32.375; -216.090; -538.838
682.859;   61.277;    9.911;  -35.839
683.128;   22.204;  232.911;  497.161
683.396; -172.644;-1102.089;-1122.840
683.664;  -43.892; -241.089;   21.160
683.932;    2.609;  144.911;  -76.840
684.200;  -89.139; -576.088; -320.841
684.468;  -31.187;  -73.088; -124.841
684.736;  -43.010; -214.088; -175.841
685.004; -125.508;-1024.088; -982.842
685.272;  -59.857; -880.088; -774.842
685.540;  -66.480; -499.087; -557.843
685.808;  -83.478; -651.087; -682.843
686.076; -114.401; -894.087; -969.843
686.343;  -68.774; -601.087; -815.844
686.611;   28.252; -195.087; -224.844
686.879;  390.754; -530.086; -553.844
687.147; 2885.356; -483.086; -480.845
687.414;  805.408;  -12.086; -169.845
687.682;  -23.640; -658.086; -757.846
687.950;  267.661;  259.915;  263.154
688.217;   -1.312; -792.085; -760.846
688.485;  -11.735; -632.085; -636.847
688.753;  437.642;  -11.085; -102.847
689.020;  128.319; -820.085; -851.847
689.288; -106.330; -853.084; -787.848
689.555;  -39.253; -195.084; -148.848
689.823;  -46.351; -241.084; -345.849
690.090;  -97.524; -546.084; -651.849
690.358; -135.847; -877.084; -897.849
690.625;    9.754;  120.917;   45.150
690.892;  -68.719; -403.083; -369.850
691.160;  -23.692;   72.917;  -35.850
691.427;   -0.415;  141.917;  130.149
691.694; -155.888; -855.083; -929.851
691.962; -149.137;-1177.082;-1060.852
692.229;   14.540;  127.918;   56.148
692.496;   64.792;  130.918;  -49.852
692.763;    0.544; -164.082; -201.853
693.031;  -76.254; -739.082; -716.853
693.298;  -45.653; -509.081; -368.853
693.565;  264.774; -155.081; -163.854
693.832; 1091.451;   -5.081;   -9.854
694.099;  115.203; -643.081; -642.855
694.366;  -70.145; -882.081; -896.855
694.633;  -53.844; -920.080; -633.855
694.900;  751.683; 4367.920; -114.856
695.167;  387.535; -214.080; -380.856
695.434;   86.362; -646.080; -623.856
695.701;  204.514;  121.921;  -61.857
695.968;  431.865; -365.079; -361.857
696.234; 1001.642; -415.079; -646.858
696.501;10428.219; -776.079; -614.858
696.768; 5212.896; -554.079; -617.858
697.035;  298.973; -632.078; -667.859
697.302;   31.524; -448.078; -552.859
697.568;    5.751; -458.078; -497.859
697.835;  -39.597; -683.078; -624.860
698.102;  -32.770; -498.078; -407.860
698.368;   69.481;  384.923;  396.139
698.635;  -26.392;  -47.077; -424.861
698.901;  -22.190; -240.077; -348.861
699.168;   37.737; -534.077; -456.862
699.435;   44.289;  -72.077;  -13.862
699.701; -119.810; -868.076; -764.862
699.968;    7.667;  144.924; -441.863
700.234;  -97.431; -783.076; -822.863
700.500;  -52.429; -448.076; -539.864
700.767;   -5.527;   -1.075;   26.136
701.033; -121.501;-1015.075; -963.864
701.299;  -57.349; -450.075; -483.865
701.566;  104.153;  950.925;  763.135
701.832;   34.980;  -31.075;  -76.865
702.098; -116.993;-1054.074;-1034.866
702.365;  -93.442;-1098.074;-1030.866
702.631;  -47.890;-1038.074;-1063.867
702.897; 1297.337; -765.074; -676.867
703.163; 2091.289;  348.926;  254.133
703.429;  147.016; -256.073; -273.868
703.695;  -38.233; -796.073; -792.868
703.961;   12.819; -214.073; -210.868
704.227;  -64.429; -630.073; -725.869
704.493;  119.873;  613.927;  510.131
704.759;  -35.675; -565.072; -540.870
705.025;   44.276; -203.072; -194.870
705.291;   -8.222; -666.072; -562.870
705.557;  212.305;  719.928;   34.129
705.823;   27.332; -742.072; -694.871
706.089;  145.409; -307.071; -326.871
706.355;  361.985; -315.071; -244.872
706.620; 5923.637; -776.071; -729.872
706.886; 7961.189; -309.071; -362.873
707.152;  709.966; -818.070; -973.873
707.418;   -8.157;-1153.070;-1186.873
707.683;    3.519; -550.070; -530.874
707.949;  -33.879; -547.070; -578.874
708.215;   -3.452; -129.070; -207.874
708.480;  -32.200; -520.069; -420.875
708.746;   89.777;   68.931;   28.125
709.011;  -68.947; -578.069; -612.876
709.277;  -76.495; -538.069; -543.876
709.542;  -50.393; -428.069; -387.876
709.808;   -2.666;  -59.068;   89.123
710.073;  -88.214; -577.068; -695.877
710.339;  -31.288; -242.068; -228.877
710.604;   70.139; -780.068; -845.878
710.869;  303.616; -277.068; -366.878
711.135;  -88.757; -715.067; -628.879
711.400;  -88.555; -507.067; -608.879
711.665;  -60.054; -404.067; -479.879
711.931; -115.252; -661.067; -677.880
712.196; -115.875; -876.067; -954.880
712.461;   79.377; -402.066; -490.880
712.726;  104.329; -727.066; -771.881
712.991;  -96.045; -647.066; -664.881
713.256;  -43.143; -350.066; -332.882
713.521;  -62.141; -417.065; -381.882
713.787;  -68.289; -454.065; -472.882
714.052;  -16.612; -214.065; -400.883
714.317; -100.261;-1045.065; -981.883
714.581; 1104.641; -374.065; -268.883
714.846; 1455.968; -822.064; -888.884
715.111;  135.345;  261.936;  257.116
715.376;  -33.653;  -86.064; -223.885
715.641;  -14.527; -365.064; -367.885
715.906;  270.250;   15.936; -551.885
716.171;  117.552;  221.937;  209.114
716.436;   24.179;  -78.063; -104.886
716.700; -102.870; -818.063; -692.886
716.965; -135.093; -794.063; -807.887
717.230;  -75.541; -339.063; -392.887
717.494;  -21.339;  -40.062; -134.888
717.759;  -97.987; -784.062; -640.888
718.024;   12.964;  269.938;  250.112
718.288;   71.191;  685.938;  395.111
718.553; -152.032; -803.062; -977.889
718.817; -135.405; -883.061; -899.889
719.082;  -26.778; -115.061; -125.890
719.346; -132.952;-1000.061; -947.890
719.611;  -35.700; -300.061; -255.891
719.875; -110.648; -568.060; -537.891
720.140;  -53.971; -453.060; -603.891
720.404;   18.406; -136.060; -249.892
720.668;  752.632; -475.060; -411.892
720.933;  286.784;  146.940;  137.108
721.197; -100.489; -667.059; -600.893
721.461; -142.612; -851.059; -826.893
721.725;   -7.685;  -21.059; -250.894
721.990;  -57.009; -284.059; -204.894
722.254;  -36.732;  -26.059; -108.894
722.518;  -75.330; -286.058; -442.895
722.782; -103.378; -743.058; -594.895
723.046;  103.124;  614.942;  570.105
723.310;   36.650;  374.942;  210.104
723.574; -100.398; -654.058; -614.896
723.838;  -95.821; -576.057; -642.897
724.102;  -52.619; -226.057; -239.897
724.366; -137.167;-1032.057; -978.897
724.630; -100.516; -749.057; -571.898
724.894;  -81.989; -722.057; -514.898
725.158;  -23.812;   38.944; -295.898
725.422;  -61.760; -394.056; -327.899
725.685;  -70.508; -441.056; -349.899
725.949;  -83.082; -566.056; -519.900
726.213;  -82.080; -732.056; -811.900
726.477;  139.072;-1020.055; -933.900
726.740;  120.424; -274.055; -104.901
727.004;  324.201; -384.055; -510.901
727.268; 3442.427; -442.055; -400.901
727.531;  919.329; -961.055; -775.902
727.795;  -32.694; -713.054; -673.902
728.059;  -58.567; -552.054; -557.903
728.322;  -87.465; -841.054; -669.903
728.586;    0.236; -692.054; -701.903
728.849;  -84.062; -695.053; -756.904
729.112; -131.460; -812.053; -912.904
729.376; -130.833; -959.053; -905.904
729.639; -103.281; -536.053; -536.905
729.903; -119.130; -733.053; -699.905
730.166;  -46.553; -437.052; -399.906
730.429;  -35.351; -317.052; -468.906
730.693;  -71.399; -355.052; -894.906
730.956;  186.253;  810.948;  651.093
731.219;  643.329; -310.052; -103.907
731.482;   78.331;-1003.051; -894.907
731.745;   62.858; -794.051; -935.908
732.009;   15.985;  -30.051;   50.092
732.272;  -97.288; -904.051; -771.909
732.535;  -47.037; -300.051; -310.909
732.798; -168.435;-1083.050;-1166.909
733.061;  -59.433; -430.050; -456.910
733.324;   -4.756;   31.950; -180.910
733.587;   75.271;  290.950;  365.090
733.850;  -83.503; -973.049;-1050.911
734.113;   24.574;   33.951;   32.089
734.376;   -4.924; -328.049; -447.912
734.639;  213.378; 1188.951; 1011.088
734.901;   42.304; -180.049; -402.912
735.164;  467.656; -883.048; -837.913
735.427; 1160.433; -166.048; -355.913
735.690;  116.810; -205.048; -234.913
735.952;  -51.813; -923.048; -925.914
736.215;  -37.087;-1113.048;-1009.914
736.478;   29.240; -771.047; -774.915
736.740;  198.492;   33.953;  129.085
737.003;  624.294; -658.047; -672.915
737.266; 3627.771;  -94.047;   46.084
737.528;  409.072; -682.047; -660.916
737.791;  309.699; -316.046; -327.916
738.053;  805.651;  465.954;  649.083
738.316;10958.703; -162.046; -136.917
738.578; 7437.505; -770.046; -736.918
738.841;  433.006; -382.046; -446.918
739.103;  167.608; -875.045; -777.918
739.365;  451.760;   79.955;  -69.919
739.628;   -8.938; -884.045; -805.919
739.890;  -36.361; -758.045; -710.919
740.152;  -48.010; -692.044; -754.920
740.414;  -18.508; -408.044; -359.920
740.677;  -50.331; -785.044; -634.921
740.939;  -41.804; -587.044; -487.921
741.201;  225.998; -432.044; -572.921
741.463;   11.074; -689.043; -745.922
741.725;    3.576;  -21.043; -199.922
741.987;   57.753;  220.957;  116.078
742.249;  -10.270; -751.043; -859.923
742.511;  173.582; -703.043; -794.923
742.773;    2.083; -546.042; -546.924
743.035;  149.560;  796.958;  533.076
743.297;  -48.613; -963.042;-1013.924
743.559;  672.339; -278.042; -262.925
743.821;   39.241; -735.042; -744.925
744.083;    1.117;  -44.041; -149.925
744.345;  -93.231; -869.041; -892.926
744.607;   17.096;   75.959;  122.074
744.868;  -51.577; -490.041; -554.927
745.130; -122.900; -994.041;-1008.927
745.392;   25.176;   -1.040;  -44.927
745.653;  -26.172; -411.040; -378.928
745.915;  166.755;  896.960;  631.072
746.177;   68.282;   35.960;  -43.928
746.438;   -9.691; -428.040; -543.929
746.700;  -46.140; -947.039; -988.929
746.961;   -6.263; -659.039; -740.930
747.223;  129.914; -190.039;  -74.930
747.484;   72.666; -391.039; -471.930
747.746;  120.918;  -23.038; -106.931
748.007;  105.944; -647.038; -689.931
748.269;  260.171; -468.038; -440.931
748.530;  446.623; -852.038; -638.932
748.791;  239.700; -354.038; -420.932
749.053;  409.852;  286.963;  163.067
749.314;  425.028; -236.037; -169.933
749.575;  461.830; -945.037; -905.933
749.836;  809.007; -217.037;   86.066
750.098; 2371.784;  -60.037;  -21.934
750.359;34862.536;  414.964;  555.066
750.620; 8549.912; -121.036; -220.935
750.881;  979.314; -585.036; -513.935
751.142; 1301.891; -950.036; -938.936
751.403;16563.343; -789.036; -705.936
751.664; 7001.419;-1034.035; -999.936
751.925;  473.146; -175.035; -262.937
752.186;  256.148; -298.035; -278.937
752.447;  130.100; -590.035; -445.937
752.708;   38.527; -532.035; -648.938
752.969;   -0.547; -566.034; -576.938
753.230;    3.530; -777.034; -672.939
753.491;   -3.868; -650.034; -631.939
753.751;   62.259;  109.966;   19.061
754.012;   84.461;  258.967;  181.060
754.273;   49.137; -174.033;  -71.940
754.534;   -2.236; -487.033; -580.940
754.794; -101.384; -926.033; -911.941
755.055;  136.418; 1051.967;  881.059
755.316;  -42.980; -700.032; -566.942
755.576;  -28.129; -606.032; -576.942
755.837;  -54.352; -527.032; -695.942
756.097;  -31.525; -530.032; -564.943
756.358;  -79.098; -725.032; -770.943
756.618;  -55.646; -705.031; -641.943
756.879;   -2.945; -254.031; -349.944
757.139; -127.293;-1098.031;-1116.944
757.400;  -60.141; -538.031; -553.945
757.660;  -23.314; -365.031; -401.945
757.920;  -11.887; -266.030; -228.945
758.181;  -23.486; -468.030; -351.946
758.441; -104.309; -870.030; -809.946
758.701;  -33.707; -308.030; -215.946
758.961;  -21.605; -220.030; -278.947
759.222;  -67.503; -574.029; -502.947
759.482;  -87.227; -683.029; -723.948
759.742;  -85.975; -706.029; -547.948
760.002;   12.627;  -83.029; -143.948
760.262;   21.754;   50.972;  182.051
760.522;  -43.569; -498.028; -574.949
760.782;  -44.068; -738.028; -612.949
761.042;  -39.816; -618.028; -573.950
761.302;   41.461;   55.972;  -18.950
761.562;   48.563; -164.027; -154.951
761.822;   83.615; -710.027; -551.951
762.082;  -61.184;-1104.027;-1093.951
762.342;   57.218; -328.027; -403.952
762.601;   67.770; -567.027; -506.952
762.861;  329.722; -281.026; -207.952
763.121;  382.699; -406.026; -411.953
763.381; 7402.650; -499.026; -485.953
763.640; 7776.852; -139.026; -307.954
763.900;  347.829; -242.026; -203.954
764.160;   70.556; -458.025; -491.954
764.419;  -14.942; -726.025; -782.955
764.679;  -79.866; -795.025; -726.955
764.939;   -8.814; -124.025; -210.955
765.198;  -97.912; -608.025; -563.956
765.458;  -93.935; -710.024; -612.956
765.717; -102.408; -454.024; -590.957
765.976;  -63.232; -428.024; -411.957
766.236;  -80.880; -475.024; -610.957
766.495;   16.897;  260.977;   73.042
766.755; -112.151;-1090.023; -987.958
767.014;   -5.674; -594.023; -665.958
767.273;  -63.348; -373.023; -397.959
767.533;  -55.321; -228.023; -307.959
767.792;  -32.519; -151.022; -188.960
768.051;  -63.692; -228.022; -276.960
768.310;  -83.265; -546.022; -650.960
768.569;   -7.439; -161.022;    4.039
768.828;  -32.837; -285.022; -363.961
769.088; -123.610;-1050.021; -942.961
769.347;  -76.483; -755.021; -599.962
769.606; -108.357; -876.021; -857.962
769.865; -126.555;-1016.021;-1033.963
770.124;    3.222; -411.021; -336.963
770.383;  -51.751; -778.020; -910.963
770.641;   -9.299; -398.020; -400.964
770.900;  -71.423; -953.020; -846.964
771.159;  -34.246; -851.020; -951.964
771.418;  -15.494; -917.020; -779.965
771.677;  121.858; -224.019; -293.965
771.936;  158.660; -794.019; -865.966
772.194; 2438.086; -465.019; -437.966
772.453;11324.388; -213.019; -391.966
772.712;  769.640;  416.982;  329.033
772.970;  124.567;   32.982;   63.033
773.229;  104.719;  -22.018;  102.033
773.488;  -79.830; -814.018; -770.968
773.746;   49.547;  296.982;  335.032
774.005;    5.574;  190.983;  -22.969
774.263;   18.626;  243.983;  177.031
774.522;  -88.372; -422.017; -548.969
774.780;  -76.896; -484.017; -417.970
775.039;  -90.569; -551.017; -531.970
775.297;  -32.417; -135.016; -351.970
775.555; -112.015; -489.016; -612.971
775.814; -119.588; -618.016; -570.971
776.072; -140.612; -749.016; -740.971
776.330; -113.235; -630.016; -520.972
776.589; -113.258; -703.015; -721.972
776.847; -125.231; -645.015; -624.973
777.105; -171.104;-1016.015;-1032.973
777.363;  -97.953; -459.015; -454.973
777.621; -147.801; -660.015; -717.974
777.879;  -14.449;  -42.014;   32.026
778.138; -102.672; -554.014; -717.974
778.396; -102.845; -585.014; -526.975
778.654; -162.669;-1015.014; -970.975
778.912;  -55.092; -269.014; -371.976
779.170; -147.615; -880.013; -803.976
779.427; -144.188; -922.013; -897.976
779.685; -136.786; -880.013; -832.977
779.943; -100.510; -654.013; -593.977
780.201; -168.858; -964.012; -883.978
780.459; -114.781; -651.012; -610.978
780.717;  -91.979; -440.012; -390.978
780.974; -106.852; -449.012; -490.979
781.232;  -86.851; -358.012; -338.979
781.490;  -72.674; -551.011; -472.979
781.747; -104.622; -555.011; -476.980
782.005;   12.880;  462.989;  254.020
782.263; -168.843; -542.011;-1004.981
782.520;  -91.767; -326.011; -501.981
782.778; -169.090;-1013.010;-1051.981
783.035; -173.638; -962.010; -938.982
783.293;  -54.586; -248.010; -206.982
783.550;  -54.984; -134.010; -198.982
783.808; -135.583; -764.010; -776.983
784.065; -174.731; -745.009; -874.983
784.322;  -53.779;   25.991;  -86.984
784.580; -146.502; -915.009; -771.984
784.837; -107.625; -392.009; -466.984
785.094; -133.949; -783.009; -762.985
785.352;  -67.097; -304.008; -404.985
785.609; -113.420; -934.008; -839.985
785.866;  -88.418; -345.008; -401.986
786.123;  -81.166; -639.008; -583.986
786.380; -101.115; -665.008; -604.987
786.637;  -57.163; -225.007; -380.987
786.895;  -32.411; -456.007; -543.987
787.152;  -49.809; -135.007; -267.988
787.409;  -54.508; -123.007; -225.988
787.666;  -95.531; -299.006; -378.988
787.923; -116.754; -616.006; -695.989
788.179; -104.652; -551.006; -584.989
788.436; -110.250; -585.006; -585.990
788.693;  -37.399;  -92.006;  -87.990
788.950;  105.153; -125.005; -112.990
789.207;  179.005; -381.005; -372.991
789.464;  -71.018; -161.005; -301.991
789.720;  -10.191;  150.995;  110.009
789.977; -164.065;-1003.005; -671.992
790.234;  -24.863;   44.996;  -66.992
790.490; -157.011; -884.004;-1031.993
790.747;  -23.559;  -85.004;   22.007
791.004;  -30.207; -426.004; -348.993
791.260;  -81.631; -430.004; -560.994
791.517; -109.879; -843.003; -788.994
791.773;  -45.902; -379.003; -342.994
792.030; -110.800; -596.003; -660.995
792.286;  -95.523; -686.003; -636.995
792.543;  -11.847;  -74.002; -159.995
792.799;  -38.270; -584.002; -382.996
793.055; -171.893;-1179.002;-1210.996
793.312;  -99.041; -827.002; -816.997
793.568;  -63.289; -746.002; -599.997
793.824;    2.937; -226.001; -284.997
794.081;    9.789; -447.001; -508.998
794.337;   48.691; -664.001; -561.998
794.593; 1308.218; -319.001; -271.999
794.849; 6240.695; -746.001; -772.999
795.105;  305.246; -270.000; -261.999
795.361;    0.598; -490.000; -457.000
795.617;  -68.350; -875.000; -945.000
795.873;  -57.250; -360.000; -407.000
796.129;  -51.100; -368.000; -306.000
796.385;  -22.350; -124.000; -156.000
796.641;   74.175;  412.000;  550.000
796.897;  -84.325; -666.000; -635.000
797.153;   68.350;  453.000;  357.000
797.409; -107.150; -785.000; -868.000
797.665;  -83.250; -625.000; -732.000
797.921;  -74.550; -775.000; -762.000
798.176;  -69.975; -744.000; -747.000
798.432;  -60.475; -824.000; -596.000
798.688;  -80.250;-1174.000;-1078.000
798.943;   81.150; -165.000; -147.000
799.199;    1.700;-1005.000; -959.000
799.455;  241.925;  369.000;  316.000
799.710;  127.800; -813.000; -380.000
799.966;  294.725; -162.000; -160.000
800.221;  481.150; -638.000; -721.000
800.477;10755.400; -743.000; -710.000
800.732; 9073.225; -773.000; -800.000
800.988;  639.675;  205.000;  -19.000
801.243; 2024.575; -454.000; -344.000
801.498; 8514.350; -814.000; -739.000
801.754;  449.825; -289.000; -163.000
802.009;   93.250; -257.000; -335.000
802.264;  -50.250; -967.000;-1033.000
802.520;   23.325;  222.000;   -3.000
802.775;  -52.975; -524.000; -359.000
803.030;   47.575;  395.000;  356.000
803.285; -111.500; -840.000; -903.000
803.540;  -64.500; -686.000; -699.000
803.795;  -66.200; -648.000; -583.000
804.051;  -36.925; -279.000; -346.000
804.306;   10.075;  168.000;  128.000
804.561;  134.975;  451.000;  362.000
804.816;  114.500;  714.000;  861.000
805.071;   18.525; -185.000; -280.000
805.325;  188.675; -257.000; -427.000
805.580; -104.825; -841.000; -877.000
805.835;  -25.100; -204.000; -297.000
806.090;  -87.100; -760.000; -676.000
806.345;  -10.875; -344.000; -264.000
806.600;  -56.475; -549.000; -632.000
806.854;  -30.600; -408.000; -538.000
807.109;  -15.025; -493.000; -577.000
807.364;   -2.275; -407.000; -328.000
807.618;   -7.575; -415.000; -381.000
807.873;   49.975; -470.000; -494.000
808.128;   95.900; -257.000; -518.000
808.382;  108.100; -224.000; -332.000
808.637;   66.675; -440.000; -511.000
808.891;  154.500; -257.000; -180.000
809.146;   79.475; -902.000; -794.000
809.400;  221.750; -848.000; -923.000
809.654;  318.425; -779.000; -551.000
809.909;  448.400; -841.000; -927.000
810.163; 6386.725; -813.000; -651.000
810.418;15738.000; -940.000; -861.000
810.672;  971.100; -685.000; -690.000
810.926;  695.725; -993.000; -973.000
811.180; 1425.225; -439.000; -372.000
811.434;32312.050;  240.000;  135.000
811.689;12424.375; -231.000; -365.000
811.943;  595.875; -936.000; -953.000
812.197;  312.675; -893.000; -671.000
812.451;  115.975; -379.000; -514.000
812.705;  -25.600; -809.000; -619.000
812.959;   -0.225; -263.000; -388.000
813.213;    2.125; -283.000; -209.000
813.467;   64.725;  470.000;  253.000
813.721; -105.425; -764.000; -792.000
813.975; -127.600; -826.000; -877.000
814.229;   42.200;  430.000;  353.000
814.482;  -71.125; -517.000; -566.000
814.736; -137.625; -766.000; -744.000
814.990; -133.700; -779.000; -872.000
815.244;  -49.425; -228.000; -285.000
815.497;  -93.600; -636.000; -601.000
815.751;  -19.575; -141.000;   82.000
816.005;  -99.800; -470.000; -586.000
816.258;  -62.900; -510.000; -363.000
816.512; -113.625; -693.000; -610.000
816.766;   -9.425;  121.000;  157.000
817.019;   12.475;  148.000;  149.000
817.273; -118.850;-1000.000; -802.000
817.526;  -41.325; -206.000; -173.000
817.779;  -57.475;-1049.000; -960.000
818.033;  -89.475; -693.000; -807.000
818.286; -129.225; -725.000; -792.000
818.540;  -88.625; -403.000; -403.000
818.793;  -85.000; -402.000; -489.000
819.046;  -92.700; -582.000; -520.000
819.299;  -44.700; -157.000; -166.000
819.553; -128.750; -552.000; -592.000
819.806; -156.275;-1016.000; -838.000
820.059;  -75.975; -334.000; -354.000
820.312;   13.675;  152.000;  185.000
820.565;  -24.375;  110.000;  -27.000
820.818;  -52.250;  -59.000; -173.000
821.071; -169.000;-1041.000; -957.000
821.324; -112.575; -536.000; -540.000
821.577;  -98.750; -457.000; -483.000
821.830;  -76.750; -270.000; -172.000
822.083; -142.025; -733.000; -288.000
822.336;  -38.675; -261.000; -167.000
822.589; -141.550; -805.000; -688.000
822.842; -157.225; -875.000; -770.000
823.094; -178.675;-1076.000;-1114.000
823.347; -139.450; -925.000; -729.000
823.600;    3.150;  402.000;  187.000
823.853;  -44.600; -311.000; -267.000
824.105;  -74.675; -331.000; -575.000
824.358; -109.475; -617.000; -716.000
824.611;    9.300;  234.000;   40.000
824.863;  -47.975; -612.000; -591.000
825.116;   27.425;  -33.000;   27.000
825.368;   53.225; -366.000; -372.000
825.621;  144.000; -186.000; -240.000
825.873;   78.325; -704.000; -737.000
826.126;  595.075; -669.000; -641.000
826.378;11620.225; -389.000; -505.000
826.630; 2673.650; -890.000; -898.000
826.883;   47.500; -754.000; -693.000
827.135;   35.025; -279.000; -270.000
827.387; -108.300; -893.000; -839.000
827.639;  -22.625;  -86.000;   32.000
827.892; -134.375; -742.000; -582.000
828.144; -143.725; -848.000; -804.000
828.396;  -43.350;  104.000;  -80.000
828.648; -107.025; -440.000; -333.000
828.900; -151.700; -702.000; -795.000
829.152; -122.500; -684.000; -683.000
829.404;  -70.875; -215.000; -267.000
829.656;  -42.800;  321.000;  214.000
829.908;  -10.025;  393.000;  229.000
830.160; -177.825;-1064.000;-1047.000
830.412; -105.500; -481.000; -430.000
830.664; -129.575; -557.000; -665.000
830.916;  -65.225; -268.000; -206.000
831.167; -177.450;-1073.000; -951.000
831.419; -127.950; -623.000; -566.000
831.671; -158.025; -764.000; -809.000
831.923;  -94.575; -311.000; -447.000
832.174;  -83.100; -273.000; -331.000
832.426; -120.075; -493.000; -582.000
832.678; -195.975;-1043.000;-1091.000
832.929; -165.600; -947.000; -935.000
833.181;  -68.700; -575.000; -677.000
833.432;  -58.500;  -59.000; -186.000
833.684;  -35.050;  112.000;  -27.000
833.935; -114.375; -610.000; -566.000
834.187; -134.525; -829.000; -823.000
834.438;  -60.325;  -58.000;  -25.000
834.689;  -55.925; -255.000; -123.000
834.941;  -58.300; -343.000; -244.000
835.192; -105.175; -590.000; -533.000
835.443; -112.375; -419.000; -506.000
835.695;   -7.825;  138.000;  -16.000
835.946;  -90.600; -608.000; -378.000
836.197; -120.875; -599.000; -622.000
836.448;  -98.400; -528.000; -395.000
836.699;  -61.175; -253.000; -341.000
836.950;   -7.825;   72.000;    7.000
837.201; -155.325;-1003.000; -987.000
837.452;  -67.075; -356.000; -170.000
837.703; -119.825; -791.000; -737.000
837.954;  -47.150; -205.000; -365.000
838.205;  -92.425;-1029.000;-1008.000
838.456;  142.550; -196.000; -282.000
838.707;  -13.200; -423.000; -519.000
838.958;   -4.475; -634.000; -647.000
839.209;  249.725;   18.000;   40.000
839.460;  100.325; -439.000; -201.000
839.710;  149.900; -135.000; -297.000
839.961;  412.525;  730.000;  612.000
840.212;  334.425; -382.000; -497.000
840.462; 1110.575; -328.000; -277.000
840.713;18095.675; -571.000; -536.000
840.964; 6920.450;  -62.000; -143.000
841.214;  471.000; -384.000; -624.000
841.465;  529.525; -214.000; -141.000
841.715;  442.125; -417.000; -380.000
841.966;  585.575; -746.000; -685.000
842.216; 8535.550; -330.000; -431.000
842.466;31128.950; -169.000; -313.000
842.717; 1628.250; -964.000; -952.000
842.967;  274.000; -635.000; -641.000
843.217;  230.975;   20.000;   28.000
843.468;   50.925; -104.000; -132.000
843.718;  -58.975; -718.000; -726.000
843.968; -108.075; -837.000; -765.000
844.218;    1.625; -315.000; -262.000
844.469;  -59.100; -577.000; -561.000
844.719; -122.300; -537.000; -682.000
844.969; -107.625; -550.000; -580.000
845.219; -152.100; -814.000; -862.000
845.469;  -80.350; -392.000; -342.000
845.719; -138.225; -792.000; -884.000
845.969;  -17.275;  119.000;  174.000
846.219; -131.875; -738.000; -720.000
846.469;   14.625;  464.000;  432.000
846.718;  -56.300; -115.000;   31.000
846.968; -148.450; -827.000; -827.000
847.218;  -60.300; -224.000; -371.000
847.468;   -3.425; -586.000; -555.000
847.718; -168.300; -827.000; -798.000
847.967; -139.225; -826.000; -915.000
848.217; -101.300; -449.000; -569.000
848.467;  -70.450; -405.000; -376.000
848.716; -112.750; -708.000; -725.000
848.966;   -5.225; -372.000; -358.000
849.215;  -71.550; -428.000; -419.000
849.465;  -88.700; -785.000; -615.000
849.714; -169.975;-1132.000;-1150.000
849.964;  -57.325; -551.000; -613.000
850.213;  -16.450; -393.000; -355.000
850.463;   72.350;  137.000;  340.000
850.712;  -12.025; -542.000; -567.000
850.961;   19.800; -739.000; -678.000
851.211;  102.775; -513.000; -504.000
851.460;  146.225; -635.000; -650.000
851.709;  542.450;  -25.000;   18.000
851.958;10526.700; -912.000; -750.000
852.208;12449.000; -859.000; -879.000
852.457;  442.225; -181.000;  -13.000
852.706;   65.800; -791.000; -823.000
852.955;    2.525; -507.000; -528.000
853.204;  -79.175; -521.000; -461.000
853.453;  -87.125; -418.000; -458.000
853.702; -144.100; -660.000; -750.000
853.951; -102.050; -532.000; -520.000
854.200; -129.800; -613.000; -562.000
854.449; -135.825; -695.000; -661.000
854.698;  -79.675; -340.000; -279.000
854.946;  -71.650; -181.000; -284.000
855.195; -151.925; -843.000; -868.000
855.444; -100.325; -395.000; -420.000
855.693; -127.225; -345.000; -432.000
855.941; -106.375; -387.000; -516.000
856.190;  -72.125; -256.000; -382.000
856.439; -145.500; -652.000; -703.000
856.687;  -61.600;  -99.000;  -72.000
856.936; -125.850; -621.000; -323.000
857.184; -193.375;-1067.000;-1020.000
857.433; -102.825; -423.000; -512.000
857.681; -164.600; -989.000; -953.000
857.930;  -86.325; -282.000; -433.000
858.178; -174.775; -856.000; -929.000
858.427; -147.425; -802.000; -781.000
858.675; -125.825; -377.000; -544.000
858.923; -119.375; -527.000; -819.000
859.172; -185.550;-1094.000;-1070.000
859.420;  -86.775; -339.000; -239.000
859.668; -141.050; -624.000; -628.000
859.916;  -34.975;  109.000;  115.000
860.164; -132.150; -699.000; -603.000
860.413;  241.350; -878.000; -696.000
860.661;  159.175; -709.000; -577.000
860.909;  -89.800; -339.000; -325.000
861.157;  -97.850; -277.000; -444.000
861.405; -124.200; -534.000; -670.000
861.653;    1.525;  310.000;  310.000
861.901;  139.075; -543.000; -613.000
862.149;  -32.150; -801.000; -824.000
862.396;  -87.575; -297.000; -187.000
862.644; -101.750; -368.000; -347.000
862.892;  -37.225;   98.000;  138.000
863.140; -116.775; -549.000; -530.000
863.388; -164.750; -815.000; -759.000
863.635; -122.125; -642.000; -601.000
863.883;  -15.125;  231.000;  190.000
864.131; -108.525; -288.000; -357.000
864.378; -142.150; -675.000; -540.000
864.626; -112.150; -347.000; -415.000
864.873; -108.600; -556.000; -505.000
865.121; -140.200; -714.000; -799.000
865.368;  -45.175; -173.000;   75.000
865.616;  -54.100;  -33.000;  -40.000
865.863;  -81.300; -462.000; -506.000
866.111; -105.475; -795.000; -824.000
866.358;   61.550; -426.000; -420.000
866.605; 2615.275;  -64.000; -804.000
866.853; 2580.975; -621.000; -537.000
867.100;  -26.950; -728.000; -775.000
867.347;  -93.425; -672.000; -611.000
867.594; -100.825; -740.000; -714.000
867.841;   59.200;   97.000;   17.000
868.089; -148.700; -746.000; -698.000
868.336; -115.875; -477.000; -420.000
868.583; -151.525; -637.000; -741.000
868.830;  -64.950; -131.000; -170.000
869.077; -164.125; -859.000; -787.000
869.324; -124.550; -502.000; -458.000
869.571; -142.600; -398.000; -430.000
869.818; -136.825; -485.000; -439.000
870.065; -111.850; -439.000; -513.000
870.311; -123.175; -456.000; -542.000
870.558; -117.425; -332.000; -311.000
870.805;  -98.475; -320.000; -384.000
871.052; -125.075; -494.000; -369.000
871.298;  -67.450; -204.000; -131.000
871.545;  -69.775; -151.000; -185.000
871.792;  -88.400; -173.000; -222.000
872.038;  -79.200;   43.000; -126.000
872.285; -139.050; -496.000; -387.000
872.532; -109.125; -357.000; -387.000
872.778;    9.050;  556.000;  403.000
873.025;  -97.725; -384.000; -359.000
873.271;   35.300;  501.000;  578.000
873.517;  -34.250; -133.000; -209.000
873.764;  -35.100; -193.000;  -80.000
874.010;  -79.150; -143.000; -230.000
874.257;  -63.350;  123.000;   90.000
874.503; -130.675; -579.000; -479.000
874.749;  -87.225;   31.000;  275.000
874.995;  -71.025;  -80.000;  -20.000
875.242; -121.050; -540.000; -478.000
875.488; -124.225; -414.000; -439.000
875.734;  -66.125; -106.000; -234.000
875.980;  147.625; -872.000;-1032.000
876.226;  308.775; -157.000; -255.000
876.472;   -9.575;  343.000;  237.000
876.718;  -55.375;  184.000;  158.000
876.964;  -56.075;   56.000;   55.000
877.210; -169.825; -547.000; -677.000
877.456; -135.525; -630.000; -557.000
877.702; -193.225; -821.000; -832.000
877.948; -125.650; -377.000; -497.000
878.193;    7.200;  361.000;  255.000
878.439; -111.200; -487.000; -472.000
878.685; -100.325; -272.000; -343.000
878.931; -142.175; -618.000; -676.000
879.176;  -90.525; -201.000; -201.000
879.422; -192.925; -933.000; -820.000
879.668;   22.500;   10.000;   79.000
879.913;  110.500;   53.000;  137.000
880.159;  -66.775; -112.000;  -17.000
880.404;  -58.900; -152.000; -162.000
880.650;  -42.125;   91.000;  141.000
880.895; -161.275; -670.000; -710.000
881.141; -123.250; -454.000; -428.000
881.386; -162.250; -503.000; -658.000
881.631;  -81.700; -311.000; -166.000
881.877;  -54.525;  112.000;  -13.000
882.122; -140.100; -684.000; -600.000
882.367; -100.475; -136.000; -186.000
882.612;  -80.400;  -80.000; -176.000
882.858; -180.075; -877.000; -823.000
883.103;  -96.700; -297.000; -267.000
883.348; -157.900; -759.000; -852.000
883.593; -155.625; -677.000; -602.000
883.838;  -55.850; -311.000;  -24.000
884.083;   17.125;  353.000;  288.000
884.328;  -99.900; -564.000; -545.000
884.573;  -55.225; -196.000; -143.000
884.818;  139.325; -694.000; -531.000
885.063;  143.075; -348.000; -315.000
885.308; -103.750; -475.000; -398.000
885.553;  -18.900;  245.000;  325.000
885.797; -137.025; -545.000; -615.000
886.042;  -62.225;    8.000;   58.000
886.287;  -94.125; -253.000; -211.000
886.532;  -56.350;   26.000;  204.000
886.776; -108.300; -407.000; -525.000
887.021; -139.975; -621.000; -574.000
887.265; -166.700; -685.000; -689.000
887.510; -154.400; -557.000; -496.000
887.755;  -90.200; -194.000; -164.000
887.999; -136.825; -552.000; -575.000
888.244;  -75.050;  -58.000;  161.000
888.488;   -7.075;  371.000;  393.000
888.732; -132.675; -368.000; -520.000
888.977; -137.100; -622.000; -567.000
889.221; -170.825; -683.000; -659.000
889.465; -122.675; -422.000; -566.000
889.710;  -98.950;  -56.000; -299.000
889.954;    2.025;  579.000;  467.000
890.198; -155.725; -584.000; -707.000
890.442; -164.625; -716.000; -712.000
890.687; -171.500; -800.000; -753.000
890.931; -103.125; -273.000; -210.000
891.175; -148.275; -502.000; -500.000
891.419;  -82.875; -105.000; -110.000
891.663;  -92.800; -239.000; -112.000
891.907; -186.375; -801.000; -545.000
892.151; -188.000; -920.000; -815.000
892.395; -118.400; -274.000; -387.000
892.638;  -21.925;  408.000;  291.000
892.882; -182.800; -780.000; -867.000
893.126;   11.700;  758.000;  558.000
893.370; -105.475; -167.000; -168.000
893.614; -155.375; -714.000; -715.000
893.857;  -96.775; -183.000; -197.000
894.101; -144.475; -527.000; -631.000
894.345;  -65.350;  300.000;  150.000
894.588;   10.825;  569.000;  380.000
894.832;  -80.450; -178.000;  -84.000
895.075;  -79.175;   15.000;  -92.000
895.319; -132.200; -552.000; -420.000
895.563; -123.775; -413.000; -353.000
895.806; -158.425; -628.000; -741.000
896.049;  -84.850; -576.000; -368.000
896.293;   72.250;  527.000;  405.000
896.536; -101.525; -465.000; -468.000
896.779;  -61.825; -149.000;   -1.000
897.023; -158.200; -751.000; -714.000
897.266;  -36.250;  325.000;  269.000
897.509; -188.800; -900.000; -901.000
897.752;  -51.450;  149.000;  171.000
897.996; -197.175; -972.000; -864.000
898.239;  -50.500;  168.000;  102.000
898.482; -118.475; -431.000; -453.000
898.725;  -48.700;  101.000;   53.000
898.968; -161.800; -609.000; -744.000
899.211; -125.525; -513.000; -361.000
899.454; -127.525; -633.000; -539.000
899.697;  -71.425;   90.000;  -43.000
899.940; -168.575; -761.000; -757.000
900.182; -129.175; -335.000; -405.000
900.425; -101.700; -150.000; -298.000
900.668;  -11.875;  491.000;  350.000
900.911; -118.450; -292.000; -345.000
901.154;  -57.400;  141.000;   -3.000
901.396; -142.225; -407.000; -412.000
901.639; -141.575; -430.000; -496.000
901.882; -186.475; -790.000; -809.000
902.124;  -86.525;  -29.000; -143.000
902.367; -122.325; -315.000; -361.000
902.609; -141.625; -476.000; -453.000
902.852;  -83.400; -108.000; -260.000
903.094; -129.050; -458.000; -337.000
903.337;  -68.450;  -26.000;   53.000
903.579; -114.650; -228.000; -441.000
903.821; -165.600; -597.000; -744.000
904.064;  -58.825;   85.000;  127.000
904.306; -101.125; -126.000; -166.000
904.548; -102.300; -152.000; -366.000
904.790; -116.400; -195.000; -340.000
905.033; -136.475; -625.000; -577.000
905.275; -146.575; -513.000; -524.000
905.517;   22.450;  468.000;  256.000
905.759;  -82.700; -667.000; -761.000
906.001; -113.350; -322.000; -369.000
906.243;  -79.400; -162.000; -224.000
906.485;   96.750; -265.000; -207.000
906.727;   66.425; -499.000; -542.000
906.969;  -49.375;  -30.000; -135.000
907.211;  103.650; -316.000; -382.000
907.453;  221.300; -188.000; -237.000
907.695;  -20.275; -158.000; -385.000
907.936;   45.900;  818.000;  706.000
908.178;  -76.400;   92.000; -135.000
908.420;  -66.225; -111.000; -162.000
908.662; -140.550; -633.000; -682.000
908.903;  -90.300; -208.000; -123.000
909.145;  -60.325; -240.000; -305.000
909.386;  -12.725;  315.000;  280.000
909.628;   34.500;  363.000;  397.000
909.870;  -13.850;   29.000;  264.000
910.111; -105.500; -809.000; -949.000
910.353;    8.350; -123.000; -161.000
910.594;  -15.100; -574.000; -606.000
910.835;   82.300; -265.000; -326.000
911.077;  135.700; -503.000; -604.000
911.318;  303.425; -505.000; -471.000
911.559;  428.625; -577.000; -880.000
911.801; 1359.250; -284.000; -280.000
912.042;10562.600;  -50.000; -159.000
912.283;26345.175;  404.000;  371.000
912.524; 3805.775; -396.000; -457.000
912.765;  461.875; -193.000;   79.000
913.006;  222.725; -307.000; -338.000
913.247;   38.800; -270.000; -290.000
913.488;  -17.475;  -43.000;   30.000
913.729;  -69.250; -373.000; -373.000
913.970;  -89.325;  -96.000; -292.000
914.211;  -76.800; -160.000; -198.000
914.452;  -65.875; -118.000;  -11.000
914.693;    0.775;  510.000;  592.000
914.934;   -2.475;  510.000;  440.000
915.175;  -70.425;   53.000;  -95.000
915.415;  -87.950; -137.000;   27.000
915.656;  -72.850;  -28.000;  192.000
915.897; -100.425; -252.000;  -82.000
916.137;  -80.150;   74.000;   -9.000
916.378; -144.725; -573.000; -517.000
916.619;  -92.475; -159.000;  -63.000
916.859;  -44.400;  303.000;  330.000
917.100;  128.300; 1655.000; 1070.000
917.340;   41.150;  930.000;  728.000
917.581;   33.200;  965.000;  789.000
917.821;  -34.700; -171.000;  143.000
918.061;   -5.675; -199.000;  -72.000
918.302;  -64.275; -152.000; -211.000
918.542;  -26.875;  -22.000;    3.000
918.782;   20.275;  369.000;  377.000
919.023;  124.225;  360.000;  427.000
919.263; 1746.650; 8131.000;  202.000
919.503; 1030.425; -137.000;  -54.000
919.743;  543.050;  390.000;  266.000
919.983;  222.200; -134.000;  -26.000
920.223;   75.100;  135.000;   14.000
920.463;  150.700;  631.000;  554.000
920.703;  127.350;   84.000;   39.000
920.943;  152.725; -110.000;   90.000
921.183;  229.825; -414.000; -405.000
921.423;  502.800;  307.000;  546.000
921.663;  737.850; -174.000; -257.000
921.903; 1639.900;  237.000;  173.000
922.143; 9281.525;  372.000;  389.000
922.383;34935.025;  158.000;  115.000
922.622;11213.100; -120.000;  -15.000
922.862; 1203.950;  796.000;  785.000
923.102;  463.525;  -51.000;   33.000
923.341;  181.325;   59.000;   74.000
923.581;   78.650;  450.000;  360.000
923.821;   16.425;  301.000;  398.000
924.060;   -1.875;  351.000;  193.000
924.300;  -65.500;  -16.000; -128.000
924.539;  -18.000;  584.000;  473.000
924.779;    9.950;  812.000;  597.000
925.018;  -48.950;  247.000;  353.000
925.257;   -7.850;  595.000;  666.000
925.497;  -52.350;  447.000;  412.000
925.736;  -85.600;  -35.000;  102.000
925.975;   -0.575;  687.000;  669.000
926.214;   40.025;  907.000;  850.000
926.454;   18.250;  706.000;  757.000
926.693;  -49.650;  419.000;  543.000
926.932;   28.200; 1021.000;  825.000
927.171;   57.275; 1107.000; 1044.000
927.410;   39.400; 1144.000;  967.000
927.649;   20.525;  924.000;  742.000
927.888;  -10.575;  590.000;  564.000
928.127;  -14.675;  680.000;  678.000
928.366;   30.925;  842.000;  826.000
928.605;   36.975;  831.000;  737.000
928.844;  240.575; 1451.000; 1393.000
929.083;  606.600;  770.000;  613.000
929.321;  305.425; 1335.000; 1359.000
929.560;   76.300; 1158.000; 1122.000
929.799;  -34.550;  574.000;  475.000
930.038;   70.125; 1025.000; 1394.000
930.276;  -44.325;  334.000;  397.000
930.515;  -13.500;  827.000;  681.000
930.753;  -16.725;  614.000;  589.000
930.992;  -15.600;  664.000;  717.000
931.230;   -2.000;  847.000;  847.000
931.469;  175.875; 2162.000;  892.000
931.707;   80.725;  840.000;  751.000
931.946;   59.375; 1278.000; 1344.000
932.184;   61.950; 1437.000; 1175.000
932.423;   63.475; 1265.000;  963.000
932.661;   88.775; 1296.000; 1428.000
932.899;   23.075;  987.000;  821.000
933.137;    3.225;  754.000;  564.000
933.376;  141.575; 1664.000; 1335.000
933.614;  156.225; 1759.000; 1196.000
933.852;   58.800; 1357.000; 1171.000
934.090;  129.025; 1722.000; 1747.000
934.328;  100.025; 1252.000; 1457.000
934.566;   89.825; 1431.000; 1110.000
934.804;  151.125; 1263.000; 1309.000
935.042;  524.675; 1861.000; 1850.000
935.280; 2119.750; 2088.000; 2063.000
935.518; 1914.200; 2113.000; 2007.000
935.756;  399.750; 2481.000; 2316.000
935.994;  156.725; 1808.000; 1751.000
936.231;  358.825; 2890.000; 2950.000
936.469;  182.225; 2367.000; 2378.000
936.707;  170.050; 2220.000; 2167.000
936.945;  230.050; 2825.000; 2882.000
937.182;  206.975; 2679.000; 2741.000
937.420;  297.300; 3602.000; 3031.000
937.657;  401.750; 3365.000; 3478.000
937.895;  353.225; 3331.000; 3488.000
938.133;  307.675; 3540.000; 3528.000
938.370;  342.175; 3896.000; 4191.000
938.607;  399.850; 4488.000; 4205.000
938.845;  553.225; 5587.000; 5549.000
939.082;  477.025; 5387.000; 5177.000
939.320;  527.075; 5799.000; 5728.000
939.557;  634.600; 6549.000; 6491.000
939.794;  730.600; 7285.000; 7097.000
940.031;  903.050; 8421.000; 8368.000
940.269; 1080.075; 9552.000; 9107.000
940.506; 1150.575;10901.000;10507.000

