
Integration time [ms]: 100.000
Averaging Nr. [scans]: 40
Smoothing Nr. [pixels]: 0
Data measured with spectrometer [name]: 2101013U2
Wave   ;Sample   ;Dark     ;Reference
[nm]   ;[counts] ;[counts] ;[counts] 

394.013;   32.516; -450.257; -315.536
394.305;  166.439; -461.258; -419.536
394.596; 1592.213; -676.269; -527.514
394.887; 4219.708; -796.268; -654.518
395.178; 1517.870;  145.736;   11.476
395.470;   87.434; -210.263; -356.526
395.761;  141.401;  305.734;  394.479
396.052;  125.384; -545.284; -306.489
396.343;   93.995; -557.276; -454.503
396.634;   49.257; -200.279; -290.497
396.926;   23.930; -618.268; -565.517
397.217;   58.875;   11.725;  -17.504
397.508;   27.970; -366.273; -154.507
397.799;    7.157; -555.279; -571.497
398.090;   -1.350; -973.280; -902.495
398.381;   74.743;   11.708;  -11.473
398.672;  -35.056; -585.292; -742.473
398.963;   28.639; -348.279; -373.498
399.254;   82.005;   54.709; -209.475
399.545;  -31.828;-1017.266; -883.520
399.836;   47.531; -407.277; -343.501
400.127;   57.714; -205.295; -209.468
400.418;   24.638; -423.274; -392.506
400.709;   31.359; -359.281; -333.493
401.000;   39.960; -268.291; -309.476
401.290;  120.436;  225.698;  115.545
401.581;   67.163; -166.286; -228.485
401.872;   30.079; -542.298; -486.462
402.163;   55.379; -313.296; -252.467
402.454;   85.681; -123.291; -163.475
402.744;   44.994; -844.297; -813.465
403.035;  234.832; -226.293;  -86.471
403.326;  329.873; -366.292; -384.474
403.617;  323.648;  204.701;  165.539
403.907;  361.691; -593.283; -679.490
404.198; 3624.130; -545.307; -599.446
404.489; 9251.222; -618.283; -588.491
404.779; 2606.615; -618.302; -660.456
405.070;  281.889;  -67.304; -174.451
405.360;  503.009; -259.293; -238.472
405.651;  477.654;  125.699;   98.542
405.942;  171.807;  209.714;  127.516
406.232;   91.350; -432.285; -413.487
406.523;  253.276;  641.706;  758.530
406.813;   34.860; -579.286; -644.484
407.104;  199.866;  261.708;  144.527
407.394;   75.524; -604.299; -591.462
407.685;  142.174;  336.715;  222.513
407.975;   60.446; -400.283; -382.490
408.265;   97.024; -134.289; -190.478
408.556;   59.877; -472.291; -459.475
408.846;  175.202;  474.706;  429.530
409.137;  101.334;   -1.288; -216.480
409.427;   71.450; -193.285; -271.487
409.717;   53.349; -776.273; -692.508
410.007;  140.042;    4.715; -170.486
410.298;  108.167; -360.295; -342.469
410.588;   94.647; -495.285; -510.486
410.878;   63.047; -792.287; -873.482
411.168;  117.907; -481.298; -478.463
411.459;  146.614; -295.283; -242.489
411.749;   88.450; -609.292; -507.474
412.039;   79.707; -755.289; -386.480
412.329;  230.423;   40.722;  132.501
412.619;  226.111;  -62.286; -148.485
412.909;  372.077;  639.711;  594.521
413.199;  333.375; -130.280; -251.495
413.490;  405.465;  521.710;  352.523
413.780;  226.530;-1013.279; -913.496
414.070;  398.921;  -46.276;  235.497
414.360;  417.968; -729.278; -666.498
414.650;  562.843; -726.288; -688.482
414.940;  749.904; -538.280; -441.496
415.230; 1236.264;   50.712;   74.519
415.520; 8723.637;  155.730;   66.486
415.809;35071.558; -305.281; -125.493
416.099;26354.384; -388.277; -229.501
416.389; 7816.210;  435.726;  236.494
416.679; 4532.389;   91.738;   85.473
416.969;  793.878; -527.287; -503.483
417.259;  646.407;  341.721;  171.503
417.549;  909.382;  522.718;  318.508
417.838; 2428.707; -205.268; -147.518
418.128; 8409.772;  650.710;  492.522
418.418; 6803.657; -491.272; -579.509
418.708; 4565.686;    9.726;  -48.506
418.997;17981.530; -474.275; -480.505
419.287;18277.119; -733.273; -790.507
419.577;17846.163; -160.283; -123.489
419.866;57259.457; -588.277; -498.501
420.156;55565.232; -242.270;  -55.513
420.446; 9209.354; -112.263;  -26.526
420.735;  895.149; -376.271; -446.512
421.025;  918.442; 1830.722;  315.502
421.314;  586.147; -203.271; -226.512
421.604;  746.548;   89.732;  233.484
421.893;  461.768; -705.271; -602.511
422.183;  308.730; -487.263; -461.526
422.472;  414.919;  -36.271; -107.511
422.762;  435.404; -416.266; -379.521
423.051;  289.297; -916.276; -916.503
423.341;  329.196; -491.273; -439.507
423.630;  413.337; -121.265;   15.477
423.919;  440.130;   58.725;   49.495
424.209;  475.486;  -31.263;   56.473
424.498;  658.829;   68.732;  161.483
424.787; 1487.887; -535.267; -601.518
425.077; 4411.085;   34.735;   29.478
425.366; 4822.018; -734.262; -744.528
425.655;13617.522;  639.727;  259.493
425.945;34917.601; -313.247; -268.554
426.234;18372.946;  117.741;  300.467
426.523; 7435.227;  -86.259; -350.534
426.812;10082.299;  107.734;  159.480
427.101;15169.319; -127.269; -323.515
427.390;17755.586;  -55.270;  -86.514
427.680; 2563.951; -624.257; -411.538
427.969;  527.515; -330.255; -301.540
428.258;  369.016; -385.257; -477.536
428.547;  536.462;  449.728;  397.490
428.836;  772.009; -421.253; -398.543
429.125; 1070.929; -199.259;  -72.534
429.414;  825.687; -330.251; -294.548
429.703; 4576.837; -231.251; -213.548
429.992;14206.966; -938.250; -828.549
430.281; 8964.471; -397.264; -331.524
430.570;  629.300;  -21.252;   32.454
430.859;  435.027;  279.741;  352.466
431.148;  424.346;  636.752;  631.446
431.437;  333.300;  391.748;  367.454
431.725;  210.193; -544.257; -481.536
432.014;  219.168; -845.253; -756.545
432.303;  433.988; -149.239; -105.569
432.592;  585.654; -460.263; -178.525
432.881; 1452.972; -601.248; -437.554
433.169; 9705.940; -343.255;  -61.540
433.458;19563.330;  445.765;  540.424
433.747; 7638.350; -397.261; -289.529
434.036;  961.384; -275.242; -280.564
434.324; 2944.307; -395.249; -379.551
434.613; 5317.026;   40.757;  159.437
434.902; 1530.976;  333.760;  439.433
435.190;  299.637;   75.761;  295.431
435.479;  181.079;  -52.245;   83.441
435.767;   90.613; -411.244; -427.561
436.056;  227.879; -340.242; -294.563
436.345;  498.654; -372.240; -223.568
436.633;  458.126;   60.750;  383.450
436.922;  199.582;  208.760;  414.432
437.210;  237.842; -194.236;    1.426
437.499;  568.552; -583.235; -432.576
437.787;  651.592; -339.236;  -10.574
438.075;  202.219;   56.761;  162.430
438.364;  241.397;  -44.238;  250.429
438.652;  125.450; -286.226; -138.592
438.941;   87.831;    3.770;  269.415
439.229;    3.772; -665.252; -466.545
439.517;   39.287; -160.234;  -85.577
439.806;   -1.906; -501.225; -290.595
440.094;  150.947;  377.766;  650.421
440.382;   50.927; -653.233; -302.580
440.670;   54.027; -361.235; -285.576
440.959;    6.215; -347.223; -170.599
441.247;   46.545; -151.229; -109.587
441.535;   61.636; -266.235;   31.423
441.823;    1.143; -497.234; -305.578
442.111;  162.100;  173.771;  327.412
442.400;  326.828; -628.245; -335.559
442.688;  576.396; -111.234; -620.579
442.976;  284.323; -786.213; -450.617
443.264;   49.602; -324.224; -364.597
443.552;   59.551; -258.226;   51.408
443.840;  140.984;  602.765;  876.423
444.128;   96.950;  265.767;  269.420
444.416;   -6.772; -694.228; -312.588
444.704;   33.101; -465.219;  -92.605
444.992;   53.905;   -0.226;  240.407
445.280;   12.682; -517.230;  -94.585
445.568;    7.977; -694.212; -396.618
445.856;  167.032; -174.221;  357.398
446.143;  278.372;  -54.220;   -7.604
446.431;  264.058;  -25.228;  625.411
446.719;  170.725;  489.783;  675.391
447.007;  157.300;  481.769;  705.416
447.295;  173.137;  597.777;  871.402
447.583;   88.292; -464.229;  -34.587
447.870;  122.003; -434.221; -202.601
448.158;  258.505; -104.230;  129.415
448.446;  167.323; -800.219; -338.604
448.733;  146.279;   13.776;  269.403
449.021;  198.351;   60.788;  341.382
449.309;  166.970; -296.210;  208.379
449.596;  238.995;  128.783;   59.392
449.884;  206.620; -571.222; -325.600
450.172;  283.939; -756.227; -406.590
450.459;  660.977;  645.786;  780.387
450.747; 3826.294; -411.218; -147.608
451.034;12344.684;  493.772;  889.411
451.322; 9874.106; -413.214; -170.614
451.609;  737.606;  292.777;  508.403
451.897;  907.047; -550.203; -183.634
452.184; 2767.762; -622.223; -400.598
452.472; 2425.771;   97.792;  269.375
452.759;  335.224;  512.781;  864.395
453.047;  100.648; -407.212; -125.617
453.334;   43.133; -732.219; -216.606
453.621;   35.059; -438.214; -161.615
453.909;   90.687;   13.796;  384.368
454.196;  116.192; -299.199; -123.641
454.483;  240.813;  317.798;  540.364
454.771;  142.425; -215.208;  196.374
455.058;   47.904; -316.207;  102.374
455.345;  143.110;   71.807;  344.347
455.632;  130.208; -128.207;  235.373
455.919;   62.770;  -82.196;  182.354
456.207;  -42.727; -774.198; -450.642
456.494;   -3.773; -475.200;  -66.639
456.781;   26.707; -399.202; -198.635
457.068;   66.991; -253.206;  -29.628
457.355;    7.717; -698.206; -401.629
457.642;   18.799; -552.205; -290.630
457.929;   41.124; -778.194; -417.651
458.216;  104.849; -575.212; -354.617
458.503;  390.404; -173.193;  -19.652
458.790;  418.397; -864.208; -630.625
459.077;  375.563;  -77.202;  110.364
459.364; 1221.565; -350.195; -210.649
459.651; 2579.288;  -46.206;  220.372
459.938; 1138.810; -864.209; -665.623
460.225;  127.717;  132.799;  276.363
460.512;  -36.134; -836.197; -688.645
460.799;  132.267;  -32.218;  320.392
461.086;   97.558; -370.200; -251.640
461.372;   31.948; -509.198; -279.642
461.659;   59.721; -165.196;  108.354
461.946;   51.478; -445.193;  -54.651
462.233;  215.430;  842.800;  888.361
462.519;  505.951; -814.201; -464.639
462.806; 1537.367; -768.197; -497.645
463.093; 1334.428; -445.191;  -66.656
463.380;   11.778; -920.186; -824.664
463.666;   59.469; -259.197;  -18.646
463.953;  131.559; -406.195; -243.648
464.239;  282.984; -173.195;  -77.648
464.526;  407.847;  413.806;  743.350
464.813;  336.217; -565.190; -304.658
465.099;  334.329;  606.807;  607.348
465.386;  267.209;  903.807;  921.348
465.672;   21.842; -694.197; -522.645
465.959;   55.489; -598.188; -520.662
466.245;    5.634; -468.193; -359.652
466.532;   62.756; -109.195;   63.352
466.818;   27.053; -357.186; -216.664
467.104;  -21.873; -488.182; -415.672
467.391;  -15.681; -628.189; -459.658
467.677;   32.833; -289.186;    9.335
467.964;   -7.223; -682.189; -471.660
468.250;   52.586; -331.186; -160.665
468.536;   88.596;   90.811;  180.341
468.822;  -24.975; -821.184; -574.668
469.109;  144.551;  351.827;  471.311
469.395;  200.721;  729.808;  787.346
469.681;  240.025;   46.811;  156.341
469.967; 1816.805; -699.188; -382.660
470.254; 4106.240; -494.188; -306.662
470.540; 2514.020; -601.196; -476.646
470.826;  368.541; -488.181; -397.675
471.112;  404.705;  288.816;  113.331
471.398;  100.285; -253.183;  -58.670
471.684;   49.025; -626.177; -447.680
471.970;   20.695; -918.180; -981.675
472.256;   59.669; -521.192; -441.654
472.542;   31.314; -499.171; -434.691
472.828;   39.972; -743.182; -607.672
473.114;   27.592; -380.166; -283.700
473.400;   22.920; -504.175; -293.684
473.686;   39.500; -452.166; -400.701
473.972;   43.488; -230.174; -131.687
474.258;   -5.999; -925.173; -843.689
474.544;  318.890; -183.178;   -2.679
474.830;  516.897;  -65.175;   45.316
475.116;  817.394; -123.190; -196.658
475.401; 1091.423; -558.180; -467.676
475.687;  297.697; -725.180; -718.676
475.973;   -8.618; -673.181; -770.673
476.259;  251.325;  736.825;  764.315
476.544;  528.710; -539.176; -437.682
476.830; 1365.509; -398.172; -322.690
477.116; 1197.983; -430.177; -336.682
477.401;  179.573;  346.820;  358.324
477.687;   -6.279; -289.175; -405.684
477.973;   45.036;   21.819;   28.326
478.258;  -22.525; -448.163; -348.706
478.544;   31.067;   21.815;   61.334
478.829;  -58.979; -818.171; -738.692
479.115;  -47.766; -749.172; -651.690
479.401;   12.758; -444.174; -449.686
479.686;   58.396; -253.180;  -74.676
479.972;    5.971; -886.178; -776.680
480.257;   54.319; -258.166;  -65.700
480.542;   23.701; -614.170; -469.693
480.828;  235.318; 1288.824; 1392.317
481.113;  -34.884; -464.176; -426.683
481.399;   -1.071; -236.161; -202.711
481.684;  -37.307; -620.166; -462.700
481.969;   28.370; -158.159;  -73.713
482.255;   -6.536; -439.169; -285.695
482.540;   24.322; -569.178; -441.680
482.825;   36.447; -395.187; -404.663
483.110;  159.693;  -85.169; -105.696
483.396;  363.972; -840.157; -652.718
483.681;  751.463;  543.826;  730.313
483.966;  315.063; -696.160; -700.712
484.251;    8.612; -404.174; -310.687
484.536;   11.981; -356.165; -378.703
484.822;   38.366; -205.173; -218.687
485.107;   -3.982; -599.152; -502.726
485.392;  118.613;  662.836;  541.296
485.677;   82.855;  354.832;  163.302
485.962;  113.019;  160.843;  270.283
486.247;  102.485;  -14.162;   -8.707
486.532;   74.070; -178.166; -325.701
486.817;  182.647;  381.839;  431.291
487.102;  152.348; -453.154; -514.722
487.387; 1054.349; -637.156; -652.718
487.672; 1927.495; -154.164;  -38.705
487.957; 1192.581; -394.160; -286.711
488.241;  326.989; -290.150; -314.729
488.526; 1199.220; -280.152; -148.726
488.811; 1976.024; -881.177; -818.680
489.096; 1368.901; -666.154; -702.723
489.381;  703.465;    3.847;  162.275
489.666;  642.229; -428.161; -510.710
489.950;  218.855;  558.846;  627.277
490.235;  -30.917; -480.151; -458.728
490.520;  -26.373; -756.161; -723.710
490.804;  -42.624; -827.156; -736.719
491.089;   17.733; -469.149; -299.732
491.374;   38.493; -132.164;  -75.704
491.658;    0.372; -817.147; -717.735
491.943;   97.625; -657.152; -609.727
492.227;  202.117; -178.155;  -38.721
492.512;   39.943; -294.157; -341.717
492.797;  -59.475; -713.149; -716.731
493.081;  -34.175; -588.147; -598.735
493.366;  -22.471; -751.161; -635.711
493.650;  226.340;  831.859;  917.254
493.935;   66.521; -648.147; -447.734
494.219;  -16.600; -778.142; -687.743
494.503;  -23.556; -585.150; -487.730
494.788;   55.783;   46.842;   74.285
495.072;  134.890;  184.850;  434.271
495.356;  242.637; -463.148; -343.733
495.641;  529.058; -812.146; -736.736
495.925;  451.682; -976.156; -903.719
496.209;   20.482; -599.149; -451.732
496.494;  -44.350; -763.142; -544.744
496.778;    9.473; -364.154; -360.722
497.062;  -39.993; -819.156; -627.719
497.346;    6.433; -869.160; -640.711
497.631;  163.141;  580.852;  560.266
497.915;   69.321;  -64.145;  175.261
498.199;   45.122; -341.157; -277.718
498.483;   53.668; -562.152; -508.725
498.767;  246.242;  301.850;  300.271
499.051;  278.804; -126.149; -100.732
499.335;   66.052; -693.149; -739.731
499.619;  -18.886; -381.129; -423.767
499.903;   24.941; -272.155;  -65.721
500.187;   34.181; -588.153; -316.724
500.471;   16.524; -796.152; -595.727
500.755;  112.353;   62.839;  -96.710
501.039;   -9.359; -270.155; -357.721
501.323;   77.092;  -21.141;  264.254
501.607;   27.950; -447.163; -503.706
501.891;   10.449; -607.156; -512.718
502.174;  -30.815; -726.144; -585.741
502.458;   67.804;   89.849;  370.273
502.742;   51.696; -180.138; -191.751
503.026;  202.421; -412.147; -254.734
503.310;  322.469; -437.159; -375.713
503.593;  202.673; -464.147; -325.735
503.877;  142.846; -232.133; -156.760
504.161;  199.434;    2.847;  -50.724
504.444;  184.586; -841.158; -710.716
504.728;  764.592; -487.164; -522.704
505.012; 1108.438; -257.150;  -76.729
505.295;  814.954; -417.161; -212.711
505.579;  830.407; -256.156; -496.719
505.862; 1240.167; -555.145; -333.738
506.146; 1248.372; -681.159; -758.714
506.429;  552.998;  568.841;  461.286
506.713;  128.059; -732.151; -667.728
506.996;  486.297;   90.846;  295.278
507.280;  546.636; -633.165; -474.703
507.563;  384.164; -469.155; -261.721
507.847;  178.257; -423.153; -112.724
508.130;  175.330; -665.161; -456.711
508.413;  223.214; -758.167; -577.700
508.697;  417.914; -151.167;   12.300
508.980;  279.184; -422.153; -312.724
509.263;   27.835; -466.155; -450.720
509.547;   67.863; -124.150;   82.271
509.830;   65.583; -172.160;  140.289
510.113;   85.431;  128.844;  298.281
510.396;   47.741; -530.152; -300.725
510.680;   49.093; -818.145; -812.738
510.963;  234.102;  184.846;  180.277
511.246;  157.097; -493.150; -357.730
511.529;  284.924; -482.145;  -83.739
511.812;  612.016; -250.134;   10.241
512.095;  455.331; -740.151; -396.728
512.378;  116.553; -317.147; -245.736
512.661;   72.781; -703.137; -623.753
512.944;   89.452; -750.142; -637.744
513.227;  107.127; -170.137; -171.752
513.510;   59.085; -479.144; -671.741
513.793;   43.372; -485.140; -435.747
514.076;  160.464;  -43.127;  -39.771
514.359;  160.883; -294.149; -135.732
514.642;  143.531; -442.142; -567.744
514.925; 1123.771;  581.860;  561.253
515.208; 1649.712; -498.134; -443.758
515.491; 1035.104; -276.133; -182.761
515.773;  585.214; -410.143; -337.742
516.056; 3260.088;  249.864;  409.246
516.339; 4318.018; -754.136; -652.755
516.622; 2038.519; -518.150; -488.730
516.904;  588.298;  882.857;  975.257
517.187;  239.651; -730.138; -523.752
517.470;  416.321; -568.143; -510.743
517.752;  734.397; -624.136; -470.756
518.035;  605.785; -708.139; -725.749
518.318;  608.318; -799.136; -744.755
518.600; 3954.058; -300.132; -325.762
518.883; 5465.205;  310.858;   88.256
519.165; 2477.267; -585.138; -426.751
519.448;  451.983;  -61.132;  -19.762
519.730;  214.198; -573.126; -415.773
520.013;  255.599;  588.867;  664.240
520.295;  323.968;  -94.134;  -15.759
520.578;  685.774; -335.131; -305.764
520.860;  920.533; -254.132;   56.238
521.143;  654.474; -763.135; -584.756
521.425;  587.114; -251.125; -279.775
521.707;  991.189; -622.127; -380.771
521.990; 2783.940; -199.127;  167.229
522.272; 3247.625; -116.140;   -4.748
522.554; 1194.540; -237.143; -157.742
522.836;  287.116;  -24.134;   99.241
523.119;  198.219; -496.148; -189.734
523.401;  190.432; -448.130; -314.766
523.683;  159.531; -865.137; -693.753
523.965;  409.173;  408.862;  260.248
524.247;  426.315;   54.878;  170.220
524.529;  328.618; -451.134; -367.759
524.812;  470.809;   -3.130;  191.234
525.094; 1390.597; -773.138; -631.751
525.376; 2168.625; -143.124;   78.223
525.658; 1317.440; -441.136; -339.754
525.940;  107.745; -805.131; -671.764
526.222;   38.294; -188.136;  -88.755
526.504;   58.517; -190.131;   32.237
526.786;   40.521; -960.133; -647.760
527.068;  127.932; -124.123;  -67.778
527.349;   16.936; -865.137; -774.754
527.631;  118.883; -137.132;   22.238
527.913;  239.513; -664.127; -450.771
528.195;  323.405; -761.125; -639.774
528.477;  356.312;  -93.134;  -30.758
528.759;  271.759; -648.130; -522.766
529.040;  145.905; -569.123; -293.778
529.322;   89.059; -235.125;  -10.774
529.604;   99.787;  -47.130;   93.233
529.886;   42.873; -546.126; -302.773
530.167;   78.227;  232.870;  192.235
530.449;   41.752;    1.853;   63.265
530.731;   74.764; -572.122; -459.779
531.012;  142.939; -513.120; -216.784
531.294;  126.587; -118.116;  -43.792
531.575;  199.589;  290.875;  538.225
531.857;  130.131; -548.135; -266.757
532.138;  119.490; -113.141;   40.254
532.420;  124.476;  294.865;  403.244
532.701;   85.624; -722.133; -751.760
532.983;  204.103;  232.867;  182.239
533.264;   49.770; -243.126;  175.228
533.546;  -47.656; -491.136; -508.755
533.827;   21.995;  173.867;   -1.759
534.109;   14.056; -352.135;  -80.757
534.390;  103.513; -725.132; -582.762
534.671;  314.026; -270.135;  -82.756
534.953;  201.133; -751.123; -611.779
535.234;   50.043; -426.117; -255.789
535.515;  -53.801; -891.119; -735.785
535.796;    2.934; -431.128; -193.770
536.078; -107.650;-1050.124; -904.777
536.359;    7.884;  -22.123;    3.221
536.640;   -5.618; -480.125; -197.774
536.921;  167.443;  225.871;  143.232
537.202;  543.944;  -87.138;  -16.751
537.483;  672.773;  251.869;  377.236
537.764;  270.777;   17.870;   98.235
538.045;  -35.464; -543.134; -371.758
538.326;  -36.780; -596.129; -447.768
538.607;   79.216; -686.127; -476.771
538.888;  270.303;   98.879;    5.218
539.169;  307.746; -704.122; -535.781
539.450;  407.842;  236.871;   16.233
539.731;  279.633; -361.121; -182.783
540.012;  145.789;  199.880;  412.216
540.293;   85.218;   82.876;  158.224
540.574;   -5.663; -895.113; -717.796
540.855;  504.731;  435.879;  377.218
541.136;  667.868;   47.878;  139.220
541.416;  399.810; -161.130; -220.766
541.697;  280.618; -274.131; -170.763
541.978; 1650.779; -270.135; -315.757
542.259; 2110.390; -211.127; -236.771
542.539;  965.404; -191.116; -186.790
542.820;  209.613;  461.875;  480.225
543.101;  146.920;  -52.145;  -77.738
543.381;   46.190; -638.127; -591.771
543.662;  361.912;  159.873; -254.771
543.942;  982.910; -751.127; -830.770
544.223; 1695.420;  193.878;  161.219
544.504; 1109.374; -275.124; -182.777
544.784;  897.523; -592.126; -408.773
545.065; 2520.459;  104.884; -254.791
545.345; 2945.049;  227.881;   14.215
545.626; 1947.061;  -14.113; -108.796
545.906; 1411.001;   77.869;   98.235
546.186;  584.653;   92.874;  -95.773
546.467;  310.077;   99.877;  -95.778
546.747;  504.054;  264.884;  327.210
547.027;  577.547;   91.876;  111.223
547.308;  564.984; -376.127; -530.770
547.588;  591.246;  299.871;  371.232
547.868;  255.578;  458.870;  588.235
548.149;  248.493;  609.885;  593.207
548.429;  240.713; -347.127; -299.771
548.709;  371.214; -645.120; -461.784
548.989;  764.186;   84.882;   88.213
549.269; 3291.531;   10.868;  139.239
549.550; 7755.257;  215.877;  117.222
549.830; 6892.308; -758.111; -556.799
550.110; 1341.242; -468.110; -320.801
550.390; 1323.839; -128.122;  -56.779
550.670; 1896.531; -868.114; -783.795
550.950; 1303.331; -509.121; -471.782
551.230;  245.851;  549.879;  460.218
551.510;   40.954; -381.121; -326.782
551.790;   72.202; -173.109; -127.803
552.070;  332.102;  940.877; 1181.223
552.350;  719.579; -492.119; -377.786
552.630;  973.598;   -2.121;   77.219
552.909;  573.484;  181.884;   73.209
553.189;  392.639;  -49.132;   33.237
553.469;  385.854; -703.119; -514.786
553.749;  370.942; -469.127; -357.772
554.029;  276.724;   33.883;  -24.790
554.308;  273.473; -154.115;  -37.794
554.588;  128.707; -196.128; -204.770
554.868;  154.457; -366.121;  -47.782
555.147;  267.619; -114.115;  -46.793
555.427;  932.262; -260.116; -250.792
555.707; 6217.067; -284.115; -200.793
555.986; 7673.387; -719.111; -538.800
556.266; 3912.252;   23.884;   72.210
556.546;  246.104; -888.121; -675.782
556.825;  429.803; -657.114; -556.794
557.105; 2865.555; -125.128;   17.230
557.384; 3400.783;  122.884;  187.209
557.664; 1326.136; -717.116; -508.792
557.943;  231.631; -557.121; -411.782
558.222;  330.340; -345.118; -344.788
558.502;  415.196; -116.115;  -76.793
558.781;  727.866;  194.885;  499.208
559.061;  682.865; -232.118; -227.788
559.340;  472.121;  302.883;  353.211
559.619; 1163.352;   93.884;  148.210
559.899; 1713.698; -239.117; -266.789
560.178; 1526.871; -778.115; -593.793
560.457; 4849.350; -623.117; -562.790
560.736; 6833.564; -472.111; -482.800
561.015; 4471.677; -500.128; -502.769
561.295;  542.976;  180.893;  215.193
561.574;  443.118;  119.885;  116.207
561.853;  718.407;  274.891;  303.197
562.132;  785.824;  -45.114;  182.206
562.411;  681.824;  396.879;  553.219
562.690;  273.740; -592.115; -458.792
562.969;  181.720;  472.888;  630.203
563.248;  563.496; 2966.878; 2487.219
563.527;  474.063; -290.111; -408.800
563.806;  670.263; -650.127; -521.771
564.085;  695.694; -297.105; -206.810
564.364;  443.752; -594.117; -405.790
564.643;  801.924; -276.121; -223.781
564.922; 2987.374;  221.890;  397.198
565.201; 3110.929; -640.109; -700.803
565.479; 1283.789; -297.115; -219.792
565.758;  587.055; -810.128; -712.770
566.037;  784.630; -155.109; -100.803
566.316;  383.258; -286.116;  -28.791
566.595;   77.692;  -17.115;  -12.793
566.873;  115.290; -166.111;  -79.801
567.152;  -24.931; -490.113; -590.797
567.431;   34.004; -113.116;    6.210
567.709;   53.076; -344.107; -212.807
567.988;  473.128; -810.114; -769.794
568.266;  870.367; -160.115;  -68.793
568.545;  664.877; -644.100; -514.819
568.824;  950.888;  160.885;  356.208
569.102;  934.627; -351.114; -235.794
569.381;  406.062; -492.116; -407.792
569.659;   -7.710; -553.113; -553.796
569.938;  144.919; -743.122; -465.780
570.216;  194.783; -225.109; -225.804
570.494;   39.657; -632.114; -572.795
570.773;   39.829;  202.879;  114.218
571.051;   55.031; -373.123; -357.778
571.330;  124.012; -221.113; -174.796
571.608;   90.973; -181.098; -173.823
571.886;  -25.094; -671.111; -581.799
572.164;  -31.018; -739.121; -621.782
572.443;  -19.176; -562.105; -512.811
572.721;  -21.725; -399.117; -289.790
572.999;   13.742; -280.117; -168.788
573.277;  110.216;  379.894;  620.191
573.555;  460.968;   94.894;   37.190
573.834; 2208.017;  -86.117; -114.788
574.112; 2506.004;  880.893;  811.193
574.390;  766.239; -143.111;  -96.801
574.668;   26.896;  -91.112;  -61.797
574.946;    6.469; -165.106; -187.810
575.224;   23.904;   71.891;  -16.803
575.502;   -0.469; -200.116; -204.791
575.780;  -62.503; -767.112; -829.798
576.058;  152.113; 1589.889; 1004.200
576.336;    0.745; -210.110; -129.801
576.614;  -50.103; -511.112; -340.798
576.891;  141.198; -711.115; -823.794
577.169;  833.718; -158.108; -285.805
577.447;  921.528;  169.893;  202.193
577.725;  381.477;  629.888;  854.201
578.003;   49.425;  -71.112; -371.798
578.280;  141.560; -208.104; -242.812
578.558;   99.921; -450.115; -422.793
578.836;  176.031; -210.114; -145.795
579.114;   88.845; -630.112; -670.797
579.391;   79.519;   -6.117;  -18.789
579.669;  -49.976; -595.114; -704.794
579.947;  276.549; -326.107; -127.806
580.224;  586.574; -692.107; -524.806
580.502;  524.354;  127.893;   76.193
580.779;   50.101;  -42.117;   75.210
581.057;  -53.841; -584.109; -470.804
581.334;  -79.722; -726.102; -695.815
581.612;   38.070;   54.895;  511.190
581.889;   -7.606;  -83.101; -129.818
582.167;  -15.614; -298.099; -190.821
582.444;  -82.913; -845.102; -814.817
582.721;   97.088;  657.899;  715.183
582.999;   87.283; -326.100; -167.821
583.276;  943.911; -812.123; -713.779
583.553; 1217.057; -364.102; -294.816
583.831;  446.806; -607.104; -631.812
584.108;   69.566;  349.892;  174.195
584.385;   54.277; -122.102;  -98.815
584.662;  -40.484; -651.111; -828.801
584.940;   47.365;  204.889;  204.199
585.217;  -13.161;  -73.113; -303.796
585.494;   53.126;   71.890;  118.198
585.771;  338.810; -250.109; -354.804
586.048;  815.514; -196.113;  -76.796
586.325;  546.694; -721.110; -773.801
586.602;  134.710;  230.896;  213.188
586.879;   18.904; -499.100; -580.820
587.156;  113.096; -156.105; -331.810
587.433;    7.360; -701.102; -667.817
587.710;  113.173;  152.888;  234.202
587.987;  448.002; -264.105; -236.811
588.264; 1178.450;  315.888;  387.202
588.541; 1981.838;  -61.104;   26.187
588.818; 4090.762;   72.892;  171.196
589.095; 3504.458; -163.104; -174.812
589.371;  592.007; -459.109; -414.804
589.648;   67.204; -581.107; -437.807
589.925;   98.632; -517.114; -621.795
590.202;  103.122; -741.112; -607.798
590.478;  154.929; -166.105;  -73.811
590.755;  418.295; -241.108; -132.806
591.032; 3828.721; -741.110; -699.802
591.308; 5489.947; -732.094; -790.831
591.585; 2825.346; -573.110; -560.802
591.862;  331.962;-1056.102; -950.817
592.138;  149.842; -475.108; -474.805
592.415;  256.036; -486.104; -495.813
592.691; 2175.909;  460.896;  518.188
592.968; 2944.376; -208.098; -123.824
593.244; 1428.379; -695.116; -595.790
593.521;  121.812; -105.102;  -42.817
593.797;   50.116; -810.122; -720.780
594.074;  560.391; -611.096; -588.826
594.350;  958.355;  828.905;  729.172
594.626;  481.866; -303.111; -283.801
594.903;  233.488; -643.101; -645.817
595.179;  289.941;  243.896;  418.187
595.455;   34.655; -136.107; -150.807
595.731;   -3.657;  -19.103;  -38.814
596.008;   -4.341; -464.111; -434.800
596.284;   85.157; -187.100; -242.820
596.560;  160.080; -501.093; -493.833
596.836;  347.148; -173.105;  -70.810
597.112;  599.293; -582.108; -437.805
597.388;  472.339;  -49.097;  -48.826
597.665;  163.642;  437.887;  530.203
597.941;  -27.634; -572.089; -658.839
598.217;   71.950; -323.110; -293.802
598.493;  411.437;   61.891; -204.804
598.769;  829.525; -175.100;  -50.819
599.045;  520.346; -490.108; -562.806
599.321;  129.181; -193.100; -261.820
599.597;  260.786; -355.109; -476.804
599.872;  737.213;  409.896;  429.187
600.148;  586.890;  -61.097; -172.826
600.424;  448.252;   91.893;  202.193
600.700;  423.655; -170.107; -280.807
600.976;  219.883; -442.097; -464.825
601.252;  412.932; -226.109; -272.803
601.527;  406.464; -833.104; -840.813
601.803;  266.230; -453.105; -404.812
602.079;  291.100; -124.100; -118.819
602.354;  936.567; -620.092; -531.835
602.630; 1313.339; -140.113; -482.796
602.906; 3427.819; -910.101; -863.818
603.181;10477.079; -627.119; -534.786
603.457; 8856.388;   98.903; -278.826
603.733; 1334.709; -605.120; -626.783
604.008; 1436.869; -245.106; -164.810
604.284; 4814.590; -636.101; -580.817
604.559; 4118.577;   -3.112;  -42.799
604.835;  770.173; -163.105; -225.810
605.110;  691.987; -732.099; -892.821
605.385; 1072.433;  224.907;  267.167
605.661; 1061.658; -625.095; -729.829
605.936; 1938.447; -664.108; -737.806
606.211; 1640.101;  -17.103; -170.815
606.487;  370.901; -329.114; -376.794
606.762;   94.779; -791.119; -745.786
607.037;   22.398; -501.105; -433.810
607.313;  -17.200; -589.096; -574.828
607.588;   25.069; -375.106; -137.810
607.863;   81.469;  -28.101; -143.818
608.138;  256.423;  513.890;  516.198
608.413;  113.292; -576.099; -592.822
608.688;  123.567; -203.108; -267.805
608.964;  351.012; -509.106; -218.809
609.239;  424.495; -107.105; -212.810
609.514;  380.430;  281.895;  240.188
609.789; 1069.060; -187.104; -716.812
610.064; 1404.148; -435.096; -609.827
610.339; 1423.557; -855.109; -799.804
610.614; 1951.131; -131.100; -315.820
610.889; 1064.305;  215.895;  107.188
611.163;  116.781; -407.104; -591.812
611.438;  170.553;   81.886; -167.794
611.713;   71.865; -467.101; -499.817
611.988;  113.742; -144.101; -328.818
612.263;   36.903; -771.102; -717.815
612.538;  303.763;  385.887;  251.204
612.812;  362.758; -832.100; -911.820
613.087;  291.248; -358.098; -338.823
613.362;  -21.870; -497.107; -557.807
613.637;   62.171;  261.897;  138.186
613.911;   24.618; -256.092; -345.835
614.186;  218.503; -249.107; -292.807
614.460; 1152.657; -842.081; -758.854
614.735; 1270.169;  -55.087;  -17.843
615.010;  270.932;   43.912;  -82.841
615.284;  350.441;  360.892;  246.195
615.559;  652.616; -792.092; -955.835
615.833;  466.139;  -76.099;  -87.822
616.108;   49.406; -225.090; -390.837
616.382;  199.671;  274.913;  402.156
616.656;  272.181; -241.090; -232.837
616.931;  814.315; -785.099; -700.822
617.205; 1675.990; -973.104; -979.813
617.480; 1577.111;  -91.125;    6.225
617.754;  299.158; -396.125; -128.774
618.028;   65.872; -369.129; -382.768
618.302;  109.190;   73.892;  -25.805
618.577;    4.698; -371.103; -518.815
618.851;  -18.597; -399.109; -600.803
619.125;  -31.507; -335.134; -378.759
619.399;  -15.135; -244.104; -374.813
619.673;   -8.662; -330.115; -515.792
619.947;  -18.744; -333.114; -448.795
620.222;   27.017; -198.110; -204.801
620.496;   12.681;  -47.121;  -96.782
620.770;   38.571; -187.122;  -93.781
621.044;  317.571;  323.895;  346.190
621.318; 1160.410; -653.120; -614.783
621.592; 1105.282; -430.121; -409.783
621.866;  661.954; -476.112; -572.799
622.140;   78.556; -207.116; -356.791
622.413;   91.134;  138.889;  112.200
622.687;   -1.560; -746.101; -492.817
622.961;   43.515; -130.108; -143.805
623.235;  -27.165; -633.111; -661.800
623.509;  -75.696; -816.105; -848.811
623.783;   18.650;  -12.107;   48.193
624.056;   10.186; -254.120; -280.783
624.330;   71.071;   63.888;   -3.797
624.604;   92.577; -271.116; -355.790
624.877;  121.872;  180.890;   26.198
625.151;  100.225; -249.114; -238.794
625.425;  -26.057; -150.103; -283.814
625.698;  -45.103; -367.119; -374.785
625.972;  -60.900; -799.110; -765.802
626.245;   99.704;  685.884;  484.210
626.519;  -42.659; -426.120; -340.784
626.792;  -23.820; -192.107; -380.807
627.066;  -62.738; -485.122; -662.779
627.339;  -65.430; -736.110; -663.802
627.613;   46.589;  351.880;  148.216
627.886;   75.602;  187.891; -612.803
628.160;    7.684;  312.880; -161.783
628.433;  -74.260; -695.125; -703.775
628.706;  -74.534; -517.120; -615.784
628.979;   33.473;  296.876;  117.223
629.253;  -39.347; -785.119; -833.786
629.526;  604.821; -334.126; -253.772
629.799;  627.231; -641.123; -479.778
630.072;  315.199; -497.128; -516.769
630.346;   -7.721;-1115.116;-1080.790
630.619;  734.306; -467.107; -545.808
630.892;  949.910;  709.889;  593.200
631.165;  477.140;  790.896;  679.187
631.438;  -22.250;-1092.112;-1055.798
631.711;   53.185;  453.877;  257.221
631.984;  -32.052; -523.117; -624.789
632.257;  -40.731; -636.117; -681.789
632.530;  -36.602; -412.119; -433.785
632.803;   37.997; -109.115;    7.207
633.076;  -47.323; -360.123; -422.777
633.349;   26.129;  173.872;  121.231
633.622;  -35.054; -187.119; -240.785
633.895; -100.464; -903.120; -823.783
634.167;  -60.152; -496.126; -525.773
634.440;   -0.163;  -19.116; -137.792
634.713;   -5.573;  -22.119; -120.786
634.986;   89.917;  593.871;  453.233
635.258;  -70.105; -507.115; -597.793
635.531;  104.989;  742.882; -343.788
635.804;  -12.978; -303.117; -318.789
636.077;  -78.818; -830.116; -852.791
636.349;   47.243; -586.115; -474.793
636.622;  454.020; 1695.874; 1392.228
636.894;  417.666; -474.120; -909.784
637.167;  316.838; -836.127; -789.771
637.439;   59.158; -278.128; -213.770
637.712;  -34.228; -312.126; -293.772
637.984;  -71.017; -635.116; -707.791
638.257;  493.478;  515.877;  488.222
638.529;  929.316; -881.125; -924.776
638.802;  402.824; -508.128; -449.769
639.074;  -89.455; -927.122; -952.781
639.346;  -99.992; -942.135; -930.757
639.619;    2.454;  -79.142; -319.744
639.891;    4.137;  -83.122; -168.779
640.163;  -70.635; -689.122; -756.780
640.435;   46.217;  273.878;  103.220
640.708;   17.894;  -72.122; -132.780
640.980;   -2.379; -366.122; -362.781
641.252;  244.524;  -25.121;  -71.781
641.524; 2493.876;  580.879;  573.219
641.796; 2706.253;-1094.121; -907.782
642.068;  480.980; -191.121; -300.782
642.340;  -21.992; -486.121; -566.783
642.613;   43.235;  294.880;  323.217
642.885;  -83.388; -787.120; -878.783
643.157;   -1.536; -810.120; -658.784
643.428;   71.341;  170.880;  218.216
643.700;  -61.831; -498.120; -425.784
643.972;  -38.179;  -16.119; -133.785
644.244;  -72.427; -474.119; -559.785
644.516;  -38.875; -250.119; -114.786
644.788;   52.228;  662.881;  548.214
645.060;  -18.095;  -12.119; -124.786
645.332;  -90.743; -525.118; -535.787
645.603;   23.884;  479.882;  342.213
645.875;  -53.938; -334.118; -369.787
646.147;  165.589; 1487.882; 1242.212
646.418;   -6.584; -931.117; -918.788
646.690;  330.968; -714.117; -715.789
646.962;   93.370; -413.117; -451.789
647.233;   -8.377;   15.883;   11.211
647.505; -102.600; -595.117; -475.790
647.776;   19.752;  328.884;  229.210
648.048;   22.129; -248.116; -418.790
648.320;  -28.343; -752.116; -679.791
648.591; -141.041;-1055.116; -958.791
648.862;  -94.889; -505.116; -577.792
649.134;   14.738;  115.885;  198.208
649.405;  -21.310; -661.115; -618.792
649.677;  -23.657; -475.115; -598.793
649.948;   26.245; -181.115; -296.793
650.219;    8.772;  -37.115; -147.793
650.491;  -75.901; -431.114; -520.794
650.762; -114.798; -705.114; -731.794
651.033;  -79.171; -437.114; -424.795
651.304;  -53.269; -743.114; -728.795
651.576;  -45.342; -680.114; -645.795
651.847;  -32.439; -250.113; -140.796
652.118;  -31.962;  -32.113; -189.796
652.389; -109.810; -639.113; -722.796
652.660;  -32.883; -147.113;  -89.797
652.931; -121.856; -897.112; -871.797
653.202;  -69.428; -382.112; -541.798
653.473;  -53.251; -633.112; -533.798
653.744;  288.501; -595.112; -590.798
654.015;  268.628; -356.112; -303.799
654.286;  -33.919; -642.111; -663.799
654.557;  -18.717; -586.111; -521.799
654.828; -129.540;-1114.111;-1088.800
655.099;  -66.288; -404.111; -291.800
655.370;  -89.085; -427.111; -543.801
655.641; -112.633; -656.110; -714.801
655.911; -104.806; -618.110; -638.801
656.182;   36.271;  437.890;  387.198
656.453;   77.848;  830.890;  746.198
656.724;  -71.949; -466.110; -426.802
656.994;  -74.397; -553.109; -568.803
657.265;  -83.520; -862.109; -873.803
657.536;  -82.843; -500.109; -377.804
657.806; -104.515; -561.109; -593.804
658.077; -119.188; -866.109; -950.804
658.347;  -88.611; -523.108; -598.805
658.618; -110.084; -646.108; -694.805
658.888;  -19.682;  -41.108;  112.195
659.159;  -67.104; -432.108; -548.806
659.429;   11.748; -292.108; -349.806
659.700;   63.075; -435.107; -390.807
659.970;   37.777; -370.107; -359.807
660.241;   92.755; -754.107; -921.807
660.511;  807.907; -147.107; -174.808
660.781;  211.009; -793.106; -748.808
661.052;  -34.289; -222.106; -381.808
661.322;  -16.786;   21.894;   -9.809
661.592;   21.791;  257.894;  148.191
661.862;  -72.432; -369.106; -382.810
662.133;  -90.005; -551.105; -502.810
662.403; -100.778; -770.105; -676.810
662.673;  -52.750; -256.105; -213.811
662.943;  -93.723; -612.105; -551.811
663.213;   20.629;  -85.105;  -81.811
663.483;  -64.194; -593.104; -568.812
663.753;  -32.016; -194.104; -152.812
664.023;   -9.614;   68.896;  -32.813
664.293;  -53.112; -319.104; -126.813
664.563; -106.210; -694.104; -648.813
664.833; -104.332; -743.103; -608.814
665.103; -122.880; -730.103; -793.814
665.373; -110.553; -766.103; -806.814
665.643;  -37.326; -863.103; -918.815
665.913;   97.101; -534.103; -714.815
666.182;  263.179; -685.102; -719.816
666.452;  434.756;  -22.102;  -89.816
666.722;   32.308; -724.102; -784.816
666.992; -100.165; -948.102; -921.817
667.261;  -68.812; -824.102; -808.817
667.531;  284.965;  134.899;   45.183
667.801;  870.892; -440.101; -412.818
668.070;  312.919;  714.899;  697.182
668.340;  -70.679; -883.101; -840.819
668.609;  112.674;  588.900;  301.181
668.879;  -70.124; -490.100; -558.819
669.149;  -59.497; -539.100; -516.820
669.418;  -90.595; -698.100; -726.820
669.688;    3.908; -482.100; -666.820
669.957;  159.210; -423.099; -546.821
670.226;    3.187; -268.099; -331.821
670.496;  -95.036; -431.099; -635.822
670.765;  -72.408; -418.099; -501.822
671.034; -136.306; -872.099; -828.822
671.304;   -8.529;   55.902; -111.823
671.573; -123.327;-1085.098; -957.823
671.842;  150.300; -380.098; -294.823
672.112;   95.753; -692.098; -586.824
672.381;   38.505; -239.098; -214.824
672.650; -113.818;-1005.097;-1021.825
672.919;  -68.816; -631.097; -507.825
673.188;  -73.388; -681.097; -878.825
673.457; -114.211;-1101.097;-1143.826
673.726;  -58.459; -579.096; -646.826
673.995;  -15.482; -533.096; -479.826
674.265;    9.795; -263.096; -333.827
674.534;   51.623; -183.096; -235.827
674.802;   73.350; -618.096; -703.828
675.071; 1425.727; -886.095; -801.828
675.340; 6174.829; -464.095; -339.828
675.609; 2023.282;  103.905;   82.171
675.878;  207.909; -949.095; -893.829
676.147;   65.386;  -26.095;   -8.829
676.416;  151.813; -210.094; -294.830
676.685; 1075.991; 1000.906; -622.830
676.953;  223.268; -603.094; -452.831
677.222;   -4.680; -193.094; -273.831
677.491;  -16.453;  -24.094; -127.831
677.759;    2.424;   11.907;  172.168
678.028;    4.002; -279.093; -222.832
678.297;    3.504;   71.907;  197.168
678.565; -132.794; -898.093; -944.833
678.834;  -38.342; -311.093; -268.833
679.102;  -60.864; -411.092; -391.834
679.371; -126.012; -898.092; -727.834
679.639; -125.760; -797.092; -786.834
679.908; -109.808; -794.092; -724.835
680.176; -143.105; -895.091; -941.835
680.445;  -59.828; -346.091; -352.835
680.713;  -22.876;  -58.091;  -23.836
680.982;  -90.124; -523.091; -525.836
681.250;  -88.297; -578.091; -507.837
681.518;  -88.319; -534.090; -751.837
681.787;   -7.467; -204.090; -167.837
682.055;  -43.240; -490.090; -422.838
682.323; -124.613; -993.090; -992.838
682.591;   70.490; -216.090; -538.838
682.859;  168.542;    9.911;  -35.839
683.128;   29.069;  232.911;  497.161
683.396; -145.429;-1102.089;-1122.840
683.664;  -36.377; -241.089;   21.160
683.932;  -13.799;  144.911;  -76.840
684.200;  -82.472; -576.088; -320.841
684.468;  -27.745;  -73.088; -124.841
684.736;  -25.118; -214.088; -175.841
685.004; -103.690;-1024.088; -982.842
685.272;   10.012; -880.088; -774.842
685.540;  -40.536; -499.087; -557.843
685.808;  -61.259; -651.087; -682.843
686.076;  -70.806; -894.087; -969.843
686.343;  -20.329; -601.087; -815.844
686.611;   87.923; -195.087; -224.844
686.879;  617.525; -530.086; -553.844
687.147; 4918.577; -483.086; -480.845
687.414; 1477.355;  -12.086; -169.845
687.682;   76.107; -658.086; -757.846
687.950;  455.759;  259.915;  263.154
688.217;   95.461; -792.085; -760.846
688.485;   44.064; -632.085; -636.847
688.753;  841.991;  -11.085; -102.847
689.020;  357.793; -820.085; -851.847
689.288;  -69.705; -853.084; -787.848
689.555;  -13.452; -195.084; -148.848
689.823;  -37.250; -241.084; -345.849
690.090;  -69.123; -546.084; -651.849
690.358; -125.746; -877.084; -897.849
690.625;   22.906;  120.917;   45.150
690.892;  -57.841; -403.083; -369.850
691.160;   -4.064;   72.917;  -35.850
691.427;    0.313;  141.917;  130.149
691.694; -113.735; -855.083; -929.851
691.962; -131.932;-1177.082;-1060.852
692.229;   24.895;  127.918;   56.148
692.496;  112.722;  130.918;  -49.852
692.763;   45.924; -164.082; -201.853
693.031;  -30.649; -739.082; -716.853
693.298;   -6.071; -509.081; -368.853
693.565;  417.331; -155.081; -163.854
693.832; 2010.733;   -5.081;   -9.854
694.099;  301.610; -643.081; -642.855
694.366;  -16.437; -882.081; -896.855
694.633;  -12.060; -920.080; -633.855
694.900;  743.042; 4367.920; -114.856
695.167;  622.394; -214.080; -380.856
695.434;  208.172; -646.080; -623.856
695.701;  250.274;  121.921;  -61.857
695.968;  691.701; -365.079; -361.857
696.234; 1155.928; -415.079; -646.858
696.501;12295.530; -776.079; -614.858
696.768; 6922.508; -554.079; -617.858
697.035;  420.260; -632.078; -667.859
697.302;   81.537; -448.078; -552.859
697.568;   37.439; -458.078; -497.859
697.835;  -24.333; -683.078; -624.860
698.102;  -10.031; -498.078; -407.860
698.368;   95.846;  384.923;  396.139
698.635;  -12.952;  -47.077; -424.861
698.901;    4.851; -240.077; -348.861
699.168;  159.453; -534.077; -456.862
699.435;  145.655;  -72.077;  -13.862
699.701;  -85.468; -868.076; -764.862
699.968;   19.684;  144.924; -441.863
700.234;  -85.813; -783.076; -822.863
700.500;  -42.486; -448.076; -539.864
700.767;   18.591;   -1.075;   26.136
701.033; -115.057;-1015.075; -963.864
701.299;  -47.454; -450.075; -483.865
701.566;  113.748;  950.925;  763.135
701.832;   50.825;  -31.075;  -76.865
702.098;  -63.973;-1054.074;-1034.866
702.365;  -45.671;-1098.074;-1030.866
702.631;   33.082;-1038.074;-1063.867
702.897; 1792.459; -765.074; -676.867
703.163; 3379.686;  348.926;  254.133
703.429;  274.363; -256.073; -273.868
703.695;    8.941; -796.073; -792.868
703.961;   54.968; -214.073; -210.868
704.227;  -35.405; -630.073; -725.869
704.493;  139.372;  613.927;  510.131
704.759;    9.975; -565.072; -540.870
705.025;   50.902; -203.072; -194.870
705.291;   15.554; -666.072; -562.870
705.557;  234.231;  719.928;   34.129
705.823;   77.883; -742.072; -694.871
706.089;  210.986; -307.071; -326.871
706.355;  443.238; -315.071; -244.872
706.620; 6322.315; -776.071; -729.872
706.886;10417.217; -309.071; -362.873
707.152; 1137.895; -818.070; -973.873
707.418;   50.922;-1153.070;-1186.873
707.683;   50.949; -550.070; -530.874
707.949;  -15.149; -547.070; -578.874
708.215;   14.003; -129.070; -207.874
708.480;   -3.069; -520.069; -420.875
708.746;  168.808;   68.931;   28.125
709.011;  -38.465; -578.069; -612.876
709.277;  -65.338; -538.069; -543.876
709.542;  -41.535; -428.069; -387.876
709.808;   16.067;  -59.068;   89.123
710.073;  -52.981; -577.068; -695.877
710.339;  -13.229; -242.068; -228.877
710.604;  134.599; -780.068; -845.878
710.869;  515.751; -277.068; -366.878
711.135;  -55.822; -715.067; -628.879
711.400;  -57.545; -507.067; -608.879
711.665;  -41.568; -404.067; -479.879
711.931;  -75.965; -661.067; -677.880
712.196;  -98.488; -876.067; -954.880
712.461;  187.939; -402.066; -490.880
712.726;  312.241; -727.066; -771.881
712.991;  -58.531; -647.066; -664.881
713.256;  -33.029; -350.066; -332.882
713.521;  -38.152; -417.065; -381.882
713.787;  -59.325; -454.065; -472.882
714.052;  -14.047; -214.065; -400.883
714.317;  -72.795;-1045.065; -981.883
714.581; 1301.932; -374.065; -268.883
714.846; 2132.109; -822.064; -888.884
715.111;  189.461;  261.936;  257.116
715.376;   -8.511;  -86.064; -223.885
715.641;    5.266; -365.064; -367.885
715.906;  474.343;   15.936; -551.885
716.171;  194.895;  221.937;  209.114
716.436;   75.373;  -78.063; -104.886
716.700;  -80.225; -818.063; -692.886
716.965; -109.948; -794.063; -807.887
717.230;  -44.096; -339.063; -392.887
717.494;  -21.819;  -40.062; -134.888
717.759;  -73.891; -784.062; -640.888
718.024;    8.161;  269.938;  250.112
718.288;   63.913;  685.938;  395.111
718.553; -129.735; -803.062; -977.889
718.817; -108.782; -883.061; -899.889
719.082;  -24.905; -115.061; -125.890
719.346; -123.628;-1000.061; -947.890
719.611;  -43.876; -300.061; -255.891
719.875;  -71.198; -568.060; -537.891
720.140;  -48.271; -453.060; -603.891
720.404;   83.381; -136.060; -249.892
720.668; 1261.483; -475.060; -411.892
720.933;  542.785;  146.940;  137.108
721.197;  -70.812; -667.059; -600.893
721.461; -124.760; -851.059; -826.893
721.725;   -6.183;  -21.059; -250.894
721.990;  -52.556; -284.059; -204.894
722.254;  -24.003;  -26.059; -108.894
722.518;  -69.676; -286.058; -442.895
722.782;  -90.749; -743.058; -594.895
723.046;  159.828;  614.942;  570.105
723.310;   43.156;  374.942;  210.104
723.574;  -86.342; -654.058; -614.896
723.838;  -83.290; -576.057; -642.897
724.102;  -31.863; -226.057; -239.897
724.366; -123.486;-1032.057; -978.897
724.630;  -79.933; -749.057; -571.898
724.894;  -68.156; -722.057; -514.898
725.158;    2.121;   38.944; -295.898
725.422;  -42.977; -394.056; -327.899
725.685;  -53.524; -441.056; -349.899
725.949;  -50.972; -566.056; -519.900
726.213;  -42.920; -732.056; -811.900
726.477;  346.257;-1020.055; -933.900
726.740;  277.984; -274.055; -104.901
727.004;  438.437; -384.055; -510.901
727.268; 4434.939; -442.055; -400.901
727.531; 1497.716; -961.055; -775.902
727.795;   -8.807; -713.054; -673.902
728.059;  -31.654; -552.054; -557.903
728.322;  -51.602; -841.054; -669.903
728.586;   94.250; -692.054; -701.903
728.849;  -48.173; -695.053; -756.904
729.112;  -84.870; -812.053; -912.904
729.376;  -86.843; -959.053; -905.904
729.639;  -65.216; -536.053; -536.905
729.903;  -95.464; -733.053; -699.905
730.166;  -41.787; -437.052; -399.906
730.429;  -10.284; -317.052; -468.906
730.693;  -44.482; -355.052; -894.906
730.956;  232.670;  810.948;  651.093
731.219; 1071.122; -310.052; -103.907
731.482;  229.200;-1003.051; -894.907
731.745;  250.327; -794.051; -935.908
732.009;   31.479;  -30.051;   50.092
732.272;  -67.094; -904.051; -771.909
732.535;  -24.866; -300.051; -310.909
732.798; -137.414;-1083.050;-1166.909
733.061;  -31.237; -430.050; -456.910
733.324;   17.665;   31.950; -180.910
733.587;   80.642;  290.950;  365.090
733.850;  -39.255; -973.049;-1050.911
734.113;   45.122;   33.951;   32.089
734.376;   57.649; -328.049; -447.912
734.639;  252.576; 1188.951; 1011.088
734.901;  117.379; -180.049; -402.912
735.164;  717.056; -883.048; -837.913
735.427; 2055.108; -166.048; -355.913
735.690;  192.310; -205.048; -234.913
735.952;   38.362; -923.048; -925.914
736.215;   41.590;-1113.048;-1009.914
736.478;  115.342; -771.047; -774.915
736.740;  330.369;   33.953;  129.085
737.003;  879.671; -658.047; -672.915
737.266; 6084.349;  -94.047;   46.084
737.528;  725.226; -682.047; -660.916
737.791;  482.478; -316.046; -327.916
738.053;  979.530;  465.954;  649.083
738.316;13339.333; -162.046; -136.917
738.578;11340.585; -770.046; -736.918
738.841;  679.037; -382.046; -446.918
739.103;  299.864; -875.045; -777.918
739.365;  754.241;   79.955;  -69.919
739.628;   63.619; -884.045; -805.919
739.890;   30.696; -758.045; -710.919
740.152;    7.498; -692.044; -754.920
740.414;   21.475; -408.044; -359.920
740.677;  -10.497; -785.044; -634.921
740.939;  -11.445; -587.044; -487.921
741.201;  430.282; -432.044; -572.921
741.463;  129.634; -689.043; -745.922
741.725;   40.012;  -21.043; -199.922
741.987;   87.289;  220.957;  116.078
742.249;   80.641; -751.043; -859.923
742.511;  360.718; -703.043; -794.923
742.773;   93.645; -546.042; -546.924
743.035;  155.173;  796.958;  533.076
743.297;    7.075; -963.042;-1013.924
743.559; 1080.277; -278.042; -262.925
743.821;  191.954; -735.042; -744.925
744.083;   49.082;  -44.041; -149.925
744.345;  -55.266; -869.041; -892.926
744.607;   75.686;   75.959;  122.074
744.868;  -29.987; -490.041; -554.927
745.130;  -61.710; -994.041;-1008.927
745.392;   63.268;   -1.040;  -44.927
745.653;   27.070; -411.040; -378.928
745.915;  177.697;  896.960;  631.072
746.177;   88.249;   35.960;  -43.928
746.438;   46.552; -428.040; -543.929
746.700;   10.954; -947.039; -988.929
746.961;   77.856; -659.039; -740.930
747.223;  238.183; -190.039;  -74.930
747.484;  169.161; -391.039; -471.930
747.746;  243.363;  -23.038; -106.931
748.007;  232.815; -647.038; -689.931
748.269;  453.917; -468.038; -440.931
748.530;  837.469; -852.038; -638.932
748.791;  425.447; -354.038; -420.932
749.053;  636.424;  286.963;  163.067
749.314;  690.951; -236.037; -169.933
749.575;  820.253; -945.037; -905.933
749.836; 1258.831; -217.037;   86.066
750.098; 3154.883;  -60.037;  -21.934
750.359;50235.010;  414.964;  555.066
750.620;15897.512; -121.036; -220.935
750.881; 1530.589; -585.036; -513.935
751.142; 1972.717; -950.036; -938.936
751.403;21262.194; -789.036; -705.936
751.664;11826.146;-1034.035; -999.936
751.925;  778.023; -175.035; -262.937
752.186;  422.126; -298.035; -278.937
752.447;  250.503; -590.035; -445.937
752.708;  127.805; -532.035; -648.938
752.969;   81.182; -566.034; -576.938
753.230;   58.160; -777.034; -672.939
753.491;   63.412; -650.034; -631.939
753.751;  101.739;  109.966;   19.061
754.012;  135.616;  258.967;  181.060
754.273;  108.218; -174.033;  -71.940
754.534;   79.296; -487.033; -580.940
754.794;  -41.577; -926.033; -911.941
755.055;  163.400; 1051.967;  881.059
755.316;  -19.023; -700.032; -566.942
755.576;   13.080; -606.032; -576.942
755.837;  -18.093; -527.032; -695.942
756.097;   -8.566; -530.032; -564.943
756.358;  -44.539; -725.032; -770.943
756.618;  -24.011; -705.031; -641.943
756.879;   50.891; -254.031; -349.944
757.139;  -89.432;-1098.031;-1116.944
757.400;  -27.755; -538.031; -553.945
757.660;    3.247; -365.031; -401.945
757.920;   44.175; -266.030; -228.945
758.181;   10.702; -468.030; -351.946
758.441;  -54.771; -870.030; -809.946
758.701;   -9.444; -308.030; -215.946
758.961;   -1.091; -220.030; -278.947
759.222;  -29.439; -574.029; -502.947
759.482;  -63.687; -683.029; -723.948
759.742;  -50.835; -706.029; -547.948
760.002;   18.217;  -83.029; -143.948
760.262;   34.220;   50.972;  182.051
760.522;  -22.778; -498.028; -574.949
760.782;  -29.001; -738.028; -612.949
761.042;   -9.549; -618.028; -573.950
761.302;   58.879;   55.972;  -18.950
761.562;   63.931; -164.027; -154.951
761.822;  127.983; -710.027; -551.951
762.082;   -3.040;-1104.027;-1093.951
762.342;   67.063; -328.027; -403.952
762.601;   93.540; -567.027; -506.952
762.861;  440.792; -281.026; -207.952
763.121;  398.844; -406.026; -411.953
763.381; 6389.396; -499.026; -485.953
763.640; 9068.149; -139.026; -307.954
763.900;  394.651; -242.026; -203.954
764.160;   98.678; -458.025; -491.954
764.419;   19.080; -726.025; -782.955
764.679;  -76.042; -795.025; -726.955
764.939;   -1.565; -124.025; -210.955
765.198;  -72.488; -608.025; -563.956
765.458;  -76.336; -710.024; -612.956
765.717;  -74.283; -454.024; -590.957
765.976;  -52.831; -428.024; -411.957
766.236;  -61.879; -475.024; -610.957
766.495;   27.348;  260.977;   73.042
766.755;  -54.150;-1090.023; -987.958
767.014;   65.328; -594.023; -665.958
767.273;  -48.195; -373.023; -397.959
767.533;  -44.893; -228.023; -307.959
767.792;  -29.991; -151.022; -188.960
768.051;  -47.538; -228.022; -276.960
768.310;  -76.911; -546.022; -650.960
768.569;    1.166; -161.022;    4.039
768.828;  -17.482; -285.022; -363.961
769.088;  -92.855;-1050.021; -942.961
769.347;  -74.352; -755.021; -599.962
769.606;  -76.350; -876.021; -857.962
769.865; -102.423;-1016.021;-1033.963
770.124;   21.029; -411.021; -336.963
770.383;  -29.693; -778.020; -910.963
770.641;   38.709; -398.020; -400.964
770.900;  -57.914; -953.020; -846.964
771.159;  -26.287; -851.020; -951.964
771.418;   13.691; -917.020; -779.965
771.677;  142.768; -224.019; -293.965
771.936;  194.120; -794.019; -865.966
772.194; 1999.997; -465.019; -437.966
772.453;13295.199; -213.019; -391.966
772.712; 1042.477;  416.982;  329.033
772.970;  136.479;   32.982;   63.033
773.229;  115.131;  -22.018;  102.033
773.488;  -74.792; -814.018; -770.968
773.746;   54.886;  296.982;  335.032
774.005;    3.213;  190.983;  -22.969
774.263;   33.240;  243.983;  177.031
774.522;  -32.758; -422.017; -548.969
774.780;  -72.955; -484.017; -417.970
775.039;  -92.028; -551.017; -531.970
775.297;  -18.726; -135.016; -351.970
775.555;  -96.774; -489.016; -612.971
775.814;  -99.472; -618.016; -570.971
776.072; -109.944; -749.016; -740.971
776.330;  -95.867; -630.016; -520.972
776.589; -113.790; -703.015; -721.972
776.847; -114.138; -645.015; -624.973
777.105; -164.160;-1016.015;-1032.973
777.363;  -76.558; -459.015; -454.973
777.621; -130.881; -660.015; -717.974
777.879;  -25.729;  -42.014;   32.026
778.138;  -97.802; -554.014; -717.974
778.396;  -97.024; -585.014; -526.975
778.654; -158.797;-1015.014; -970.975
778.912;  -61.495; -269.014; -371.976
779.170; -124.843; -880.013; -803.976
779.427; -137.815; -922.013; -897.976
779.685; -124.288; -880.013; -832.977
779.943;  -58.036; -654.013; -593.977
780.201; -157.009; -964.012; -883.978
780.459; -103.531; -651.012; -610.978
780.717;  -89.379; -440.012; -390.978
780.974;  -97.527; -449.012; -490.979
781.232;  -71.925; -358.012; -338.979
781.490;  -54.048; -551.011; -472.979
781.747;  -81.920; -555.011; -476.980
782.005;    8.757;  462.989;  254.020
782.263; -152.266; -542.011;-1004.981
782.520;  -79.389; -326.011; -501.981
782.778; -162.536;-1013.010;-1051.981
783.035; -172.009; -962.010; -938.982
783.293;  -61.282; -248.010; -206.982
783.550;  -49.905; -134.010; -198.982
783.808; -120.428; -764.010; -776.983
784.065; -131.175; -745.009; -874.983
784.322;  -54.198;   25.991;  -86.984
784.580; -138.721; -915.009; -771.984
784.837;  -89.494; -392.009; -466.984
785.094; -123.941; -783.009; -762.985
785.352;  -77.464; -304.008; -404.985
785.609;  -68.062; -934.008; -839.985
785.866;  -85.060; -345.008; -401.986
786.123;  -43.857; -639.008; -583.986
786.380;  -94.505; -665.008; -604.987
786.637;  -41.028; -225.007; -380.987
786.895;   33.599; -456.007; -543.987
787.152;  -35.124; -135.007; -267.988
787.409;  -47.746; -123.007; -225.988
787.666;  -78.519; -299.006; -378.988
787.923; -100.667; -616.006; -695.989
788.179;  -95.315; -551.006; -584.989
788.436;  -91.637; -585.006; -585.990
788.693;  -25.635;  -92.006;  -87.990
788.950;  186.367; -125.005; -112.990
789.207;  437.894; -381.005; -372.991
789.464;  -49.153; -161.005; -301.991
789.720;  -12.026;  150.995;  110.009
789.977; -162.374;-1003.005; -671.992
790.234;  -34.422;   44.996;  -66.992
790.490; -152.095; -884.004;-1031.993
790.747;  -20.417;  -85.004;   22.007
791.004;    2.435; -426.004; -348.993
791.260;  -61.538; -430.004; -560.994
791.517;  -92.136; -843.003; -788.994
791.773;  -17.158; -379.003; -342.994
792.030; -100.906; -596.003; -660.995
792.286;  -92.579; -686.003; -636.995
792.543;  -31.852;  -74.002; -159.995
792.799;  -46.975; -584.002; -382.996
793.055; -137.222;-1179.002;-1210.996
793.312;  -81.320; -827.002; -816.997
793.568;  -46.043; -746.002; -599.997
793.824;   19.934; -226.001; -284.997
794.081;   29.187; -447.001; -508.998
794.337;   88.439; -664.001; -561.998
794.593; 1066.941; -319.001; -271.999
794.849; 7343.793; -746.001; -772.999
795.105;  481.596; -270.000; -261.999
795.361;   39.273; -490.000; -457.000
795.617;  -36.750; -875.000; -945.000
795.873;  -12.800; -360.000; -407.000
796.129;  -31.150; -368.000; -306.000
796.385;   -4.825; -124.000; -156.000
796.641;   71.625;  412.000;  550.000
796.897;  -58.575; -666.000; -635.000
797.153;   63.550;  453.000;  357.000
797.409;  -77.875; -785.000; -868.000
797.665;  -57.650; -625.000; -732.000
797.921;  -55.325; -775.000; -762.000
798.176;  -33.375; -744.000; -747.000
798.432;  -25.100; -824.000; -596.000
798.688;  -43.675;-1174.000;-1078.000
798.943;  117.600; -165.000; -147.000
799.199;   45.050;-1005.000; -959.000
799.455;  279.875;  369.000;  316.000
799.710;  205.725; -813.000; -380.000
799.966;  396.050; -162.000; -160.000
800.221;  598.125; -638.000; -721.000
800.477;11489.725; -743.000; -710.000
800.732;13955.475; -773.000; -800.000
800.988;  823.900;  205.000;  -19.000
801.243; 1456.875; -454.000; -344.000
801.498; 8352.075; -814.000; -739.000
801.754;  605.600; -289.000; -163.000
802.009;  107.450; -257.000; -335.000
802.264;  -26.000; -967.000;-1033.000
802.520;   36.100;  222.000;   -3.000
802.775;  -42.850; -524.000; -359.000
803.030;   58.375;  395.000;  356.000
803.285; -101.400; -840.000; -903.000
803.540;  -31.050; -686.000; -699.000
803.795;   -5.225; -648.000; -583.000
804.051;  -15.725; -279.000; -346.000
804.306;   18.675;  168.000;  128.000
804.561;  188.700;  451.000;  362.000
804.816;  137.875;  714.000;  861.000
805.071;   25.825; -185.000; -280.000
805.325;  346.000; -257.000; -427.000
805.580;  -65.525; -841.000; -877.000
805.835;  -20.625; -204.000; -297.000
806.090;  -53.825; -760.000; -676.000
806.345;  -26.300; -344.000; -264.000
806.600;   -6.950; -549.000; -632.000
806.854;  -11.575; -408.000; -538.000
807.109;   -1.025; -493.000; -577.000
807.364;    9.925; -407.000; -328.000
807.618;   26.050; -415.000; -381.000
807.873;   92.600; -470.000; -494.000
808.128;  143.025; -257.000; -518.000
808.382;  146.125; -224.000; -332.000
808.637;  106.550; -440.000; -511.000
808.891;  211.825; -257.000; -180.000
809.146;  150.225; -902.000; -794.000
809.400;  346.075; -848.000; -923.000
809.654;  433.700; -779.000; -551.000
809.909;  587.850; -841.000; -927.000
810.163; 6664.450; -813.000; -651.000
810.418;23653.525; -940.000; -861.000
810.672; 1477.825; -685.000; -690.000
810.926;  772.625; -993.000; -973.000
811.180; 1312.875; -439.000; -372.000
811.434;27239.375;  240.000;  135.000
811.689;15356.100; -231.000; -365.000
811.943;  791.750; -936.000; -953.000
812.197;  356.400; -893.000; -671.000
812.451;  163.575; -379.000; -514.000
812.705;  -11.300; -809.000; -619.000
812.959;    7.400; -263.000; -388.000
813.213;   -3.000; -283.000; -209.000
813.467;   71.200;  470.000;  253.000
813.721;  -76.675; -764.000; -792.000
813.975; -112.200; -826.000; -877.000
814.229;   55.725;  430.000;  353.000
814.482;  -65.725; -517.000; -566.000
814.736; -106.525; -766.000; -744.000
814.990; -124.650; -779.000; -872.000
815.244;  -39.900; -228.000; -285.000
815.497;  -81.700; -636.000; -601.000
815.751;  -15.100; -141.000;   82.000
816.005;  -77.250; -470.000; -586.000
816.258;  -72.450; -510.000; -363.000
816.512;  -98.350; -693.000; -610.000
816.766;   10.125;  121.000;  157.000
817.019;   25.075;  148.000;  149.000
817.273;  -89.300;-1000.000; -802.000
817.526;  -39.250; -206.000; -173.000
817.779;   23.700;-1049.000; -960.000
818.033;   -7.600; -693.000; -807.000
818.286; -105.125; -725.000; -792.000
818.540;  -73.175; -403.000; -403.000
818.793;  -71.550; -402.000; -489.000
819.046; -106.325; -582.000; -520.000
819.299;  -34.700; -157.000; -166.000
819.553; -116.175; -552.000; -592.000
819.806; -142.400;-1016.000; -838.000
820.059;  -55.325; -334.000; -354.000
820.312;   11.650;  152.000;  185.000
820.565;  -30.250;  110.000;  -27.000
820.818;  -60.950;  -59.000; -173.000
821.071; -162.400;-1041.000; -957.000
821.324;  -93.225; -536.000; -540.000
821.577;  -91.325; -457.000; -483.000
821.830;  -56.175; -270.000; -172.000
822.083; -119.775; -733.000; -288.000
822.336;  -40.000; -261.000; -167.000
822.589; -110.300; -805.000; -688.000
822.842; -128.575; -875.000; -770.000
823.094; -165.750;-1076.000;-1114.000
823.347; -115.450; -925.000; -729.000
823.600;   -2.925;  402.000;  187.000
823.853;  -33.000; -311.000; -267.000
824.105;  -69.900; -331.000; -575.000
824.358;  -82.575; -617.000; -716.000
824.611;   35.375;  234.000;   40.000
824.863;  -15.050; -612.000; -591.000
825.116;   68.200;  -33.000;   27.000
825.368;  133.200; -366.000; -372.000
825.621;  258.950; -186.000; -240.000
825.873;  148.950; -704.000; -737.000
826.126;  679.425; -669.000; -641.000
826.378;14202.200; -389.000; -505.000
826.630; 5110.375; -890.000; -898.000
826.883;  157.900; -754.000; -693.000
827.135;   82.900; -279.000; -270.000
827.387;  -90.300; -893.000; -839.000
827.639;  -21.775;  -86.000;   32.000
827.892; -115.500; -742.000; -582.000
828.144; -127.100; -848.000; -804.000
828.396;  -37.375;  104.000;  -80.000
828.648; -100.325; -440.000; -333.000
828.900; -141.625; -702.000; -795.000
829.152; -106.675; -684.000; -683.000
829.404;  -50.325; -215.000; -267.000
829.656;  -14.175;  321.000;  214.000
829.908;  -16.225;  393.000;  229.000
830.160; -155.050;-1064.000;-1047.000
830.412;  -89.175; -481.000; -430.000
830.664; -108.500; -557.000; -665.000
830.916;  -69.200; -268.000; -206.000
831.167; -164.925;-1073.000; -951.000
831.419;  -94.775; -623.000; -566.000
831.671; -145.900; -764.000; -809.000
831.923;  -82.225; -311.000; -447.000
832.174;  -76.350; -273.000; -331.000
832.426; -102.200; -493.000; -582.000
832.678; -181.175;-1043.000;-1091.000
832.929; -125.650; -947.000; -935.000
833.181;  -48.000; -575.000; -677.000
833.432;  -35.925;  -59.000; -186.000
833.684;  -23.575;  112.000;  -27.000
833.935; -112.325; -610.000; -566.000
834.187; -136.100; -829.000; -823.000
834.438;  -47.500;  -58.000;  -25.000
834.689;  -58.375; -255.000; -123.000
834.941;  -34.875; -343.000; -244.000
835.192;  -82.875; -590.000; -533.000
835.443;  -82.875; -419.000; -506.000
835.695;  -15.200;  138.000;  -16.000
835.946;  -79.025; -608.000; -378.000
836.197; -104.100; -599.000; -622.000
836.448;  -77.675; -528.000; -395.000
836.699;  -41.325; -253.000; -341.000
836.950;  -11.450;   72.000;    7.000
837.201; -136.225;-1003.000; -987.000
837.452;  -35.225; -356.000; -170.000
837.703;  -82.400; -791.000; -737.000
837.954;  -27.325; -205.000; -365.000
838.205;  -58.475;-1029.000;-1008.000
838.456;  293.625; -196.000; -282.000
838.707;   51.775; -423.000; -519.000
838.958;   51.325; -634.000; -647.000
839.209;  408.700;   18.000;   40.000
839.460;  194.100; -439.000; -201.000
839.710;  232.150; -135.000; -297.000
839.961;  537.650;  730.000;  612.000
840.212;  454.775; -382.000; -497.000
840.462; 1310.850; -328.000; -277.000
840.713;20619.600; -571.000; -536.000
840.964;11729.225;  -62.000; -143.000
841.214;  740.600; -384.000; -624.000
841.465;  749.075; -214.000; -141.000
841.715;  673.850; -417.000; -380.000
841.966;  837.750; -746.000; -685.000
842.216; 8691.975; -330.000; -431.000
842.466;44722.275; -169.000; -313.000
842.717; 3735.725; -964.000; -952.000
842.967;  436.225; -635.000; -641.000
843.217;  388.375;   20.000;   28.000
843.468;  119.075; -104.000; -132.000
843.718;    3.225; -718.000; -726.000
843.968;  -59.750; -837.000; -765.000
844.218;   36.825; -315.000; -262.000
844.469;    2.175; -577.000; -561.000
844.719;  -98.550; -537.000; -682.000
844.969;  -71.600; -550.000; -580.000
845.219; -136.050; -814.000; -862.000
845.469;  -70.175; -392.000; -342.000
845.719; -128.600; -792.000; -884.000
845.969;    7.125;  119.000;  174.000
846.219; -109.075; -738.000; -720.000
846.469;   18.525;  464.000;  432.000
846.718;  -38.225; -115.000;   31.000
846.968; -128.750; -827.000; -827.000
847.218;  -47.100; -224.000; -371.000
847.468;   12.775; -586.000; -555.000
847.718; -125.525; -827.000; -798.000
847.967; -119.800; -826.000; -915.000
848.217;  -75.000; -449.000; -569.000
848.467;  -45.525; -405.000; -376.000
848.716;  -99.425; -708.000; -725.000
848.966;   45.525; -372.000; -358.000
849.215;  -35.775; -428.000; -419.000
849.465;  -73.800; -785.000; -615.000
849.714; -136.725;-1132.000;-1150.000
849.964;  -40.025; -551.000; -613.000
850.213;    7.925; -393.000; -355.000
850.463;  109.300;  137.000;  340.000
850.712;   48.150; -542.000; -567.000
850.961;   85.750; -739.000; -678.000
851.211;  168.575; -513.000; -504.000
851.460;  276.800; -635.000; -650.000
851.709;  706.525;  -25.000;   18.000
851.958;11525.200; -912.000; -750.000
852.208;20010.725; -859.000; -879.000
852.457;  854.250; -181.000;  -13.000
852.706;  170.450; -791.000; -823.000
852.955;   87.625; -507.000; -528.000
853.204;  -54.100; -521.000; -461.000
853.453;  -70.025; -418.000; -458.000
853.702; -124.700; -660.000; -750.000
853.951; -101.925; -532.000; -520.000
854.200; -100.950; -613.000; -562.000
854.449; -138.700; -695.000; -661.000
854.698;  -89.325; -340.000; -279.000
854.946;  -72.550; -181.000; -284.000
855.195; -148.425; -843.000; -868.000
855.444;  -77.375; -395.000; -420.000
855.693; -123.750; -345.000; -432.000
855.941;  -93.700; -387.000; -516.000
856.190;  -41.800; -256.000; -382.000
856.439; -106.300; -652.000; -703.000
856.687;  -65.600;  -99.000;  -72.000
856.936; -121.425; -621.000; -323.000
857.184; -173.550;-1067.000;-1020.000
857.433;  -95.600; -423.000; -512.000
857.681; -152.300; -989.000; -953.000
857.930;  -77.650; -282.000; -433.000
858.178; -168.475; -856.000; -929.000
858.427; -145.175; -802.000; -781.000
858.675; -116.225; -377.000; -544.000
858.923; -110.150; -527.000; -819.000
859.172; -180.500;-1094.000;-1070.000
859.420;  -69.250; -339.000; -239.000
859.668; -124.400; -624.000; -628.000
859.916;  -21.575;  109.000;  115.000
860.164; -106.375; -699.000; -603.000
860.413;  424.425; -878.000; -696.000
860.661;  505.150; -709.000; -577.000
860.909;  -76.425; -339.000; -325.000
861.157;  -85.525; -277.000; -444.000
861.405; -119.900; -534.000; -670.000
861.653;   23.650;  310.000;  310.000
861.901;  266.275; -543.000; -613.000
862.149;  144.875; -801.000; -824.000
862.396;  -62.500; -297.000; -187.000
862.644;  -88.975; -368.000; -347.000
862.892;  -29.025;   98.000;  138.000
863.140; -112.300; -549.000; -530.000
863.388; -151.825; -815.000; -759.000
863.635; -121.750; -642.000; -601.000
863.883;  -13.700;  231.000;  190.000
864.131;  -92.750; -288.000; -357.000
864.378; -113.850; -675.000; -540.000
864.626; -107.150; -347.000; -415.000
864.873; -122.100; -556.000; -505.000
865.121; -152.425; -714.000; -799.000
865.368;  -41.000; -173.000;   75.000
865.616;  -27.800;  -33.000;  -40.000
865.863;  -65.500; -462.000; -506.000
866.111;  -88.100; -795.000; -824.000
866.358;   53.925; -426.000; -420.000
866.605; 2293.425;  -64.000; -804.000
866.853; 3340.275; -621.000; -537.000
867.100;   14.100; -728.000; -775.000
867.347;  -82.775; -672.000; -611.000
867.594;  -62.350; -740.000; -714.000
867.841;  152.075;   97.000;   17.000
868.089; -137.575; -746.000; -698.000
868.336; -113.125; -477.000; -420.000
868.583; -138.675; -637.000; -741.000
868.830;  -53.875; -131.000; -170.000
869.077; -155.350; -859.000; -787.000
869.324; -121.425; -502.000; -458.000
869.571; -126.250; -398.000; -430.000
869.818; -114.275; -485.000; -439.000
870.065;  -95.625; -439.000; -513.000
870.311; -116.575; -456.000; -542.000
870.558; -100.150; -332.000; -311.000
870.805;  -88.525; -320.000; -384.000
871.052; -111.175; -494.000; -369.000
871.298;  -48.800; -204.000; -131.000
871.545;  -64.825; -151.000; -185.000
871.792;  -91.250; -173.000; -222.000
872.038;  -66.650;   43.000; -126.000
872.285; -121.950; -496.000; -387.000
872.532; -113.800; -357.000; -387.000
872.778;   -2.675;  556.000;  403.000
873.025; -104.350; -384.000; -359.000
873.271;    8.750;  501.000;  578.000
873.517;   -9.925; -133.000; -209.000
873.764;  -11.800; -193.000;  -80.000
874.010;  -64.275; -143.000; -230.000
874.257;  -49.275;  123.000;   90.000
874.503; -137.750; -579.000; -479.000
874.749;  -69.175;   31.000;  275.000
874.995;  -56.100;  -80.000;  -20.000
875.242; -121.150; -540.000; -478.000
875.488; -106.175; -414.000; -439.000
875.734;  -51.350; -106.000; -234.000
875.980;  285.900; -872.000;-1032.000
876.226;  698.425; -157.000; -255.000
876.472;    7.175;  343.000;  237.000
876.718;  -41.325;  184.000;  158.000
876.964;  -45.875;   56.000;   55.000
877.210; -145.400; -547.000; -677.000
877.456; -132.575; -630.000; -557.000
877.702; -175.600; -821.000; -832.000
877.948; -115.025; -377.000; -497.000
878.193;    4.500;  361.000;  255.000
878.439;  -74.825; -487.000; -472.000
878.685;  -82.225; -272.000; -343.000
878.931; -138.125; -618.000; -676.000
879.176;  -94.125; -201.000; -201.000
879.422; -173.100; -933.000; -820.000
879.668;   39.275;   10.000;   79.000
879.913;  251.975;   53.000;  137.000
880.159;  -44.925; -112.000;  -17.000
880.404;  -56.050; -152.000; -162.000
880.650;  -31.525;   91.000;  141.000
880.895; -152.075; -670.000; -710.000
881.141; -124.875; -454.000; -428.000
881.386; -154.875; -503.000; -658.000
881.631;  -92.925; -311.000; -166.000
881.877;  -46.100;  112.000;  -13.000
882.122; -127.450; -684.000; -600.000
882.367;  -92.575; -136.000; -186.000
882.612;  -73.700;  -80.000; -176.000
882.858; -172.825; -877.000; -823.000
883.103;  -97.250; -297.000; -267.000
883.348; -155.650; -759.000; -852.000
883.593; -132.700; -677.000; -602.000
883.838;  -49.050; -311.000;  -24.000
884.083;   42.225;  353.000;  288.000
884.328;  -87.450; -564.000; -545.000
884.573;  -60.075; -196.000; -143.000
884.818;  284.950; -694.000; -531.000
885.063;  422.625; -348.000; -315.000
885.308;  -92.075; -475.000; -398.000
885.553;  -17.600;  245.000;  325.000
885.797; -108.650; -545.000; -615.000
886.042;  -50.375;    8.000;   58.000
886.287;  -95.175; -253.000; -211.000
886.532;  -60.850;   26.000;  204.000
886.776; -100.525; -407.000; -525.000
887.021; -140.725; -621.000; -574.000
887.265; -140.850; -685.000; -689.000
887.510; -127.150; -557.000; -496.000
887.755;  -95.875; -194.000; -164.000
887.999; -142.275; -552.000; -575.000
888.244;  -64.950;  -58.000;  161.000
888.488;   -4.150;  371.000;  393.000
888.732; -129.525; -368.000; -520.000
888.977; -124.400; -622.000; -567.000
889.221; -145.175; -683.000; -659.000
889.465; -122.500; -422.000; -566.000
889.710;  -85.975;  -56.000; -299.000
889.954;    2.000;  579.000;  467.000
890.198; -140.700; -584.000; -707.000
890.442; -146.600; -716.000; -712.000
890.687; -163.475; -800.000; -753.000
890.931;  -94.925; -273.000; -210.000
891.175; -126.850; -502.000; -500.000
891.419;  -79.425; -105.000; -110.000
891.663;  -96.500; -239.000; -112.000
891.907; -167.375; -801.000; -545.000
892.151; -178.975; -920.000; -815.000
892.395; -124.925; -274.000; -387.000
892.638;  -38.025;  408.000;  291.000
892.882; -167.750; -780.000; -867.000
893.126;    3.575;  758.000;  558.000
893.370;  -92.700; -167.000; -168.000
893.614; -134.425; -714.000; -715.000
893.857; -102.400; -183.000; -197.000
894.101; -140.175; -527.000; -631.000
894.345;  -61.325;  300.000;  150.000
894.588;    0.850;  569.000;  380.000
894.832;  -87.250; -178.000;  -84.000
895.075;  -85.200;   15.000;  -92.000
895.319; -128.550; -552.000; -420.000
895.563; -118.975; -413.000; -353.000
895.806; -147.800; -628.000; -741.000
896.049;  -48.900; -576.000; -368.000
896.293;  131.800;  527.000;  405.000
896.536;  -38.925; -465.000; -468.000
896.779;  -38.975; -149.000;   -1.000
897.023; -136.050; -751.000; -714.000
897.266;  -26.850;  325.000;  269.000
897.509; -190.525; -900.000; -901.000
897.752;  -55.900;  149.000;  171.000
897.996; -184.225; -972.000; -864.000
898.239;  -50.400;  168.000;  102.000
898.482; -134.875; -431.000; -453.000
898.725;  -38.300;  101.000;   53.000
898.968; -143.250; -609.000; -744.000
899.211;  -94.300; -513.000; -361.000
899.454; -102.300; -633.000; -539.000
899.697;  -71.725;   90.000;  -43.000
899.940; -166.775; -761.000; -757.000
900.182; -121.950; -335.000; -405.000
900.425;  -90.400; -150.000; -298.000
900.668;  -20.425;  491.000;  350.000
900.911; -106.050; -292.000; -345.000
901.154;  -57.425;  141.000;   -3.000
901.396; -132.375; -407.000; -412.000
901.639; -145.700; -430.000; -496.000
901.882; -181.550; -790.000; -809.000
902.124;  -87.650;  -29.000; -143.000
902.367; -126.425; -315.000; -361.000
902.609; -138.200; -476.000; -453.000
902.852;  -88.775; -108.000; -260.000
903.094; -123.675; -458.000; -337.000
903.337;  -63.500;  -26.000;   53.000
903.579; -110.200; -228.000; -441.000
903.821; -155.850; -597.000; -744.000
904.064;  -61.350;   85.000;  127.000
904.306;  -96.625; -126.000; -166.000
904.548; -100.350; -152.000; -366.000
904.790; -109.575; -195.000; -340.000
905.033; -125.500; -625.000; -577.000
905.275; -117.800; -513.000; -524.000
905.517;   49.175;  468.000;  256.000
905.759;  -19.000; -667.000; -761.000
906.001;  -87.725; -322.000; -369.000
906.243;  -43.775; -162.000; -224.000
906.485;  185.650; -265.000; -207.000
906.727;  275.875; -499.000; -542.000
906.969;   -6.625;  -30.000; -135.000
907.211;  183.500; -316.000; -382.000
907.453;  475.250; -188.000; -237.000
907.695;   97.400; -158.000; -385.000
907.936;   46.875;  818.000;  706.000
908.178;  -62.900;   92.000; -135.000
908.420;  -76.375; -111.000; -162.000
908.662; -139.725; -633.000; -682.000
908.903;  -87.300; -208.000; -123.000
909.145;  -64.450; -240.000; -305.000
909.386;   -6.925;  315.000;  280.000
909.628;   34.600;  363.000;  397.000
909.870;  -10.175;   29.000;  264.000
910.111;  -93.250; -809.000; -949.000
910.353;   16.150; -123.000; -161.000
910.594;   18.575; -574.000; -606.000
910.835;  104.675; -265.000; -326.000
911.077;  163.275; -503.000; -604.000
911.318;  297.650; -505.000; -471.000
911.559;  482.175; -577.000; -880.000
911.801; 1249.875; -284.000; -280.000
912.042; 8799.525;  -50.000; -159.000
912.283;28423.275;  404.000;  371.000
912.524; 6001.525; -396.000; -457.000
912.765;  597.750; -193.000;   79.000
913.006;  270.150; -307.000; -338.000
913.247;   76.600; -270.000; -290.000
913.488;    8.125;  -43.000;   30.000
913.729;  -55.600; -373.000; -373.000
913.970;  -60.125;  -96.000; -292.000
914.211;  -66.875; -160.000; -198.000
914.452;  -62.650; -118.000;  -11.000
914.693;   10.775;  510.000;  592.000
914.934;    6.725;  510.000;  440.000
915.175;  -57.400;   53.000;  -95.000
915.415;  -69.900; -137.000;   27.000
915.656;  -51.675;  -28.000;  192.000
915.897;  -83.025; -252.000;  -82.000
916.137;  -68.500;   74.000;   -9.000
916.378; -119.650; -573.000; -517.000
916.619;  -86.400; -159.000;  -63.000
916.859;  -28.825;  303.000;  330.000
917.100;  119.875; 1655.000; 1070.000
917.340;   48.450;  930.000;  728.000
917.581;   45.675;  965.000;  789.000
917.821;   -3.725; -171.000;  143.000
918.061;   74.750; -199.000;  -72.000
918.302;  -32.850; -152.000; -211.000
918.542;  -10.050;  -22.000;    3.000
918.782;   57.550;  369.000;  377.000
919.023;  174.275;  360.000;  427.000
919.263; 1886.950; 8131.000;  202.000
919.503; 1807.475; -137.000;  -54.000
919.743;  970.725;  390.000;  266.000
919.983;  505.475; -134.000;  -26.000
920.223;  146.075;  135.000;   14.000
920.463;  201.375;  631.000;  554.000
920.703;  182.100;   84.000;   39.000
920.943;  231.075; -110.000;   90.000
921.183;  322.300; -414.000; -405.000
921.423;  655.925;  307.000;  546.000
921.663;  914.000; -174.000; -257.000
921.903; 1914.800;  237.000;  173.000
922.143; 9726.500;  372.000;  389.000
922.383;41120.750;  158.000;  115.000
922.622;19057.225; -120.000;  -15.000
922.862; 1927.625;  796.000;  785.000
923.102;  722.675;  -51.000;   33.000
923.341;  301.475;   59.000;   74.000
923.581;  135.550;  450.000;  360.000
923.821;   33.300;  301.000;  398.000
924.060;   30.175;  351.000;  193.000
924.300;  -25.500;  -16.000; -128.000
924.539;  -23.825;  584.000;  473.000
924.779;    2.350;  812.000;  597.000
925.018;  -46.775;  247.000;  353.000
925.257;   -5.750;  595.000;  666.000
925.497;  -44.575;  447.000;  412.000
925.736;  -68.425;  -35.000;  102.000
925.975;   -5.600;  687.000;  669.000
926.214;   21.825;  907.000;  850.000
926.454;   23.550;  706.000;  757.000
926.693;  -21.150;  419.000;  543.000
926.932;   24.950; 1021.000;  825.000
927.171;   72.425; 1107.000; 1044.000
927.410;   54.950; 1144.000;  967.000
927.649;   44.225;  924.000;  742.000
927.888;   -6.350;  590.000;  564.000
928.127;   -5.700;  680.000;  678.000
928.366;   27.700;  842.000;  826.000
928.605;   48.125;  831.000;  737.000
928.844;  265.900; 1451.000; 1393.000
929.083;  835.850;  770.000;  613.000
929.321;  528.375; 1335.000; 1359.000
929.560;  106.725; 1158.000; 1122.000
929.799;  -14.650;  574.000;  475.000
930.038;   88.000; 1025.000; 1394.000
930.276;  -49.250;  334.000;  397.000
930.515;   -0.850;  827.000;  681.000
930.753;  -35.550;  614.000;  589.000
930.992;  -12.575;  664.000;  717.000
931.230;    3.425;  847.000;  847.000
931.469;  159.725; 2162.000;  892.000
931.707;   61.800;  840.000;  751.000
931.946;   69.725; 1278.000; 1344.000
932.184;   61.750; 1437.000; 1175.000
932.423;   58.150; 1265.000;  963.000
932.661;  103.875; 1296.000; 1428.000
932.899;   57.100;  987.000;  821.000
933.137;   25.750;  754.000;  564.000
933.376;  168.425; 1664.000; 1335.000
933.614;  187.500; 1759.000; 1196.000
933.852;   78.500; 1357.000; 1171.000
934.090;  135.375; 1722.000; 1747.000
934.328;  126.975; 1252.000; 1457.000
934.566;  112.925; 1431.000; 1110.000
934.804;  168.450; 1263.000; 1309.000
935.042;  528.025; 1861.000; 1850.000
935.280; 2083.150; 2088.000; 2063.000
935.518; 2501.150; 2113.000; 2007.000
935.756;  519.775; 2481.000; 2316.000
935.994;  202.075; 1808.000; 1751.000
936.231;  372.400; 2890.000; 2950.000
936.469;  215.200; 2367.000; 2378.000
936.707;  158.200; 2220.000; 2167.000
936.945;  219.800; 2825.000; 2882.000
937.182;  216.525; 2679.000; 2741.000
937.420;  311.250; 3602.000; 3031.000
937.657;  432.025; 3365.000; 3478.000
937.895;  421.325; 3331.000; 3488.000
938.133;  306.275; 3540.000; 3528.000
938.370;  325.425; 3896.000; 4191.000
938.607;  388.275; 4488.000; 4205.000
938.845;  531.625; 5587.000; 5549.000
939.082;  489.775; 5387.000; 5177.000
939.320;  530.625; 5799.000; 5728.000
939.557;  618.000; 6549.000; 6491.000
939.794;  717.500; 7285.000; 7097.000
940.031;  927.950; 8421.000; 8368.000
940.269; 1179.575; 9552.000; 9107.000
940.506; 1148.100;10901.000;10507.000

