
Integration time [ms]: 100.000
Averaging Nr. [scans]: 40
Smoothing Nr. [pixels]: 0
Data measured with spectrometer [name]: 2101013U2
Wave   ;Sample   ;Dark     ;Reference
[nm]   ;[counts] ;[counts] ;[counts] 

394.013;   56.950; -450.257; -315.536
394.305;  177.573; -461.258; -419.536
394.596; 1604.521; -676.269; -527.514
394.887; 4259.667; -796.268; -654.518
395.178; 1526.554;  145.736;   11.476
395.470;   85.568; -210.263; -356.526
395.761;  152.635;  305.734;  394.479
396.052;  104.892; -545.284; -306.489
396.343;   70.078; -557.276; -454.503
396.634;   45.264; -200.279; -290.497
396.926;   25.213; -618.268; -565.517
397.217;   74.783;   11.725;  -17.504
397.508;   28.678; -366.273; -154.507
397.799;   29.264; -555.279; -571.497
398.090;   -4.693; -973.280; -902.495
398.381;   76.625;   11.708;  -11.473
398.672;  -24.474; -585.292; -742.473
398.963;   31.772; -348.279; -373.498
399.254;   70.487;   54.709; -209.475
399.545;  -26.044;-1017.266; -883.520
399.836;   42.564; -407.277; -343.501
400.127;   40.295; -205.295; -209.468
400.418;   36.396; -423.274; -392.506
400.709;   27.892; -359.281; -333.493
401.000;   47.367; -268.291; -309.476
401.290;  117.617;  225.698;  115.545
401.581;   74.021; -166.286; -228.485
401.872;   42.761; -542.298; -486.462
402.163;   58.811; -313.296; -252.467
402.454;   93.263; -123.291; -163.475
402.744;   53.950; -844.297; -813.465
403.035;  230.164; -226.293;  -86.471
403.326;  305.455; -366.292; -384.474
403.617;  318.179;  204.701;  165.539
403.907;  360.099; -593.283; -679.490
404.198; 3630.061; -545.307; -599.446
404.489; 9250.930; -618.283; -588.491
404.779; 2603.147; -618.302; -660.456
405.070;  290.420;  -67.304; -174.451
405.360;  488.141; -259.293; -238.472
405.651;  491.610;  125.699;   98.542
405.942;  157.815;  209.714;  127.516
406.232;   92.008; -432.285; -413.487
406.523;  229.832;  641.706;  758.530
406.813;   55.193; -579.286; -644.484
407.104;  203.923;  261.708;  144.527
407.394;   84.156; -604.299; -591.462
407.685;  151.657;  336.715;  222.513
407.975;   60.278; -400.283; -382.490
408.265;  122.556; -134.289; -190.478
408.556;   67.784; -472.291; -459.475
408.846;  180.484;  474.706;  429.530
409.137;  114.316;   -1.288; -216.480
409.427;   87.507; -193.285; -271.487
409.717;   62.007; -776.273; -692.508
410.007;  150.024;    4.715; -170.486
410.298;  116.149; -360.295; -342.469
410.588;  114.604; -495.285; -510.486
410.878;   59.930; -792.287; -873.482
411.168;  125.489; -481.298; -478.463
411.459;  142.322; -295.283; -242.489
411.749;   99.182; -609.292; -507.474
412.039;   85.439; -755.289; -386.480
412.329;  241.506;   40.722;  132.501
412.619;  225.843;  -62.286; -148.485
412.909;  376.934;  639.711;  594.521
413.199;  328.208; -130.280; -251.495
413.490;  402.523;  521.710;  352.523
413.780;  211.713;-1013.279; -913.496
414.070;  421.079;  -46.276;  235.497
414.360;  410.051; -729.278; -666.498
414.650;  575.150; -726.288; -688.482
414.940;  776.537; -538.280; -441.496
415.230; 1233.921;   50.712;   74.519
415.520; 8635.595;  155.730;   66.486
415.809;34862.616; -305.281; -125.493
416.099;26243.017; -388.277; -229.501
416.389; 7846.818;  435.726;  236.494
416.679; 4540.522;   91.738;   85.473
416.969;  792.835; -527.287; -503.483
417.259;  663.465;  341.721;  171.503
417.549;  905.740;  522.718;  318.508
417.838; 2441.766; -205.268; -147.518
418.128; 8439.679;  650.710;  492.522
418.418; 6879.715; -491.272; -579.509
418.708; 4577.719;    9.726;  -48.506
418.997;18007.638; -474.275; -480.505
419.287;18347.502; -733.273; -790.507
419.577;17937.871; -160.283; -123.489
419.866;57552.090; -588.277; -498.501
420.156;55741.365; -242.270;  -55.513
420.446; 9269.488; -112.263;  -26.526
420.735;  901.883; -376.271; -446.512
421.025;  919.225; 1830.722;  315.502
421.314;  572.030; -203.271; -226.512
421.604;  695.482;   89.732;  233.484
421.893;  434.376; -705.271; -602.511
422.183;  298.663; -487.263; -461.526
422.472;  399.353;  -36.271; -107.511
422.762;  436.763; -416.266; -379.521
423.051;  275.280; -916.276; -916.503
423.341;  335.779; -491.273; -439.507
423.630;  406.345; -121.265;   15.477
423.919;  448.413;   58.725;   49.495
424.209;  480.345;  -31.263;   56.473
424.498;  654.838;   68.732;  161.483
424.787; 1508.696; -535.267; -601.518
425.077; 4373.318;   34.735;   29.478
425.366; 4740.627; -734.262; -744.528
425.655;13675.005;  639.727;  259.493
425.945;35389.286; -313.247; -268.554
426.234;18573.130;  117.741;  300.467
426.523; 7421.136;  -86.259; -350.534
426.812; 9981.533;  107.734;  159.480
427.101;15174.577; -127.269; -323.515
427.390;17666.245;  -55.270;  -86.514
427.680; 2498.810; -624.257; -411.538
427.969;  513.474; -330.255; -301.540
428.258;  384.750; -385.257; -477.536
428.547;  522.670;  449.728;  397.490
428.836;  735.869; -421.253; -398.543
429.125;  997.788; -199.259;  -72.534
429.414;  812.447; -330.251; -294.548
429.703; 4612.647; -231.251; -213.548
429.992;14275.176; -938.250; -828.549
430.281; 9013.279; -397.264; -331.524
430.570;  628.785;  -21.252;   32.454
430.859;  456.636;  279.741;  352.466
431.148;  434.931;  636.752;  631.446
431.437;  326.284;  391.748;  367.454
431.725;  220.502; -544.257; -481.536
432.014;  219.203; -845.253; -756.545
432.303;  438.548; -149.239; -105.569
432.592;  601.688; -460.263; -178.525
432.881; 1434.907; -601.248; -437.554
433.169; 9758.250; -343.255;  -61.540
433.458;19634.315;  445.765;  540.424
433.747; 7695.509; -397.261; -289.529
434.036;  948.469; -275.242; -280.564
434.324; 2966.966; -395.249; -379.551
434.613; 5368.061;   40.757;  159.437
434.902; 1515.436;  333.760;  439.433
435.190;  300.847;   75.761;  295.431
435.479;  183.814;  -52.245;   83.441
435.767;  108.123; -411.244; -427.561
436.056;  229.739; -340.242; -294.563
436.345;  506.814; -372.240; -223.568
436.633;  476.085;   60.750;  383.450
436.922;  187.317;  208.760;  414.432
437.210;  229.953; -194.236;    1.426
437.499;  478.588; -583.235; -432.576
437.787;  548.052; -339.236;  -10.574
438.075;  192.379;   56.761;  162.430
438.364;  211.657;  -44.238;  250.429
438.652;  121.936; -286.226; -138.592
438.941;   96.067;    3.770;  269.415
439.229;   -3.819; -665.252; -466.545
439.517;   40.248; -160.234;  -85.577
439.806;    2.705; -501.225; -290.595
440.094;  136.632;  377.766;  650.421
440.382;   31.412; -653.233; -302.580
440.670;   51.162; -361.235; -285.576
440.959;   11.502; -347.223; -170.599
441.247;   59.681; -151.229; -109.587
441.535;   46.846; -266.235;   31.423
441.823;   10.304; -497.234; -305.578
442.111;  156.461;  173.771;  327.412
442.400;  305.638; -628.245; -335.559
442.688;  523.932; -111.234; -620.579
442.976;  243.684; -786.213; -450.617
443.264;   52.738; -324.224; -364.597
443.552;   56.712; -258.226;   51.408
443.840;  150.869;  602.765;  876.423
444.128;   99.586;  265.767;  269.420
444.416;  -11.261; -694.228; -312.588
444.704;   24.038; -465.219;  -92.605
444.992;   44.891;   -0.226;  240.407
445.280;   31.167; -517.230;  -94.585
445.568;   -6.561; -694.212; -396.618
445.856;  134.718; -174.221;  357.398
446.143;  245.508;  -54.220;   -7.604
446.431;  231.294;  -25.228;  625.411
446.719;  169.012;  489.783;  675.391
447.007;  154.936;  481.769;  705.416
447.295;  156.098;  597.777;  871.402
447.583;  110.303; -464.229;  -34.587
447.870;  112.740; -434.221; -202.601
448.158;  248.841; -104.230;  129.415
448.446;  142.310; -800.219; -338.604
448.733;  136.140;   13.776;  269.403
449.021;  212.788;   60.788;  341.382
449.309;  185.132; -296.210;  208.379
449.596;  243.882;  128.783;   59.392
449.884;  227.106; -571.222; -325.600
450.172;  293.725; -756.227; -406.590
450.459;  666.539;  645.786;  780.387
450.747; 3854.455; -411.218; -147.608
451.034;12460.095;  493.772;  889.411
451.322; 9947.618; -413.214; -170.614
451.609;  755.292;  292.777;  508.403
451.897;  921.834; -550.203; -183.634
452.184; 2795.073; -622.223; -400.598
452.472; 2426.333;   97.792;  269.375
452.759;  356.410;  512.781;  864.395
453.047;   96.910; -407.212; -125.617
453.334;   55.845; -732.219; -216.606
453.621;   51.945; -438.214; -161.615
453.909;  105.224;   13.796;  384.368
454.196;  120.055; -299.199; -123.641
454.483;  268.950;  317.798;  540.364
454.771;  159.362; -215.208;  196.374
455.058;   56.741; -316.207;  102.374
455.345;  155.823;   71.807;  344.347
455.632;  142.695; -128.207;  235.373
455.919;   73.708;  -82.196;  182.354
456.207;  -29.214; -774.198; -450.642
456.494;   13.415; -475.200;  -66.639
456.781;   47.445; -399.202; -198.635
457.068;   64.228; -253.206;  -29.628
457.355;   -1.996; -698.206; -401.629
457.642;   20.861; -552.205; -290.630
457.929;   41.412; -778.194; -417.651
458.216;  129.036; -575.212; -354.617
458.503;  407.518; -173.193;  -19.652
458.790;  442.584; -864.208; -630.625
459.077;  391.276;  -77.202;  110.364
459.364; 1211.078; -350.195; -210.649
459.651; 2588.700;  -46.206;  220.372
459.938; 1157.272; -864.209; -665.623
460.225;  130.605;  132.799;  276.363
460.512;  -16.121; -836.197; -688.645
460.799;  140.829;  -32.218;  320.392
461.086;  106.220; -370.200; -251.640
461.372;   36.936; -509.198; -279.642
461.659;   72.709; -165.196;  108.354
461.946;   51.941; -445.193;  -54.651
462.233;  219.593;  842.800;  888.361
462.519;  523.364; -814.201; -464.639
462.806; 1512.730; -768.197; -497.645
463.093; 1304.891; -445.191;  -66.656
463.380;   11.167; -920.186; -824.664
463.666;   57.632; -259.197;  -18.646
463.953;  119.147; -406.195; -243.648
464.239;  291.047; -173.195;  -77.648
464.526;  403.210;  413.806;  743.350
464.813;  356.430; -565.190; -304.658
465.099;  347.692;  606.807;  607.348
465.386;  265.597;  903.807;  921.348
465.672;    0.005; -694.197; -522.645
465.959;   59.327; -598.188; -520.662
466.245;   12.197; -468.193; -359.652
466.532;   72.294; -109.195;   63.352
466.818;   40.867; -357.186; -216.664
467.104;    0.491; -488.182; -415.672
467.391;   -9.792; -628.189; -459.658
467.677;   53.821; -289.186;    9.335
467.964;   12.766; -682.189; -471.660
468.250;   52.349; -331.186; -160.665
468.536;   89.834;   90.811;  180.341
468.822;  -14.436; -821.184; -574.668
469.109;  159.265;  351.827;  471.311
469.395;  207.384;  729.808;  787.346
469.681;  254.413;   46.811;  156.341
469.967; 1866.719; -699.188; -382.660
470.254; 4166.678; -494.188; -306.662
470.540; 2546.007; -601.196; -476.646
470.826;  393.705; -488.181; -397.675
471.112;  438.243;  288.816;  113.331
471.398;  106.799; -253.183;  -58.670
471.684;   52.914; -626.177; -447.680
471.970;   37.059; -918.180; -981.675
472.256;   66.208; -521.192; -441.654
472.542;   58.154; -499.171; -434.691
472.828;   52.861; -743.182; -607.672
473.114;   48.182; -380.166; -283.700
473.400;   54.285; -504.175; -293.684
473.686;   47.315; -452.166; -400.701
473.972;   59.678; -230.174; -131.687
474.258;   15.690; -925.173; -843.689
474.544;  340.329; -183.178;   -2.679
474.830;  522.762;  -65.175;   45.316
475.116;  827.757; -123.190; -196.658
475.401; 1127.637; -558.180; -467.676
475.687;  319.936; -725.180; -718.676
475.973;    3.446; -673.181; -770.673
476.259;  248.989;  736.825;  764.315
476.544;  549.099; -539.176; -437.682
476.830; 1391.824; -398.172; -322.690
477.116; 1219.097; -430.177; -336.682
477.401;  178.636;  346.820;  358.324
477.687;  -13.240; -289.175; -405.684
477.973;   55.025;   21.819;   28.326
478.258;    2.515; -448.163; -348.706
478.544;   43.556;   21.815;   61.334
478.829;  -46.865; -818.171; -738.692
479.115;  -31.877; -749.172; -651.690
479.401;    3.622; -444.174; -449.686
479.686;   74.235; -253.180;  -74.676
479.972;   22.610; -886.178; -776.680
480.257;   61.434; -258.166;  -65.700
480.542;   34.540; -614.170; -469.693
480.828;  233.108; 1288.824; 1392.317
481.113;  -18.095; -464.176; -426.683
481.399;    3.019; -236.161; -202.711
481.684;  -28.967; -620.166; -462.700
481.969;   29.411; -158.159;  -73.713
482.255;    0.728; -439.169; -285.695
482.540;   20.986; -569.178; -441.680
482.825;   54.311; -395.187; -404.663
483.110;  152.307;  -85.169; -105.696
483.396;  393.787; -840.157; -652.718
483.681;  745.653;  543.826;  730.313
483.966;  312.753; -696.160; -700.712
484.251;   11.551; -404.174; -310.687
484.536;    5.871; -356.165; -378.703
484.822;   39.980; -205.173; -218.687
485.107;    1.859; -599.152; -502.726
485.392;  137.728;  662.836;  541.296
485.677;   89.344;  354.832;  163.302
485.962;  128.859;  160.843;  270.283
486.247;  104.200;  -14.162;   -8.707
486.532;   73.535; -178.166; -325.701
486.817;  175.312;  381.839;  431.291
487.102;  164.563; -453.154; -514.722
487.387; 1089.789; -637.156; -652.718
487.672; 1988.910; -154.164;  -38.705
487.957; 1208.146; -394.160; -286.711
488.241;  346.954; -290.150; -314.729
488.526; 1208.261; -280.152; -148.726
488.811; 2000.263; -881.177; -818.680
489.096; 1423.991; -666.154; -702.723
489.381;  744.981;    3.847;  162.275
489.666;  653.144; -428.161; -510.710
489.950;  225.495;  558.846;  627.277
490.235;  -23.677; -480.151; -458.728
490.520;  -28.782; -756.161; -723.710
490.804;  -12.908; -827.156; -736.719
491.089;   32.074; -469.149; -299.732
491.374;   42.308; -132.164;  -75.704
491.658;   -3.037; -817.147; -717.735
491.943;  122.366; -657.152; -609.727
492.227;  219.833; -178.155;  -38.721
492.512;   46.408; -294.157; -341.717
492.797;  -29.984; -713.149; -716.731
493.081;  -30.934; -588.147; -598.735
493.366;  -29.106; -751.161; -635.711
493.650;  234.881;  831.859;  917.254
493.935;   86.187; -648.147; -447.734
494.219;   -9.584; -778.142; -687.743
494.503;  -19.965; -585.150; -487.730
494.788;   65.873;   46.842;   74.285
495.072;  132.181;  184.850;  434.271
495.356;  255.578; -463.148; -343.733
495.641;  542.949; -812.146; -736.736
495.925;  456.073; -976.156; -903.719
496.209;   24.298; -599.149; -451.732
496.494;  -28.959; -763.142; -544.744
496.778;   19.063; -364.154; -360.722
497.062;  -24.853; -819.156; -627.719
497.346;   26.598; -869.160; -640.711
497.631;  186.732;  580.852;  560.266
497.915;   98.112;  -64.145;  175.261
498.199;   48.787; -341.157; -277.718
498.483;   56.634; -562.152; -508.725
498.767;  261.032;  301.850;  300.271
499.051;  284.820; -126.149; -100.732
499.335;   97.643; -693.149; -739.731
499.619;  -14.369; -381.129; -423.767
499.903;   18.906; -272.155;  -65.721
500.187;   34.922; -588.153; -316.724
500.471;   32.890; -796.152; -595.727
500.755;   95.768;   62.839;  -96.710
501.039;    5.532; -270.155; -357.721
501.323;   71.984;  -21.141;  264.254
501.607;   36.465; -447.163; -503.706
501.891;   11.764; -607.156; -512.718
502.174;  -36.349; -726.144; -585.741
502.458;   83.045;   89.849;  370.273
502.742;   62.563; -180.138; -191.751
503.026;  196.486; -412.147; -254.734
503.310;  338.559; -437.159; -375.713
503.593;  222.014; -464.147; -325.735
503.877;  145.812; -232.133; -156.760
504.161;  191.400;    2.847;  -50.724
504.444;  194.501; -841.158; -710.716
504.728;  797.882; -487.164; -522.704
505.012; 1126.654; -257.150;  -76.729
505.295;  806.219; -417.161; -212.711
505.579;  844.847; -256.156; -496.719
505.862; 1278.408; -555.145; -333.738
506.146; 1303.137; -681.159; -758.714
506.429;  580.063;  568.841;  461.286
506.713;  155.075; -732.151; -667.728
506.996;  485.662;   90.846;  295.278
507.280;  576.151; -633.165; -474.703
507.563;  410.155; -469.155; -261.721
507.847;  193.123; -423.153; -112.724
508.130;  184.220; -665.161; -456.711
508.413;  244.553; -758.167; -577.700
508.697;  421.454; -151.167;   12.300
508.980;  281.700; -422.153; -312.724
509.263;   34.850; -466.155; -450.720
509.547;   47.978; -124.150;   82.271
509.830;   62.773; -172.160;  140.289
510.113;  109.747;  128.844;  298.281
510.396;   72.332; -530.152; -300.725
510.680;   64.684; -818.145; -812.738
510.963;  205.343;  184.846;  180.277
511.246;  120.713; -493.150; -357.730
511.529;  308.440; -482.145;  -83.739
511.812;  625.133; -250.134;   10.241
512.095;  490.021; -740.151; -396.728
512.378;  105.419; -317.147; -245.736
512.661;   93.022; -703.137; -623.753
512.944;   99.743; -750.142; -637.744
513.227;  107.844; -170.137; -171.752
513.510;   76.751; -479.144; -671.741
513.793;   47.564; -485.140; -435.747
514.076;  180.031;  -43.127;  -39.771
514.359;  158.374; -294.149; -135.732
514.642;  153.247; -442.142; -567.744
514.925; 1162.262;  581.860;  561.253
515.208; 1698.704; -498.134; -443.758
515.491; 1039.546; -276.133; -182.761
515.773;  611.555; -410.143; -337.742
516.056; 3353.630;  249.864;  409.246
516.339; 4393.235; -754.136; -652.755
516.622; 2035.610; -518.150; -488.730
516.904;  562.114;  882.857;  975.257
517.187;  218.142; -730.138; -523.752
517.470;  437.163; -568.143; -510.743
517.752;  733.988; -624.136; -470.756
518.035;  589.627; -708.139; -725.749
518.318;  628.710; -799.136; -744.755
518.600; 4073.725; -300.132; -325.762
518.883; 5574.896;  310.858;   88.256
519.165; 2546.883; -585.138; -426.751
519.448;  446.600;  -61.132;  -19.762
519.730;  216.990; -573.126; -415.773
520.013;  244.716;  588.867;  664.240
520.295;  309.135;  -94.134;  -15.759
520.578;  604.316; -335.131; -305.764
520.860;  858.275; -254.132;   56.238
521.143;  639.216; -763.135; -584.756
521.425;  599.281; -251.125; -279.775
521.707;  999.082; -622.127; -380.771
521.990; 2838.107; -199.127;  167.229
522.272; 3240.091; -116.140;   -4.748
522.554; 1198.281; -237.143; -157.742
522.836;  241.433;  -24.134;   99.241
523.119;  200.960; -496.148; -189.734
523.401;  181.624; -448.130; -314.766
523.683;  166.798; -865.137; -693.753
523.965;  444.765;  408.862;  260.248
524.247;  447.032;   54.878;  170.220
524.529;  335.585; -451.134; -367.759
524.812;  503.051;   -3.130;  191.234
525.094; 1428.464; -773.138; -631.751
525.376; 2244.217; -143.124;   78.223
525.658; 1338.006; -441.136; -339.754
525.940;   95.262; -805.131; -671.764
526.222;   34.411; -188.136;  -88.755
526.504;   71.884; -190.131;   32.237
526.786;   32.738; -960.133; -647.760
527.068;  112.674; -124.123;  -67.778
527.349;   -1.973; -865.137; -774.754
527.631;  120.774; -137.132;   22.238
527.913;  253.931; -664.127; -450.771
528.195;  331.548; -761.125; -639.774
528.477;  405.679;  -93.134;  -30.758
528.759;  282.176; -648.130; -522.766
529.040;  159.123; -569.123; -293.778
529.322;   96.201; -235.125;  -10.774
529.604;  111.654;  -47.130;   93.233
529.886;   50.190; -546.126; -302.773
530.167;   90.194;  232.870;  192.235
530.449;   42.493;    1.853;   63.265
530.731;   87.681; -572.122; -459.779
531.012;  157.557; -513.120; -216.784
531.294;  150.005; -118.116;  -43.792
531.575;  211.431;  290.875;  538.225
531.857;  149.373; -548.135; -266.757
532.138;  112.657; -113.141;   40.254
532.420;  123.868;  294.865;  403.244
532.701;   79.341; -722.133; -751.760
532.983;  198.220;  232.867;  182.239
533.264;   59.913; -243.126;  175.228
533.546;  -30.764; -491.136; -508.755
533.827;   22.987;  173.867;   -1.759
534.109;   27.247; -352.135;  -80.757
534.390;  110.179; -725.132; -582.762
534.671;  313.118; -270.135;  -82.756
534.953;  213.201; -751.123; -611.779
535.234;   56.386; -426.117; -255.789
535.515;  -43.008; -891.119; -735.785
535.796;   12.451; -431.128; -193.770
536.078;  -84.483;-1050.124; -904.777
536.359;   25.377;  -22.123;    3.221
536.640;   -8.426; -480.125; -197.774
536.921;  176.060;  225.871;  143.232
537.202;  557.110;  -87.138;  -16.751
537.483;  702.715;  251.869;  377.236
537.764;  274.019;   17.870;   98.235
538.045;   -8.872; -543.134; -371.758
538.326;  -13.863; -596.129; -447.768
538.607;   83.833; -686.127; -476.771
538.888;  283.646;   98.879;    5.218
539.169;  337.964; -704.122; -535.781
539.450;  415.459;  236.871;   16.233
539.731;  279.926; -361.121; -182.783
540.012;  156.432;  199.880;  412.216
540.293;   96.785;   82.876;  158.224
540.574;    8.430; -895.113; -717.796
540.855;  519.249;  435.879;  377.218
541.136;  686.161;   47.878;  139.220
541.416;  397.402; -161.130; -220.766
541.697;  317.535; -274.131; -170.763
541.978; 1671.795; -270.135; -315.757
542.259; 2139.632; -211.127; -236.771
542.539;  980.722; -191.116; -186.790
542.820;  225.506;  461.875;  480.225
543.101;  152.786;  -52.145;  -77.738
543.381;   64.432; -638.127; -591.771
543.662;  380.379;  159.873; -254.771
543.942; 1000.552; -751.127; -830.770
544.223; 1705.513;  193.878;  161.219
544.504; 1115.017; -275.124; -182.777
544.784;  911.365; -592.126; -408.773
545.065; 2561.777;  104.884; -254.791
545.345; 3010.567;  227.881;   14.215
545.626; 1989.229;  -14.113; -108.796
545.906; 1450.868;   77.869;   98.235
546.186;  584.396;   92.874;  -95.773
546.467;  322.745;   99.877;  -95.778
546.747;  529.322;  264.884;  327.210
547.027;  600.990;   91.876;  111.223
547.308;  574.626; -376.127; -530.770
547.588;  593.413;  299.871;  371.232
547.868;  264.195;  458.870;  588.235
548.149;  264.736;  609.885;  593.207
548.429;  245.430; -347.127; -299.771
548.709;  374.881; -645.120; -461.784
548.989;  779.779;   84.882;   88.213
549.269; 3351.873;   10.868;  139.239
549.550; 7922.250;  215.877;  117.222
549.830; 7041.051; -758.111; -556.799
550.110; 1384.335; -468.110; -320.801
550.390; 1353.306; -128.122;  -56.779
550.670; 1959.224; -868.114; -783.795
550.950; 1332.148; -509.121; -471.782
551.230;  266.544;  549.879;  460.218
551.510;   45.697; -381.121; -326.782
551.790;   72.095; -173.109; -127.803
552.070;  329.170;  940.877; 1181.223
552.350;  730.222; -492.119; -377.786
552.630; 1007.866;   -2.121;   77.219
552.909;  575.802;  181.884;   73.209
553.189;  398.306;  -49.132;   33.237
553.469;  387.447; -703.119; -514.786
553.749;  383.559; -469.127; -357.772
554.029;  285.116;   33.883;  -24.790
554.308;  281.341; -154.115;  -37.794
554.588;  156.074; -196.128; -204.770
554.868;  170.224; -366.121;  -47.782
555.147;  267.137; -114.115;  -46.793
555.427;  959.205; -260.116; -250.792
555.707; 6255.810; -284.115; -200.793
555.986; 7824.805; -719.111; -538.800
556.266; 3963.920;   23.884;   72.210
556.546;  275.697; -888.121; -675.782
556.825;  435.121; -657.114; -556.794
557.105; 2946.947; -125.128;   17.230
557.384; 3438.176;  122.884;  187.209
557.664; 1370.354; -717.116; -508.792
557.943;  237.323; -557.121; -411.782
558.222;  350.783; -345.118; -344.788
558.502;  419.614; -116.115;  -76.793
558.781;  722.909;  194.885;  499.208
559.061;  700.832; -232.118; -227.788
559.340;  482.113;  302.883;  353.211
559.619; 1194.095;   93.884;  148.210
559.899; 1770.516; -239.117; -266.789
560.178; 1555.463; -778.115; -593.793
560.457; 4918.343; -623.117; -562.790
560.736; 6971.832; -472.111; -482.800
561.015; 4590.419; -500.128; -502.769
561.295;  549.194;  180.893;  215.193
561.574;  456.110;  119.885;  116.207
561.853;  695.150;  274.891;  303.197
562.132;  824.492;  -45.114;  182.206
562.411;  678.316;  396.879;  553.219
562.690;  296.258; -592.115; -458.792
562.969;  184.638;  472.888;  630.203
563.248;  595.589; 2966.878; 2487.219
563.527;  484.431; -290.111; -408.800
563.806;  684.280; -650.127; -521.771
564.085;  691.613; -297.105; -206.810
564.364;  462.969; -594.117; -405.790
564.643;  820.742; -276.121; -223.781
564.922; 3049.693;  221.890;  397.198
565.201; 3169.772; -640.109; -700.803
565.479; 1326.082; -297.115; -219.792
565.758;  599.572; -810.128; -712.770
566.037;  809.999; -155.109; -100.803
566.316;  396.026; -286.116;  -28.791
566.595;   96.960;  -17.115;  -12.793
566.873;  117.608; -166.111;  -79.801
567.152;   -7.613; -490.113; -590.797
567.431;   40.546; -113.116;    6.210
567.709;   75.770; -344.107; -212.807
567.988;  505.146; -810.114; -769.794
568.266;  877.485; -160.115;  -68.793
568.545;  689.295; -644.100; -514.819
568.824;  963.181;  160.885;  356.208
569.102;  963.295; -351.114; -235.794
569.381;  446.230; -492.116; -407.792
569.659;  -10.542; -553.113; -553.796
569.938;  130.586; -743.122; -465.780
570.216;  215.677; -225.109; -225.804
570.494;   41.875; -632.114; -572.795
570.773;   50.347;  202.879;  114.218
571.051;   61.698; -373.123; -357.778
571.330;  129.155; -221.113; -174.796
571.608;   89.467; -181.098; -173.823
571.886;  -31.126; -671.111; -581.799
572.164;  -11.326; -739.121; -621.782
572.443;   -0.533; -562.105; -512.811
572.721;   -7.157; -399.117; -289.790
572.999;   -2.540; -280.117; -168.788
573.277;  126.034;  379.894;  620.191
573.555;  474.362;   94.894;   37.190
573.834; 2279.009;  -86.117; -114.788
574.112; 2555.472;  880.893;  811.193
574.390;  787.232; -143.111;  -96.801
574.668;   40.439;  -91.112;  -61.797
574.946;   14.012; -165.106; -187.810
575.224;   36.272;   71.891;  -16.803
575.502;   13.748; -200.116; -204.791
575.780;  -58.560; -767.112; -829.798
576.058;  218.281; 1589.889; 1004.200
576.336;   -1.662; -210.110; -129.801
576.614;  -23.935; -511.112; -340.798
576.891;  165.865; -711.115; -823.794
577.169;  841.662; -158.108; -285.805
577.447;  910.222;  169.893;  202.193
577.725;  386.321;  629.888;  854.201
578.003;   58.893;  -71.112; -371.798
578.280;  134.478; -208.104; -242.812
578.558;  121.989; -450.115; -422.793
578.836;  168.749; -210.114; -145.795
579.114;   96.838; -630.112; -670.797
579.391;   85.562;   -6.117;  -18.789
579.669;  -29.084; -595.114; -704.794
579.947;  303.543; -326.107; -127.806
580.224;  585.442; -692.107; -524.806
580.502;  529.423;  127.893;   76.193
580.779;   49.969;  -42.117;   75.210
581.057;  -36.148; -584.109; -470.804
581.334;  -85.678; -726.102; -695.815
581.612;   41.063;   54.895;  511.190
581.889;   -5.687;  -83.101; -129.818
582.167;   -4.895; -298.099; -190.821
582.444;  -83.319; -845.102; -814.817
582.721;  109.232;  657.899;  715.183
582.999;  118.052; -326.100; -167.821
583.276;  956.278; -812.123; -713.779
583.553; 1253.550; -364.102; -294.816
583.831;  458.499; -607.104; -631.812
584.108;   88.559;  349.892;  174.195
584.385;   53.071; -122.102;  -98.815
584.662;  -22.391; -651.111; -828.801
584.940;   49.483;  204.889;  204.199
585.217;   10.632;  -73.113; -303.796
585.494;   74.969;   71.890;  118.198
585.771;  352.503; -250.109; -354.804
586.048;  824.532; -196.113;  -76.796
586.325;  554.187; -721.110; -773.801
586.602;  134.154;  230.896;  213.188
586.879;   37.848; -499.100; -580.820
587.156;  112.389; -156.105; -331.810
587.433;   13.754; -701.102; -667.817
587.710;   97.016;  152.888;  234.202
587.987;  450.546; -264.105; -236.811
588.264; 1195.793;  315.888;  387.202
588.541; 1949.757;  -61.104;   26.187
588.818; 4108.806;   72.892;  171.196
589.095; 3511.876; -163.104; -174.812
589.371;  584.451; -459.109; -414.804
589.648;   74.522; -581.107; -437.807
589.925;  108.575; -517.114; -621.795
590.202;  100.465; -741.112; -607.798
590.478;  177.748; -166.105;  -73.811
590.755;  436.113; -241.108; -132.806
591.032; 3884.514; -741.110; -699.802
591.308; 5491.716; -732.094; -790.831
591.585; 2808.314; -573.110; -560.802
591.862;  330.706;-1056.102; -950.817
592.138;  160.735; -475.108; -474.805
592.415;  274.055; -486.104; -495.813
592.691; 2159.777;  460.896;  518.188
592.968; 2923.270; -208.098; -123.824
593.244; 1424.447; -695.116; -595.790
593.521;  139.131; -105.102;  -42.817
593.797;   56.083; -810.122; -720.780
594.074;  567.960; -611.096; -588.826
594.350;  972.474;  828.905;  729.172
594.626;  494.159; -303.111; -283.801
594.903;  243.557; -643.101; -645.817
595.179;  295.734;  243.896;  418.187
595.455;   44.899; -136.107; -150.807
595.731;   16.786;  -19.103;  -38.814
596.008;   -6.598; -464.111; -434.800
596.284;   87.026; -187.100; -242.820
596.560;  148.499; -501.093; -493.833
596.836;  356.842; -173.105;  -70.810
597.112;  595.961; -582.108; -437.805
597.388;  482.708;  -49.097;  -48.826
597.665;  149.060;  437.887;  530.203
597.941;  -19.465; -572.089; -658.839
598.217;   64.343; -323.110; -293.802
598.493;  428.055;   61.891; -204.804
598.769;  850.719; -175.100;  -50.819
599.045;  532.165; -490.108; -562.806
599.321;  131.849; -193.100; -261.820
599.597;  254.804; -355.109; -476.804
599.872;  748.207;  409.896;  429.187
600.148;  605.209;  -61.097; -172.826
600.424;  451.371;   91.893;  202.193
600.700;  421.998; -170.107; -280.807
600.976;  230.102; -442.097; -464.825
601.252;  433.175; -226.109; -272.803
601.527;  438.683; -833.104; -840.813
601.803;  276.423; -453.105; -404.812
602.079;  317.619; -124.100; -118.819
602.354;  938.711; -620.092; -531.835
602.630; 1346.132; -140.113; -482.796
602.906; 3497.388; -910.101; -863.818
603.181;10691.747; -627.119; -534.786
603.457; 9018.407;   98.903; -278.826
603.733; 1365.352; -605.120; -626.783
604.008; 1431.788; -245.106; -164.810
604.284; 4834.283; -636.101; -580.817
604.559; 4169.195;   -3.112;  -42.799
604.835;  782.816; -163.105; -225.810
605.110;  727.631; -732.099; -892.821
605.385; 1073.453;  224.907;  267.167
605.661; 1084.802; -625.095; -729.829
605.936; 1997.240; -664.108; -737.806
606.211; 1599.269;  -17.103; -170.815
606.487;  363.169; -329.114; -376.794
606.762;  115.647; -791.119; -745.786
607.037;   18.267; -501.105; -433.810
607.313;  -14.856; -589.096; -574.828
607.588;   36.512; -375.106; -137.810
607.863;   78.012;  -28.101; -143.818
608.138;  248.717;  513.890;  516.198
608.413;  124.386; -576.099; -592.822
608.688;  121.935; -203.108; -267.805
608.964;  371.430; -509.106; -218.809
609.239;  449.138; -107.105; -212.810
609.514;  374.173;  281.895;  240.188
609.789; 1079.353; -187.104; -716.812
610.064; 1406.317; -435.096; -609.827
610.339; 1471.701; -855.109; -799.804
610.614; 1981.025; -131.100; -315.820
610.889; 1065.948;  215.895;  107.188
611.163;  116.249; -407.104; -591.812
611.438;  170.821;   81.886; -167.794
611.713;   69.483; -467.101; -499.817
611.988;  135.811; -144.101; -328.818
612.263;   57.972; -771.102; -717.815
612.538;  302.256;  385.887;  251.204
612.812;  369.651; -832.100; -911.820
613.087;  316.217; -358.098; -338.823
613.362;    0.624; -497.107; -557.807
613.637;   73.265;  261.897;  138.186
613.911;   30.912; -256.092; -345.835
614.186;  227.922; -249.107; -292.807
614.460; 1194.377; -842.081; -758.854
614.735; 1324.814;  -55.087;  -17.843
615.010;  275.027;   43.912;  -82.841
615.284;  349.560;  360.892;  246.195
615.559;  649.111; -792.092; -955.835
615.833;  468.683;  -76.099;  -87.822
616.108;   43.600; -225.090; -390.837
616.382;  204.341;  274.913;  402.156
616.656;  281.801; -241.090; -232.837
616.931;  817.209; -785.099; -700.822
617.205; 1733.833; -973.104; -979.813
617.480; 1565.004;  -91.125;    6.225
617.754;  318.500; -396.125; -128.774
618.028;   83.289; -369.129; -382.768
618.302;   99.858;   73.892;  -25.805
618.577;  -26.709; -371.103; -518.815
618.851;  -17.854; -399.109; -600.803
619.125;  -26.540; -335.134; -378.759
619.399;  -16.416; -244.104; -374.813
619.673;  -24.044; -330.115; -515.792
619.947;   -6.201; -333.114; -448.795
620.222;    6.510; -198.110; -204.801
620.496;   32.024;  -47.121;  -96.782
620.770;   55.339; -187.122;  -93.781
621.044;  304.064;  323.895;  346.190
621.318; 1153.177; -653.120; -614.783
621.592; 1093.050; -430.121; -409.783
621.866;  656.922; -476.112; -572.799
622.140;   88.598; -207.116; -356.791
622.413;  113.627;  138.889;  112.200
622.687;    6.284; -746.101; -492.817
622.961;   41.783; -130.108; -143.805
623.235;  -32.072; -633.111; -661.800
623.509;  -84.052; -816.105; -848.811
623.783;   29.469;  -12.107;   48.193
624.056;    6.379; -254.120; -280.783
624.330;   86.164;   63.888;   -3.797
624.604;  111.294; -271.116; -355.790
624.877;  131.765;  180.890;   26.198
625.151;  102.393; -249.114; -238.794
625.425;  -10.564; -150.103; -283.814
625.698;  -34.060; -367.119; -374.785
625.972;  -74.107; -799.110; -765.802
626.245;   95.997;  685.884;  484.210
626.519;  -24.116; -426.120; -340.784
626.792;   -6.777; -192.107; -380.807
627.066;  -63.570; -485.122; -662.779
627.339;  -64.737; -736.110; -663.802
627.613;   77.657;  351.880;  148.216
627.886;   87.146;  187.891; -612.803
628.160;    4.027;  312.880; -161.783
628.433;  -57.618; -695.125; -703.775
628.706;  -71.191; -517.120; -615.784
628.979;   50.465;  296.876;  117.223
629.253;  -41.829; -785.119; -833.786
629.526;  625.338; -334.126; -253.772
629.799;  644.599; -641.123; -479.778
630.072;  338.166; -497.128; -516.769
630.346;    7.497;-1115.116;-1080.790
630.619;  745.674; -467.107; -545.808
630.892;  952.779;  709.889;  593.200
631.165;  488.884;  790.896;  679.187
631.438;  -24.307;-1092.112;-1055.798
631.711;   65.502;  453.877;  257.221
631.984;  -16.309; -523.117; -624.789
632.257;  -37.863; -636.117; -681.789
632.530;  -27.285; -412.119; -433.785
632.803;   34.715; -109.115;    7.207
633.076;  -60.380; -360.123; -422.777
633.349;   17.146;  173.872;  121.231
633.622;  -23.161; -187.119; -240.785
633.895;  -89.572; -903.120; -823.783
634.167;  -44.185; -496.126; -525.773
634.440;    6.479;  -19.116; -137.792
634.713;   18.695;  -22.119; -120.786
634.986;  100.934;  593.871;  453.233
635.258;  -56.462; -507.115; -597.793
635.531;  109.482;  742.882; -343.788
635.804;  -24.636; -303.117; -318.789
636.077;  -62.550; -830.116; -852.791
636.349;   49.261; -586.115; -474.793
636.622;  455.687; 1695.874; 1392.228
636.894;  440.284; -474.120; -909.784
637.167;  331.580; -836.127; -789.771
637.439;   79.100; -278.128; -213.770
637.712;  -30.561; -312.126; -293.772
637.984;  -70.949; -635.116; -707.791
638.257;  512.670;  515.877;  488.222
638.529;  916.483; -881.125; -924.776
638.802;  412.266; -508.128; -449.769
639.074;  -79.762; -927.122; -952.781
639.346; -103.225; -942.135; -930.757
639.619;   20.545;  -79.142; -319.744
639.891;   11.155;  -83.122; -168.779
640.163;  -72.818; -689.122; -756.780
640.435;   63.334;  273.878;  103.220
640.708;   26.837;  -72.122; -132.780
640.980;   19.889; -366.122; -362.781
641.252;  247.791;  -25.121;  -71.781
641.524; 2455.318;  580.879;  573.219
641.796; 2692.196;-1094.121; -907.782
642.068;  490.273; -191.121; -300.782
642.340;  -30.200; -486.121; -566.783
642.613;   42.177;  294.880;  323.217
642.885;  -73.620; -787.120; -878.783
643.157;    9.207; -810.120; -658.784
643.428;   79.034;  170.880;  218.216
643.700;  -54.764; -498.120; -425.784
643.972;  -35.786;  -16.119; -133.785
644.244;  -68.959; -474.119; -559.785
644.516;  -44.307; -250.119; -114.786
644.788;   70.820;  662.881;  548.214
645.060;  -25.177;  -12.119; -124.786
645.332;  -87.275; -525.118; -535.787
645.603;   29.902;  479.882;  342.213
645.875;  -60.696; -334.118; -369.787
646.147;  157.956; 1487.882; 1242.212
646.418;   -3.891; -931.117; -918.788
646.690;  320.061; -714.117; -715.789
646.962;  123.388; -413.117; -451.789
647.233;    3.640;   15.883;   11.211
647.505;  -91.432; -595.117; -475.790
647.776;   33.545;  328.884;  229.210
648.048;   22.772; -248.116; -418.790
648.320;  -42.826; -752.116; -679.791
648.591; -133.873;-1055.116; -958.791
648.862;  -73.246; -505.116; -577.792
649.134;   35.306;  115.885;  198.208
649.405;   -9.842; -661.115; -618.792
649.677;  -22.739; -475.115; -598.793
649.948;   28.713; -181.115; -296.793
650.219;   17.365;  -37.115; -147.793
650.491;  -85.233; -431.114; -520.794
650.762; -106.830; -705.114; -731.794
651.033;  -76.803; -437.114; -424.795
651.304;  -56.201; -743.114; -728.795
651.576;  -37.649; -680.114; -645.795
651.847;  -28.796; -250.113; -140.796
652.118;  -25.444;  -32.113; -189.796
652.389; -101.567; -639.113; -722.796
652.660;  -29.115; -147.113;  -89.797
652.931; -112.937; -897.112; -871.797
653.202;  -71.585; -382.112; -541.798
653.473;  -40.608; -633.112; -533.798
653.744;  293.744; -595.112; -590.798
654.015;  263.871; -356.112; -303.799
654.286;  -26.251; -642.111; -663.799
654.557;   -5.474; -586.111; -521.799
654.828; -137.222;-1114.111;-1088.800
655.099;  -62.170; -404.111; -291.800
655.370;  -90.017; -427.111; -543.801
655.641;  -98.740; -656.110; -714.801
655.911; -108.838; -618.110; -638.801
656.182;   42.714;  437.890;  387.198
656.453;   89.217;  830.890;  746.198
656.724;  -59.831; -466.110; -426.802
656.994;  -69.704; -553.109; -568.803
657.265;  -77.102; -862.109; -873.803
657.536;  -80.849; -500.109; -377.804
657.806; -102.222; -561.109; -593.804
658.077; -126.170; -866.109; -950.804
658.347;  -70.493; -523.108; -598.805
658.618; -101.340; -646.108; -694.805
658.888;  -11.663;  -41.108;  112.195
659.159;  -79.886; -432.108; -548.806
659.429;   -0.159; -292.108; -349.806
659.700;   67.869; -435.107; -390.807
659.970;   35.246; -370.107; -359.807
660.241;   81.548; -754.107; -921.807
660.511;  824.225; -147.107; -174.808
660.781;  228.253; -793.106; -748.808
661.052;  -27.670; -222.106; -381.808
661.322;  -20.843;   21.894;   -9.809
661.592;    7.784;  257.894;  148.191
661.862;  -67.614; -369.106; -382.810
662.133;  -92.061; -551.105; -502.810
662.403; -110.684; -770.105; -676.810
662.673;  -52.382; -256.105; -213.811
662.943;  -84.555; -612.105; -551.811
663.213;   14.648;  -85.105;  -81.811
663.483;  -65.750; -593.104; -568.812
663.753;  -48.548; -194.104; -152.812
664.023;    3.754;   68.896;  -32.813
664.293;  -67.518; -319.104; -126.813
664.563;  -94.591; -694.104; -648.813
664.833; -102.814; -743.103; -608.814
665.103; -107.112; -730.103; -793.814
665.373;  -91.234; -766.103; -806.814
665.643;  -30.632; -863.103; -918.815
665.913;  108.970; -534.103; -714.815
666.182;  259.097; -685.102; -719.816
666.452;  460.200;  -22.102;  -89.816
666.722;   42.002; -724.102; -784.816
666.992; -110.021; -948.102; -921.817
667.261;  -69.419; -824.102; -808.817
667.531;  291.984;  134.899;   45.183
667.801;  853.711; -440.101; -412.818
668.070;  299.638;  714.899;  697.182
668.340;  -63.560; -883.101; -840.819
668.609;  120.543;  588.900;  301.181
668.879;  -65.180; -490.100; -558.819
669.149;  -47.753; -539.100; -516.820
669.418; -102.501; -698.100; -726.820
669.688;   14.776; -482.100; -666.820
669.957;  172.929; -423.099; -546.821
670.226;   -4.794; -268.099; -331.821
670.496;  -74.717; -431.099; -635.822
670.765;  -55.840; -418.099; -501.822
671.034; -115.912; -872.099; -828.822
671.304;    0.540;   55.902; -111.823
671.573; -118.033;-1085.098; -957.823
671.842;  158.619; -380.098; -294.823
672.112;  112.372; -692.098; -586.824
672.381;   31.074; -239.098; -214.824
672.650; -102.374;-1005.097;-1021.825
672.919;  -61.872; -631.097; -507.825
673.188;  -71.819; -681.097; -878.825
673.457; -111.867;-1101.097;-1143.826
673.726;  -52.465; -579.096; -646.826
673.995;   -6.738; -533.096; -479.826
674.265;    5.165; -263.096; -333.827
674.534;   51.142; -183.096; -235.827
674.802;   72.194; -618.096; -703.828
675.071; 1441.421; -886.095; -801.828
675.340; 6225.524; -464.095; -339.828
675.609; 2035.676;  103.905;   82.171
675.878;  220.303; -949.095; -893.829
676.147;   72.280;  -26.095;   -8.829
676.416;  162.132; -210.094; -294.830
676.685; 1072.860; 1000.906; -622.830
676.953;  236.112; -603.094; -452.831
677.222;    0.039; -193.094; -273.831
677.491;    0.191;  -24.094; -127.831
677.759;   16.519;   11.907;  172.168
678.028;   14.371; -279.093; -222.832
678.297;   24.848;   71.907;  197.168
678.565; -120.100; -898.093; -944.833
678.834;  -56.247; -311.093; -268.833
679.102;  -71.845; -411.092; -391.834
679.371; -127.043; -898.092; -727.834
679.639; -121.041; -797.092; -786.834
679.908; -104.063; -794.092; -724.835
680.176; -132.811; -895.091; -941.835
680.445;  -69.734; -346.091; -352.835
680.713;    3.193;  -58.091;  -23.836
680.982;  -87.129; -523.091; -525.836
681.250;  -81.752; -578.091; -507.837
681.518;  -81.550; -534.090; -751.837
681.787;    7.352; -204.090; -167.837
682.055;  -41.620; -490.090; -422.838
682.323; -123.468; -993.090; -992.838
682.591;   77.234; -216.090; -538.838
682.859;  169.811;    9.911;  -35.839
683.128;   33.539;  232.911;  497.161
683.396; -143.634;-1102.089;-1122.840
683.664;  -21.207; -241.089;   21.160
683.932;   10.970;  144.911;  -76.840
684.200;  -59.653; -576.088; -320.841
684.468;  -23.425;  -73.088; -124.841
684.736;  -10.273; -214.088; -175.841
685.004;  -87.246;-1024.088; -982.842
685.272;   13.756; -880.088; -774.842
685.540;  -38.941; -499.087; -557.843
685.808;  -43.064; -651.087; -682.843
686.076;  -61.912; -894.087; -969.843
686.343;  -16.335; -601.087; -815.844
686.611;   75.868; -195.087; -224.844
686.879;  636.395; -530.086; -553.844
687.147; 5015.347; -483.086; -480.845
687.414; 1498.074;  -12.086; -169.845
687.682;   74.202; -658.086; -757.846
687.950;  462.454;  259.915;  263.154
688.217;  117.506; -792.085; -760.846
688.485;   44.908; -632.085; -636.847
688.753;  836.311;  -11.085; -102.847
689.020;  390.488; -820.085; -851.847
689.288;  -69.885; -853.084; -787.848
689.555;   -7.133; -195.084; -148.848
689.823;  -21.930; -241.084; -345.849
690.090;  -58.178; -546.084; -651.849
690.358; -126.226; -877.084; -897.849
690.625;    7.351;  120.917;   45.150
690.892;  -62.896; -403.083; -369.850
691.160;    0.481;   72.917;  -35.850
691.427;    9.733;  141.917;  130.149
691.694; -103.215; -855.083; -929.851
691.962; -119.663;-1177.082;-1060.852
692.229;   43.965;  127.918;   56.148
692.496;  131.092;  130.918;  -49.852
692.763;   52.119; -164.082; -201.853
693.031;  -42.204; -739.082; -716.853
693.298;   -0.276; -509.081; -368.853
693.565;  418.276; -155.081; -163.854
693.832; 2062.578;   -5.081;   -9.854
694.099;  282.655; -643.081; -642.855
694.366;  -26.667; -882.081; -896.855
694.633;  -24.115; -920.080; -633.855
694.900;  755.012; 4367.920; -114.856
695.167;  660.589; -214.080; -380.856
695.434;  210.792; -646.080; -623.856
695.701;  246.369;  121.921;  -61.857
695.968;  718.846; -365.079; -361.857
696.234; 1181.298; -415.079; -646.858
696.501;12287.476; -776.079; -614.858
696.768; 6962.178; -554.079; -617.858
697.035;  444.555; -632.078; -667.859
697.302;   93.232; -448.078; -552.859
697.568;   47.135; -458.078; -497.859
697.835;   -8.088; -683.078; -624.860
698.102;    7.889; -498.078; -407.860
698.368;   98.066;  384.923;  396.139
698.635;   -2.006;  -47.077; -424.861
698.901;    5.796; -240.077; -348.861
699.168;  145.898; -534.077; -456.862
699.435;  124.475;  -72.077;  -13.862
699.701;  -82.848; -868.076; -764.862
699.968;   36.255;  144.924; -441.863
700.234;  -70.718; -783.076; -822.863
700.500;  -29.516; -448.076; -539.864
700.767;    6.636;   -1.075;   26.136
701.033; -118.011;-1015.075; -963.864
701.299;  -41.209; -450.075; -483.865
701.566;  137.793;  950.925;  763.135
701.832;   49.645;  -31.075;  -76.865
702.098;  -64.552;-1054.074;-1034.866
702.365;  -26.250;-1098.074;-1030.866
702.631;   42.777;-1038.074;-1063.867
702.897; 1798.504; -765.074; -676.867
703.163; 3375.057;  348.926;  254.133
703.429;  275.159; -256.073; -273.868
703.695;    4.411; -796.073; -792.868
703.961;   69.763; -214.073; -210.868
704.227;  -38.009; -630.073; -725.869
704.493;  153.643;  613.927;  510.131
704.759;    7.070; -565.072; -540.870
705.025;   62.947; -203.072; -194.870
705.291;   31.700; -666.072; -562.870
705.557;  212.377;  719.928;   34.129
705.823;   90.229; -742.072; -694.871
706.089;  212.481; -307.071; -326.871
706.355;  426.259; -315.071; -244.872
706.620; 6183.761; -776.071; -729.872
706.886;10251.938; -309.071; -362.873
707.152; 1119.990; -818.070; -973.873
707.418;   55.342;-1153.070;-1186.873
707.683;   36.995; -550.070; -530.874
707.949;  -14.503; -547.070; -578.874
708.215;   30.099; -129.070; -207.874
708.480;    6.526; -520.069; -420.875
708.746;  160.804;   68.931;   28.125
709.011;  -38.494; -578.069; -612.876
709.277;  -39.617; -538.069; -543.876
709.542;  -27.890; -428.069; -387.876
709.808;   27.063;  -59.068;   89.123
710.073;  -54.510; -577.068; -695.877
710.339;  -11.058; -242.068; -228.877
710.604;  152.119; -780.068; -845.878
710.869;  548.672; -277.068; -366.878
711.135;  -44.326; -715.067; -628.879
711.400;  -52.724; -507.067; -608.879
711.665;  -51.047; -404.067; -479.879
711.931;  -73.394; -661.067; -677.880
712.196;  -95.892; -876.067; -954.880
712.461;  195.210; -402.066; -490.880
712.726;  296.437; -727.066; -771.881
712.991;  -53.985; -647.066; -664.881
713.256;  -24.133; -350.066; -332.882
713.521;  -38.056; -417.065; -381.882
713.787;  -42.104; -454.065; -472.882
714.052;    3.149; -214.065; -400.883
714.317;  -63.774;-1045.065; -981.883
714.581; 1244.403; -374.065; -268.883
714.846; 2070.255; -822.064; -888.884
715.111;  202.557;  261.936;  257.116
715.376;   11.410;  -86.064; -223.885
715.641;   26.062; -365.064; -367.885
715.906;  491.714;   15.936; -551.885
716.171;  211.191;  221.937;  209.114
716.436;   77.269;  -78.063; -104.886
716.700;  -89.304; -818.063; -692.886
716.965;  -98.802; -794.063; -807.887
717.230;  -64.625; -339.063; -392.887
717.494;  -13.447;  -40.062; -134.888
717.759;  -66.895; -784.062; -640.888
718.024;    2.857;  269.938;  250.112
718.288;   84.034;  685.938;  395.111
718.553; -124.788; -803.062; -977.889
718.817; -120.411; -883.061; -899.889
719.082;  -30.559; -115.061; -125.890
719.346; -118.657;-1000.061; -947.890
719.611;  -31.979; -300.061; -255.891
719.875;  -74.727; -568.060; -537.891
720.140;  -36.825; -453.060; -603.891
720.404;   91.752; -136.060; -249.892
720.668; 1280.455; -475.060; -411.892
720.933;  563.282;  146.940;  137.108
721.197;  -78.091; -667.059; -600.893
721.461; -116.639; -851.059; -826.893
721.725;   -8.486;  -21.059; -250.894
721.990;  -43.509; -284.059; -204.894
722.254;  -20.832;  -26.059; -108.894
722.518;  -51.055; -286.058; -442.895
722.782;  -86.478; -743.058; -594.895
723.046;  162.975;  614.942;  570.105
723.310;   25.377;  374.942;  210.104
723.574;  -78.221; -654.058; -614.896
723.838;  -83.844; -576.057; -642.897
724.102;  -23.541; -226.057; -239.897
724.366; -109.414;-1032.057; -978.897
724.630;  -55.287; -749.057; -571.898
724.894;  -62.460; -722.057; -514.898
725.158;   17.668;   38.944; -295.898
725.422;  -41.080; -394.056; -327.899
725.685;  -41.428; -441.056; -349.899
725.949;  -49.126; -566.056; -519.900
726.213;  -42.973; -732.056; -811.900
726.477;  343.479;-1020.055; -933.900
726.740;  274.006; -274.055; -104.901
727.004;  459.608; -384.055; -510.901
727.268; 4338.261; -442.055; -400.901
727.531; 1468.338; -961.055; -775.902
727.795;   15.740; -713.054; -673.902
728.059;  -33.583; -552.054; -557.903
728.322;  -37.855; -841.054; -669.903
728.586;  104.997; -692.054; -701.903
728.849;  -36.326; -695.053; -756.904
729.112;  -92.599; -812.053; -912.904
729.376;  -94.922; -959.053; -905.904
729.639;  -71.294; -536.053; -536.905
729.903;  -83.692; -733.053; -699.905
730.166;  -25.415; -437.052; -399.906
730.429;  -19.313; -317.052; -468.906
730.693;  -41.585; -355.052; -894.906
730.956;  220.617;  810.948;  651.093
731.219; 1063.944; -310.052; -103.907
731.482;  239.021;-1003.051; -894.907
731.745;  276.749; -794.051; -935.908
732.009;   37.551;  -30.051;   50.092
732.272;  -62.997; -904.051; -771.909
732.535;  -11.620; -300.051; -310.909
732.798; -115.417;-1083.050;-1166.909
733.061;  -35.815; -430.050; -456.910
733.324;   39.687;   31.950; -180.910
733.587;   85.389;  290.950;  365.090
733.850;  -31.733; -973.049;-1050.911
734.113;   69.269;   33.951;   32.089
734.376;   39.221; -328.049; -447.912
734.639;  269.123; 1188.951; 1011.088
734.901;  123.876; -180.049; -402.912
735.164;  730.653; -883.048; -837.913
735.427; 2078.955; -166.048; -355.913
735.690;  211.632; -205.048; -234.913
735.952;   38.485; -923.048; -925.914
736.215;   46.412;-1113.048;-1009.914
736.478;  117.989; -771.047; -774.915
736.740;  325.366;   33.953;  129.085
737.003;  870.443; -658.047; -672.915
737.266; 6155.846;  -94.047;   46.084
737.528;  736.673; -682.047; -660.916
737.791;  478.300; -316.046; -327.916
738.053;  979.327;  465.954;  649.083
738.316;13083.280; -162.046; -136.917
738.578;11347.082; -770.046; -736.918
738.841;  681.834; -382.046; -446.918
739.103;  292.661; -875.045; -777.918
739.365;  769.514;   79.955;  -69.919
739.628;   82.941; -884.045; -805.919
739.890;   37.993; -758.045; -710.919
740.152;    5.795; -692.044; -754.920
740.414;   35.473; -408.044; -359.920
740.677;   -4.275; -785.044; -634.921
740.939;   -2.698; -587.044; -487.921
741.201;  432.704; -432.044; -572.921
741.463;  142.882; -689.043; -745.922
741.725;   50.509;  -21.043; -199.922
741.987;   92.886;  220.957;  116.078
742.249;   62.388; -751.043; -859.923
742.511;  410.066; -703.043; -794.923
742.773;   93.818; -546.042; -546.924
743.035;  167.095;  796.958;  533.076
743.297;   27.397; -963.042;-1013.924
743.559; 1082.000; -278.042; -262.925
743.821;  207.027; -735.042; -744.925
744.083;   41.104;  -44.041; -149.925
744.345;  -52.069; -869.041; -892.926
744.607;   64.058;   75.959;  122.074
744.868;  -17.914; -490.041; -554.927
745.130;  -65.012; -994.041;-1008.927
745.392;   70.565;   -1.040;  -44.927
745.653;   33.542; -411.040; -378.928
745.915;  173.845;  896.960;  631.072
746.177;   96.497;   35.960;  -43.928
746.438;   46.499; -428.040; -543.929
746.700;   24.826; -947.039; -988.929
746.961;   59.604; -659.039; -740.930
747.223;  235.981; -190.039;  -74.930
747.484;  180.333; -391.039; -471.930
747.746;  236.560;  -23.038; -106.931
748.007;  227.938; -647.038; -689.931
748.269;  438.490; -468.038; -440.931
748.530;  809.767; -852.038; -638.932
748.791;  426.844; -354.038; -420.932
749.053;  650.222;  286.963;  163.067
749.314;  709.024; -236.037; -169.933
749.575;  827.176; -945.037; -905.933
749.836; 1251.353; -217.037;   86.066
750.098; 3077.231;  -60.037;  -21.934
750.359;49958.333;  414.964;  555.066
750.620;15950.785; -121.036; -220.935
750.881; 1565.462; -585.036; -513.935
751.142; 1939.765; -950.036; -938.936
751.403;21117.167; -789.036; -705.936
751.664;11798.669;-1034.035; -999.936
751.925;  759.846; -175.035; -262.937
752.186;  437.673; -298.035; -278.937
752.447;  255.201; -590.035; -445.937
752.708;  136.778; -532.035; -648.938
752.969;   94.005; -566.034; -576.938
753.230;   69.582; -777.034; -672.939
753.491;   56.285; -650.034; -631.939
753.751;  108.487;  109.966;   19.061
754.012;  144.889;  258.967;  181.060
754.273;  107.391; -174.033;  -71.940
754.534;   77.094; -487.033; -580.940
754.794;  -30.079; -926.033; -911.941
755.055;  152.348; 1051.967;  881.059
755.316;    4.275; -700.032; -566.942
755.576;   13.978; -606.032; -576.942
755.837;  -16.745; -527.032; -695.942
756.097;    5.607; -530.032; -564.943
756.358;  -45.816; -725.032; -770.943
756.618;   -8.813; -705.031; -641.943
756.879;   50.389; -254.031; -349.944
757.139;  -80.809;-1098.031;-1116.944
757.400;  -13.982; -538.031; -553.945
757.660;   24.196; -365.031; -401.945
757.920;   49.723; -266.030; -228.945
758.181;   21.300; -468.030; -351.946
758.441;  -53.148; -870.030; -809.946
758.701;   -3.645; -308.030; -215.946
758.961;    1.357; -220.030; -278.947
759.222;  -18.666; -574.029; -502.947
759.482;  -49.539; -683.029; -723.948
759.742;  -51.362; -706.029; -547.948
760.002;   31.791;  -83.029; -143.948
760.262;   52.793;   50.972;  182.051
760.522;  -20.430; -498.028; -574.949
760.782;  -32.953; -738.028; -612.949
761.042;   -1.375; -618.028; -573.950
761.302;   74.002;   55.972;  -18.950
761.562;   83.804; -164.027; -154.951
761.822;  151.831; -710.027; -551.951
762.082;    1.809;-1104.027;-1093.951
762.342;   91.136; -328.027; -403.952
762.601;  113.488; -567.027; -506.952
762.861;  456.215; -281.026; -207.952
763.121;  423.343; -406.026; -411.953
763.381; 6498.820; -499.026; -485.953
763.640; 9284.197; -139.026; -307.954
763.900;  408.499; -242.026; -203.954
764.160;   97.527; -458.025; -491.954
764.419;    0.954; -726.025; -782.955
764.679;  -54.719; -795.025; -726.955
764.939;    0.658; -124.025; -210.955
765.198;  -57.664; -608.025; -563.956
765.458;  -66.837; -710.024; -612.956
765.717;  -83.360; -454.024; -590.957
765.976;  -51.083; -428.024; -411.957
766.236;  -66.380; -475.024; -610.957
766.495;   31.597;  260.977;   73.042
766.755;  -47.126;-1090.023; -987.958
767.014;   67.876; -594.023; -665.958
767.273;  -39.147; -373.023; -397.959
767.533;  -41.144; -228.023; -307.959
767.792;  -13.792; -151.022; -188.960
768.051;  -48.065; -228.022; -276.960
768.310;  -61.588; -546.022; -650.960
768.569;    2.465; -161.022;    4.039
768.828;  -21.683; -285.022; -363.961
769.088;  -86.856;-1050.021; -942.961
769.347;  -74.054; -755.021; -599.962
769.606;  -73.676; -876.021; -857.962
769.865;  -91.774;-1016.021;-1033.963
770.124;   -1.422; -411.021; -336.963
770.383;   -6.995; -778.020; -910.963
770.641;   34.658; -398.020; -400.964
770.900;  -34.290; -953.020; -846.964
771.159;   -2.438; -851.020; -951.964
771.418;   22.614; -917.020; -779.965
771.677;  157.517; -224.019; -293.965
771.936;  184.844; -794.019; -865.966
772.194; 1960.746; -465.019; -437.966
772.453;13200.098; -213.019; -391.966
772.712; 1060.301;  416.982;  329.033
772.970;  144.803;   32.982;   63.033
773.229;  103.680;  -22.018;  102.033
773.488;  -63.618; -814.018; -770.968
773.746;   60.934;  296.982;  335.032
774.005;   15.262;  190.983;  -22.969
774.263;   31.714;  243.983;  177.031
774.522;  -38.359; -422.017; -548.969
774.780;  -69.357; -484.017; -417.970
775.039;  -76.404; -551.017; -531.970
775.297;  -16.427; -135.016; -351.970
775.555;  -89.700; -489.016; -612.971
775.814; -106.848; -618.016; -570.971
776.072; -106.295; -749.016; -740.971
776.330;  -79.993; -630.016; -520.972
776.589; -109.191; -703.015; -721.972
776.847; -106.114; -645.015; -624.973
777.105; -149.311;-1016.015;-1032.973
777.363;  -85.609; -459.015; -454.973
777.621; -122.682; -660.015; -717.974
777.879;  -22.280;  -42.014;   32.026
778.138;  -94.977; -554.014; -717.974
778.396;  -92.250; -585.014; -526.975
778.654; -146.748;-1015.014; -970.975
778.912;  -55.471; -269.014; -371.976
779.170; -127.118; -880.013; -803.976
779.427; -144.016; -922.013; -897.976
779.685; -122.164; -880.013; -832.977
779.943;  -37.562; -654.013; -593.977
780.201; -146.934; -964.012; -883.978
780.459;  -89.857; -651.012; -610.978
780.717;  -74.205; -440.012; -390.978
780.974;  -90.103; -449.012; -490.979
781.232;  -73.076; -358.012; -338.979
781.490;  -58.273; -551.011; -472.979
781.747;  -76.646; -555.011; -476.980
782.005;    1.731;  462.989;  254.020
782.263; -159.717; -542.011;-1004.981
782.520;  -74.889; -326.011; -501.981
782.778; -161.237;-1013.010;-1051.981
783.035; -152.335; -962.010; -938.982
783.293;  -51.483; -248.010; -206.982
783.550;  -44.130; -134.010; -198.982
783.808; -123.028; -764.010; -776.983
784.065; -140.426; -745.009; -874.983
784.322;  -41.024;   25.991;  -86.984
784.580; -136.396; -915.009; -771.984
784.837;  -82.619; -392.009; -466.984
785.094; -106.017; -783.009; -762.985
785.352;  -58.190; -304.008; -404.985
785.609;  -64.337; -934.008; -839.985
785.866;  -65.810; -345.008; -401.986
786.123;  -28.083; -639.008; -583.986
786.380;  -76.681; -665.008; -604.987
786.637;  -31.353; -225.007; -380.987
786.895;   36.249; -456.007; -543.987
787.152;  -36.549; -135.007; -267.988
787.409;  -40.322; -123.007; -225.988
787.666;  -67.769; -299.006; -378.988
787.923;  -95.517; -616.006; -695.989
788.179;  -88.515; -551.006; -584.989
788.436;  -92.288; -585.006; -585.990
788.693;  -17.436;  -92.006;  -87.990
788.950;  193.542; -125.005; -112.990
789.207;  456.644; -381.005; -372.991
789.464;  -51.454; -161.005; -301.991
789.720;   26.148;  150.995;  110.009
789.977; -156.899;-1003.005; -671.992
790.234;  -22.222;   44.996;  -66.992
790.490; -141.495; -884.004;-1031.993
790.747;  -22.393;  -85.004;   22.007
791.004;   15.260; -426.004; -348.993
791.260;  -57.613; -430.004; -560.994
791.517;  -82.136; -843.003; -788.994
791.773;  -16.184; -379.003; -342.994
792.030;  -93.881; -596.003; -660.995
792.286;  -78.529; -686.003; -636.995
792.543;  -13.702;  -74.002; -159.995
792.799;  -36.000; -584.002; -382.996
793.055; -142.797;-1179.002;-1210.996
793.312;  -81.195; -827.002; -816.997
793.568;  -38.393; -746.002; -599.997
793.824;   26.384; -226.001; -284.997
794.081;   37.112; -447.001; -508.998
794.337;   98.214; -664.001; -561.998
794.593; 1047.191; -319.001; -271.999
794.849; 7529.518; -746.001; -772.999
795.105;  496.321; -270.000; -261.999
795.361;   42.398; -490.000; -457.000
795.617;  -23.050; -875.000; -945.000
795.873;  -31.675; -360.000; -407.000
796.129;  -23.350; -368.000; -306.000
796.385;    1.550; -124.000; -156.000
796.641;   91.625;  412.000;  550.000
796.897;  -62.075; -666.000; -635.000
797.153;   64.750;  453.000;  357.000
797.409;  -96.150; -785.000; -868.000
797.665;  -54.875; -625.000; -732.000
797.921;  -54.500; -775.000; -762.000
798.176;  -47.675; -744.000; -747.000
798.432;  -11.975; -824.000; -596.000
798.688;  -38.225;-1174.000;-1078.000
798.943;  128.950; -165.000; -147.000
799.199;   54.250;-1005.000; -959.000
799.455;  264.075;  369.000;  316.000
799.710;  178.100; -813.000; -380.000
799.966;  403.600; -162.000; -160.000
800.221;  595.050; -638.000; -721.000
800.477;11236.250; -743.000; -710.000
800.732;13752.450; -773.000; -800.000
800.988;  796.400;  205.000;  -19.000
801.243; 1406.725; -454.000; -344.000
801.498; 8298.050; -814.000; -739.000
801.754;  598.300; -289.000; -163.000
802.009;  124.550; -257.000; -335.000
802.264;   -7.150; -967.000;-1033.000
802.520;   31.525;  222.000;   -3.000
802.775;  -38.100; -524.000; -359.000
803.030;   51.975;  395.000;  356.000
803.285; -104.350; -840.000; -903.000
803.540;  -41.100; -686.000; -699.000
803.795;    3.425; -648.000; -583.000
804.051;  -20.250; -279.000; -346.000
804.306;   23.925;  168.000;  128.000
804.561;  205.575;  451.000;  362.000
804.816;  152.925;  714.000;  861.000
805.071;   26.150; -185.000; -280.000
805.325;  355.150; -257.000; -427.000
805.580;  -60.350; -841.000; -877.000
805.835;   -6.925; -204.000; -297.000
806.090;  -55.550; -760.000; -676.000
806.345;   -6.650; -344.000; -264.000
806.600;    5.250; -549.000; -632.000
806.854;   -6.525; -408.000; -538.000
807.109;   10.700; -493.000; -577.000
807.364;   22.650; -407.000; -328.000
807.618;   28.375; -415.000; -381.000
807.873;  101.400; -470.000; -494.000
808.128;  155.925; -257.000; -518.000
808.382;  171.800; -224.000; -332.000
808.637;  127.225; -440.000; -511.000
808.891;  233.525; -257.000; -180.000
809.146;  159.150; -902.000; -794.000
809.400;  356.100; -848.000; -923.000
809.654;  450.350; -779.000; -551.000
809.909;  598.425; -841.000; -927.000
810.163; 6676.050; -813.000; -651.000
810.418;24182.975; -940.000; -861.000
810.672; 1506.875; -685.000; -690.000
810.926;  784.025; -993.000; -973.000
811.180; 1313.175; -439.000; -372.000
811.434;27233.375;  240.000;  135.000
811.689;15447.550; -231.000; -365.000
811.943;  784.350; -936.000; -953.000
812.197;  385.575; -893.000; -671.000
812.451;  163.475; -379.000; -514.000
812.705;  -10.950; -809.000; -619.000
812.959;    6.950; -263.000; -388.000
813.213;   26.600; -283.000; -209.000
813.467;   67.600;  470.000;  253.000
813.721;  -81.075; -764.000; -792.000
813.975; -120.475; -826.000; -877.000
814.229;   62.725;  430.000;  353.000
814.482;  -41.800; -517.000; -566.000
814.736; -100.250; -766.000; -744.000
814.990; -113.775; -779.000; -872.000
815.244;  -31.075; -228.000; -285.000
815.497;  -83.525; -636.000; -601.000
815.751;  -10.050; -141.000;   82.000
816.005;  -88.275; -470.000; -586.000
816.258;  -52.300; -510.000; -363.000
816.512;  -98.475; -693.000; -610.000
816.766;    6.150;  121.000;  157.000
817.019;   34.150;  148.000;  149.000
817.273;  -93.325;-1000.000; -802.000
817.526;  -17.175; -206.000; -173.000
817.779;   10.900;-1049.000; -960.000
818.033;  -11.925; -693.000; -807.000
818.286; -105.100; -725.000; -792.000
818.540;  -83.775; -403.000; -403.000
818.793;  -64.375; -402.000; -489.000
819.046;  -97.550; -582.000; -520.000
819.299;  -30.975; -157.000; -166.000
819.553; -110.575; -552.000; -592.000
819.806; -142.475;-1016.000; -838.000
820.059;  -57.925; -334.000; -354.000
820.312;   32.275;  152.000;  185.000
820.565;  -10.900;  110.000;  -27.000
820.818;  -32.675;  -59.000; -173.000
821.071; -152.675;-1041.000; -957.000
821.324;  -87.425; -536.000; -540.000
821.577;  -79.100; -457.000; -483.000
821.830;  -57.875; -270.000; -172.000
822.083; -107.675; -733.000; -288.000
822.336;  -50.475; -261.000; -167.000
822.589; -116.150; -805.000; -688.000
822.842; -133.100; -875.000; -770.000
823.094; -152.025;-1076.000;-1114.000
823.347; -102.000; -925.000; -729.000
823.600;   16.600;  402.000;  187.000
823.853;  -39.775; -311.000; -267.000
824.105;  -37.025; -331.000; -575.000
824.358;  -81.700; -617.000; -716.000
824.611;   31.000;  234.000;   40.000
824.863;   -5.350; -612.000; -591.000
825.116;   62.550;  -33.000;   27.000
825.368;  163.425; -366.000; -372.000
825.621;  268.050; -186.000; -240.000
825.873;  156.900; -704.000; -737.000
826.126;  664.375; -669.000; -641.000
826.378;14006.800; -389.000; -505.000
826.630; 5140.900; -890.000; -898.000
826.883;  166.475; -754.000; -693.000
827.135;   97.975; -279.000; -270.000
827.387;  -63.850; -893.000; -839.000
827.639;  -13.300;  -86.000;   32.000
827.892; -104.975; -742.000; -582.000
828.144; -131.675; -848.000; -804.000
828.396;  -27.775;  104.000;  -80.000
828.648;  -97.900; -440.000; -333.000
828.900; -146.500; -702.000; -795.000
829.152;  -88.100; -684.000; -683.000
829.404;  -53.650; -215.000; -267.000
829.656;    0.775;  321.000;  214.000
829.908;  -13.200;  393.000;  229.000
830.160; -148.125;-1064.000;-1047.000
830.412;  -78.775; -481.000; -430.000
830.664;  -99.800; -557.000; -665.000
830.916;  -63.825; -268.000; -206.000
831.167; -156.850;-1073.000; -951.000
831.419;  -95.650; -623.000; -566.000
831.671; -141.850; -764.000; -809.000
831.923;  -80.600; -311.000; -447.000
832.174;  -71.500; -273.000; -331.000
832.426; -102.250; -493.000; -582.000
832.678; -179.625;-1043.000;-1091.000
832.929; -151.300; -947.000; -935.000
833.181;  -12.825; -575.000; -677.000
833.432;  -30.050;  -59.000; -186.000
833.684;  -15.725;  112.000;  -27.000
833.935; -101.725; -610.000; -566.000
834.187; -124.325; -829.000; -823.000
834.438;  -38.175;  -58.000;  -25.000
834.689;  -56.675; -255.000; -123.000
834.941;  -42.750; -343.000; -244.000
835.192;  -75.875; -590.000; -533.000
835.443;  -63.750; -419.000; -506.000
835.695;  -18.125;  138.000;  -16.000
835.946;  -76.950; -608.000; -378.000
836.197; -104.100; -599.000; -622.000
836.448;  -71.000; -528.000; -395.000
836.699;  -40.875; -253.000; -341.000
836.950;    2.250;   72.000;    7.000
837.201; -122.925;-1003.000; -987.000
837.452;  -28.550; -356.000; -170.000
837.703;  -79.500; -791.000; -737.000
837.954;  -10.650; -205.000; -365.000
838.205;  -35.075;-1029.000;-1008.000
838.456;  292.850; -196.000; -282.000
838.707;   52.925; -423.000; -519.000
838.958;   67.975; -634.000; -647.000
839.209;  422.175;   18.000;   40.000
839.460;  194.050; -439.000; -201.000
839.710;  246.525; -135.000; -297.000
839.961;  535.300;  730.000;  612.000
840.212;  485.850; -382.000; -497.000
840.462; 1319.375; -328.000; -277.000
840.713;20441.250; -571.000; -536.000
840.964;11794.525;  -62.000; -143.000
841.214;  762.475; -384.000; -624.000
841.465;  774.625; -214.000; -141.000
841.715;  728.400; -417.000; -380.000
841.966;  854.425; -746.000; -685.000
842.216; 8891.575; -330.000; -431.000
842.466;46165.650; -169.000; -313.000
842.717; 3907.825; -964.000; -952.000
842.967;  466.025; -635.000; -641.000
843.217;  425.350;   20.000;   28.000
843.468;  126.525; -104.000; -132.000
843.718;   18.425; -718.000; -726.000
843.968;  -57.250; -837.000; -765.000
844.218;   58.625; -315.000; -262.000
844.469;    7.850; -577.000; -561.000
844.719;  -79.725; -537.000; -682.000
844.969;  -79.425; -550.000; -580.000
845.219; -123.050; -814.000; -862.000
845.469;  -57.225; -392.000; -342.000
845.719; -107.900; -792.000; -884.000
845.969;   -6.500;  119.000;  174.000
846.219;  -98.900; -738.000; -720.000
846.469;   27.275;  464.000;  432.000
846.718;  -21.800; -115.000;   31.000
846.968; -112.875; -827.000; -827.000
847.218;  -42.775; -224.000; -371.000
847.468;   19.050; -586.000; -555.000
847.718; -124.400; -827.000; -798.000
847.967; -116.300; -826.000; -915.000
848.217;  -62.350; -449.000; -569.000
848.467;  -52.800; -405.000; -376.000
848.716;  -76.700; -708.000; -725.000
848.966;   47.150; -372.000; -358.000
849.215;  -46.250; -428.000; -419.000
849.465;  -70.700; -785.000; -615.000
849.714; -103.000;-1132.000;-1150.000
849.964;  -21.525; -551.000; -613.000
850.213;   15.525; -393.000; -355.000
850.463;  114.450;  137.000;  340.000
850.712;   56.550; -542.000; -567.000
850.961;   68.900; -739.000; -678.000
851.211;  184.125; -513.000; -504.000
851.460;  268.700; -635.000; -650.000
851.709;  703.875;  -25.000;   18.000
851.958;11362.725; -912.000; -750.000
852.208;19791.750; -859.000; -879.000
852.457;  847.725; -181.000;  -13.000
852.706;  156.950; -791.000; -823.000
852.955;  101.400; -507.000; -528.000
853.204;  -41.325; -521.000; -461.000
853.453;  -56.925; -418.000; -458.000
853.702; -113.500; -660.000; -750.000
853.951;  -91.050; -532.000; -520.000
854.200;  -91.050; -613.000; -562.000
854.449; -118.600; -695.000; -661.000
854.698;  -90.950; -340.000; -279.000
854.946;  -57.750; -181.000; -284.000
855.195; -137.300; -843.000; -868.000
855.444;  -91.475; -395.000; -420.000
855.693; -104.525; -345.000; -432.000
855.941;  -92.850; -387.000; -516.000
856.190;  -52.025; -256.000; -382.000
856.439;  -94.925; -652.000; -703.000
856.687;  -47.275;  -99.000;  -72.000
856.936;  -99.150; -621.000; -323.000
857.184; -173.475;-1067.000;-1020.000
857.433;  -93.850; -423.000; -512.000
857.681; -155.950; -989.000; -953.000
857.930;  -61.100; -282.000; -433.000
858.178; -152.925; -856.000; -929.000
858.427; -150.500; -802.000; -781.000
858.675; -103.800; -377.000; -544.000
858.923; -100.275; -527.000; -819.000
859.172; -158.350;-1094.000;-1070.000
859.420;  -78.225; -339.000; -239.000
859.668; -112.175; -624.000; -628.000
859.916;  -16.000;  109.000;  115.000
860.164;  -95.100; -699.000; -603.000
860.413;  438.150; -878.000; -696.000
860.661;  541.400; -709.000; -577.000
860.909;  -59.175; -339.000; -325.000
861.157;  -79.125; -277.000; -444.000
861.405; -112.250; -534.000; -670.000
861.653;   12.650;  310.000;  310.000
861.901;  272.800; -543.000; -613.000
862.149;  146.175; -801.000; -824.000
862.396;  -66.625; -297.000; -187.000
862.644;  -89.050; -368.000; -347.000
862.892;  -25.975;   98.000;  138.000
863.140; -116.200; -549.000; -530.000
863.388; -147.075; -815.000; -759.000
863.635; -123.775; -642.000; -601.000
863.883;  -16.750;  231.000;  190.000
864.131;  -79.150; -288.000; -357.000
864.378; -115.550; -675.000; -540.000
864.626;  -98.300; -347.000; -415.000
864.873; -113.475; -556.000; -505.000
865.121; -124.700; -714.000; -799.000
865.368;  -34.300; -173.000;   75.000
865.616;  -33.525;  -33.000;  -40.000
865.863;  -65.925; -462.000; -506.000
866.111;  -93.750; -795.000; -824.000
866.358;   37.675; -426.000; -420.000
866.605; 2190.775;  -64.000; -804.000
866.853; 3237.100; -621.000; -537.000
867.100;   27.525; -728.000; -775.000
867.347;  -71.925; -672.000; -611.000
867.594;  -60.775; -740.000; -714.000
867.841;  156.725;   97.000;   17.000
868.089; -124.800; -746.000; -698.000
868.336; -104.650; -477.000; -420.000
868.583; -142.625; -637.000; -741.000
868.830;  -55.175; -131.000; -170.000
869.077; -148.550; -859.000; -787.000
869.324; -124.250; -502.000; -458.000
869.571; -121.225; -398.000; -430.000
869.818; -106.125; -485.000; -439.000
870.065;  -89.850; -439.000; -513.000
870.311; -111.925; -456.000; -542.000
870.558; -104.600; -332.000; -311.000
870.805;  -77.750; -320.000; -384.000
871.052; -112.500; -494.000; -369.000
871.298;  -34.825; -204.000; -131.000
871.545;  -73.250; -151.000; -185.000
871.792;  -80.850; -173.000; -222.000
872.038;  -85.900;   43.000; -126.000
872.285; -108.700; -496.000; -387.000
872.532;  -97.100; -357.000; -387.000
872.778;   16.100;  556.000;  403.000
873.025;  -87.825; -384.000; -359.000
873.271;   16.700;  501.000;  578.000
873.517;   -6.725; -133.000; -209.000
873.764;    9.225; -193.000;  -80.000
874.010;  -43.600; -143.000; -230.000
874.257;  -37.425;  123.000;   90.000
874.503; -130.300; -579.000; -479.000
874.749;  -64.075;   31.000;  275.000
874.995;  -61.800;  -80.000;  -20.000
875.242; -113.825; -540.000; -478.000
875.488; -105.100; -414.000; -439.000
875.734;  -30.250; -106.000; -234.000
875.980;  299.075; -872.000;-1032.000
876.226;  725.150; -157.000; -255.000
876.472;   16.225;  343.000;  237.000
876.718;  -32.975;  184.000;  158.000
876.964;  -42.200;   56.000;   55.000
877.210; -123.250; -547.000; -677.000
877.456; -130.725; -630.000; -557.000
877.702; -163.700; -821.000; -832.000
877.948; -111.600; -377.000; -497.000
878.193;   -2.900;  361.000;  255.000
878.439;  -65.525; -487.000; -472.000
878.685;  -83.000; -272.000; -343.000
878.931; -135.325; -618.000; -676.000
879.176;  -77.150; -201.000; -201.000
879.422; -162.300; -933.000; -820.000
879.668;   53.000;   10.000;   79.000
879.913;  249.425;   53.000;  137.000
880.159;  -25.625; -112.000;  -17.000
880.404;  -43.975; -152.000; -162.000
880.650;  -39.675;   91.000;  141.000
880.895; -159.325; -670.000; -710.000
881.141; -117.400; -454.000; -428.000
881.386; -142.450; -503.000; -658.000
881.631;  -88.350; -311.000; -166.000
881.877;  -15.825;  112.000;  -13.000
882.122; -123.250; -684.000; -600.000
882.367;  -88.600; -136.000; -186.000
882.612;  -68.725;  -80.000; -176.000
882.858; -163.650; -877.000; -823.000
883.103;  -95.050; -297.000; -267.000
883.348; -136.100; -759.000; -852.000
883.593; -135.325; -677.000; -602.000
883.838;  -44.775; -311.000;  -24.000
884.083;   45.050;  353.000;  288.000
884.328;  -65.975; -564.000; -545.000
884.573;  -33.425; -196.000; -143.000
884.818;  291.950; -694.000; -531.000
885.063;  426.625; -348.000; -315.000
885.308;  -73.225; -475.000; -398.000
885.553;  -16.725;  245.000;  325.000
885.797; -126.575; -545.000; -615.000
886.042;  -58.400;    8.000;   58.000
886.287;  -86.900; -253.000; -211.000
886.532;  -52.275;   26.000;  204.000
886.776;  -98.175; -407.000; -525.000
887.021; -136.425; -621.000; -574.000
887.265; -145.725; -685.000; -689.000
887.510; -129.600; -557.000; -496.000
887.755;  -79.750; -194.000; -164.000
887.999; -122.950; -552.000; -575.000
888.244;  -62.900;  -58.000;  161.000
888.488;   -6.300;  371.000;  393.000
888.732; -121.025; -368.000; -520.000
888.977; -120.775; -622.000; -567.000
889.221; -140.925; -683.000; -659.000
889.465; -100.900; -422.000; -566.000
889.710;  -75.600;  -56.000; -299.000
889.954;    3.100;  579.000;  467.000
890.198; -133.750; -584.000; -707.000
890.442; -149.300; -716.000; -712.000
890.687; -152.200; -800.000; -753.000
890.931;  -88.175; -273.000; -210.000
891.175; -133.350; -502.000; -500.000
891.419;  -77.675; -105.000; -110.000
891.663;  -81.875; -239.000; -112.000
891.907; -150.000; -801.000; -545.000
892.151; -170.125; -920.000; -815.000
892.395; -108.675; -274.000; -387.000
892.638;  -22.100;  408.000;  291.000
892.882; -172.075; -780.000; -867.000
893.126;   -2.025;  758.000;  558.000
893.370;  -91.375; -167.000; -168.000
893.614; -141.700; -714.000; -715.000
893.857;  -98.250; -183.000; -197.000
894.101; -126.625; -527.000; -631.000
894.345;  -51.975;  300.000;  150.000
894.588;   11.175;  569.000;  380.000
894.832;  -90.475; -178.000;  -84.000
895.075;  -74.975;   15.000;  -92.000
895.319; -128.575; -552.000; -420.000
895.563; -109.750; -413.000; -353.000
895.806; -144.000; -628.000; -741.000
896.049;  -36.650; -576.000; -368.000
896.293;  156.575;  527.000;  405.000
896.536;  -33.450; -465.000; -468.000
896.779;  -49.975; -149.000;   -1.000
897.023; -123.900; -751.000; -714.000
897.266;  -23.400;  325.000;  269.000
897.509; -170.900; -900.000; -901.000
897.752;  -50.350;  149.000;  171.000
897.996; -176.450; -972.000; -864.000
898.239;  -37.250;  168.000;  102.000
898.482; -106.000; -431.000; -453.000
898.725;  -19.575;  101.000;   53.000
898.968; -146.225; -609.000; -744.000
899.211;  -98.975; -513.000; -361.000
899.454; -102.850; -633.000; -539.000
899.697;  -61.475;   90.000;  -43.000
899.940; -152.675; -761.000; -757.000
900.182;  -86.150; -335.000; -405.000
900.425;  -85.750; -150.000; -298.000
900.668;  -28.200;  491.000;  350.000
900.911; -110.175; -292.000; -345.000
901.154;  -58.375;  141.000;   -3.000
901.396; -131.625; -407.000; -412.000
901.639; -118.625; -430.000; -496.000
901.882; -175.250; -790.000; -809.000
902.124;  -73.075;  -29.000; -143.000
902.367; -115.275; -315.000; -361.000
902.609; -124.500; -476.000; -453.000
902.852;  -85.425; -108.000; -260.000
903.094; -114.500; -458.000; -337.000
903.337;  -70.500;  -26.000;   53.000
903.579; -113.400; -228.000; -441.000
903.821; -156.800; -597.000; -744.000
904.064;  -54.575;   85.000;  127.000
904.306;  -76.225; -126.000; -166.000
904.548;  -98.325; -152.000; -366.000
904.790; -112.925; -195.000; -340.000
905.033; -127.350; -625.000; -577.000
905.275; -120.050; -513.000; -524.000
905.517;   44.550;  468.000;  256.000
905.759;    0.075; -667.000; -761.000
906.001;  -68.475; -322.000; -369.000
906.243;  -33.725; -162.000; -224.000
906.485;  182.725; -265.000; -207.000
906.727;  293.525; -499.000; -542.000
906.969;   11.300;  -30.000; -135.000
907.211;  193.525; -316.000; -382.000
907.453;  485.250; -188.000; -237.000
907.695;  106.950; -158.000; -385.000
907.936;   54.000;  818.000;  706.000
908.178;  -63.600;   92.000; -135.000
908.420;  -52.725; -111.000; -162.000
908.662; -128.000; -633.000; -682.000
908.903;  -87.575; -208.000; -123.000
909.145;  -63.750; -240.000; -305.000
909.386;    0.625;  315.000;  280.000
909.628;   41.725;  363.000;  397.000
909.870;    8.925;   29.000;  264.000
910.111;  -84.000; -809.000; -949.000
910.353;   13.675; -123.000; -161.000
910.594;   25.575; -574.000; -606.000
910.835;   99.775; -265.000; -326.000
911.077;  191.575; -503.000; -604.000
911.318;  307.725; -505.000; -471.000
911.559;  487.225; -577.000; -880.000
911.801; 1276.350; -284.000; -280.000
912.042; 8958.300;  -50.000; -159.000
912.283;29188.025;  404.000;  371.000
912.524; 6195.950; -396.000; -457.000
912.765;  621.825; -193.000;   79.000
913.006;  284.000; -307.000; -338.000
913.247;   81.125; -270.000; -290.000
913.488;    9.500;  -43.000;   30.000
913.729;  -64.675; -373.000; -373.000
913.970;  -60.850;  -96.000; -292.000
914.211;  -59.075; -160.000; -198.000
914.452;  -60.825; -118.000;  -11.000
914.693;   23.175;  510.000;  592.000
914.934;   13.250;  510.000;  440.000
915.175;  -61.325;   53.000;  -95.000
915.415;  -63.925; -137.000;   27.000
915.656;  -67.500;  -28.000;  192.000
915.897;  -81.100; -252.000;  -82.000
916.137;  -57.375;   74.000;   -9.000
916.378; -134.250; -573.000; -517.000
916.619;  -87.050; -159.000;  -63.000
916.859;  -17.450;  303.000;  330.000
917.100;  137.875; 1655.000; 1070.000
917.340;   66.075;  930.000;  728.000
917.581;   44.450;  965.000;  789.000
917.821;   -5.700; -171.000;  143.000
918.061;   90.175; -199.000;  -72.000
918.302;  -28.925; -152.000; -211.000
918.542;   -6.075;  -22.000;    3.000
918.782;   67.175;  369.000;  377.000
919.023;  180.175;  360.000;  427.000
919.263; 1873.475; 8131.000;  202.000
919.503; 1812.975; -137.000;  -54.000
919.743;  965.700;  390.000;  266.000
919.983;  521.325; -134.000;  -26.000
920.223;  155.125;  135.000;   14.000
920.463;  192.350;  631.000;  554.000
920.703;  185.700;   84.000;   39.000
920.943;  252.500; -110.000;   90.000
921.183;  324.425; -414.000; -405.000
921.423;  644.200;  307.000;  546.000
921.663;  922.200; -174.000; -257.000
921.903; 1850.800;  237.000;  173.000
922.143; 9428.675;  372.000;  389.000
922.383;40239.825;  158.000;  115.000
922.622;18738.825; -120.000;  -15.000
922.862; 1945.800;  796.000;  785.000
923.102;  658.375;  -51.000;   33.000
923.341;  308.400;   59.000;   74.000
923.581;  134.925;  450.000;  360.000
923.821;   72.925;  301.000;  398.000
924.060;   17.900;  351.000;  193.000
924.300;  -22.700;  -16.000; -128.000
924.539;   -8.000;  584.000;  473.000
924.779;   28.900;  812.000;  597.000
925.018;  -46.975;  247.000;  353.000
925.257;   -0.450;  595.000;  666.000
925.497;  -45.800;  447.000;  412.000
925.736;  -72.800;  -35.000;  102.000
925.975;    5.875;  687.000;  669.000
926.214;   32.725;  907.000;  850.000
926.454;   17.525;  706.000;  757.000
926.693;  -39.850;  419.000;  543.000
926.932;   36.400; 1021.000;  825.000
927.171;   67.775; 1107.000; 1044.000
927.410;   62.775; 1144.000;  967.000
927.649;   39.075;  924.000;  742.000
927.888;   -0.025;  590.000;  564.000
928.127;    5.875;  680.000;  678.000
928.366;   33.900;  842.000;  826.000
928.605;   44.325;  831.000;  737.000
928.844;  270.375; 1451.000; 1393.000
929.083;  831.800;  770.000;  613.000
929.321;  507.850; 1335.000; 1359.000
929.560;   99.375; 1158.000; 1122.000
929.799;  -13.675;  574.000;  475.000
930.038;   99.500; 1025.000; 1394.000
930.276;  -37.925;  334.000;  397.000
930.515;    3.750;  827.000;  681.000
930.753;  -15.850;  614.000;  589.000
930.992;   -9.975;  664.000;  717.000
931.230;   11.925;  847.000;  847.000
931.469;  170.875; 2162.000;  892.000
931.707;   63.875;  840.000;  751.000
931.946;   67.525; 1278.000; 1344.000
932.184;   51.075; 1437.000; 1175.000
932.423;   52.450; 1265.000;  963.000
932.661;   96.925; 1296.000; 1428.000
932.899;   64.275;  987.000;  821.000
933.137;   18.400;  754.000;  564.000
933.376;  186.850; 1664.000; 1335.000
933.614;  194.875; 1759.000; 1196.000
933.852;   65.850; 1357.000; 1171.000
934.090;  146.250; 1722.000; 1747.000
934.328;  111.200; 1252.000; 1457.000
934.566;  121.725; 1431.000; 1110.000
934.804;  157.350; 1263.000; 1309.000
935.042;  506.075; 1861.000; 1850.000
935.280; 1985.750; 2088.000; 2063.000
935.518; 2363.800; 2113.000; 2007.000
935.756;  518.475; 2481.000; 2316.000
935.994;  192.200; 1808.000; 1751.000
936.231;  393.600; 2890.000; 2950.000
936.469;  212.175; 2367.000; 2378.000
936.707;  193.125; 2220.000; 2167.000
936.945;  233.200; 2825.000; 2882.000
937.182;  218.600; 2679.000; 2741.000
937.420;  327.650; 3602.000; 3031.000
937.657;  464.525; 3365.000; 3478.000
937.895;  423.200; 3331.000; 3488.000
938.133;  316.200; 3540.000; 3528.000
938.370;  347.750; 3896.000; 4191.000
938.607;  389.275; 4488.000; 4205.000
938.845;  532.400; 5587.000; 5549.000
939.082;  488.800; 5387.000; 5177.000
939.320;  535.850; 5799.000; 5728.000
939.557;  638.475; 6549.000; 6491.000
939.794;  723.375; 7285.000; 7097.000
940.031;  923.350; 8421.000; 8368.000
940.269; 1190.025; 9552.000; 9107.000
940.506; 1151.225;10901.000;10507.000

