
Integration time [ms]: 200.000
Averaging Nr. [scans]: 10
Smoothing Nr. [pixels]: 0
Data measured with spectrometer [name]: 2101013U2
Wave   ;Sample   ;Dark     ;Reference
[nm]   ;[counts] ;[counts] ;[counts] 

394.013;   47.073; -450.257; -315.536
394.305;  336.671; -461.258; -419.536
394.596; 1521.655; -676.269; -527.514
394.887; 3548.474; -796.268; -654.518
395.178; 1462.408;  145.736;   11.476
395.470;  110.821; -210.263; -356.526
395.761;  429.791;  305.734;  394.479
396.052;  626.015; -545.284; -306.489
396.343;  585.093; -557.276; -454.503
396.634;  140.458; -200.279; -290.497
396.926;  116.971; -618.268; -565.517
397.217;  163.598;   11.725;  -17.504
397.508;   55.916; -366.273; -154.507
397.799;   13.958; -555.279; -571.497
398.090;  -89.448; -973.280; -902.495
398.381;  185.531;   11.708;  -11.473
398.672;  -52.368; -585.292; -742.473
398.963;   43.665; -348.279; -373.498
399.254;  164.242;   54.709; -209.475
399.545; -144.413;-1017.266; -883.520
399.836;   61.381; -407.277; -343.501
400.127;   51.604; -205.295; -209.468
400.418;   74.410; -423.274; -392.506
400.709;   90.238; -359.281; -333.493
401.000;   72.847; -268.291; -309.476
401.290;  186.533;  225.698;  115.545
401.581;   94.796; -166.286; -228.485
401.872;   23.373; -542.298; -486.462
402.163;   66.196; -313.296; -252.467
402.454;  111.743; -123.291; -163.475
402.744;   21.286; -844.297; -813.465
403.035;  550.121; -226.293;  -86.471
403.326;  698.736; -366.292; -384.474
403.617;  544.367;  204.701;  165.539
403.907;  289.022; -593.283; -679.490
404.198; 3115.282; -545.307; -599.446
404.489; 8182.027; -618.283; -588.491
404.779; 2801.637; -618.302; -660.456
405.070;  316.613;  -67.304; -174.451
405.360;  417.823; -259.293; -238.472
405.651;  533.350;  125.699;   98.542
405.942;  273.890;  209.714;  127.516
406.232;  315.907; -432.285; -413.487
406.523;  725.915;  641.706;  758.530
406.813;  102.093; -579.286; -644.484
407.104;  518.630;  261.708;  144.527
407.394;  211.468; -604.299; -591.462
407.685;  232.606;  336.715;  222.513
407.975;   75.425; -400.283; -382.490
408.265;  143.559; -134.289; -190.478
408.556;   91.340; -472.291; -459.475
408.846;  306.516;  474.706;  429.530
409.137;  147.669;   -1.288; -216.480
409.427;   34.506; -193.285; -271.487
409.717;  -18.680; -776.273; -692.508
410.007;  228.699;    4.715; -170.486
410.298;   70.707; -360.295; -342.469
410.588;   56.304; -495.285; -510.486
410.878;  -29.719; -792.287; -873.482
411.168;  130.076; -481.298; -478.463
411.459;  183.919; -295.283; -242.489
411.749;   30.638; -609.292; -507.474
412.039;    9.667; -755.289; -386.480
412.329;  310.173;   40.722;  132.501
412.619;  271.993;  -62.286; -148.485
412.909;  566.063;  639.711;  594.521
413.199;  451.452; -130.280; -251.495
413.490;  588.952;  521.710;  352.523
413.780;  117.457;-1013.279; -913.496
414.070;  461.395;  -46.276;  235.497
414.360;  439.169; -729.278; -666.498
414.650;  447.377; -726.288; -688.482
414.940;  663.456; -538.280; -441.496
415.230; 1175.573;   50.712;   74.519
415.520; 7695.855;  155.730;   66.486
415.809;30671.337; -305.281; -125.493
416.099;24335.684; -388.277; -229.501
416.389; 6754.108;  435.726;  236.494
416.679; 4101.325;   91.738;   85.473
416.969;  686.286; -527.287; -503.483
417.259;  826.659;  341.721;  171.503
417.549;  919.236;  522.718;  318.508
417.838; 2106.374; -205.268; -147.518
418.128; 7025.358;  650.710;  492.522
418.418; 5910.627; -491.272; -579.509
418.708; 3832.908;    9.726;  -48.506
418.997;14537.003; -474.275; -480.505
419.287;15580.915; -733.273; -790.507
419.577;14295.519; -160.283; -123.489
419.866;47357.281; -588.277; -498.501
420.156;49592.050; -242.270;  -55.513
420.446; 9215.716; -112.263;  -26.526
420.735; 1093.043; -376.271; -446.512
421.025; 1338.268; 1830.722;  315.502
421.314;  860.041; -203.271; -226.512
421.604; 1887.465;   89.732;  233.484
421.893; 1020.037; -705.271; -602.511
422.183;  255.717; -487.263; -461.526
422.472;  497.139;  -36.271; -107.511
422.762;  600.494; -416.266; -379.521
423.051;  227.095; -916.276; -916.503
423.341;  358.618; -491.273; -439.507
423.630;  540.400; -121.265;   15.477
423.919;  496.202;   58.725;   49.495
424.209;  524.923;  -31.263;   56.473
424.498;  641.371;   68.732;  161.483
424.787; 1314.878; -535.267; -601.518
425.077; 4127.799;   34.735;   29.478
425.366; 5809.129; -734.262; -744.528
425.655;12242.618;  639.727;  259.493
425.945;26953.674; -313.247; -268.554
426.234;15530.955;  117.741;  300.467
426.523; 6339.960;  -86.259; -350.534
426.812; 8770.389;  107.734;  159.480
427.101;12815.461; -127.269; -323.515
427.390;16361.454;  -55.270;  -86.514
427.680; 3712.682; -624.257; -411.538
427.969;  641.895; -330.255; -301.540
428.258;  364.173; -385.257; -477.536
428.547;  752.532;  449.728;  397.490
428.836; 1497.413; -421.253; -398.543
429.125; 2258.662; -199.259;  -72.534
429.414; 1039.438; -330.251; -294.548
429.703; 3767.838; -231.251; -213.548
429.992;11347.642; -938.250; -828.549
430.281; 7833.709; -397.264; -331.524
430.570;  774.127;  -21.252;   32.454
430.859;  813.860;  279.741;  352.466
431.148;  712.169;  636.752;  631.446
431.437;  445.227;  391.748;  367.454
431.725;  158.575; -544.257; -481.536
432.014;   46.521; -845.253; -756.545
432.303;  472.754; -149.239; -105.569
432.592;  723.616; -460.263; -178.525
432.881; 1147.770; -601.248; -437.554
433.169; 7490.195; -343.255;  -61.540
433.458;15537.892;  445.765;  540.424
433.747; 6631.035; -397.261; -289.529
434.036; 1067.227; -275.242; -280.564
434.324; 2456.856; -395.249; -379.551
434.613; 4540.019;   40.757;  159.437
434.902; 1604.243;  333.760;  439.433
435.190;  764.352;   75.761;  295.431
435.479;  420.699;  -52.245;   83.441
435.767;  121.508; -411.244; -427.561
436.056;  237.622; -340.242; -294.563
436.345;  422.945; -372.240; -223.568
436.633;  549.951;   60.750;  383.450
436.922;  376.348;  208.760;  414.432
437.210;  704.380; -194.236;    1.426
437.499; 2308.789; -583.235; -432.576
437.787; 2640.980; -339.236;  -10.574
438.075;  680.159;   56.761;  162.430
438.364;  924.861;  -44.238;  250.429
438.652;  581.579; -286.226; -138.592
438.941;  190.839;    3.770;  269.415
439.229;  -36.076; -665.252; -466.545
439.517;   27.499; -160.234;  -85.577
439.806;  -66.604; -501.225; -290.595
440.094;  285.707;  377.766;  650.421
440.382;  154.612; -653.233; -302.580
440.670;  240.989; -361.235; -285.576
440.959;    8.816; -347.223; -170.599
441.247;   71.751; -151.229; -109.587
441.535;  132.897; -266.235;   31.423
441.823;  -12.996; -497.234; -305.578
442.111;  258.856;  173.771;  327.412
442.400;  537.898; -628.245; -335.559
442.688; 1688.907; -111.234; -620.579
442.976; 1152.214; -786.213; -450.617
443.264;   94.704; -324.224; -364.597
443.552;  117.780; -258.226;   51.408
443.840;  293.596;  602.765;  876.423
444.128;  162.311;  265.767;  269.420
444.416;  -46.441; -694.228; -312.588
444.704;   19.149; -465.219;  -92.605
444.992;  117.283;   -0.226;  240.407
445.280;   34.939; -517.230;  -94.585
445.568;   -1.882; -694.212; -396.618
445.856;  421.631; -174.221;  357.398
446.143;  983.945;  -54.220;   -7.604
446.431;  835.563;  -25.228;  625.411
446.719;  391.171;  489.783;  675.391
447.007;  303.033;  481.769;  705.416
447.295;  316.012;  597.777;  871.402
447.583;   64.849; -464.229;  -34.587
447.870;  143.528; -434.221; -202.601
448.158;  530.438; -104.230;  129.415
448.446;  363.746; -800.219; -338.604
448.733;  225.905;   13.776;  269.403
449.021;  316.818;   60.788;  341.382
449.309;  214.334; -296.210;  208.379
449.596;  325.866;  128.783;   59.392
449.884;  124.820; -571.222; -325.600
450.172;  112.569; -756.227; -406.590
450.459;  606.395;  645.786;  780.387
450.747; 2791.065; -411.218; -147.608
451.034; 9125.564;  493.772;  889.411
451.322; 7631.999; -413.214; -170.614
451.609;  711.207;  292.777;  508.403
451.897;  640.705; -550.203; -183.634
452.184; 2067.713; -622.223; -400.598
452.472; 2121.458;   97.792;  269.375
452.759;  532.047;  512.781;  864.395
453.047;  110.015; -407.212; -125.617
453.334;   40.855; -732.219; -216.606
453.621;   70.501; -438.214; -161.615
453.909;  149.796;   13.796;  384.368
454.196;  134.647; -299.199; -123.641
454.483;  296.319;  317.798;  540.364
454.771;  164.762; -215.208;  196.374
455.058;   57.365; -316.207;  102.374
455.345;  160.308;   71.807;  344.347
455.632;  132.669; -128.207;  235.373
455.919;   77.772;  -82.196;  182.354
456.207; -154.448; -774.198; -450.642
456.494;  -13.767; -475.200;  -66.639
456.781;  -17.885; -399.202; -198.635
457.068;  118.776; -253.206;  -29.628
457.355;  -54.022; -698.206; -401.629
457.642;  -38.216; -552.205; -290.630
457.929;  -42.102; -778.194; -417.651
458.216;   28.615; -575.212; -354.617
458.503;  277.904; -173.193;  -19.652
458.790;  243.059; -864.208; -630.625
459.077;  324.720;  -77.202;  110.364
459.364;  905.090; -350.195; -210.649
459.651; 2012.674;  -46.206;  220.372
459.938;  868.149; -864.209; -665.623
460.225;  224.324;  132.799;  276.363
460.512; -133.531; -836.197; -688.645
460.799;  139.163;  -32.218;  320.392
461.086;   83.238; -370.200; -251.640
461.372;    6.252; -509.198; -279.642
461.659;  167.973; -165.196;  108.354
461.946;   51.002; -445.193;  -54.651
462.233;  410.735;  842.800;  888.361
462.519;  329.532; -814.201; -464.639
462.806; 1136.369; -768.197; -497.645
463.093;  995.525; -445.191;  -66.656
463.380; -133.729; -920.186; -824.664
463.666;   51.471; -259.197;  -18.646
463.953;   77.385; -406.195; -243.648
464.239;  250.685; -173.195;  -77.648
464.526;  556.797;  413.806;  743.350
464.813;  338.538; -565.190; -304.658
465.099;  481.803;  606.807;  607.348
465.386;  536.308;  903.807;  921.348
465.672;  -24.931; -694.197; -522.645
465.959;  -14.842; -598.188; -520.662
466.245;   12.008; -468.193; -359.652
466.532;  135.382; -109.195;   63.352
466.818;   84.871; -357.186; -216.664
467.104;  -38.484; -488.182; -415.672
467.391;  -57.760; -628.189; -459.658
467.677;   54.175; -289.186;    9.335
467.964;  -24.252; -682.189; -471.660
468.250;   66.878; -331.186; -160.665
468.536;  122.442;   90.811;  180.341
468.822; -116.009; -821.184; -574.668
469.109;  245.706;  351.827;  471.311
469.395;  326.618;  729.808;  787.346
469.681;  237.945;   46.811;  156.341
469.967; 1365.850; -699.188; -382.660
470.254; 3164.259; -494.188; -306.662
470.540; 1999.172; -601.196; -476.646
470.826;  247.328; -488.181; -397.675
471.112;  364.295;  288.816;  113.331
471.398;  120.900; -253.183;  -58.670
471.684;   14.960; -626.177; -447.680
471.970;  -74.967; -918.180; -981.675
472.256;   -7.183; -521.192; -441.654
472.542;   -4.382; -499.171; -434.691
472.828;  -48.089; -743.182; -607.672
473.114;   30.467; -380.166; -283.700
473.400;    3.278; -504.175; -293.684
473.686;    4.174; -452.166; -400.701
473.972;   73.995; -230.174; -131.687
474.258; -137.794; -925.173; -843.689
474.544;  227.851; -183.178;   -2.679
474.830;  370.780;  -65.175;   45.316
475.116;  586.540; -123.190; -196.658
475.401;  751.535; -558.180; -467.676
475.687;  222.234; -725.180; -718.676
475.973;  -61.980; -673.181; -770.673
476.259;  406.383;  736.825;  764.315
476.544;  432.469; -539.176; -437.682
476.830;  985.214; -398.172; -322.690
477.116;  855.667; -430.177; -336.682
477.401;  276.235;  346.820;  358.324
477.687;  -20.721; -289.175; -405.684
477.973;   74.024;   21.819;   28.326
478.258;  -51.503; -448.163; -348.706
478.544;   64.984;   21.815;   61.334
478.829; -132.475; -818.171; -738.692
479.115; -105.786; -749.172; -651.690
479.401;  -47.710; -444.174; -449.686
479.686;   39.333; -253.180;  -74.676
479.972;  -95.244; -886.178; -776.680
480.257;   61.569; -258.166;  -65.700
480.542;  -33.971; -614.170; -469.693
480.828;  443.077; 1288.824; 1392.317
481.113;  -31.326; -464.176; -426.683
481.399;  -33.676; -236.161; -202.711
481.684; -117.732; -620.166; -462.700
481.969;   54.339; -158.159;  -73.713
482.255;  -14.659; -439.169; -285.695
482.540;  -16.543; -569.178; -441.680
482.825;   -7.234; -395.187; -404.663
483.110;  102.445;  -85.169; -105.696
483.396;  174.763; -840.157; -652.718
483.681;  679.895;  543.826;  730.313
483.966;  141.132; -696.160; -700.712
484.251;    1.694; -404.174; -310.687
484.536;   15.480; -356.165; -378.703
484.822;    1.697; -205.173; -218.687
485.107;  -49.294; -599.152; -502.726
485.392;  266.186;  662.836;  541.296
485.677;  153.556;  354.832;  163.302
485.962;  127.560;  160.843;  270.283
486.247;  155.006;  -14.162;   -8.707
486.532;   39.570; -178.166; -325.701
486.817;  263.217;  381.839;  431.291
487.102;  100.787; -453.154; -514.722
487.387;  727.465; -637.156; -652.718
487.672; 1406.992; -154.164;  -38.705
487.957;  882.125; -394.160; -286.711
488.241;  216.224; -290.150; -314.729
488.526;  823.607; -280.152; -148.726
488.811; 1295.559; -881.177; -818.680
489.096; 1020.190; -666.154; -702.723
489.381;  605.603;    3.847;  162.275
489.666;  424.523; -428.161; -510.710
489.950;  297.693;  558.846;  627.277
490.235;  -80.481; -480.151; -458.728
490.520; -126.278; -756.161; -723.710
490.804; -133.033; -827.156; -736.719
491.089;  -11.958; -469.149; -299.732
491.374;   72.991; -132.164;  -75.704
491.658;  -81.945; -817.147; -717.735
491.943;  161.112; -657.152; -609.727
492.227;  309.382; -178.155;  -38.721
492.512;   66.460; -294.157; -341.717
492.797; -159.465; -713.149; -716.731
493.081; -104.542; -588.147; -598.735
493.366;  -93.076; -751.161; -635.711
493.650;  363.617;  831.859;  917.254
493.935;  -41.446; -648.147; -447.734
494.219; -110.597; -778.142; -687.743
494.503;  -85.171; -585.150; -487.730
494.788;   66.550;   46.842;   74.285
495.072;  213.526;  184.850;  434.271
495.356;  191.145; -463.148; -343.733
495.641;  416.565; -812.146; -736.736
495.925;  455.273; -976.156; -903.719
496.209;    5.241; -599.149; -451.732
496.494; -109.697; -763.142; -544.744
496.778;   27.287; -364.154; -360.722
497.062; -108.228; -819.156; -627.719
497.346;  -93.673; -869.160; -640.711
497.631;  259.649;  580.852;  560.266
497.915;  122.177;  -64.145;  175.261
498.199;   47.163; -341.157; -277.718
498.483;   32.405; -562.152; -508.725
498.767;  280.627;  301.850;  300.271
499.051;  206.739; -126.149; -100.732
499.335;  -42.063; -693.149; -739.731
499.619;  -61.570; -381.129; -423.767
499.903;   38.280; -272.155;  -65.721
500.187;  -18.005; -588.153; -316.724
500.471;  -54.989; -796.152; -595.727
500.755;  111.323;   62.839;  -96.710
501.039;   16.381; -270.155; -357.721
501.323;  143.019;  -21.141;  264.254
501.607;   -6.903; -447.163; -503.706
501.891;  -68.635; -607.156; -512.718
502.174; -123.811; -726.144; -585.741
502.458;  116.815;   89.849;  370.273
502.742;   34.546; -180.138; -191.751
503.026;  109.953; -412.147; -254.734
503.310;  212.637; -437.159; -375.713
503.593;  119.155; -464.147; -325.735
503.877;  138.991; -232.133; -156.760
504.161;  196.597;    2.847;  -50.724
504.444;   33.653; -841.158; -710.716
504.728;  457.190; -487.164; -522.704
505.012;  786.823; -257.150;  -76.729
505.295;  652.724; -417.161; -212.711
505.579;  604.172; -256.156; -496.719
505.862;  820.773; -555.145; -333.738
506.146;  799.840; -681.159; -758.714
506.429;  568.741;  568.841;  461.286
506.713;   14.720; -732.151; -667.728
506.996;  403.786;   90.846;  295.278
507.280;  338.784; -633.165; -474.703
507.563;  248.379; -469.155; -261.721
507.847;  106.295; -423.153; -112.724
508.130;   41.825; -665.161; -456.711
508.413;  136.964; -758.167; -577.700
508.697;  265.164; -151.167;   12.300
508.980;  183.097; -422.153; -312.724
509.263;  -58.725; -466.155; -450.720
509.547;   25.423; -124.150;   82.271
509.830;   79.527; -172.160;  140.289
510.113;  165.972;  128.844;  298.281
510.396;   -8.797; -530.152; -300.725
510.680;   73.774; -818.145; -812.738
510.963;  813.591;  184.846;  180.277
511.246;  603.732; -493.150; -357.730
511.529;  293.880; -482.145;  -83.739
511.812;  471.987; -250.134;   10.241
512.095;  276.817; -740.151; -396.728
512.378;  102.660; -317.147; -245.736
512.661;  -28.146; -703.137; -623.753
512.944;  -21.395; -750.142; -637.744
513.227;   74.351; -170.137; -171.752
513.510;   -9.711; -479.144; -671.741
513.793;  -31.476; -485.140; -435.747
514.076;  167.453;  -43.127;  -39.771
514.359;  107.342; -294.149; -135.732
514.642;   33.108; -442.142; -567.744
514.925;  916.222;  581.860;  561.253
515.208; 1093.083; -498.134; -443.758
515.491;  743.298; -276.133; -182.761
515.773;  363.093; -410.143; -337.742
516.056; 2474.961;  249.864;  409.246
516.339; 3151.366; -754.136; -652.755
516.622; 2259.929; -518.150; -488.730
516.904; 1625.701;  882.857;  975.257
517.187;  586.450; -730.138; -523.752
517.470;  423.900; -568.143; -510.743
517.752;  437.369; -624.136; -470.756
518.035;  342.236; -708.139; -725.749
518.318;  321.966; -799.136; -744.755
518.600; 2773.902; -300.132; -325.762
518.883; 3794.108;  310.858;   88.256
519.165; 1885.942; -585.138; -426.751
519.448;  473.902;  -61.132;  -19.762
519.730;  196.462; -573.126; -415.773
520.013;  440.994;  588.867;  664.240
520.295;  974.889;  -94.134;  -15.759
520.578; 2122.417; -335.131; -305.764
520.860; 2372.102; -254.132;   56.238
521.143; 1184.371; -763.135; -584.756
521.425;  528.976; -251.125; -279.775
521.707;  787.254; -622.127; -380.771
521.990; 2096.654; -199.127;  167.229
522.272; 2336.526; -116.140;   -4.748
522.554; 1101.894; -237.143; -157.742
522.836;  429.386;  -24.134;   99.241
523.119;  236.752; -496.148; -189.734
523.401;  158.824; -448.130; -314.766
523.683;   22.755; -865.137; -693.753
523.965;  336.447;  408.862;  260.248
524.247;  360.000;   54.878;  170.220
524.529;  184.089; -451.134; -367.759
524.812;  455.826;   -3.130;  191.234
525.094;  908.947; -773.138; -631.751
525.376; 1523.186; -143.124;   78.223
525.658;  951.263; -441.136; -339.754
525.940;  -69.887; -805.131; -671.764
526.222;   25.067; -188.136;  -88.755
526.504;  151.510; -190.131;   32.237
526.786;  146.692; -960.133; -647.760
527.068;  371.893; -124.123;  -67.778
527.349;   57.759; -865.137; -774.754
527.631;  115.602; -137.132;   22.238
527.913;  108.453; -664.127; -450.771
528.195;  117.568; -761.125; -639.774
528.477;  261.383;  -93.134;  -30.758
528.759;  124.526; -648.130; -522.766
529.040;   29.591; -569.123; -293.778
529.322;   54.871; -235.125;  -10.774
529.604;  204.129;  -47.130;   93.233
529.886;   86.562; -546.126; -302.773
530.167;  205.119;  232.870;  192.235
530.449;   87.259;    1.853;   63.265
530.731;  -40.301; -572.122; -459.779
531.012;   50.522; -513.120; -216.784
531.294;  103.766; -118.116;  -43.792
531.575;  292.976;  290.875;  538.225
531.857;   15.177; -548.135; -266.757
532.138;  183.517; -113.141;   40.254
532.420;  239.273;  294.865;  403.244
532.701;  199.494; -722.133; -751.760
532.983;  448.098;  232.867;  182.239
533.264;  171.259; -243.126;  175.228
533.546;  -75.234; -491.136; -508.755
533.827;   64.590;  173.867;   -1.759
534.109;   36.277; -352.135;  -80.757
534.390;   35.406; -725.132; -582.762
534.671;  319.473; -270.135;  -82.756
534.953;  104.294; -751.123; -611.779
535.234;  -24.151; -426.117; -255.789
535.515; -183.568; -891.119; -735.785
535.796;  -66.251; -431.128; -193.770
536.078; -221.614;-1050.124; -904.777
536.359;   13.895;  -22.123;    3.221
536.640;  -48.130; -480.125; -197.774
536.921;  248.435;  225.871;  143.232
537.202;  421.343;  -87.138;  -16.751
537.483;  604.516;  251.869;  377.236
537.764;  217.419;   17.870;   98.235
538.045;  -88.518; -543.134; -371.758
538.326;  -73.464; -596.129; -447.768
538.607;  -35.445; -686.127; -476.771
538.888;  208.312;   98.879;    5.218
539.169;  149.506; -704.122; -535.781
539.450;  429.833;  236.871;   16.233
539.731;  251.117; -361.121; -182.783
540.012;  171.122;  199.880;  412.216
540.293;  108.680;   82.876;  158.224
540.574;  -97.311; -895.113; -717.796
540.855;  564.915;  435.879;  377.218
541.136;  643.903;   47.878;  139.220
541.416;  275.427; -161.130; -220.766
541.697;  170.511; -274.131; -170.763
541.978; 1148.175; -270.135; -315.757
542.259; 1419.755; -211.127; -236.771
542.539;  694.359; -191.116; -186.790
542.820;  310.476;  461.875;  480.225
543.101;  149.476;  -52.145;  -77.738
543.381;  -41.846; -638.127; -591.771
543.662;  317.852;  159.873; -254.771
543.942;  524.150; -751.127; -830.770
544.223; 1206.905;  193.878;  161.219
544.504;  753.986; -275.124; -182.777
544.784;  604.661; -592.126; -408.773
545.065; 1785.763;  104.884; -254.791
545.345; 2219.732;  227.881;   14.215
545.626; 1445.588;  -14.113; -108.796
545.906; 1019.919;   77.869;   98.235
546.186;  428.767;   92.874;  -95.773
546.467;  273.389;   99.877;  -95.778
546.747;  433.559;  264.884;  327.210
547.027;  451.584;   91.876;  111.223
547.308;  292.149; -376.127; -530.770
547.588;  498.037;  299.871;  371.232
547.868;  298.420;  458.870;  588.235
548.149;  323.071;  609.885;  593.207
548.429;  134.853; -347.127; -299.771
548.709;  171.322; -645.120; -461.784
548.989;  580.842;   84.882;   88.213
549.269; 2396.000;   10.868;  139.239
549.550; 5474.493;  215.877;  117.222
549.830; 4760.508; -758.111; -556.799
550.110;  965.217; -468.110; -320.801
550.390;  933.499; -128.122;  -56.779
550.670; 1165.983; -868.114; -783.795
550.950;  905.314; -509.121; -471.782
551.230;  313.810;  549.879;  460.218
551.510;   -9.287; -381.121; -326.782
551.790;   21.725; -173.109; -127.803
552.070;  450.889;  940.877; 1181.223
552.350;  429.536; -492.119; -377.786
552.630;  620.508;   -2.121;   77.219
552.909;  445.964;  181.884;   73.209
553.189;  276.307;  -49.132;   33.237
553.469;  137.236; -703.119; -514.786
553.749;  198.756; -469.127; -357.772
554.029;  188.354;   33.883;  -24.790
554.308;  173.876; -154.115;  -37.794
554.588;   41.347; -196.128; -204.770
554.868;   43.015; -366.121;  -47.782
555.147;  175.673; -114.115;  -46.793
555.427;  673.466; -260.116; -250.792
555.707; 4353.471; -284.115; -200.793
555.986; 5161.512; -719.111; -538.800
556.266; 2847.457;   23.884;   72.210
556.546;   64.413; -888.121; -675.782
556.825;  249.981; -657.114; -556.794
557.105; 1988.345; -125.128;   17.230
557.384; 2377.962;  122.884;  187.209
557.664;  828.666; -717.116; -508.792
557.943;   87.915; -557.121; -411.782
558.222;  171.746; -345.118; -344.788
558.502;  292.275; -116.115;  -76.793
558.781;  635.370;  194.885;  499.208
559.061;  441.246; -232.118; -227.788
559.340;  371.551;  302.883;  353.211
559.619;  846.357;   93.884;  148.210
559.899; 1122.753; -239.117; -266.789
560.178; 1016.374; -778.115; -593.793
560.457; 3606.255; -623.117; -562.790
560.736; 4795.913; -472.111; -482.800
561.015; 3276.443; -500.128; -502.769
561.295;  467.347;  180.893;  215.193
561.574;  430.071;  119.885;  116.207
561.853;  617.930;  274.891;  303.197
562.132;  590.477;  -45.114;  182.206
562.411;  599.208;  396.879;  553.219
562.690;  114.269; -592.115; -458.792
562.969;  260.396;  472.888;  630.203
563.248;  930.206; 2966.878; 2487.219
563.527;  254.212; -290.111; -408.800
563.806;  389.853; -650.127; -521.771
564.085;  418.464; -297.105; -206.810
564.364;  171.057; -594.117; -405.790
564.643;  567.609; -276.121; -223.781
564.922; 2138.723;  221.890;  397.198
565.201; 2013.827; -640.109; -700.803
565.479;  920.368; -297.115; -219.792
565.758;  267.545; -810.128; -712.770
566.037;  503.029; -155.109; -100.803
566.316;  277.863; -286.116;  -28.791
566.595;   85.371;  -17.115;  -12.793
566.873;  249.015; -166.111;  -79.801
567.152; -137.505; -490.113; -590.797
567.431;   30.058; -113.116;    6.210
567.709;   -8.052; -344.107; -212.807
567.988;  188.581; -810.114; -769.794
568.266;  569.871; -160.115;  -68.793
568.545;  375.817; -644.100; -514.819
568.824;  756.867;  160.885;  356.208
569.102;  618.980; -351.114; -235.794
569.381;  222.666; -492.116; -407.792
569.659;  -96.209; -553.113; -553.796
569.938;  -36.996; -743.122; -465.780
570.216;  106.632; -225.109; -225.804
570.494;  -98.016; -632.114; -572.795
570.773;   50.113;  202.879;  114.218
571.051;  -27.908; -373.123; -357.778
571.330;   63.789; -221.113; -174.796
571.608;   37.937; -181.098; -173.823
571.886; -157.694; -671.111; -581.799
572.164; -146.385; -739.121; -621.782
572.443; -106.331; -562.105; -512.811
572.721;  -64.045; -399.117; -289.790
572.999;  -66.752; -280.117; -168.788
573.277;  178.961;  379.894;  620.191
573.555;  367.264;   94.894;   37.190
573.834; 1482.748;  -86.117; -114.788
574.112; 1879.850;  880.893;  811.193
574.390;  544.914; -143.111;  -96.801
574.668;    6.697;  -91.112;  -61.797
574.946;  -10.536; -165.106; -187.810
575.224;   32.627;   71.891;  -16.803
575.502;  -88.340; -200.116; -204.791
575.780; -180.002; -767.112; -829.798
576.058;  289.813; 1589.889; 1004.200
576.336;   -7.581; -210.110; -129.801
576.614; -111.702; -511.112; -340.798
576.891;  -13.624; -711.115; -823.794
577.169;  521.140; -158.108; -285.805
577.447;  651.350;  169.893;  202.193
577.725;  422.703;  629.888;  854.201
578.003;   -3.399;  -71.112; -371.798
578.280;  105.279; -208.104; -242.812
578.558;   49.275; -450.115; -422.793
578.836;  144.384; -210.114; -145.795
579.114;  -19.704; -630.112; -670.797
579.391;   86.550;   -6.117;  -18.789
579.669; -159.123; -595.114; -704.794
579.947;  220.446; -326.107; -127.806
580.224;  253.246; -692.107; -524.806
580.502;  380.451;  127.893;   76.193
580.779;   68.356;  -42.117;   75.210
581.057; -143.468; -584.109; -470.804
581.334; -183.105; -726.102; -695.815
581.612;  119.365;   54.895;  511.190
581.889;  -24.590;  -83.101; -129.818
582.167;  -66.174; -298.099; -190.821
582.444; -201.296; -845.102; -814.817
582.721;  204.505;  657.899;  715.183
582.999;   93.423; -326.100; -167.821
583.276;  520.096; -812.123; -713.779
583.553;  747.199; -364.102; -294.816
583.831;  200.875; -607.104; -631.812
584.108;  109.638;  349.892;  174.195
584.385;  -22.305; -122.102;  -98.815
584.662; -157.085; -651.111; -828.801
584.940;   53.314;  204.889;  204.199
585.217;  -52.209;  -73.113; -303.796
585.494;   74.424;   71.890;  118.198
585.771;  197.833; -250.109; -354.804
586.048;  496.391; -196.113;  -76.796
586.325;  261.118; -721.110; -773.801
586.602;  153.279;  230.896;  213.188
586.879;  -61.981; -499.100; -580.820
587.156;   56.466; -156.105; -331.810
587.433; -121.598; -701.102; -667.817
587.710;   91.599;  152.888;  234.202
587.987;  331.572; -264.105; -236.811
588.264;  912.201;  315.888;  387.202
588.541; 1512.682;  -61.104;   26.187
588.818; 2918.035;   72.892;  171.196
589.095; 2586.777; -163.104; -174.812
589.371;  353.930; -459.109; -414.804
589.648;  -49.150; -581.107; -437.807
589.925;  -30.015; -517.114; -621.795
590.202;  -39.902; -741.112; -607.798
590.478;  114.473; -166.105;  -73.811
590.755;  308.242; -241.108; -132.806
591.032; 2779.020; -741.110; -699.802
591.308; 3628.682; -732.094; -790.831
591.585; 1916.020; -573.110; -560.802
591.862;   44.503;-1056.102; -950.817
592.138;   30.139; -475.108; -474.805
592.415;  135.280; -486.104; -495.813
592.691; 1742.377;  460.896;  518.188
592.968; 2008.939; -208.098; -123.824
593.244;  952.959; -695.116; -595.790
593.521;   86.104; -105.102;  -42.817
593.797;  -93.299; -810.122; -720.780
594.074;  262.953; -611.096; -588.826
594.350;  829.565;  828.905;  729.172
594.626;  335.315; -303.111; -283.801
594.903;   61.504; -643.101; -645.817
595.179;  299.684;  243.896;  418.187
595.455;   -9.748; -136.107; -150.807
595.731;   12.386;  -19.103;  -38.814
596.008;  -79.791; -464.111; -434.800
596.284;   27.422; -187.100; -242.820
596.560;   14.289; -501.093; -493.833
596.836;  188.368; -173.105;  -70.810
597.112;  302.440; -582.108; -437.805
597.388;  334.751;  -49.097;  -48.826
597.665;  193.894;  437.887;  530.203
597.941; -147.078; -572.089; -658.839
598.217;    9.524; -323.110; -293.802
598.493;  327.534;   61.891; -204.804
598.769;  541.515; -175.100;  -50.819
599.045;  277.643; -490.108; -562.806
599.321;    4.820; -193.100; -261.820
599.597;  149.234; -355.109; -476.804
599.872;  607.982;  409.896;  429.187
600.148;  410.652;  -61.097; -172.826
600.424;  345.149;   91.893;  202.193
600.700;  281.051; -170.107; -280.807
600.976;   79.646; -442.097; -464.825
601.252;  263.530; -226.109; -272.803
601.527;  126.483; -833.104; -840.813
601.803;  127.674; -453.105; -404.812
602.079;  188.615; -124.100; -118.819
602.354;  614.000; -620.092; -531.835
602.630;  888.891; -140.113; -482.796
602.906; 2561.910; -910.101; -863.818
603.181; 7084.736; -627.119; -534.786
603.457; 6169.150;   98.903; -278.826
603.733;  878.418; -605.120; -626.783
604.008; 1175.464; -245.106; -164.810
604.284; 3165.506; -636.101; -580.817
604.559; 2909.903;   -3.112;  -42.799
604.835;  538.068; -163.105; -225.810
605.110;  367.126; -732.099; -892.821
605.385;  793.492;  224.907;  267.167
605.661;  648.068; -625.095; -729.829
605.936; 1182.844; -664.108; -737.806
606.211; 1136.793;  -17.103; -170.815
606.487;  202.379; -329.114; -376.794
606.762;  -49.664; -791.119; -745.786
607.037;  -73.632; -501.105; -433.810
607.313; -116.139; -589.096; -574.828
607.588;  -34.836; -375.106; -137.810
607.863;   55.509;  -28.101; -143.818
608.138;  294.522;  513.890;  516.198
608.413;  -14.369; -576.099; -592.822
608.688;   10.039; -203.108; -267.805
608.964;  192.658; -509.106; -218.809
609.239;  265.565; -107.105; -212.810
609.514;  334.274;  281.895;  240.188
609.789;  644.279; -187.104; -716.812
610.064;  885.660; -435.096; -609.827
610.339;  862.330; -855.109; -799.804
610.614; 1240.021; -131.100; -315.820
610.889;  788.774;  215.895;  107.188
611.163;    3.775; -407.104; -591.812
611.438;   95.880;   81.886; -167.794
611.713;  -24.094; -467.101; -499.817
611.988;   76.208; -144.101; -328.818
612.263; -113.005; -771.102; -717.815
612.538;  313.390;  385.887;  251.204
612.812;   91.222; -832.100; -911.820
613.087;  126.236; -358.098; -338.823
613.362; -106.749; -497.107; -557.807
613.637;   88.489;  261.897;  138.186
613.911;  -53.400; -256.092; -345.835
614.186;  129.750; -249.107; -292.807
614.460;  619.205; -842.081; -758.854
614.735;  875.148;  -55.087;  -17.843
615.010;  191.236;   43.912;  -82.841
615.284;  343.939;  360.892;  246.195
615.559;  296.299; -792.092; -955.835
615.833;  336.629;  -76.099;  -87.822
616.108;   19.112; -225.090; -390.837
616.382;  213.649;  274.913;  402.156
616.656;  159.813; -241.090; -232.837
616.931;  478.229; -785.099; -700.822
617.205; 1023.983; -973.104; -979.813
617.480; 1096.174;  -91.125;    6.225
617.754;  148.471; -396.125; -128.774
618.028;  -23.462; -369.129; -382.768
618.302;   89.137;   73.892;  -25.805
618.577; -112.010; -371.103; -518.815
618.851; -115.273; -399.109; -600.803
619.125;  -81.511; -335.134; -378.759
619.399;  -19.416; -244.104; -374.813
619.673;  -94.833; -330.115; -515.792
619.947;  -83.016; -333.114; -448.795
620.222;  -27.984; -198.110; -204.801
620.496;   10.515;  -47.121;  -96.782
620.770;   65.306; -187.122;  -93.781
621.044;  289.266;  323.895;  346.190
621.318;  691.818; -653.120; -614.783
621.592;  696.416; -430.121; -409.783
621.866;  306.804; -476.112; -572.799
622.140;    4.060; -207.116; -356.791
622.413;  108.809;  138.889;  112.200
622.687;  -68.694; -746.101; -492.817
622.961;    7.537; -130.108; -143.805
623.235; -137.590; -633.111; -661.800
623.509; -221.127; -816.105; -848.811
623.783;   25.247;  -12.107;   48.193
624.056;  -40.781; -254.120; -280.783
624.330;   81.297;   63.888;   -3.797
624.604;   10.157; -271.116; -355.790
624.877;  109.921;  180.890;   26.198
625.151;   25.878; -249.114; -238.794
625.425;  -30.414; -150.103; -283.814
625.698; -130.470; -367.119; -374.785
625.972; -181.176; -799.110; -765.802
626.245;  181.359;  685.884;  484.210
626.519;  -70.776; -426.120; -340.784
626.792;  -47.049; -192.107; -380.807
627.066; -149.602; -485.122; -662.779
627.339; -197.781; -736.110; -663.802
627.613;  150.322;  351.880;  148.216
627.886;  108.926;  187.891; -612.803
628.160;  -23.982;  312.880; -161.783
628.433; -168.723; -695.125; -703.775
628.706; -145.576; -517.120; -615.784
628.979;   53.984;  296.876;  117.223
629.253; -197.365; -785.119; -833.786
629.526;  385.360; -334.126; -253.772
629.799;  322.092; -641.123; -479.778
630.072;  141.040; -497.128; -516.769
630.346; -194.641;-1115.116;-1080.790
630.619;  453.552; -467.107; -545.808
630.892;  789.310;  709.889;  593.200
631.165;  485.183;  790.896;  679.187
631.438; -213.799;-1092.112;-1055.798
631.711;  104.896;  453.877;  257.221
631.984; -120.047; -523.117; -624.789
632.257; -142.650; -636.117; -681.789
632.530;  -94.870; -412.119; -433.785
632.803;   36.775; -109.115;    7.207
633.076;  -91.712; -360.123; -422.777
633.349;   35.244;  173.872;  121.231
633.622;  -37.271; -187.119; -240.785
633.895; -246.581; -903.120; -823.783
634.167; -122.738; -496.126; -525.773
634.440;  -18.134;  -19.116; -137.792
634.713;   25.234;  -22.119; -120.786
634.986;  169.533;  593.871;  453.233
635.258; -138.427; -507.115; -597.793
635.531;  213.645;  742.882; -343.788
635.804;  -56.248; -303.117; -318.789
636.077; -211.439; -830.116; -852.791
636.349;  -88.228; -586.115; -474.793
636.622;  707.459; 1695.874; 1392.228
636.894;  186.324; -474.120; -909.784
637.167;   91.052; -836.127; -789.771
637.439;   48.448; -278.128; -213.770
637.712;  -79.939; -312.126; -293.772
637.984; -155.438; -635.116; -707.791
638.257;  567.989;  515.877;  488.222
638.529;  515.178; -881.125; -924.776
638.802;  215.740; -508.128; -449.769
639.074; -240.995; -927.122; -952.781
639.346; -279.721; -942.135; -930.757
639.619;   12.807;  -79.142; -319.744
639.891;   -8.702;  -83.122; -168.779
640.163; -155.000; -689.122; -756.780
640.435;   70.902;  273.878;  103.220
640.708;   49.404;  -72.122; -132.780
640.980;  -87.094; -366.122; -362.781
641.252;  245.508;  -25.121;  -71.781
641.524; 2082.210;  580.879;  573.219
641.796; 1787.512;-1094.121; -907.782
642.068;  338.014; -191.121; -300.782
642.340;  -81.684; -486.121; -566.783
642.613;   81.418;  294.880;  323.217
642.885; -179.780; -787.120; -878.783
643.157; -146.378; -810.120; -658.784
643.428;  128.224;  170.880;  218.216
643.700; -144.574; -498.120; -425.784
643.972;  -23.772;  -16.119; -133.785
644.244; -142.469; -474.119; -559.785
644.516;  -24.067; -250.119; -114.786
644.788;  169.135;  662.881;  548.214
645.060;    6.237;  -12.119; -124.786
645.332; -168.961; -525.118; -535.787
645.603;  119.441;  479.882;  342.213
645.875; -103.057; -334.118; -369.787
646.147;  383.445; 1487.882; 1242.212
646.418; -175.453; -931.117; -918.788
646.690;   84.149; -714.117; -715.789
646.962;    7.351; -413.117; -451.789
647.233;   17.053;   15.883;   11.211
647.505; -182.145; -595.117; -475.790
647.776;  107.657;  328.884;  229.210
648.048;  -32.841; -248.116; -418.790
648.320; -136.639; -752.116; -679.791
648.591; -279.237;-1055.116; -958.791
648.862; -124.935; -505.116; -577.792
649.134;   83.167;  115.885;  198.208
649.405; -110.931; -661.115; -618.792
649.677; -111.929; -475.115; -598.793
649.948;  -27.727; -181.115; -296.793
650.219;   19.175;  -37.115; -147.793
650.491; -100.823; -431.114; -520.794
650.762; -225.020; -705.114; -731.794
651.033; -138.418; -437.114; -424.795
651.304; -192.016; -743.114; -728.795
651.576; -136.814; -680.114; -645.795
651.847;  -29.612; -250.113; -140.796
652.118;   27.090;  -32.113; -189.796
652.389; -178.608; -639.113; -722.796
652.660;  -32.106; -147.113;  -89.797
652.931; -239.804; -897.112; -871.797
653.202; -129.602; -382.112; -541.798
653.473; -152.200; -633.112; -533.798
653.744;  118.402; -595.112; -590.798
654.015;  141.404; -356.112; -303.799
654.286; -118.794; -642.111; -663.799
654.557; -140.192; -586.111; -521.799
654.828; -291.390;-1114.111;-1088.800
655.099; -127.888; -404.111; -291.800
655.370; -133.786; -427.111; -543.801
655.641; -198.684; -656.110; -714.801
655.911; -155.382; -618.110; -638.801
656.182;  127.220;  437.890;  387.198
656.453;  249.622;  830.890;  746.198
656.724; -118.976; -466.110; -426.802
656.994; -105.074; -553.109; -568.803
657.265; -214.471; -862.109; -873.803
657.536; -136.069; -500.109; -377.804
657.806; -194.867; -561.109; -593.804
658.077; -234.565; -866.109; -950.804
658.347; -118.463; -523.108; -598.805
658.618; -201.561; -646.108; -694.805
658.888;  -11.759;  -41.108;  112.195
659.159; -113.457; -432.108; -548.806
659.429;  -26.355; -292.108; -349.806
659.700;   -4.653; -435.107; -390.807
659.970;  -48.651; -370.107; -359.807
660.241;  -60.649; -754.107; -921.807
660.511;  534.953; -147.107; -174.808
660.781;   31.955; -793.106; -748.808
661.052;  -63.143; -222.106; -381.808
661.322;   -5.041;   21.894;   -9.809
661.592;   56.061;  257.894;  148.191
661.862; -109.337; -369.106; -382.810
662.133; -151.035; -551.105; -502.810
662.403; -204.133; -770.105; -676.810
662.673;  -61.431; -256.105; -213.811
662.943; -168.329; -612.105; -551.811
663.213;   -3.127;  -85.105;  -81.811
663.483; -122.325; -593.104; -568.812
663.753;  -69.023; -194.104; -152.812
664.023;   26.880;   68.896;  -32.813
664.293;  -75.018; -319.104; -126.813
664.563; -194.316; -694.104; -648.813
664.833; -186.014; -743.103; -608.814
665.103; -230.412; -730.103; -793.814
665.373; -227.210; -766.103; -806.814
665.643; -184.708; -863.103; -918.815
665.913;  -11.606; -534.103; -714.815
666.182;  108.296; -685.102; -719.816
666.452;  285.798;  -22.102;  -89.816
666.722;  -88.800; -724.102; -784.816
666.992; -245.498; -948.102; -921.817
667.261; -180.796; -824.102; -808.817
667.531;  264.506;  134.899;   45.183
667.801;  557.408; -440.101; -412.818
668.070;  367.010;  714.899;  697.182
668.340; -194.388; -883.101; -840.819
668.609;  221.714;  588.900;  301.181
668.879; -115.084; -490.100; -558.819
669.149; -129.782; -539.100; -516.820
669.418; -149.080; -698.100; -726.820
669.688;  -81.678; -482.100; -666.820
669.957;   43.624; -423.099; -546.821
670.226;  -44.874; -268.099; -331.821
670.496; -153.671; -431.099; -635.822
670.765; -145.869; -418.099; -501.822
671.034; -271.367; -872.099; -828.822
671.304;   -7.665;   55.902; -111.823
671.573; -265.063;-1085.098; -957.823
671.842;   58.239; -380.098; -294.823
672.112;  -14.459; -692.098; -586.824
672.381;   -1.257; -239.098; -214.824
672.650; -246.155;-1005.097;-1021.825
672.919; -151.553; -631.097; -507.825
673.188; -191.151; -681.097; -878.825
673.457; -302.449;-1101.097;-1143.826
673.726; -143.247; -579.096; -646.826
673.995;  -62.345; -533.096; -479.826
674.265;  -46.843; -263.096; -333.827
674.534;  -10.041; -183.096; -235.827
674.802;  -47.839; -618.096; -703.828
675.071; 1079.063; -886.095; -801.828
675.340; 3994.865; -464.095; -339.828
675.609; 1439.467;  103.905;   82.171
675.878;  -15.531; -949.095; -893.829
676.147;   36.071;  -26.095;   -8.829
676.416;  119.073; -210.094; -294.830
676.685; 1014.375; 1000.906; -622.830
676.953;   97.977; -603.094; -452.831
677.222;  -40.720; -193.094; -273.831
677.491;   -1.718;  -24.094; -127.831
677.759;   40.084;   11.907;  172.168
678.028;  -14.914; -279.093; -222.832
678.297;   -8.712;   71.907;  197.168
678.565; -251.510; -898.093; -944.833
678.834;  -89.608; -311.093; -268.833
679.102; -120.606; -411.092; -391.834
679.371; -267.204; -898.092; -727.834
679.639; -217.602; -797.092; -786.834
679.908; -220.700; -794.092; -724.835
680.176; -238.698; -895.091; -941.835
680.445; -109.096; -346.091; -352.835
680.713;   29.006;  -58.091;  -23.836
680.982; -176.192; -523.091; -525.836
681.250; -130.790; -578.091; -507.837
681.518; -137.188; -534.090; -751.837
681.787;  -21.486; -204.090; -167.837
682.055;  -90.084; -490.090; -422.838
682.323; -260.482; -993.090; -992.838
682.591;   62.220; -216.090; -538.838
682.859;   91.622;    9.911;  -35.839
683.128;   89.924;  232.911;  497.161
683.396; -303.774;-1102.089;-1122.840
683.664;   -5.571; -241.089;   21.160
683.932;   30.731;  144.911;  -76.840
684.200; -104.467; -576.088; -320.841
684.468;  -39.665;  -73.088; -124.841
684.736;  -40.763; -214.088; -175.841
685.004; -217.761;-1024.088; -982.842
685.272; -129.159; -880.088; -774.842
685.540; -123.257; -499.087; -557.843
685.808; -164.755; -651.087; -682.843
686.076; -182.953; -894.087; -969.843
686.343; -126.351; -601.087; -815.844
686.611;   70.251; -195.087; -224.844
686.879;  540.653; -530.086; -553.844
687.147; 3543.655; -483.086; -480.845
687.414; 1009.957;  -12.086; -169.845
687.682;  -37.941; -658.086; -757.846
687.950;  404.061;  259.915;  263.154
688.217;  -36.337; -792.085; -760.846
688.485;  -56.735; -632.085; -636.847
688.753;  562.067;  -11.085; -102.847
689.020;   44.369; -820.085; -851.847
689.288; -168.229; -853.084; -787.848
689.555;   -5.227; -195.084; -148.848
689.823;  -61.025; -241.084; -345.849
690.090; -126.723; -546.084; -651.849
690.358; -290.120; -877.084; -897.849
690.625;   61.282;  120.917;   45.150
690.892; -122.316; -403.083; -369.850
691.160;   25.086;   72.917;  -35.850
691.427;   74.688;  141.917;  130.149
691.694; -262.610; -855.083; -929.851
691.962; -259.008;-1177.082;-1060.852
692.229;   38.494;  127.918;   56.148
692.496;  126.796;  130.918;  -49.852
692.763;   21.398; -164.082; -201.853
693.031; -124.800; -739.082; -716.853
693.298; -101.298; -509.081; -368.853
693.565;  397.804; -155.081; -163.854
693.832; 1331.606;   -5.081;   -9.854
694.099;  112.908; -643.081; -642.855
694.366; -153.990; -882.081; -896.855
694.633; -166.588; -920.080; -633.855
694.900; 1476.314; 4367.920; -114.856
695.167;  491.316; -214.080; -380.856
695.434;   56.318; -646.080; -623.856
695.701;  299.820;  121.921;  -61.857
695.968;  487.922; -365.079; -361.857
696.234; 1208.524; -415.079; -646.858
696.501;11539.526; -776.079; -614.858
696.768; 5552.629; -554.079; -617.858
697.035;  326.231; -632.078; -667.859
697.302;  -31.367; -448.078; -552.859
697.568;   -9.465; -458.078; -497.859
697.835; -100.463; -683.078; -624.860
698.102;  -56.361; -498.078; -407.860
698.368;  198.041;  384.923;  396.139
698.635;  -34.757;  -47.077; -424.861
698.901;  -17.255; -240.077; -348.861
699.168;   37.747; -534.077; -456.862
699.435;  129.249;  -72.077;  -13.862
699.701; -231.749; -868.076; -764.862
699.968;  -66.947;  144.924; -441.863
700.234; -190.345; -783.076; -822.863
700.500;  -93.943; -448.076; -539.864
700.767;   27.259;   -1.075;   26.136
701.033; -238.839;-1015.075; -963.864
701.299;  -49.637; -450.075; -483.865
701.566;  265.565;  950.925;  763.135
701.832;   63.067;  -31.075;  -76.865
702.098; -199.331;-1054.074;-1034.866
702.365; -221.229;-1098.074;-1030.866
702.631; -133.627;-1038.074;-1063.867
702.897; 1507.775; -765.074; -676.867
703.163; 2373.178;  348.926;  254.133
703.429;  153.580; -256.073; -273.868
703.695; -111.218; -796.073; -792.868
703.961;   11.484; -214.073; -210.868
704.227; -112.214; -630.073; -725.869
704.493;  235.988;  613.927;  510.131
704.759;  -46.610; -565.072; -540.870
705.025;   37.192; -203.072; -194.870
705.291;  -62.506; -666.072; -562.870
705.557;  349.996;  719.928;   34.129
705.823;  -36.002; -742.072; -694.871
706.089;  119.300; -307.071; -326.871
706.355;  462.502; -315.071; -244.872
706.620; 6423.904; -776.071; -729.872
706.886; 8196.206; -309.071; -362.873
707.152;  684.408; -818.070; -973.873
707.418; -162.990;-1153.070;-1186.873
707.683;  -47.188; -550.070; -530.874
707.949;  -98.186; -547.070; -578.874
708.215;    9.516; -129.070; -207.874
708.480;  -47.782; -520.069; -420.875
708.746;  148.620;   68.931;   28.125
709.011; -102.078; -578.069; -612.876
709.277; -125.876; -538.069; -543.876
709.542;  -48.874; -428.069; -387.876
709.808;   11.629;  -59.068;   89.123
710.073; -155.269; -577.068; -695.877
710.339;  -22.867; -242.068; -228.877
710.604;   34.435; -780.068; -845.878
710.869;  306.337; -277.068; -366.878
711.135; -117.961; -715.067; -628.879
711.400; -145.259; -507.067; -608.879
711.665;  -97.057; -404.067; -479.879
711.931; -173.055; -661.067; -677.880
712.196; -213.953; -876.067; -954.880
712.461;   82.849; -402.066; -490.880
712.726;   50.251; -727.066; -771.881
712.991; -145.747; -647.066; -664.881
713.256;  -68.545; -350.066; -332.882
713.521; -130.043; -417.065; -381.882
713.787; -135.241; -454.065; -472.882
714.052;  -36.739; -214.065; -400.883
714.317; -237.037;-1045.065; -981.883
714.581; 1115.565; -374.065; -268.883
714.846; 1327.167; -822.064; -888.884
715.111;  192.469;  261.936;  257.116
715.376;  -18.129;  -86.064; -223.885
715.641;  -56.127; -365.064; -367.885
715.906;  273.775;   15.936; -551.885
716.171;  211.378;  221.937;  209.114
716.436;   93.580;  -78.063; -104.886
716.700; -181.618; -818.063; -692.886
716.965; -212.116; -794.063; -807.887
717.230; -107.514; -339.063; -392.887
717.494;    2.388;  -40.062; -134.888
717.759; -159.510; -784.062; -640.888
718.024;   62.692;  269.938;  250.112
718.288;  195.094;  685.938;  395.111
718.553; -277.304; -803.062; -977.889
718.817; -259.002; -883.061; -899.889
719.082;   15.000; -115.061; -125.890
719.346; -251.498;-1000.061; -947.890
719.611;  -42.096; -300.061; -255.891
719.875; -165.794; -568.060; -537.891
720.140; -102.192; -453.060; -603.891
720.404;   34.610; -136.060; -249.892
720.668;  873.112; -475.060; -411.892
720.933;  379.914;  146.940;  137.108
721.197; -180.284; -667.059; -600.893
721.461; -253.282; -851.059; -826.893
721.725;   31.920;  -21.059; -250.894
721.990;  -60.678; -284.059; -204.894
722.254;  -15.876;  -26.059; -108.894
722.518;  -96.774; -286.058; -442.895
722.782; -147.271; -743.058; -594.895
723.046;  249.531;  614.942;  570.105
723.310;   92.033;  374.942;  210.104
723.574; -167.565; -654.058; -614.896
723.838; -151.363; -576.057; -642.897
724.102;  -43.861; -226.057; -239.897
724.366; -235.759;-1032.057; -978.897
724.630; -194.057; -749.057; -571.898
724.894; -129.855; -722.057; -514.898
725.158;    3.047;   38.944; -295.898
725.422;  -85.451; -394.056; -327.899
725.685; -104.949; -441.056; -349.899
725.949; -154.847; -566.056; -519.900
726.213; -145.445; -732.056; -811.900
726.477;  126.357;-1020.055; -933.900
726.740;  131.559; -274.055; -104.901
727.004;  390.361; -384.055; -510.901
727.268; 3440.863; -442.055; -400.901
727.531;  767.665; -961.055; -775.902
727.795; -103.933; -713.054; -673.902
728.059; -115.731; -552.054; -557.903
728.322; -114.829; -841.054; -669.903
728.586;    2.073; -692.054; -701.903
728.849; -143.125; -695.053; -756.904
729.112; -221.922; -812.053; -912.904
729.376; -250.820; -959.053; -905.904
729.639; -117.418; -536.053; -536.905
729.903; -163.016; -733.053; -699.905
730.166;  -73.114; -437.052; -399.906
730.429;  -34.212; -317.052; -468.906
730.693; -113.710; -355.052; -894.906
730.956;  375.292;  810.948;  651.093
731.219;  708.494; -310.052; -103.907
731.482;   32.596;-1003.051; -894.907
731.745;   -3.002; -794.051; -935.908
732.009;   60.900;  -30.051;   50.092
732.272; -158.598; -904.051; -771.909
732.535;  -70.896; -300.051; -310.909
732.798; -296.894;-1083.050;-1166.909
733.061;  -82.392; -430.050; -456.910
733.324;   35.010;   31.950; -180.910
733.587;  168.812;  290.950;  365.090
733.850; -105.086; -973.049;-1050.911
734.113;   54.616;   33.951;   32.089
734.376;  -20.882; -328.049; -447.912
734.639;  427.720; 1188.951; 1011.088
734.901;   97.022; -180.049; -402.912
735.164;  511.224; -883.048; -837.913
735.427; 1386.226; -166.048; -355.913
735.690;  161.029; -205.048; -234.913
735.952; -116.169; -923.048; -925.914
736.215; -114.267;-1113.048;-1009.914
736.478;  -23.965; -771.047; -774.915
736.740;  293.337;   33.953;  129.085
737.003;  833.439; -658.047; -672.915
737.266; 4343.441;  -94.047;   46.084
737.528;  390.843; -682.047; -660.916
737.791;  314.345; -316.046; -327.916
738.053; 1056.147;  465.954;  649.083
738.316;12534.849; -162.046; -136.917
738.578; 7443.351; -770.046; -736.918
738.841;  445.953; -382.046; -446.918
739.103;  121.655; -875.045; -777.918
739.365;  579.857;   79.955;  -69.919
739.628;  -48.541; -884.045; -805.919
739.890; -102.239; -758.045; -710.919
740.152;  -82.937; -692.044; -754.920
740.414;  -47.235; -408.044; -359.920
740.677;  -97.833; -785.044; -634.921
740.939; -102.531; -587.044; -487.921
741.201;  239.471; -432.044; -572.921
741.463;  -27.427; -689.043; -745.922
741.725;   42.175;  -21.043; -199.922
741.987;  144.278;  220.957;  116.078
742.249;  -42.620; -751.043; -859.923
742.511;  170.082; -703.043; -794.923
742.773;  -29.916; -546.042; -546.924
743.035;  229.986;  796.958;  533.076
743.297; -136.712; -963.042;-1013.924
743.559;  747.890; -278.042; -262.925
743.821;  -31.908; -735.042; -744.925
744.083;  -20.606;  -44.041; -149.925
744.345; -183.604; -869.041; -892.926
744.607;   95.998;   75.959;  122.074
744.868;  -73.400; -490.041; -554.927
745.130; -207.898; -994.041;-1008.927
745.392;  103.904;   -1.040;  -44.927
745.653;  -33.694; -411.040; -378.928
745.915;  337.208;  896.960;  631.072
746.177;  100.510;   35.960;  -43.928
746.438;  -24.588; -428.040; -543.929
746.700; -148.786; -947.039; -988.929
746.961;  -62.684; -659.039; -740.930
747.223;  181.818; -190.039;  -74.930
747.484;   43.120; -391.039; -471.930
747.746;  200.822;  -23.038; -106.931
748.007;   86.024; -647.038; -689.931
748.269;  353.927; -468.038; -440.931
748.530;  432.829; -852.038; -638.932
748.791;  273.031; -354.038; -420.932
749.053;  572.633;  286.963;  163.067
749.314;  476.035; -236.037; -169.933
749.575;  485.537; -945.037; -905.933
749.836;  979.939; -217.037;   86.066
750.098; 3251.741;  -60.037;  -21.934
750.359;40690.943;  414.964;  555.066
750.620; 8890.245; -121.036; -220.935
750.881; 1062.347; -585.036; -513.935
751.142; 1518.149; -950.036; -938.936
751.403;19377.151; -789.036; -705.936
751.664; 7082.953;-1034.035; -999.936
751.925;  565.655; -175.035; -262.937
752.186;  329.557; -298.035; -278.937
752.447;  125.059; -590.035; -445.937
752.708;   41.261; -532.035; -648.938
752.969;   -9.537; -566.034; -576.938
753.230;  -43.635; -777.034; -672.939
753.491;  -28.633; -650.034; -631.939
753.751;  102.069;  109.966;   19.061
754.012;  178.671;  258.967;  181.060
754.273;   88.073; -174.033;  -71.940
754.534;  -73.525; -487.033; -580.940
754.794; -181.022; -926.033; -911.941
755.055;  386.280; 1051.967;  881.059
755.316; -101.018; -700.032; -566.942
755.576;  -20.816; -606.032; -576.942
755.837;  -82.614; -527.032; -695.942
756.097;  -84.712; -530.032; -564.943
756.358; -117.610; -725.032; -770.943
756.618;  -94.708; -705.031; -641.943
756.879;    0.894; -254.031; -349.944
757.139; -246.204;-1098.031;-1116.944
757.400; -102.302; -538.031; -553.945
757.660;  -64.800; -365.031; -401.945
757.920;   25.502; -266.030; -228.945
758.181;  -21.996; -468.030; -351.946
758.441; -171.094; -870.030; -809.946
758.701;  -35.392; -308.030; -215.946
758.961;  -49.190; -220.030; -278.947
759.222;  -61.788; -574.029; -502.947
759.482; -144.886; -683.029; -723.948
759.742; -173.384; -706.029; -547.948
760.002;   60.618;  -83.029; -143.948
760.262;   91.920;   50.972;  182.051
760.522;  -95.378; -498.028; -574.949
760.782; -103.476; -738.028; -612.949
761.042;  -68.373; -618.028; -573.950
761.302;  120.929;   55.972;  -18.950
761.562;  115.831; -164.027; -154.951
761.822;   69.233; -710.027; -551.951
762.082; -143.065;-1104.027;-1093.951
762.342;   73.637; -328.027; -403.952
762.601;   89.139; -567.027; -506.952
762.861;  456.741; -281.026; -207.952
763.121;  588.343; -406.026; -411.953
763.381;10361.445; -499.026; -485.953
763.640; 9323.247; -139.026; -307.954
763.900;  433.049; -242.026; -203.954
764.160;  107.051; -458.025; -491.954
764.419;  -46.547; -726.025; -782.955
764.679; -143.445; -795.025; -726.955
764.939;   16.057; -124.025; -210.955
765.198; -135.941; -608.025; -563.956
765.458; -161.239; -710.024; -612.956
765.717; -137.837; -454.024; -590.957
765.976;  -93.835; -428.024; -411.957
766.236;  -97.433; -475.024; -610.957
766.495;  106.069;  260.977;   73.042
766.755; -202.129;-1090.023; -987.958
767.014;  -36.327; -594.023; -665.958
767.273;  -74.325; -373.023; -397.959
767.533;  -58.022; -228.023; -307.959
767.792;  -28.820; -151.022; -188.960
768.051;  -84.018; -228.022; -276.960
768.310;  -97.516; -546.022; -650.960
768.569;   16.186; -161.022;    4.039
768.828;  -45.312; -285.022; -363.961
769.088; -214.710;-1050.021; -942.961
769.347; -161.108; -755.021; -599.962
769.606; -207.506; -876.021; -857.962
769.865; -242.204;-1016.021;-1033.963
770.124;    6.798; -411.021; -336.963
770.383; -142.500; -778.020; -910.963
770.641;    7.802; -398.020; -400.964
770.900; -147.796; -953.020; -846.964
771.159; -174.594; -851.020; -951.964
771.418;  -86.492; -917.020; -779.965
771.677;  170.110; -224.019; -293.965
771.936;   91.212; -794.019; -865.966
772.194; 3002.914; -465.019; -437.966
772.453;11842.716; -213.019; -391.966
772.712;  918.718;  416.982;  329.033
772.970;  167.820;   32.982;   63.033
773.229;  138.522;  -22.018;  102.033
773.488; -147.476; -814.018; -770.968
773.746;  126.527;  296.982;  335.032
774.005;   53.129;  190.983;  -22.969
774.263;   77.031;  243.983;  177.031
774.522; -136.467; -422.017; -548.969
774.780;  -93.765; -484.017; -417.970
775.039; -120.063; -551.017; -531.970
775.297;  -13.561; -135.016; -351.970
775.555; -139.859; -489.016; -612.971
775.814; -208.257; -618.016; -570.971
776.072; -181.755; -749.016; -740.971
776.330; -157.153; -630.016; -520.972
776.589; -179.751; -703.015; -721.972
776.847; -207.849; -645.015; -624.973
777.105; -284.247;-1016.015;-1032.973
777.363; -116.845; -459.015; -454.973
777.621; -216.943; -660.015; -717.974
777.879;   18.859;  -42.014;   32.026
778.138; -128.539; -554.014; -717.974
778.396; -143.237; -585.014; -526.975
778.654; -267.835;-1015.014; -970.975
778.912;  -97.333; -269.014; -371.976
779.170; -217.931; -880.013; -803.976
779.427; -257.829; -922.013; -897.976
779.685; -251.927; -880.013; -832.977
779.943; -162.024; -654.013; -593.977
780.201; -265.722; -964.012; -883.978
780.459; -205.620; -651.012; -610.978
780.717;  -93.618; -440.012; -390.978
780.974; -134.016; -449.012; -490.979
781.232;  -78.014; -358.012; -338.979
781.490; -177.112; -551.011; -472.979
781.747; -133.110; -555.011; -476.980
782.005;  131.592;  462.989;  254.020
782.263; -290.606; -542.011;-1004.981
782.520; -120.804; -326.011; -501.981
782.778; -275.602;-1013.010;-1051.981
783.035; -293.800; -962.010; -938.982
783.293;  -64.198; -248.010; -206.982
783.550;  -49.996; -134.010; -198.982
783.808; -208.794; -764.010; -776.983
784.065; -254.392; -745.009; -874.983
784.322;  -59.190;   25.991;  -86.984
784.580; -247.488; -915.009; -771.984
784.837; -102.986; -392.009; -466.984
785.094; -214.484; -783.009; -762.985
785.352;  -75.282; -304.008; -404.985
785.609; -230.780; -934.008; -839.985
785.866; -103.178; -345.008; -401.986
786.123; -141.976; -639.008; -583.986
786.380; -143.273; -665.008; -604.987
786.637;  -36.771; -225.007; -380.987
786.895;  -53.469; -456.007; -543.987
787.152;  -40.767; -135.007; -267.988
787.409;  -62.165; -123.007; -225.988
787.666; -110.063; -299.006; -378.988
787.923; -158.761; -616.006; -695.989
788.179; -160.559; -551.006; -584.989
788.436; -165.657; -585.006; -585.990
788.693;   35.945;  -92.006;  -87.990
788.950;  197.747; -125.005; -112.990
789.207;  173.949; -381.005; -372.991
789.464;  -25.049; -161.005; -301.991
789.720;   49.353;  150.995;  110.009
789.977; -273.045;-1003.005; -671.992
790.234;   14.657;   44.996;  -66.992
790.490; -244.641; -884.004;-1031.993
790.747;   23.461;  -85.004;   22.007
791.004;  -29.837; -426.004; -348.993
791.260; -115.035; -430.004; -560.994
791.517; -154.333; -843.003; -788.994
791.773;  -63.331; -379.003; -342.994
792.030; -185.329; -596.003; -660.995
792.286; -162.827; -686.003; -636.995
792.543;   11.876;  -74.002; -159.995
792.799;  -78.122; -584.002; -382.996
793.055; -307.220;-1179.002;-1210.996
793.312; -173.418; -827.002; -816.997
793.568; -106.016; -746.002; -599.997
793.824;    6.186; -226.001; -284.997
794.081;   -6.012; -447.001; -508.998
794.337;   41.090; -664.001; -561.998
794.593; 2099.092; -319.001; -271.999
794.849; 7642.394; -746.001; -772.999
795.105;  354.196; -270.000; -261.999
795.361;  -18.402; -490.000; -457.000
795.617; -156.400; -875.000; -945.000
795.873;  -69.300; -360.000; -407.000
796.129;  -48.800; -368.000; -306.000
796.385;  -19.500; -124.000; -156.000
796.641;  181.100;  412.000;  550.000
796.897; -123.800; -666.000; -635.000
797.153;  163.800;  453.000;  357.000
797.409; -190.500; -785.000; -868.000
797.665; -147.500; -625.000; -732.000
797.921; -150.700; -775.000; -762.000
798.176; -124.200; -744.000; -747.000
798.432; -157.400; -824.000; -596.000
798.688; -190.000;-1174.000;-1078.000
798.943;  109.500; -165.000; -147.000
799.199;  -93.300;-1005.000; -959.000
799.455;  376.600;  369.000;  316.000
799.710;   99.800; -813.000; -380.000
799.966;  304.500; -162.000; -160.000
800.221;  517.100; -638.000; -721.000
800.477;12781.600; -743.000; -710.000
800.732; 8420.900; -773.000; -800.000
800.988;  801.300;  205.000;  -19.000
801.243; 2694.800; -454.000; -344.000
801.498; 8791.900; -814.000; -739.000
801.754;  503.600; -289.000; -163.000
802.009;  127.700; -257.000; -335.000
802.264; -150.800; -967.000;-1033.000
802.520;   29.600;  222.000;   -3.000
802.775;  -80.100; -524.000; -359.000
803.030;  120.400;  395.000;  356.000
803.285; -199.500; -840.000; -903.000
803.540; -141.700; -686.000; -699.000
803.795;  -82.900; -648.000; -583.000
804.051;  -33.700; -279.000; -346.000
804.306;  114.300;  168.000;  128.000
804.561;  218.100;  451.000;  362.000
804.816;  321.700;  714.000;  861.000
805.071;   25.800; -185.000; -280.000
805.325;  219.500; -257.000; -427.000
805.580; -196.600; -841.000; -877.000
805.835;    8.700; -204.000; -297.000
806.090; -129.400; -760.000; -676.000
806.345;    0.600; -344.000; -264.000
806.600;  -89.000; -549.000; -632.000
806.854;  -47.400; -408.000; -538.000
807.109;   -4.000; -493.000; -577.000
807.364;    3.700; -407.000; -328.000
807.618;  -65.500; -415.000; -381.000
807.873;   37.500; -470.000; -494.000
808.128;  124.000; -257.000; -518.000
808.382;  157.600; -224.000; -332.000
808.637;   99.200; -440.000; -511.000
808.891;  237.700; -257.000; -180.000
809.146;   37.800; -902.000; -794.000
809.400;  249.300; -848.000; -923.000
809.654;  348.200; -779.000; -551.000
809.909;  573.600; -841.000; -927.000
810.163; 9204.400; -813.000; -651.000
810.418;18361.600; -940.000; -861.000
810.672; 1111.900; -685.000; -690.000
810.926;  857.600; -993.000; -973.000
811.180; 1890.300; -439.000; -372.000
811.434;41314.700;  240.000;  135.000
811.689;12394.300; -231.000; -365.000
811.943;  638.600; -936.000; -953.000
812.197;  334.900; -893.000; -671.000
812.451;  148.400; -379.000; -514.000
812.705; -100.200; -809.000; -619.000
812.959;  -74.100; -263.000; -388.000
813.213;  -12.700; -283.000; -209.000
813.467;  185.700;  470.000;  253.000
813.721; -162.100; -764.000; -792.000
813.975; -184.500; -826.000; -877.000
814.229;  113.700;  430.000;  353.000
814.482;  -92.300; -517.000; -566.000
814.736; -212.000; -766.000; -744.000
814.990; -224.500; -779.000; -872.000
815.244;  -68.700; -228.000; -285.000
815.497; -143.200; -636.000; -601.000
815.751;   34.300; -141.000;   82.000
816.005; -128.000; -470.000; -586.000
816.258;  -99.300; -510.000; -363.000
816.512; -155.400; -693.000; -610.000
816.766;   27.100;  121.000;  157.000
817.019;  102.800;  148.000;  149.000
817.273; -225.700;-1000.000; -802.000
817.526;   -2.300; -206.000; -173.000
817.779; -118.600;-1049.000; -960.000
818.033; -153.900; -693.000; -807.000
818.286; -212.400; -725.000; -792.000
818.540;  -97.800; -403.000; -403.000
818.793; -120.100; -402.000; -489.000
819.046; -145.300; -582.000; -520.000
819.299;  -16.800; -157.000; -166.000
819.553; -159.400; -552.000; -592.000
819.806; -273.200;-1016.000; -838.000
820.059;  -48.000; -334.000; -354.000
820.312;   63.100;  152.000;  185.000
820.565;   31.200;  110.000;  -27.000
820.818;  -22.200;  -59.000; -173.000
821.071; -252.400;-1041.000; -957.000
821.324; -155.000; -536.000; -540.000
821.577; -143.700; -457.000; -483.000
821.830;  -72.900; -270.000; -172.000
822.083; -211.100; -733.000; -288.000
822.336;  -49.300; -261.000; -167.000
822.589; -216.500; -805.000; -688.000
822.842; -241.300; -875.000; -770.000
823.094; -305.000;-1076.000;-1114.000
823.347; -208.800; -925.000; -729.000
823.600;  110.000;  402.000;  187.000
823.853;  -51.700; -311.000; -267.000
824.105;  -75.000; -331.000; -575.000
824.358; -206.200; -617.000; -716.000
824.611;   74.900;  234.000;   40.000
824.863; -113.000; -612.000; -591.000
825.116;   60.700;  -33.000;   27.000
825.368;   60.500; -366.000; -372.000
825.621;  154.000; -186.000; -240.000
825.873;   37.500; -704.000; -737.000
826.126;  734.600; -669.000; -641.000
826.378;13469.200; -389.000; -505.000
826.630; 2323.700; -890.000; -898.000
826.883;  -48.400; -754.000; -693.000
827.135;   53.700; -279.000; -270.000
827.387; -200.300; -893.000; -839.000
827.639;   12.300;  -86.000;   32.000
827.892; -197.600; -742.000; -582.000
828.144; -220.000; -848.000; -804.000
828.396;   -9.600;  104.000;  -80.000
828.648; -142.100; -440.000; -333.000
828.900; -252.700; -702.000; -795.000
829.152; -186.900; -684.000; -683.000
829.404;  -35.500; -215.000; -267.000
829.656;   39.000;  321.000;  214.000
829.908;   26.400;  393.000;  229.000
830.160; -289.600;-1064.000;-1047.000
830.412; -143.200; -481.000; -430.000
830.664; -171.500; -557.000; -665.000
830.916;  -93.800; -268.000; -206.000
831.167; -303.800;-1073.000; -951.000
831.419; -159.000; -623.000; -566.000
831.671; -239.900; -764.000; -809.000
831.923; -115.800; -311.000; -447.000
832.174;  -95.000; -273.000; -331.000
832.426; -178.400; -493.000; -582.000
832.678; -306.500;-1043.000;-1091.000
832.929; -276.400; -947.000; -935.000
833.181; -108.700; -575.000; -677.000
833.432;  -34.100;  -59.000; -186.000
833.684;   30.500;  112.000;  -27.000
833.935; -186.100; -610.000; -566.000
834.187; -203.900; -829.000; -823.000
834.438;  -50.900;  -58.000;  -25.000
834.689;  -64.900; -255.000; -123.000
834.941;  -39.000; -343.000; -244.000
835.192; -119.900; -590.000; -533.000
835.443; -164.100; -419.000; -506.000
835.695;   30.700;  138.000;  -16.000
835.946; -140.600; -608.000; -378.000
836.197; -190.100; -599.000; -622.000
836.448; -118.200; -528.000; -395.000
836.699;  -62.600; -253.000; -341.000
836.950;   17.500;   72.000;    7.000
837.201; -269.500;-1003.000; -987.000
837.452;  -52.800; -356.000; -170.000
837.703; -169.200; -791.000; -737.000
837.954;  -43.100; -205.000; -365.000
838.205; -202.100;-1029.000;-1008.000
838.456;  193.800; -196.000; -282.000
838.707;  -33.300; -423.000; -519.000
838.958;  -54.600; -634.000; -647.000
839.209;  385.500;   18.000;   40.000
839.460;   99.400; -439.000; -201.000
839.710;  215.400; -135.000; -297.000
839.961;  600.400;  730.000;  612.000
840.212;  375.200; -382.000; -497.000
840.462; 1449.500; -328.000; -277.000
840.713;21897.000; -571.000; -536.000
840.964; 6517.400;  -62.000; -143.000
841.214;  518.100; -384.000; -624.000
841.465;  675.100; -214.000; -141.000
841.715;  546.600; -417.000; -380.000
841.966;  751.700; -746.000; -685.000
842.216;13436.600; -330.000; -431.000
842.466;37798.800; -169.000; -313.000
842.717; 1460.900; -964.000; -952.000
842.967;  332.000; -635.000; -641.000
843.217;  355.900;   20.000;   28.000
843.468;   91.400; -104.000; -132.000
843.718;  -92.300; -718.000; -726.000
843.968; -167.000; -837.000; -765.000
844.218;   34.400; -315.000; -262.000
844.469;  -82.300; -577.000; -561.000
844.719; -157.100; -537.000; -682.000
844.969; -162.700; -550.000; -580.000
845.219; -245.400; -814.000; -862.000
845.469; -106.700; -392.000; -342.000
845.719; -264.200; -792.000; -884.000
845.969;   46.700;  119.000;  174.000
846.219; -192.000; -738.000; -720.000
846.469;  132.200;  464.000;  432.000
846.718;  -47.800; -115.000;   31.000
846.968; -247.900; -827.000; -827.000
847.218;  -59.400; -224.000; -371.000
847.468; -151.800; -586.000; -555.000
847.718; -245.900; -827.000; -798.000
847.967; -244.800; -826.000; -915.000
848.217; -130.800; -449.000; -569.000
848.467;  -86.800; -405.000; -376.000
848.716; -170.100; -708.000; -725.000
848.966;   -2.900; -372.000; -358.000
849.215;  -64.700; -428.000; -419.000
849.465; -159.900; -785.000; -615.000
849.714; -291.200;-1132.000;-1150.000
849.964; -131.000; -551.000; -613.000
850.213;  -69.900; -393.000; -355.000
850.463;  157.500;  137.000;  340.000
850.712;  -65.500; -542.000; -567.000
850.961;  -32.200; -739.000; -678.000
851.211;   59.500; -513.000; -504.000
851.460;  103.900; -635.000; -650.000
851.709;  699.500;  -25.000;   18.000
851.958;13146.800; -912.000; -750.000
852.208;12008.700; -859.000; -879.000
852.457;  449.500; -181.000;  -13.000
852.706;   -2.400; -791.000; -823.000
852.955;  -47.800; -507.000; -528.000
853.204; -103.800; -521.000; -461.000
853.453; -138.200; -418.000; -458.000
853.702; -228.800; -660.000; -750.000
853.951; -135.300; -532.000; -520.000
854.200; -167.100; -613.000; -562.000
854.449; -199.900; -695.000; -661.000
854.698; -110.300; -340.000; -279.000
854.946;  -97.600; -181.000; -284.000
855.195; -256.900; -843.000; -868.000
855.444;  -92.100; -395.000; -420.000
855.693; -178.200; -345.000; -432.000
855.941; -147.900; -387.000; -516.000
856.190;  -55.500; -256.000; -382.000
856.439; -201.700; -652.000; -703.000
856.687;   -9.600;  -99.000;  -72.000
856.936; -174.600; -621.000; -323.000
857.184; -291.300;-1067.000;-1020.000
857.433; -147.500; -423.000; -512.000
857.681; -270.600; -989.000; -953.000
857.930;  -91.800; -282.000; -433.000
858.178; -252.000; -856.000; -929.000
858.427; -270.900; -802.000; -781.000
858.675; -176.900; -377.000; -544.000
858.923; -152.200; -527.000; -819.000
859.172; -317.600;-1094.000;-1070.000
859.420; -132.100; -339.000; -239.000
859.668; -205.700; -624.000; -628.000
859.916;   38.900;  109.000;  115.000
860.164; -189.600; -699.000; -603.000
860.413;  282.700; -878.000; -696.000
860.661;  119.000; -709.000; -577.000
860.909; -115.800; -339.000; -325.000
861.157; -108.800; -277.000; -444.000
861.405; -178.600; -534.000; -670.000
861.653;  109.800;  310.000;  310.000
861.901;  203.900; -543.000; -613.000
862.149; -115.500; -801.000; -824.000
862.396; -128.100; -297.000; -187.000
862.644; -113.600; -368.000; -347.000
862.892;   -7.300;   98.000;  138.000
863.140; -182.000; -549.000; -530.000
863.388; -257.500; -815.000; -759.000
863.635; -197.700; -642.000; -601.000
863.883;   22.300;  231.000;  190.000
864.131; -101.500; -288.000; -357.000
864.378; -204.200; -675.000; -540.000
864.626; -130.500; -347.000; -415.000
864.873; -166.600; -556.000; -505.000
865.121; -235.700; -714.000; -799.000
865.368;  -28.500; -173.000;   75.000
865.616;   -6.900;  -33.000;  -40.000
865.863; -133.400; -462.000; -506.000
866.111; -214.900; -795.000; -824.000
866.358;   51.000; -426.000; -420.000
866.605; 2989.700;  -64.000; -804.000
866.853; 2034.800; -621.000; -537.000
867.100; -120.000; -728.000; -775.000
867.347; -179.900; -672.000; -611.000
867.594; -130.300; -740.000; -714.000
867.841;  163.900;   97.000;   17.000
868.089; -228.700; -746.000; -698.000
868.336; -137.400; -477.000; -420.000
868.583; -191.300; -637.000; -741.000
868.830;  -46.700; -131.000; -170.000
869.077; -264.200; -859.000; -787.000
869.324; -196.900; -502.000; -458.000
869.571; -169.600; -398.000; -430.000
869.818; -176.500; -485.000; -439.000
870.065; -134.200; -439.000; -513.000
870.311; -137.300; -456.000; -542.000
870.558; -108.900; -332.000; -311.000
870.805;  -94.800; -320.000; -384.000
871.052; -143.500; -494.000; -369.000
871.298;  -74.900; -204.000; -131.000
871.545;  -86.200; -151.000; -185.000
871.792; -115.900; -173.000; -222.000
872.038;  -54.900;   43.000; -126.000
872.285; -160.900; -496.000; -387.000
872.532; -127.400; -357.000; -387.000
872.778;  115.400;  556.000;  403.000
873.025; -102.100; -384.000; -359.000
873.271;  127.700;  501.000;  578.000
873.517;   -9.000; -133.000; -209.000
873.764;  -32.900; -193.000;  -80.000
874.010;  -72.800; -143.000; -230.000
874.257;  -16.200;  123.000;   90.000
874.503; -161.800; -579.000; -479.000
874.749;  -65.200;   31.000;  275.000
874.995;  -53.300;  -80.000;  -20.000
875.242; -183.500; -540.000; -478.000
875.488; -155.900; -414.000; -439.000
875.734;  -61.700; -106.000; -234.000
875.980;  220.800; -872.000;-1032.000
876.226;  336.200; -157.000; -255.000
876.472;   50.200;  343.000;  237.000
876.718;  -11.200;  184.000;  158.000
876.964;   -9.000;   56.000;   55.000
877.210; -224.000; -547.000; -677.000
877.456; -200.200; -630.000; -557.000
877.702; -287.500; -821.000; -832.000
877.948; -146.700; -377.000; -497.000
878.193;   89.100;  361.000;  255.000
878.439; -148.200; -487.000; -472.000
878.685; -134.500; -272.000; -343.000
878.931; -172.600; -618.000; -676.000
879.176; -107.800; -201.000; -201.000
879.422; -296.900; -933.000; -820.000
879.668;   78.800;   10.000;   79.000
879.913;  168.500;   53.000;  137.000
880.159;  -41.400; -112.000;  -17.000
880.404;  -46.700; -152.000; -162.000
880.650;  -13.900;   91.000;  141.000
880.895; -218.300; -670.000; -710.000
881.141; -171.000; -454.000; -428.000
881.386; -185.700; -503.000; -658.000
881.631; -152.500; -311.000; -166.000
881.877;   -4.100;  112.000;  -13.000
882.122; -185.600; -684.000; -600.000
882.367;  -69.600; -136.000; -186.000
882.612;  -57.000;  -80.000; -176.000
882.858; -286.000; -877.000; -823.000
883.103; -115.100; -297.000; -267.000
883.348; -261.100; -759.000; -852.000
883.593; -232.100; -677.000; -602.000
883.838;  -43.700; -311.000;  -24.000
884.083;   92.200;  353.000;  288.000
884.328; -131.300; -564.000; -545.000
884.573;  -64.800; -196.000; -143.000
884.818;  258.000; -694.000; -531.000
885.063;  133.600; -348.000; -315.000
885.308; -143.100; -475.000; -398.000
885.553;   80.300;  245.000;  325.000
885.797; -184.500; -545.000; -615.000
886.042;  -32.200;    8.000;   58.000
886.287;  -85.500; -253.000; -211.000
886.532;  -11.900;   26.000;  204.000
886.776; -135.400; -407.000; -525.000
887.021; -219.800; -621.000; -574.000
887.265; -233.900; -685.000; -689.000
887.510; -203.700; -557.000; -496.000
887.755;  -93.100; -194.000; -164.000
887.999; -218.900; -552.000; -575.000
888.244;  -15.800;  -58.000;  161.000
888.488;  102.700;  371.000;  393.000
888.732; -169.100; -368.000; -520.000
888.977; -211.100; -622.000; -567.000
889.221; -222.600; -683.000; -659.000
889.465; -179.300; -422.000; -566.000
889.710;  -55.000;  -56.000; -299.000
889.954;   74.300;  579.000;  467.000
890.198; -211.800; -584.000; -707.000
890.442; -242.700; -716.000; -712.000
890.687; -274.700; -800.000; -753.000
890.931;  -93.100; -273.000; -210.000
891.175; -193.700; -502.000; -500.000
891.419;  -62.700; -105.000; -110.000
891.663;  -75.600; -239.000; -112.000
891.907; -278.800; -801.000; -545.000
892.151; -277.000; -920.000; -815.000
892.395; -130.100; -274.000; -387.000
892.638;   52.000;  408.000;  291.000
892.882; -312.300; -780.000; -867.000
893.126;  141.500;  758.000;  558.000
893.370;  -83.800; -167.000; -168.000
893.614; -220.900; -714.000; -715.000
893.857; -122.400; -183.000; -197.000
894.101; -180.600; -527.000; -631.000
894.345;    5.300;  300.000;  150.000
894.588;  120.100;  569.000;  380.000
894.832;  -90.600; -178.000;  -84.000
895.075;  -67.100;   15.000;  -92.000
895.319; -188.100; -552.000; -420.000
895.563; -164.500; -413.000; -353.000
895.806; -254.700; -628.000; -741.000
896.049;  -78.400; -576.000; -368.000
896.293;  174.300;  527.000;  405.000
896.536; -111.000; -465.000; -468.000
896.779;  -50.400; -149.000;   -1.000
897.023; -212.900; -751.000; -714.000
897.266;   17.900;  325.000;  269.000
897.509; -278.700; -900.000; -901.000
897.752;    1.900;  149.000;  171.000
897.996; -307.600; -972.000; -864.000
898.239;    1.300;  168.000;  102.000
898.482; -166.200; -431.000; -453.000
898.725;  -39.800;  101.000;   53.000
898.968; -266.400; -609.000; -744.000
899.211; -145.300; -513.000; -361.000
899.454; -193.400; -633.000; -539.000
899.697;  -38.800;   90.000;  -43.000
899.940; -253.900; -761.000; -757.000
900.182; -134.200; -335.000; -405.000
900.425;  -98.200; -150.000; -298.000
900.668;   47.400;  491.000;  350.000
900.911; -132.100; -292.000; -345.000
901.154;    0.600;  141.000;   -3.000
901.396; -168.100; -407.000; -412.000
901.639; -228.000; -430.000; -496.000
901.882; -268.500; -790.000; -809.000
902.124;  -52.400;  -29.000; -143.000
902.367; -153.200; -315.000; -361.000
902.609; -196.500; -476.000; -453.000
902.852;  -84.500; -108.000; -260.000
903.094; -166.000; -458.000; -337.000
903.337;   -9.500;  -26.000;   53.000
903.579; -160.400; -228.000; -441.000
903.821; -236.100; -597.000; -744.000
904.064;  -42.400;   85.000;  127.000
904.306;  -68.900; -126.000; -166.000
904.548; -145.900; -152.000; -366.000
904.790; -118.000; -195.000; -340.000
905.033; -189.000; -625.000; -577.000
905.275; -200.800; -513.000; -524.000
905.517;  145.000;  468.000;  256.000
905.759; -168.200; -667.000; -761.000
906.001; -144.500; -322.000; -369.000
906.243; -106.100; -162.000; -224.000
906.485;  163.800; -265.000; -207.000
906.727;   59.100; -499.000; -542.000
906.969;  -48.100;  -30.000; -135.000
907.211;  134.100; -316.000; -382.000
907.453;  278.900; -188.000; -237.000
907.695;  -48.200; -158.000; -385.000
907.936;  146.600;  818.000;  706.000
908.178;  -54.900;   92.000; -135.000
908.420; -107.400; -111.000; -162.000
908.662; -223.000; -633.000; -682.000
908.903; -124.700; -208.000; -123.000
909.145;  -89.500; -240.000; -305.000
909.386;   67.500;  315.000;  280.000
909.628;   92.900;  363.000;  397.000
909.870;   35.800;   29.000;  264.000
910.111; -189.600; -809.000; -949.000
910.353;   15.500; -123.000; -161.000
910.594;  -40.300; -574.000; -606.000
910.835;  115.400; -265.000; -326.000
911.077;  181.400; -503.000; -604.000
911.318;  333.300; -505.000; -471.000
911.559;  556.700; -577.000; -880.000
911.801; 1952.600; -284.000; -280.000
912.042;17134.400;  -50.000; -159.000
912.283;34779.000;  404.000;  371.000
912.524; 3962.700; -396.000; -457.000
912.765;  644.600; -193.000;   79.000
913.006;  331.100; -307.000; -338.000
913.247;   69.100; -270.000; -290.000
913.488;   21.000;  -43.000;   30.000
913.729; -127.200; -373.000; -373.000
913.970;  -77.800;  -96.000; -292.000
914.211;  -74.600; -160.000; -198.000
914.452;  -63.500; -118.000;  -11.000
914.693;   73.500;  510.000;  592.000
914.934;   87.200;  510.000;  440.000
915.175;  -89.500;   53.000;  -95.000
915.415; -108.500; -137.000;   27.000
915.656;  -29.000;  -28.000;  192.000
915.897; -120.300; -252.000;  -82.000
916.137;  -90.200;   74.000;   -9.000
916.378; -197.100; -573.000; -517.000
916.619; -125.200; -159.000;  -63.000
916.859;   11.500;  303.000;  330.000
917.100;  379.800; 1655.000; 1070.000
917.340;  160.500;  930.000;  728.000
917.581;  142.100;  965.000;  789.000
917.821;   -0.300; -171.000;  143.000
918.061;  -28.200; -199.000;  -72.000
918.302;  -57.100; -152.000; -211.000
918.542;  -21.600;  -22.000;    3.000
918.782;   86.000;  369.000;  377.000
919.023;  223.500;  360.000;  427.000
919.263; 2351.700; 8131.000;  202.000
919.503; 1122.200; -137.000;  -54.000
919.743;  798.900;  390.000;  266.000
919.983;  255.900; -134.000;  -26.000
920.223;   74.600;  135.000;   14.000
920.463;  230.200;  631.000;  554.000
920.703;  155.200;   84.000;   39.000
920.943;  171.000; -110.000;   90.000
921.183;  213.400; -414.000; -405.000
921.423;  641.900;  307.000;  546.000
921.663;  831.900; -174.000; -257.000
921.903; 1948.500;  237.000;  173.000
922.143;11651.900;  372.000;  389.000
922.383;40010.700;  158.000;  115.000
922.622;10012.100; -120.000;  -15.000
922.862; 1256.400;  796.000;  785.000
923.102;  494.900;  -51.000;   33.000
923.341;  217.900;   59.000;   74.000
923.581;  193.600;  450.000;  360.000
923.821;   61.500;  301.000;  398.000
924.060;   80.000;  351.000;  193.000
924.300;  -83.000;  -16.000; -128.000
924.539;   55.300;  584.000;  473.000
924.779;   92.800;  812.000;  597.000
925.018;   -5.400;  247.000;  353.000
925.257;   69.000;  595.000;  666.000
925.497;   32.200;  447.000;  412.000
925.736;  -90.100;  -35.000;  102.000
925.975;   66.100;  687.000;  669.000
926.214;  143.200;  907.000;  850.000
926.454;  125.400;  706.000;  757.000
926.693;  -36.500;  419.000;  543.000
926.932;  141.900; 1021.000;  825.000
927.171;  234.300; 1107.000; 1044.000
927.410;  221.600; 1144.000;  967.000
927.649;  138.600;  924.000;  742.000
927.888;   73.400;  590.000;  564.000
928.127;   66.500;  680.000;  678.000
928.366;  117.800;  842.000;  826.000
928.605;  162.400;  831.000;  737.000
928.844;  445.800; 1451.000; 1393.000
929.083;  808.400;  770.000;  613.000
929.321;  488.700; 1335.000; 1359.000
929.560;  262.000; 1158.000; 1122.000
929.799;   42.800;  574.000;  475.000
930.038;  241.600; 1025.000; 1394.000
930.276;    7.800;  334.000;  397.000
930.515;   68.300;  827.000;  681.000
930.753;   29.200;  614.000;  589.000
930.992;   26.300;  664.000;  717.000
931.230;  133.100;  847.000;  847.000
931.469;  426.000; 2162.000;  892.000
931.707;  217.100;  840.000;  751.000
931.946;  208.600; 1278.000; 1344.000
932.184;  200.700; 1437.000; 1175.000
932.423;  197.700; 1265.000;  963.000
932.661;  270.500; 1296.000; 1428.000
932.899;  118.700;  987.000;  821.000
933.137;  106.300;  754.000;  564.000
933.376;  320.100; 1664.000; 1335.000
933.614;  349.800; 1759.000; 1196.000
933.852;  172.400; 1357.000; 1171.000
934.090;  347.900; 1722.000; 1747.000
934.328;  264.200; 1252.000; 1457.000
934.566;  205.100; 1431.000; 1110.000
934.804;  305.800; 1263.000; 1309.000
935.042;  726.200; 1861.000; 1850.000
935.280; 2529.700; 2088.000; 2063.000
935.518; 1949.000; 2113.000; 2007.000
935.756;  557.700; 2481.000; 2316.000
935.994;  358.200; 1808.000; 1751.000
936.231;  738.900; 2890.000; 2950.000
936.469;  479.600; 2367.000; 2378.000
936.707;  431.800; 2220.000; 2167.000
936.945;  571.400; 2825.000; 2882.000
937.182;  506.900; 2679.000; 2741.000
937.420;  704.100; 3602.000; 3031.000
937.657;  839.800; 3365.000; 3478.000
937.895;  772.100; 3331.000; 3488.000
938.133;  724.200; 3540.000; 3528.000
938.370;  788.600; 3896.000; 4191.000
938.607;  905.200; 4488.000; 4205.000
938.845; 1243.500; 5587.000; 5549.000
939.082; 1084.700; 5387.000; 5177.000
939.320; 1227.400; 5799.000; 5728.000
939.557; 1411.200; 6549.000; 6491.000
939.794; 1564.900; 7285.000; 7097.000
940.031; 1928.500; 8421.000; 8368.000
940.269; 2230.600; 9552.000; 9107.000
940.506; 2281.800;10901.000;10507.000

