
Integration time [ms]: 200.000
Averaging Nr. [scans]: 10
Smoothing Nr. [pixels]: 0
Data measured with spectrometer [name]: 2101013U2
Wave   ;Sample   ;Dark     ;Reference
[nm]   ;[counts] ;[counts] ;[counts] 

394.013;  -73.670; -450.257; -315.536
394.305; -142.070; -461.258; -419.536
394.596; -158.783; -676.269; -527.514
394.887; -177.381; -796.268; -654.518
395.178;   18.623;  145.736;   11.476
395.470;  -71.776; -210.263; -356.526
395.761;  118.621;  305.734;  394.479
396.052;  -99.198; -545.284; -306.489
396.343; -136.289; -557.276; -454.503
396.634;  -86.793; -200.279; -290.497
396.926; -130.481; -618.268; -565.517
397.217;    0.511;   11.725;  -17.504
397.508;  -49.387; -366.273; -154.507
397.799; -162.393; -555.279; -571.497
398.090; -236.794; -973.280; -902.495
398.381;    3.493;   11.708;  -11.473
398.672; -172.707; -585.292; -742.473
398.963;  -70.192; -348.279; -373.498
399.254;   34.694;   54.709; -209.475
399.545; -213.079;-1017.266; -883.520
399.836;  -74.391; -407.277; -343.501
400.127;  -26.810; -205.295; -209.468
400.418;  -79.488; -423.274; -392.506
400.709;  -67.295; -359.281; -333.493
401.000;  -52.205; -268.291; -309.476
401.290;   82.683;  225.698;  115.545
401.581;    8.400; -166.286; -228.485
401.872; -110.813; -542.298; -486.462
402.163;  -62.310; -313.296; -252.467
402.454;  -28.605; -123.291; -163.475
402.744; -183.812; -844.297; -813.465
403.035;  -55.608; -226.293;  -86.471
403.326;  -83.006; -366.292; -384.474
403.617;   97.186;  204.701;  165.539
403.907; -146.897; -593.283; -679.490
404.198; -148.923; -545.307; -599.446
404.489; -179.196; -618.283; -588.491
404.779; -160.917; -618.302; -660.456
405.070;    6.381;  -67.304; -174.451
405.360;  -46.608; -259.293; -238.472
405.651;   71.685;  125.699;   98.542
405.942;   25.200;  209.714;  127.516
406.232; -115.299; -432.285; -413.487
406.523;  221.292;  641.706;  758.530
406.813; -163.900; -579.286; -644.484
407.104;  101.293;  261.708;  144.527
407.394; -173.113; -604.299; -591.462
407.685;   72.801;  336.715;  222.513
407.975; -113.797; -400.283; -382.490
408.265;   -2.404; -134.289; -190.478
408.556; -118.106; -472.291; -459.475
408.846;  189.792;  474.706;  429.530
409.137;  -24.303;   -1.288; -216.480
409.427;  -81.299; -193.285; -271.487
409.717; -155.687; -776.273; -692.508
410.007;   14.001;    4.715; -170.486
410.298;  -73.209; -360.295; -342.469
410.588; -120.499; -495.285; -510.486
410.878; -228.301; -792.287; -873.482
411.168; -103.013; -481.298; -478.463
411.459;  -25.397; -295.283; -242.489
411.749; -151.606; -609.292; -507.474
412.039; -197.503; -755.289; -386.480
412.329;   74.808;   40.722;  132.501
412.619;  -23.800;  -62.286; -148.485
412.909;  189.597;  639.711;  594.521
413.199;  -29.794; -130.280; -251.495
413.490;  143.395;  521.710;  352.523
413.780; -264.493;-1013.279; -913.496
414.070;   68.911;  -46.276;  235.497
414.360; -159.792; -729.278; -666.498
414.650; -163.302; -726.288; -688.482
414.940; -125.193; -538.280; -441.496
415.230;   50.598;   50.712;   74.519
415.520;   20.017;  155.730;   66.486
415.809;  -27.195; -305.281; -125.493
416.099; -115.590; -388.277; -229.501
416.389;  125.912;  435.726;  236.494
416.679;   41.225;   91.738;   85.473
416.969; -103.801; -527.287; -503.483
417.259;   42.807;  341.721;  171.503
417.549;  123.604;  522.718;  318.508
417.838;  -31.381; -205.268; -147.518
418.128;  149.296;  650.710;  492.522
418.418; -137.386; -491.272; -579.509
418.708;   13.612;    9.726;  -48.506
418.997; -110.088; -474.275; -480.505
419.287; -217.487; -733.273; -790.507
419.577;  -44.497; -160.283; -123.489
419.866; -115.791; -588.277; -498.501
420.156;  -16.583; -242.270;  -55.513
420.446;   -0.276; -112.263;  -26.526
420.735; -111.684; -376.271; -446.512
421.025;  552.408; 1830.722;  315.502
421.314;  -57.584; -203.271; -226.512
421.604;   57.218;   89.732;  233.484
421.893; -208.985; -705.271; -602.511
422.183; -144.776; -487.263; -461.526
422.472;  -32.885;  -36.271; -107.511
422.762;  -84.279; -416.266; -379.521
423.051; -242.289; -916.276; -916.503
423.341; -126.987; -491.273; -439.507
423.630;  -24.178; -121.265;   15.477
423.919;   27.012;   58.725;   49.495
424.209;  -40.676;  -31.263;   56.473
424.498;   45.319;   68.732;  161.483
424.787; -122.880; -535.267; -601.518
425.077;   -1.178;   34.735;   29.478
425.366; -225.075; -734.262; -744.528
425.655;  198.913;  639.727;  259.493
425.945;  -67.759; -313.247; -268.554
426.234;   28.328;  117.741;  300.467
426.523;  -74.772;  -86.259; -350.534
426.812;   35.221;  107.734;  159.480
427.101;   -4.582; -127.269; -323.515
427.390;  -34.783;  -55.270;  -86.514
427.680; -108.769; -624.257; -411.538
427.969;  -70.268; -330.255; -301.540
428.258; -141.070; -385.257; -477.536
428.547;   86.215;  449.728;  397.490
428.836; -130.966; -421.253; -398.543
429.125;  -49.471; -199.259;  -72.534
429.414; -126.563; -330.251; -294.548
429.703;  -73.863; -231.251; -213.548
429.992; -242.763; -938.250; -828.549
430.281; -132.277; -397.264; -331.524
430.570;   -3.164;  -21.252;   32.454
430.859;   78.328;  279.741;  352.466
431.148;  177.440;  636.752;  631.446
431.437;   92.336;  391.748;  367.454
431.725; -139.070; -544.257; -481.536
432.014; -244.365; -845.253; -756.545
432.303;  -69.051; -149.239; -105.569
432.592;  -78.576; -460.263; -178.525
432.881; -148.760; -601.248; -437.554
433.169;  -56.968; -343.255;  -61.540
433.458;  111.053;  445.765;  540.424
433.747;  -83.374; -397.261; -289.529
434.036; -126.254; -275.242; -280.564
434.324; -154.661; -395.249; -379.551
434.613;   13.645;   40.757;  159.437
434.902;   76.448;  333.760;  439.433
435.190;   45.249;   75.761;  295.431
435.479;    1.843;  -52.245;   83.441
435.767; -109.256; -411.244; -427.561
436.056; -103.054; -340.242; -294.563
436.345; -122.952; -372.240; -223.568
436.633;   43.338;   60.750;  383.450
436.922;   76.049;  208.760;  414.432
437.210;  -70.648; -194.236;    1.426
437.499; -181.147; -583.235; -432.576
437.787;  -59.448; -339.236;  -10.574
438.075;  -21.450;   56.761;  162.430
438.364;   -0.550;  -44.238;  250.429
438.652;  -73.637; -286.226; -138.592
438.941;   15.558;    3.770;  269.415
439.229; -174.665; -665.252; -466.545
439.517;  -33.446; -160.234;  -85.577
439.806; -154.036; -501.225; -290.595
440.094;  100.655;  377.766;  650.421
440.382; -135.945; -653.233; -302.580
440.670; -124.447; -361.235; -285.576
440.959; -154.634; -347.223; -170.599
441.247;  -59.440; -151.229; -109.587
441.535;  -43.146; -266.235;   31.423
441.823; -142.345; -497.234; -305.578
442.111;   20.260;  173.771;  327.412
442.400; -148.457; -628.245; -335.559
442.688;  -60.645; -111.234; -620.579
442.976; -247.123; -786.213; -450.617
443.264; -128.935; -324.224; -364.597
443.552;  -61.437; -258.226;   51.408
443.840;  148.454;  602.765;  876.423
444.128;   57.155;  265.767;  269.420
444.416; -187.240; -694.228; -312.588
444.704; -120.730; -465.219;  -92.605
444.992;  -21.237;   -0.226;  240.407
445.280; -107.342; -517.230;  -94.585
445.568; -186.123; -694.212; -396.618
445.856;  -30.532; -174.221;  357.398
446.143; -103.030;  -54.220;   -7.604
446.431;   28.161;  -25.228;  625.411
446.719;  151.672;  489.783;  675.391
447.007;  123.058;  481.769;  705.416
447.295;   97.266;  597.777;  871.402
447.583; -110.041; -464.229;  -34.587
447.870; -147.932; -434.221; -202.601
448.158;  -47.642; -104.230;  129.415
448.446; -193.530; -800.219; -338.604
448.733;   -8.435;   13.776;  269.403
449.021;   16.877;   60.788;  341.382
449.309;  -68.321; -296.210;  208.379
449.596;   68.872;  128.783;   59.392
449.884; -165.733; -571.222; -325.600
450.172; -210.839; -756.227; -406.590
450.459;  160.975;  645.786;  780.387
450.747; -146.228; -411.218; -147.608
451.034;  141.861;  493.772;  889.411
451.322; -143.625; -413.214; -170.614
451.609;   63.566;  292.777;  508.403
451.897; -153.013; -550.203; -183.634
452.184; -181.234; -622.223; -400.598
452.472;   -1.118;   97.792;  269.375
452.759;  171.570;  512.781;  864.395
453.047; -129.223; -407.212; -125.617
453.334; -165.429; -732.219; -216.606
453.621; -175.724; -438.214; -161.615
453.909;   26.786;   13.796;  384.368
454.196; -114.009; -299.199; -123.641
454.483;   56.588;  317.798;  540.364
454.771;  -35.318; -215.208;  196.374
455.058;  -72.618; -316.207;  102.374
455.345;    3.098;   71.807;  344.347
455.632;  -45.717; -128.207;  235.373
455.919;  -65.706;  -82.196;  182.354
456.207; -212.308; -774.198; -450.642
456.494; -157.910; -475.200;  -66.639
456.781; -113.612; -399.202; -198.635
457.068;  -69.516; -253.206;  -29.628
457.355; -180.816; -698.206; -401.629
457.642; -161.616; -552.205; -290.630
457.929; -210.303; -778.194; -417.651
458.216; -186.123; -575.212; -354.617
458.503;  -59.903; -173.193;  -19.652
458.790; -219.518; -864.208; -630.625
459.077;  -11.512;  -77.202;  110.364
459.364;  -91.804; -350.195; -210.649
459.651;   36.383;  -46.206;  220.372
459.938; -251.519; -864.209; -665.623
460.225;   23.689;  132.799;  276.363
460.512; -276.206; -836.197; -688.645
460.799;  -11.028;  -32.218;  320.392
461.086; -124.910; -370.200; -251.640
461.372; -143.708; -509.198; -279.642
461.659;  -26.306; -165.196;  108.354
461.946;  -93.303; -445.193;  -54.651
462.233;  210.290;  842.800;  888.361
462.519; -236.110; -814.201; -464.639
462.806; -229.206; -768.197; -497.645
463.093;  -81.400; -445.191;  -66.656
463.380; -258.996; -920.186; -824.664
463.666;  -31.606; -259.197;  -18.646
463.953; -100.805; -406.195; -243.648
464.239;  -54.305; -173.195;  -77.648
464.526;  102.297;  413.806;  743.350
464.813; -162.599; -565.190; -304.658
465.099;  124.197;  606.807;  607.348
465.386;  217.098;  903.807;  921.348
465.672; -212.306; -694.197; -522.645
465.959; -190.397; -598.188; -520.662
466.245; -137.002; -468.193; -359.652
466.532;  -47.405; -109.195;   63.352
466.818;  -79.996; -357.186; -216.664
467.104; -158.591; -488.182; -415.672
467.391; -184.799; -628.189; -459.658
467.677;  -75.795; -289.186;    9.335
467.964; -180.898; -682.189; -471.660
468.250;  -85.295; -331.186; -160.665
468.536;   -4.399;   90.811;  180.341
468.822; -221.893; -821.184; -574.668
469.109;  106.519;  351.827;  471.311
469.395;  195.799;  729.808;  787.346
469.681;  -14.898;   46.811;  156.341
469.967; -199.498; -699.188; -382.660
470.254;  -90.397; -494.188; -306.662
470.540; -138.806; -601.196; -476.646
470.826; -147.889; -488.181; -397.675
471.112;   37.907;  288.816;  113.331
471.398;  -52.292; -253.183;  -58.670
471.684; -130.486; -626.177; -447.680
471.970; -255.889; -918.180; -981.675
472.256; -147.701; -521.192; -441.654
472.542; -157.080; -499.171; -434.691
472.828; -188.391; -743.182; -607.672
473.114; -130.775; -380.166; -283.700
473.400; -119.284; -504.175; -293.684
473.686; -129.774; -452.166; -400.701
473.972;  -43.282; -230.174; -131.687
474.258; -246.481; -925.173; -843.689
474.544;  -54.787; -183.178;   -2.679
474.830;   18.216;  -65.175;   45.316
475.116;  -74.299; -123.190; -196.658
475.401; -160.589; -558.180; -467.676
475.687; -205.089; -725.180; -718.676
475.973; -198.790; -673.181; -770.673
476.259;  205.316;  736.825;  764.315
476.544; -153.985; -539.176; -437.682
476.830; -149.580; -398.172; -322.690
477.116; -105.585; -430.177; -336.682
477.401;  120.811;  346.820;  358.324
477.687; -120.484; -289.175; -405.684
477.973;    9.910;   21.819;   28.326
478.258; -118.971; -448.163; -348.706
478.544;    2.906;   21.815;   61.334
478.829; -210.779; -818.171; -738.692
479.115; -172.980; -749.172; -651.690
479.401; -135.083; -444.174; -449.686
479.686;  -70.689; -253.180;  -74.676
479.972; -251.786; -886.178; -776.680
480.257;  -55.174; -258.166;  -65.700
480.542; -158.579; -614.170; -469.693
480.828;  341.116; 1288.824; 1392.317
481.113; -152.085; -464.176; -426.683
481.399;  -65.469; -236.161; -202.711
481.684; -165.174; -620.166; -462.700
481.969;  -17.367; -158.159;  -73.713
482.255; -127.477; -439.169; -285.695
482.540; -137.586; -569.178; -441.680
482.825; -172.296; -395.187; -404.663
483.110;  -30.277;  -85.169; -105.696
483.396; -213.264; -840.157; -652.718
483.681;  144.518;  543.826;  730.313
483.966; -207.668; -696.160; -700.712
484.251; -109.982; -404.174; -310.687
484.536; -141.373; -356.165; -378.703
484.822;  -85.682; -205.173; -218.687
485.107; -168.860; -599.152; -502.726
485.392;  156.127;  662.836;  541.296
485.677;   36.424;  354.832;  163.302
485.962;   52.635;  160.843;  270.283
486.247;  -14.170;  -14.162;   -8.707
486.532;  -97.974; -178.166; -325.701
486.817;   80.731;  381.839;  431.291
487.102; -171.562; -453.154; -514.722
487.387; -180.064; -637.156; -652.718
487.672;  -58.972; -154.164;  -38.705
487.957; -111.868; -394.160; -286.711
488.241;  -61.758; -290.150; -314.729
488.526;  -90.360; -280.152; -148.726
488.811; -216.886; -881.177; -818.680
489.096; -219.661; -666.154; -702.723
489.381;  -26.660;    3.847;  162.275
489.666; -127.669; -428.161; -510.710
489.950;  151.739;  558.846;  627.277
490.235; -150.758; -480.151; -458.728
490.520; -188.969; -756.161; -723.710
490.804; -228.264; -827.156; -736.719
491.089; -106.056; -469.149; -299.732
491.374;  -43.472; -132.164;  -75.704
491.658; -216.955; -817.147; -717.735
491.943; -203.059; -657.152; -609.727
492.227;  -40.162; -178.155;  -38.721
492.512; -103.665; -294.157; -341.717
492.797; -244.057; -713.149; -716.731
493.081; -182.254; -588.147; -598.735
493.366; -174.069; -751.161; -635.711
493.650;  224.352;  831.859;  917.254
493.935; -149.355; -648.147; -447.734
494.219; -221.049; -778.142; -687.743
494.503; -184.157; -585.150; -487.730
494.788;  -33.766;   46.842;   74.285
495.072;   79.742;  184.850;  434.271
495.356; -128.456; -463.148; -343.733
495.641; -207.553; -812.146; -736.736
495.925; -266.363; -976.156; -903.719
496.209; -140.256; -599.149; -451.732
496.494; -225.849; -763.142; -544.744
496.778;  -82.162; -364.154; -360.722
497.062; -212.563; -819.156; -627.719
497.346; -226.968; -869.160; -640.711
497.631;  126.945;  580.852;  560.266
497.915;   -4.352;  -64.145;  175.261
498.199; -142.164; -341.157; -277.718
498.483; -132.760; -562.152; -508.725
498.767;   75.943;  301.850;  300.271
499.051;  -43.456; -126.149; -100.732
499.335; -185.456; -693.149; -739.731
499.619; -131.036; -381.129; -423.767
499.903;  -68.362; -272.155;  -65.721
500.187; -124.361; -588.153; -316.724
500.471; -244.559; -796.152; -595.727
500.755;  -17.369;   62.839;  -96.710
501.039; -105.962; -270.155; -357.721
501.323;   15.152;  -21.141;  264.254
501.607; -102.671; -447.163; -503.706
501.891; -152.264; -607.156; -512.718
502.174; -177.651; -726.144; -585.741
502.458;   41.341;   89.849;  370.273
502.742;  -34.245; -180.138; -191.751
503.026;  -94.255; -412.147; -254.734
503.310; -115.467; -437.159; -375.713
503.593;  -91.754; -464.147; -325.735
503.877;  -72.040; -232.133; -156.760
504.161;  -31.261;    2.847;  -50.724
504.444; -221.165; -841.158; -710.716
504.728; -167.772; -487.164; -522.704
505.012;  -71.458; -257.150;  -76.729
505.295;  -96.769; -417.161; -212.711
505.579;  -71.063; -256.156; -496.719
505.862; -124.453; -555.145; -333.738
506.146; -186.067; -681.159; -758.714
506.429;  115.833;  568.841;  461.286
506.713; -205.658; -732.151; -667.728
506.996;    9.138;   90.846;  295.278
507.280; -143.773; -633.165; -474.703
507.563;  -94.963; -469.155; -261.721
507.847; -156.261; -423.153; -112.724
508.130; -152.368; -665.161; -456.711
508.413; -179.175; -758.167; -577.700
508.697;  -16.675; -151.167;   12.300
508.980; -106.161; -422.153; -312.724
509.263; -112.863; -466.155; -450.720
509.547;  -72.758; -124.150;   82.271
509.830;  -19.968; -172.160;  140.289
510.113;   31.037;  128.844;  298.281
510.396; -125.660; -530.152; -300.725
510.680; -264.952; -818.145; -812.738
510.963;    0.039;  184.846;  180.277
511.246; -130.957; -493.150; -357.730
511.529; -103.252; -482.145;  -83.739
511.812;  -44.840; -250.134;   10.241
512.095; -194.659; -740.151; -396.728
512.378;  -94.054; -317.147; -245.736
512.661; -204.344; -703.137; -623.753
512.944; -220.149; -750.142; -637.744
513.227;  -73.244; -170.137; -171.752
513.510; -160.151; -479.144; -671.741
513.793; -167.947; -485.140; -435.747
514.076;  -58.733;  -43.127;  -39.771
514.359;  -62.656; -294.149; -135.732
514.642; -155.149; -442.142; -567.744
514.925;  147.953;  581.860;  561.253
515.208; -131.341; -498.134; -443.758
515.491;  -89.339; -276.133; -182.761
515.773; -149.850; -410.143; -337.742
516.056;   85.957;  249.864;  409.246
516.339; -244.843; -754.136; -652.755
516.622; -160.557; -518.150; -488.730
516.904;  241.250;  882.857;  975.257
517.187; -196.444; -730.138; -523.752
517.470; -169.050; -568.143; -510.743
517.752; -156.742; -624.136; -470.756
518.035; -228.646; -708.139; -725.749
518.318; -271.543; -799.136; -744.755
518.600; -103.339; -300.132; -325.762
518.883;   53.051;  310.858;   88.256
519.165; -183.245; -585.138; -426.751
519.448;  -39.839;  -61.132;  -19.762
519.730; -173.332; -573.126; -415.773
520.013;  160.360;  588.867;  664.240
520.295;  -46.240;  -94.134;  -15.759
520.578; -101.937; -335.131; -305.764
520.860;  -62.539; -254.132;   56.238
521.143; -215.742; -763.135; -584.756
521.425;  -79.831; -251.125; -279.775
521.707; -134.233; -622.127; -380.771
521.990;  -51.933; -199.127;  167.229
522.272;  -55.347; -116.140;   -4.748
522.554;  -89.850; -237.143; -157.742
522.836;  -77.540;  -24.134;   99.241
523.119; -122.655; -496.148; -189.734
523.401; -110.836; -448.130; -314.766
523.683; -255.044; -865.137; -693.753
523.965;   47.755;  408.862;  260.248
524.247;  -23.128;   54.878;  170.220
524.529; -129.340; -451.134; -367.759
524.812;  -32.736;   -3.130;  191.234
525.094; -248.945; -773.138; -631.751
525.376;  -44.230; -143.124;   78.223
525.658; -131.343; -441.136; -339.754
525.940; -252.738; -805.131; -671.764
526.222;  -94.043; -188.136;  -88.755
526.504;  -95.938; -190.131;   32.237
526.786; -240.040; -960.133; -647.760
527.068;  -91.429; -124.123;  -67.778
527.349; -243.743; -865.137; -774.754
527.631;  -44.239; -137.132;   22.238
527.913; -194.533; -664.127; -450.771
528.195; -251.132; -761.125; -639.774
528.477;  -56.941;  -93.134;  -30.758
528.759; -200.336; -648.130; -522.766
529.040; -179.829; -569.123; -293.778
529.322;  -89.031; -235.125;  -10.774
529.604;  -30.036;  -47.130;   93.233
529.886; -151.632; -546.126; -302.773
530.167;   18.763;  232.870;  192.235
530.449;  -23.054;    1.853;   63.265
530.731; -159.928; -572.122; -459.779
531.012; -144.826; -513.120; -216.784
531.294;  -41.021; -118.116;  -43.792
531.575;   73.769;  290.875;  538.225
531.857; -159.041; -548.135; -266.757
532.138;  -68.348; -113.141;   40.254
532.420;   49.958;  294.865;  403.244
532.701; -225.940; -722.133; -751.760
532.983;   61.061;  232.867;  182.239
533.264;  -49.333; -243.126;  175.228
533.546; -126.443; -491.136; -508.755
533.827;   -8.740;  173.867;   -1.759
534.109; -119.541; -352.135;  -80.757
534.390; -249.938; -725.132; -582.762
534.671;  -73.142; -270.135;  -82.756
534.953; -234.129; -751.123; -611.779
535.234; -158.923; -426.117; -255.789
535.515; -265.025; -891.119; -735.785
535.796; -130.334; -431.128; -193.770
536.078; -306.730;-1050.124; -904.777
536.359;  -43.029;  -22.123;    3.221
536.640; -158.131; -480.125; -197.774
536.921;   10.265;  225.871;  143.232
537.202;  -72.345;  -87.138;  -16.751
537.483;   38.163;  251.869;  377.236
537.764;  -27.437;   17.870;   98.235
538.045; -145.241; -543.134; -371.758
538.326; -185.435; -596.129; -447.768
538.607; -208.633; -686.127; -476.771
538.888;  -53.827;   98.879;    5.218
539.169; -205.028; -704.122; -535.781
539.450;   22.565;  236.871;   16.233
539.731; -111.127; -361.121; -182.783
540.012;  -17.126;  199.880;  412.216
540.293;  -24.630;   82.876;  158.224
540.574; -289.619; -895.113; -717.796
540.855;   53.573;  435.879;  377.218
541.136;   -0.528;   47.878;  139.220
541.416; -113.636; -161.130; -220.766
541.697; -125.838; -274.131; -170.763
541.978; -103.842; -270.135; -315.757
542.259; -141.733; -211.127; -236.771
542.539;  -93.822; -191.116; -186.790
542.820;   83.869;  461.875;  480.225
543.101;  -53.852;  -52.145;  -77.738
543.381; -264.233; -638.127; -591.771
543.662;  -13.133;  159.873; -254.771
543.942; -271.234; -751.127; -830.770
544.223;   12.072;  193.878;  161.219
544.504; -117.130; -275.124; -182.777
544.784; -179.232; -592.126; -408.773
545.065; -136.922;  104.884; -254.791
545.345;  -30.625;  227.881;   14.215
545.626;  -37.919;  -14.113; -108.796
545.906;  -31.537;   77.869;   98.235
546.186; -123.232;   92.874;  -95.773
546.467;  -73.230;   99.877;  -95.778
546.747;   52.578;  264.884;  327.210
547.027;  -12.930;   91.876;  111.223
547.308; -180.034; -376.127; -530.770
547.588;   10.965;  299.871;  371.232
547.868;   55.663;  458.870;  588.235
548.149;  134.679;  609.885;  593.207
548.429; -112.033; -347.127; -299.771
548.709; -181.826; -645.120; -461.784
548.989;  -16.224;   84.882;   88.213
549.269;  -77.339;   10.868;  139.239
549.550;  -27.529;  215.877;  117.222
549.830; -225.617; -758.111; -556.799
550.110; -149.516; -468.110; -320.801
550.390;  -61.728; -128.122;  -56.779
550.670; -276.519; -868.114; -783.795
550.950; -195.427; -509.121; -471.782
551.230;  121.873;  549.879;  460.218
551.510; -147.927; -381.121; -326.782
551.790;  -73.815; -173.109; -127.803
552.070;  237.770;  940.877; 1181.223
552.350; -142.724; -492.119; -377.786
552.630;  -23.727;   -2.121;   77.219
552.909;  -35.021;  181.884;   73.209
553.189;  -49.938;  -49.132;   33.237
553.469; -189.324; -703.119; -514.786
553.749; -202.233; -469.127; -357.772
554.029;  -38.123;   33.883;  -24.790
554.308;  -59.720; -154.115;  -37.794
554.588; -126.134; -196.128; -204.770
554.868;  -82.127; -366.121;  -47.782
555.147;  -91.021; -114.115;  -46.793
555.427; -116.121; -260.116; -250.792
555.707; -109.221; -284.115; -200.793
555.986; -248.416; -719.111; -538.800
556.266;  -17.322;   23.884;   72.210
556.546; -236.427; -888.121; -675.782
556.825; -248.620; -657.114; -556.794
557.105;  -44.134; -125.128;   17.230
557.384;  -24.722;  122.884;  187.209
557.664; -213.221; -717.116; -508.792
557.943; -186.127; -557.121; -411.782
558.222; -138.723; -345.118; -344.788
558.502;  -93.720; -116.115;  -76.793
558.781;   39.479;  194.885;  499.208
559.061; -110.323; -232.118; -227.788
559.340;   38.777;  302.883;  353.211
559.619;   -6.322;   93.884;  148.210
559.899; -115.623; -239.117; -266.789
560.178; -230.720; -778.115; -593.793
560.457; -219.822; -623.117; -562.790
560.736; -185.216; -472.111; -482.800
561.015; -187.634; -500.128; -502.769
561.295;  -27.213;  180.893;  215.193
561.574;  -27.221;  119.885;  116.207
561.853;   27.386;  274.891;  303.197
562.132;  -21.020;  -45.114;  182.206
562.411;   91.073;  396.879;  553.219
562.690; -176.421; -592.115; -458.792
562.969;  115.082;  472.888;  630.203
563.248;  693.372; 2966.878; 2487.219
563.527; -141.616; -290.111; -408.800
563.806; -209.033; -650.127; -521.771
564.085;  -97.311; -297.105; -206.810
564.364; -197.422; -594.117; -405.790
564.643; -123.827; -276.121; -223.781
564.922;   38.585;  221.890;  397.198
565.201; -218.315; -640.109; -700.803
565.479;  -82.121; -297.115; -219.792
565.758; -241.134; -810.128; -712.770
566.037;  -89.715; -155.109; -100.803
566.316;  -98.422; -286.116;  -28.791
566.595;  -50.521;  -17.115;  -12.793
566.873;  102.484; -166.111;  -79.801
567.152; -179.518; -490.113; -590.797
567.431;  -29.922; -113.116;    6.210
567.709;  -88.813; -344.107; -212.807
567.988; -276.720; -810.114; -769.794
568.266; -130.621; -160.115;  -68.793
568.545; -204.205; -644.100; -514.819
568.824;   67.779;  160.885;  356.208
569.102; -113.220; -351.114; -235.794
569.381; -179.321; -492.116; -407.792
569.659; -206.719; -553.113; -553.796
569.938; -223.728; -743.122; -465.780
570.216; -136.414; -225.109; -225.804
570.494; -191.619; -632.114; -572.795
570.773;   18.073;  202.879;  114.218
571.051; -131.729; -373.123; -357.778
571.330; -105.019; -221.113; -174.796
571.608;  -92.103; -181.098; -173.823
571.886; -222.817; -671.111; -581.799
572.164; -247.627; -739.121; -621.782
572.443; -167.810; -562.105; -512.811
572.721; -153.422; -399.117; -289.790
572.999; -130.723; -280.117; -168.788
573.277;   94.289;  379.894;  620.191
573.555;  -51.511;   94.894;   37.190
573.834;  -87.523;  -86.117; -114.788
574.112;  169.688;  880.893;  811.193
574.390;  -37.116; -143.111;  -96.801
574.668; -104.318;  -91.112;  -61.797
574.946;  -83.111; -165.106; -187.810
575.224;  -48.515;   71.891;  -16.803
575.502;  -86.522; -200.116; -204.791
575.780; -236.618; -767.112; -829.798
576.058;  430.884; 1589.889; 1004.200
576.336; -104.016; -210.110; -129.801
576.614; -137.518; -511.112; -340.798
576.891; -252.520; -711.115; -823.794
577.169; -103.513; -158.108; -285.805
577.447;  -11.712;  169.893;  202.193
577.725;  168.983;  629.888;  854.201
578.003; -112.418;  -71.112; -371.798
578.280;  -75.409; -208.104; -242.812
578.558; -185.020; -450.115; -422.793
578.836;  -79.019; -210.114; -145.795
579.114; -195.418; -630.112; -670.797
579.391;  -47.123;   -6.117;  -18.789
579.669; -234.020; -595.114; -704.794
579.947;  -73.413; -326.107; -127.806
580.224; -212.313; -692.107; -524.806
580.502;  -29.412;  127.893;   76.193
580.779;  -43.122;  -42.117;   75.210
581.057; -170.614; -584.109; -470.804
581.334; -225.907; -726.102; -695.815
581.612;   43.189;   54.895;  511.190
581.889; -106.006;  -83.101; -129.818
582.167;  -98.404; -298.099; -190.821
582.444; -243.207; -845.102; -814.817
582.721;  157.694;  657.899;  715.183
582.999;  -68.304; -326.100; -167.821
583.276; -251.129; -812.123; -713.779
583.553; -111.707; -364.102; -294.816
583.831; -224.310; -607.104; -631.812
584.108;    3.386;  349.892;  174.195
584.385;  -88.108; -122.102;  -98.815
584.662; -246.916; -651.111; -828.801
584.940;   11.384;  204.889;  204.199
585.217; -103.119;  -73.113; -303.796
585.494;   32.685;   71.890;  118.198
585.771; -160.714; -250.109; -354.804
586.048;  -87.419; -196.113;  -76.796
586.325; -251.716; -721.110; -773.801
586.602;   32.191;  230.896;  213.188
586.879; -212.005; -499.100; -580.820
587.156;  -85.911; -156.105; -331.810
587.433; -226.807; -701.102; -667.817
587.710;  -27.918;  152.888;  234.202
587.987; -129.310; -264.105; -236.811
588.264;   37.282;  315.888;  387.202
588.541;  -63.709;  -61.104;   26.187
588.818;  -37.514;   72.892;  171.196
589.095;  -87.409; -163.104; -174.812
589.371; -181.914; -459.109; -414.804
589.648; -187.912; -581.107; -437.807
589.925; -204.019; -517.114; -621.795
590.202; -231.618; -741.112; -607.798
590.478;  -86.410; -166.105;  -73.811
590.755; -105.313; -241.108; -132.806
591.032; -190.415; -741.110; -699.802
591.308; -238.498; -732.094; -790.831
591.585; -175.415; -573.110; -560.802
591.862; -294.207;-1056.102; -950.817
592.138; -163.513; -475.108; -474.805
592.415; -187.109; -486.104; -495.813
592.691;   92.691;  460.896;  518.188
592.968; -116.903; -208.098; -123.824
593.244; -218.022; -695.116; -595.790
593.521;  -78.507; -105.102;  -42.817
593.797; -266.528; -810.122; -720.780
594.074; -242.101; -611.096; -588.826
594.350;  180.700;  828.905;  729.172
594.626;  -87.716; -303.111; -283.801
594.903; -197.406; -643.101; -645.817
595.179;   50.391;  243.896;  418.187
595.455;  -62.612; -136.107; -150.807
595.731;  -45.908;  -19.103;  -38.814
596.008; -154.417; -464.111; -434.800
596.284; -137.405; -187.100; -242.820
596.560; -162.097; -501.093; -493.833
596.836; -104.610; -173.105;  -70.810
597.112; -149.213; -582.108; -437.805
597.388;  -87.601;  -49.097;  -48.826
597.665;   65.282;  437.887;  530.203
597.941; -221.094; -572.089; -658.839
598.217; -111.215; -323.110; -293.802
598.493; -127.614;   61.891; -204.804
598.769;  -86.105; -175.100;  -50.819
599.045; -189.713; -490.108; -562.806
599.321;  -81.305; -193.100; -261.820
599.597; -170.114; -355.109; -476.804
599.872;   98.591;  409.896;  429.187
600.148;  -80.201;  -61.097; -172.826
600.424;   26.588;   91.893;  202.193
600.700;  -98.312; -170.107; -280.807
600.976; -161.902; -442.097; -464.825
601.252; -100.814; -226.109; -272.803
601.527; -269.109; -833.104; -840.813
601.803; -158.410; -453.105; -404.812
602.079;  -66.805; -124.100; -118.819
602.354; -196.496; -620.092; -531.835
602.630; -117.019; -140.113; -482.796
602.906; -242.706; -910.101; -863.818
603.181; -169.624; -627.119; -534.786
603.457;  -74.202;   98.903; -278.826
603.733; -226.926; -605.120; -626.783
604.008; -106.411; -245.106; -164.810
604.284; -193.606; -636.101; -580.817
604.559;  -39.617;   -3.112;  -42.799
604.835; -105.410; -163.105; -225.810
605.110; -251.604; -732.099; -892.821
605.385;   66.103;  224.907;  267.167
605.661; -228.900; -625.095; -729.829
605.936; -203.713; -664.108; -737.806
606.211;  -55.208;  -17.103; -170.815
606.487; -141.320; -329.114; -376.794
606.762; -265.224; -791.119; -745.786
607.037; -119.910; -501.105; -433.810
607.313; -189.100; -589.096; -574.828
607.588;  -79.211; -375.106; -137.810
607.863;  -74.206;  -28.101; -143.818
608.138;   94.185;  513.890;  516.198
608.413; -204.704; -576.099; -592.822
608.688; -107.413; -203.108; -267.805
608.964; -122.811; -509.106; -218.809
609.239;  -62.711; -107.105; -212.810
609.514;   10.290;  281.895;  240.188
609.789; -227.609; -187.104; -716.812
610.064; -198.301; -435.096; -609.827
610.339; -250.214; -855.109; -799.804
610.614; -103.005; -131.100; -315.820
610.889;   19.190;  215.895;  107.188
611.163; -166.310; -407.104; -591.812
611.438; -108.520;   81.886; -167.794
611.713; -213.406; -467.101; -499.817
611.988; -102.506; -144.101; -328.818
612.263; -234.807; -771.102; -717.815
612.538;   78.781;  385.887;  251.204
612.812; -293.605; -832.100; -911.820
613.087; -142.703; -358.098; -338.823
613.362; -240.112; -497.107; -557.807
613.637;   40.192;  261.897;  138.186
613.911; -115.996; -256.092; -345.835
614.186; -107.312; -249.107; -292.807
614.460; -268.985; -842.081; -758.854
614.735;  -58.391;  -55.087;  -17.843
615.010;  -55.692;   43.912;  -82.841
615.284;   44.587;  360.892;  246.195
615.559; -258.596; -792.092; -955.835
615.833;  -45.004;  -76.099;  -87.822
616.108; -129.695; -225.090; -390.837
616.382;   66.109;  274.913;  402.156
616.656; -104.295; -241.090; -232.837
616.931; -240.904; -785.099; -700.822
617.205; -310.009; -973.104; -979.813
617.480;  -43.331;  -91.125;    6.225
617.754; -140.131; -396.125; -128.774
618.028; -142.435; -369.129; -382.768
618.302;  -33.414;   73.892;  -25.805
618.577; -180.008; -371.103; -518.815
618.851; -180.215; -399.109; -600.803
619.125; -117.940; -335.134; -378.759
619.399; -101.809; -244.104; -374.813
619.673; -138.021; -330.115; -515.792
619.947; -153.419; -333.114; -448.795
620.222;  -92.216; -198.110; -204.801
620.496;  -55.727;  -47.121;  -96.782
620.770;  -80.628; -187.122;  -93.781
621.044;   36.689;  323.895;  346.190
621.318; -214.226; -653.120; -614.783
621.592; -129.327; -430.121; -409.783
621.866; -156.917; -476.112; -572.799
622.140;  -99.222; -207.116; -356.791
622.413;   -6.117;  138.889;  112.200
622.687; -180.006; -746.101; -492.817
622.961;  -20.414; -130.108; -143.805
623.235; -225.217; -633.111; -661.800
623.509; -279.410; -816.105; -848.811
623.783;   -7.713;  -12.107;   48.193
624.056;  -68.226; -254.120; -280.783
624.330;    9.982;   63.888;   -3.797
624.604;  -72.122; -271.116; -355.790
624.877;    2.485;  180.890;   26.198
625.151;  -74.320; -249.114; -238.794
625.425; -111.708; -150.103; -283.814
625.698; -141.825; -367.119; -374.785
625.972; -232.615; -799.110; -765.802
626.245;  112.378;  685.884;  484.210
626.519; -135.226; -426.120; -340.784
626.792;  -97.212; -192.107; -380.807
627.066; -219.229; -485.122; -662.779
627.339; -216.716; -736.110; -663.802
627.613;   25.174;  351.880;  148.216
627.886;   44.785;  187.891; -612.803
628.160;  -83.526;  312.880; -161.783
628.433; -213.831; -695.125; -703.775
628.706; -177.426; -517.120; -615.784
628.979;   43.570;  296.876;  117.223
629.253; -267.625; -785.119; -833.786
629.526;  -95.233; -334.126; -253.772
629.799; -209.029; -641.123; -479.778
630.072; -166.235; -497.128; -516.769
630.346; -346.322;-1115.116;-1080.790
630.619; -177.412; -467.107; -545.808
630.892;  125.184;  709.889;  593.200
631.165;  155.091;  790.896;  679.187
631.438; -338.518;-1092.112;-1055.798
631.711;   79.671;  453.877;  257.221
631.984; -167.823; -523.117; -624.789
632.257; -184.723; -636.117; -681.789
632.530; -142.925; -412.119; -433.785
632.803;   20.180; -109.115;    7.207
633.076; -152.330; -360.123; -422.777
633.349;    7.266;  173.872;  121.231
633.622; -109.325; -187.119; -240.785
633.895; -270.026; -903.120; -823.783
634.167; -152.932; -496.126; -525.773
634.440;  -26.821;  -19.116; -137.792
634.713;  -46.725;  -22.119; -120.786
634.986;  142.665;  593.871;  453.233
635.258; -185.720; -507.115; -597.793
635.531;  164.377;  742.882; -343.788
635.804; -126.123; -303.117; -318.789
636.077; -246.622; -830.116; -852.791
636.349; -206.421; -586.115; -474.793
636.622;  455.967; 1695.874; 1392.228
636.894; -161.126; -474.120; -909.784
637.167; -252.633; -836.127; -789.771
637.439;  -45.234; -278.128; -213.770
637.712; -125.133; -312.126; -293.772
637.984; -226.222; -635.116; -707.791
638.257;  115.171;  515.877;  488.222
638.529; -283.131; -881.125; -924.776
638.802; -153.035; -508.128; -449.769
639.074; -289.728; -927.122; -952.781
639.346; -272.241; -942.135; -930.757
639.619;  -26.849;  -79.142; -319.744
639.891;  -69.129;  -83.122; -168.779
640.163; -238.528; -689.122; -756.780
640.435;    7.872;  273.878;  103.220
640.708;  -37.428;  -72.122; -132.780
640.980; -143.628; -366.122; -362.781
641.252;  -33.427;  -25.121;  -71.781
641.524;  125.673;  580.879;  573.219
641.796; -303.527;-1094.121; -907.782
642.068;  -89.327; -191.121; -300.782
642.340; -172.927; -486.121; -566.783
642.613;   64.874;  294.880;  323.217
642.885; -252.426; -787.120; -878.783
643.157; -214.626; -810.120; -658.784
643.428;   30.274;  170.880;  218.216
643.700; -126.225; -498.120; -425.784
643.972;  -60.725;  -16.119; -133.785
644.244; -178.425; -474.119; -559.785
644.516;  -72.925; -250.119; -114.786
644.788;  142.775;  662.881;  548.214
645.060;  -15.424;  -12.119; -124.786
645.332; -203.724; -525.118; -535.787
645.603;   64.276;  479.882;  342.213
645.875; -138.024; -334.118; -369.787
646.147;  309.976; 1487.882; 1242.212
646.418; -299.723; -931.117; -918.788
646.690; -208.223; -714.117; -715.789
646.962; -140.923; -413.117; -451.789
647.233;  -27.423;   15.883;   11.211
647.505; -183.922; -595.117; -475.790
647.776;   50.178;  328.884;  229.210
648.048;  -86.322; -248.116; -418.790
648.320; -257.722; -752.116; -679.791
648.591; -273.422;-1055.116; -958.791
648.862; -168.421; -505.116; -577.792
649.134;   14.279;  115.885;  198.208
649.405; -228.121; -661.115; -618.792
649.677; -165.621; -475.115; -598.793
649.948;  -89.020; -181.115; -296.793
650.219;  -18.320;  -37.115; -147.793
650.491; -128.820; -431.114; -520.794
650.762; -256.720; -705.114; -731.794
651.033; -167.520; -437.114; -424.795
651.304; -241.019; -743.114; -728.795
651.576; -203.019; -680.114; -645.795
651.847;  -37.619; -250.113; -140.796
652.118;  -50.019;  -32.113; -189.796
652.389; -182.618; -639.113; -722.796
652.660;  -50.318; -147.113;  -89.797
652.931; -263.718; -897.112; -871.797
653.202; -146.418; -382.112; -541.798
653.473; -202.118; -633.112; -533.798
653.744; -168.817; -595.112; -590.798
654.015; -112.517; -356.112; -303.799
654.286; -182.117; -642.111; -663.799
654.557; -196.217; -586.111; -521.799
654.828; -353.217;-1114.111;-1088.800
655.099; -133.416; -404.111; -291.800
655.370; -158.016; -427.111; -543.801
655.641; -237.216; -656.110; -714.801
655.911; -209.016; -618.110; -638.801
656.182;   95.985;  437.890;  387.198
656.453;  164.685;  830.890;  746.198
656.724; -136.315; -466.110; -426.802
656.994; -164.115; -553.109; -568.803
657.265; -222.215; -862.109; -873.803
657.536; -175.014; -500.109; -377.804
657.806; -197.314; -561.109; -593.804
658.077; -263.514; -866.109; -950.804
658.347; -136.414; -523.108; -598.805
658.618; -228.213; -646.108; -694.805
658.888;  -31.513;  -41.108;  112.195
659.159; -152.113; -432.108; -548.806
659.429; -117.413; -292.108; -349.806
659.700; -131.213; -435.107; -390.807
659.970; -114.712; -370.107; -359.807
660.241; -242.512; -754.107; -921.807
660.511;  -49.812; -147.107; -174.808
660.781; -220.812; -793.106; -748.808
661.052; -111.712; -222.106; -381.808
661.322;  -29.711;   21.894;   -9.809
661.592;   60.789;  257.894;  148.191
661.862; -133.311; -369.106; -382.810
662.133; -180.811; -551.105; -502.810
662.403; -242.410; -770.105; -676.810
662.673;  -81.110; -256.105; -213.811
662.943; -198.010; -612.105; -551.811
663.213;  -51.110;  -85.105;  -81.811
663.483; -163.810; -593.104; -568.812
663.753;  -76.209; -194.104; -152.812
664.023;    0.791;   68.896;  -32.813
664.293;  -92.009; -319.104; -126.813
664.563; -194.809; -694.104; -648.813
664.833; -220.208; -743.103; -608.814
665.103; -258.608; -730.103; -793.814
665.373; -239.408; -766.103; -806.814
665.643; -283.808; -863.103; -918.815
665.913; -201.608; -534.103; -714.815
666.182; -227.807; -685.102; -719.816
666.452;  -60.007;  -22.102;  -89.816
666.722; -233.207; -724.102; -784.816
666.992; -270.607; -948.102; -921.817
667.261; -258.606; -824.102; -808.817
667.531;  -34.606;  134.899;   45.183
667.801; -140.706; -440.101; -412.818
668.070;  188.894;  714.899;  697.182
668.340; -247.906; -883.101; -840.819
668.609;  119.395;  588.900;  301.181
668.879; -206.905; -490.100; -558.819
669.149; -169.905; -539.100; -516.820
669.418; -226.405; -698.100; -726.820
669.688; -184.205; -482.100; -666.820
669.957; -196.804; -423.099; -546.821
670.226; -103.604; -268.099; -331.821
670.496; -186.704; -431.099; -635.822
670.765; -140.004; -418.099; -501.822
671.034; -258.503; -872.099; -828.822
671.304;  -30.003;   55.902; -111.823
671.573; -316.903;-1085.098; -957.823
671.842; -129.603; -380.098; -294.823
672.112; -193.503; -692.098; -586.824
672.381;  -56.602; -239.098; -214.824
672.650; -306.302;-1005.097;-1021.825
672.919; -183.402; -631.097; -507.825
673.188; -238.102; -681.097; -878.825
673.457; -332.401;-1101.097;-1143.826
673.726; -184.601; -579.096; -646.826
673.995; -137.501; -533.096; -479.826
674.265; -137.001; -263.096; -333.827
674.534;  -96.301; -183.096; -235.827
674.802; -189.500; -618.096; -703.828
675.071; -234.200; -886.095; -801.828
675.340; -166.500; -464.095; -339.828
675.609;   15.100;  103.905;   82.171
675.878; -262.600; -949.095; -893.829
676.147;  -47.199;  -26.095;   -8.829
676.416; -120.599; -210.094; -294.830
676.685;  318.201; 1000.906; -622.830
676.953; -183.599; -603.094; -452.831
677.222;  -95.698; -193.094; -273.831
677.491;  -34.598;  -24.094; -127.831
677.759;  -26.498;   11.907;  172.168
678.028; -106.198; -279.093; -222.832
678.297;  -34.898;   71.907;  197.168
678.565; -278.197; -898.093; -944.833
678.834;  -91.297; -311.093; -268.833
679.102; -129.797; -411.092; -391.834
679.371; -252.697; -898.092; -727.834
679.639; -267.896; -797.092; -786.834
679.908; -214.196; -794.092; -724.835
680.176; -299.096; -895.091; -941.835
680.445;  -87.296; -346.091; -352.835
680.713;  -13.496;  -58.091;  -23.836
680.982; -177.195; -523.091; -525.836
681.250; -184.695; -578.091; -507.837
681.518; -175.995; -534.090; -751.837
681.787;  -72.495; -204.090; -167.837
682.055; -147.894; -490.090; -422.838
682.323; -312.994; -993.090; -992.838
682.591;  -73.594; -216.090; -538.838
682.859;  -63.094;    9.911;  -35.839
683.128;    4.906;  232.911;  497.161
683.396; -324.893;-1102.089;-1122.840
683.664;  -47.093; -241.089;   21.160
683.932;   23.207;  144.911;  -76.840
684.200; -164.693; -576.088; -320.841
684.468;  -50.193;  -73.088; -124.841
684.736;  -49.292; -214.088; -175.841
685.004; -291.992;-1024.088; -982.842
685.272; -231.892; -880.088; -774.842
685.540; -202.092; -499.087; -557.843
685.808; -194.591; -651.087; -682.843
686.076; -281.891; -894.087; -969.843
686.343; -207.991; -601.087; -815.844
686.611;  -56.391; -195.087; -224.844
686.879; -161.491; -530.086; -553.844
687.147; -159.090; -483.086; -480.845
687.414;  -53.890;  -12.086; -169.845
687.682; -202.190; -658.086; -757.846
687.950;   83.810;  259.915;  263.154
688.217; -259.489; -792.085; -760.846
688.485; -176.089; -632.085; -636.847
688.753;  -78.889;  -11.085; -102.847
689.020; -267.089; -820.085; -851.847
689.288; -240.589; -853.084; -787.848
689.555;  -62.188; -195.084; -148.848
689.823;  -93.388; -241.084; -345.849
690.090; -178.988; -546.084; -651.849
690.358; -302.988; -877.084; -897.849
690.625;    9.912;  120.917;   45.150
690.892; -151.387; -403.083; -369.850
691.160;  -32.887;   72.917;  -35.850
691.427;   -1.087;  141.917;  130.149
691.694; -257.987; -855.083; -929.851
691.962; -337.086;-1177.082;-1060.852
692.229;  -13.886;  127.918;   56.148
692.496;   -7.086;  130.918;  -49.852
692.763;  -81.586; -164.082; -201.853
693.031; -209.586; -739.082; -716.853
693.298; -180.085; -509.081; -368.853
693.565;  -69.785; -155.081; -163.854
693.832;   -9.885;   -5.081;   -9.854
694.099; -190.685; -643.081; -642.855
694.366; -280.884; -882.081; -896.855
694.633; -269.584; -920.080; -633.855
694.900; 1272.816; 4367.920; -114.856
695.167;  -73.784; -214.080; -380.856
695.434; -181.484; -646.080; -623.856
695.701;    8.017;  121.921;  -61.857
695.968; -161.983; -365.079; -361.857
696.234; -184.083; -415.079; -646.858
696.501; -200.883; -776.079; -614.858
696.768; -215.482; -554.079; -617.858
697.035; -199.082; -632.078; -667.859
697.302; -193.482; -448.078; -552.859
697.568; -141.782; -458.078; -497.859
697.835; -227.682; -683.078; -624.860
698.102; -166.381; -498.078; -407.860
698.368;   67.419;  384.923;  396.139
698.635; -117.681;  -47.077; -424.861
698.901; -109.781; -240.077; -348.861
699.168; -145.181; -534.077; -456.862
699.435;  -58.480;  -72.077;  -13.862
699.701; -313.480; -868.076; -764.862
699.968; -175.680;  144.924; -441.863
700.234; -246.280; -783.076; -822.863
700.500; -149.579; -448.076; -539.864
700.767;  -38.679;   -1.075;   26.136
701.033; -323.579;-1015.075; -963.864
701.299; -120.679; -450.075; -483.865
701.566;  200.321;  950.925;  763.135
701.832;  -16.778;  -31.075;  -76.865
702.098; -285.278;-1054.074;-1034.866
702.365; -308.878;-1098.074;-1030.866
702.631; -314.178;-1038.074;-1063.867
702.897; -212.377; -765.074; -676.867
703.163;   40.923;  348.926;  254.133
703.429;  -88.077; -256.073; -273.868
703.695; -221.477; -796.073; -792.868
703.961;  -46.877; -214.073; -210.868
704.227; -196.076; -630.073; -725.869
704.493;  157.224;  613.927;  510.131
704.759; -168.276; -565.072; -540.870
705.025;  -62.976; -203.072; -194.870
705.291; -180.876; -666.072; -562.870
705.557;  214.725;  719.928;   34.129
705.823; -207.575; -742.072; -694.871
706.089; -137.175; -307.071; -326.871
706.355;  -97.575; -315.071; -244.872
706.620; -245.174; -776.071; -729.872
706.886; -112.374; -309.071; -362.873
707.152; -242.074; -818.070; -973.873
707.418; -379.474;-1153.070;-1186.873
707.683; -175.374; -550.070; -530.874
707.949; -178.673; -547.070; -578.874
708.215;  -99.373; -129.070; -207.874
708.480; -142.473; -520.069; -420.875
708.746;   -3.073;   68.931;   28.125
709.011; -178.672; -578.069; -612.876
709.277; -185.272; -538.069; -543.876
709.542; -137.572; -428.069; -387.876
709.808;  -15.972;  -59.068;   89.123
710.073; -195.872; -577.068; -695.877
710.339;  -78.071; -242.068; -228.877
710.604; -247.871; -780.068; -845.878
710.869; -116.671; -277.068; -366.878
711.135; -224.171; -715.067; -628.879
711.400; -173.570; -507.067; -608.879
711.665; -146.270; -404.067; -479.879
711.931; -212.470; -661.067; -677.880
712.196; -263.370; -876.067; -954.880
712.461; -160.170; -402.066; -490.880
712.726; -234.669; -727.066; -771.881
712.991; -192.669; -647.066; -664.881
713.256; -107.769; -350.066; -332.882
713.521; -145.369; -417.065; -381.882
713.787; -139.669; -454.065; -472.882
714.052;  -97.668; -214.065; -400.883
714.317; -297.368;-1045.065; -981.883
714.581; -134.168; -374.065; -268.883
714.846; -252.568; -822.064; -888.884
715.111;   60.233;  261.936;  257.116
715.376; -117.767;  -86.064; -223.885
715.641; -126.067; -365.064; -367.885
715.906; -151.267;   15.936; -551.885
716.171;   32.133;  221.937;  209.114
716.436;  -55.366;  -78.063; -104.886
716.700; -225.166; -818.063; -692.886
716.965; -231.566; -794.063; -807.887
717.230; -144.066; -339.063; -392.887
717.494;  -82.865;  -40.062; -134.888
717.759; -201.265; -784.062; -640.888
718.024;    0.135;  269.938;  250.112
718.288;  160.935;  685.938;  395.111
718.553; -252.065; -803.062; -977.889
718.817; -263.064; -883.061; -899.889
719.082;  -44.264; -115.061; -125.890
719.346; -281.264;-1000.061; -947.890
719.611;  -82.664; -300.061; -255.891
719.875; -194.864; -568.060; -537.891
720.140; -190.063; -453.060; -603.891
720.404;  -30.063; -136.060; -249.892
720.668; -156.363; -475.060; -411.892
720.933;   28.437;  146.940;  137.108
721.197; -244.462; -667.059; -600.893
721.461; -248.062; -851.059; -826.893
721.725;   -9.962;  -21.059; -250.894
721.990; -127.062; -284.059; -204.894
722.254;  -48.762;  -26.059; -108.894
722.518; -132.461; -286.058; -442.895
722.782; -189.161; -743.058; -594.895
723.046;  150.139;  614.942;  570.105
723.310;   69.839;  374.942;  210.104
723.574; -163.060; -654.058; -614.896
723.838; -211.860; -576.057; -642.897
724.102;  -52.160; -226.057; -239.897
724.366; -277.060;-1032.057; -978.897
724.630; -211.360; -749.057; -571.898
724.894; -178.459; -722.057; -514.898
725.158;  -55.959;   38.944; -295.898
725.422; -121.659; -394.056; -327.899
725.685; -143.559; -441.056; -349.899
725.949; -201.258; -566.056; -519.900
726.213; -250.158; -732.056; -811.900
726.477; -304.158;-1020.055; -933.900
726.740;  -61.658; -274.055; -104.901
727.004; -164.458; -384.055; -510.901
727.268; -174.857; -442.055; -400.901
727.531; -305.257; -961.055; -775.902
727.795; -211.557; -713.054; -673.902
728.059; -190.157; -552.054; -557.903
728.322; -249.457; -841.054; -669.903
728.586; -182.356; -692.054; -701.903
728.849; -224.856; -695.053; -756.904
729.112; -232.356; -812.053; -912.904
729.376; -251.856; -959.053; -905.904
729.639; -170.855; -536.053; -536.905
729.903; -226.155; -733.053; -699.905
730.166; -137.455; -437.052; -399.906
730.429;  -56.255; -317.052; -468.906
730.693; -164.755; -355.052; -894.906
730.956;  198.746;  810.948;  651.093
731.219; -111.554; -310.052; -103.907
731.482; -274.654;-1003.051; -894.907
731.745; -283.754; -794.051; -935.908
732.009;   -3.853;  -30.051;   50.092
732.272; -223.653; -904.051; -771.909
732.535; -100.153; -300.051; -310.909
732.798; -343.153;-1083.050;-1166.909
733.061; -156.253; -430.050; -456.910
733.324;  -61.052;   31.950; -180.910
733.587;  112.348;  290.950;  365.090
733.850; -203.352; -973.049;-1050.911
734.113;   13.448;   33.951;   32.089
734.376; -154.251; -328.049; -447.912
734.639;  295.949; 1188.951; 1011.088
734.901;  -85.551; -180.049; -402.912
735.164; -259.651; -883.048; -837.913
735.427;  -53.251; -166.048; -355.913
735.690;  -63.350; -205.048; -234.913
735.952; -296.250; -923.048; -925.914
736.215; -301.150;-1113.048;-1009.914
736.478; -245.250; -771.047; -774.915
736.740;  -26.350;   33.953;  129.085
737.003; -216.149; -658.047; -672.915
737.266;  189.151;  -94.047;   46.084
737.528; -230.549; -682.047; -660.916
737.791; -137.649; -316.046; -327.916
738.053;   61.752;  465.954;  649.083
738.316;  -67.348; -162.046; -136.917
738.578; -256.548; -770.046; -736.918
738.841; -143.948; -382.046; -446.918
739.103; -216.348; -875.045; -777.918
739.365;  -30.647;   79.955;  -69.919
739.628; -253.947; -884.045; -805.919
739.890; -204.847; -758.045; -710.919
740.152; -216.247; -692.044; -754.920
740.414; -146.846; -408.044; -359.920
740.677; -189.646; -785.044; -634.921
740.939; -199.346; -587.044; -487.921
741.201; -155.446; -432.044; -572.921
741.463; -211.946; -689.043; -745.922
741.725;  -65.645;  -21.043; -199.922
741.987;   12.555;  220.957;  116.078
742.249; -238.545; -751.043; -859.923
742.511; -205.645; -703.043; -794.923
742.773; -166.845; -546.042; -546.924
743.035;  118.056;  796.958;  533.076
743.297; -293.844; -963.042;-1013.924
743.559;  -74.244; -278.042; -262.925
743.821; -234.244; -735.042; -744.925
744.083;  -70.543;  -44.041; -149.925
744.345; -249.743; -869.041; -892.926
744.607;    0.957;   75.959;  122.074
744.868; -181.643; -490.041; -554.927
745.130; -291.043; -994.041;-1008.927
745.392;   -9.642;   -1.040;  -44.927
745.653; -142.042; -411.040; -378.928
745.915;  155.558;  896.960;  631.072
746.177;  -57.642;   35.960;  -43.928
746.438; -183.441; -428.040; -543.929
746.700; -267.441; -947.039; -988.929
746.961; -243.841; -659.039; -740.930
747.223;  -36.041; -190.039;  -74.930
747.484; -181.741; -391.039; -471.930
747.746;  -41.940;  -23.038; -106.931
748.007; -232.240; -647.038; -689.931
748.269; -134.540; -468.038; -440.931
748.530; -228.640; -852.038; -638.932
748.791; -127.139; -354.038; -420.932
749.053;   65.161;  286.963;  163.067
749.314;  -75.739; -236.037; -169.933
749.575; -269.339; -945.037; -905.933
749.836;  -35.639; -217.037;   86.066
750.098;  -40.738;  -60.037;  -21.934
750.359;  118.862;  414.964;  555.066
750.620;  -51.338; -121.036; -220.935
750.881; -170.438; -585.036; -513.935
751.142; -289.638; -950.036; -938.936
751.403; -229.537; -789.036; -705.936
751.664; -316.437;-1034.035; -999.936
751.925;  -58.537; -175.035; -262.937
752.186;  -86.437; -298.035; -278.937
752.447; -151.736; -590.035; -445.937
752.708; -198.236; -532.035; -648.938
752.969; -188.136; -566.034; -576.938
753.230; -221.136; -777.034; -672.939
753.491; -193.836; -650.034; -631.939
753.751;   -4.635;  109.966;   19.061
754.012;   32.665;  258.967;  181.060
754.273;  -74.935; -174.033;  -71.940
754.534; -165.635; -487.033; -580.940
754.794; -284.134; -926.033; -911.941
755.055;  235.966; 1051.967;  881.059
755.316; -199.834; -700.032; -566.942
755.576; -167.734; -606.032; -576.942
755.837; -191.434; -527.032; -695.942
756.097; -185.533; -530.032; -564.943
756.358; -233.533; -725.032; -770.943
756.618; -194.633; -705.031; -641.943
756.879; -100.133; -254.031; -349.944
757.139; -324.533;-1098.031;-1116.944
757.400; -198.032; -538.031; -553.945
757.660; -120.432; -365.031; -401.945
757.920; -115.532; -266.030; -228.945
758.181; -135.632; -468.030; -351.946
758.441; -269.331; -870.030; -809.946
758.701; -126.631; -308.030; -215.946
758.961; -112.631; -220.030; -278.947
759.222; -162.331; -574.029; -502.947
759.482; -221.531; -683.029; -723.948
759.742; -234.330; -706.029; -547.948
760.002;  -55.130;  -83.029; -143.948
760.262;  -15.530;   50.972;  182.051
760.522; -193.630; -498.028; -574.949
760.782; -207.829; -738.028; -612.949
761.042; -205.829; -618.028; -573.950
761.302;   -8.329;   55.972;  -18.950
761.562;  -67.229; -164.027; -154.951
761.822; -171.229; -710.027; -551.951
762.082; -352.428;-1104.027;-1093.951
762.342; -101.928; -328.027; -403.952
762.601; -174.428; -567.027; -506.952
762.861; -102.528; -281.026; -207.952
763.121; -135.227; -406.026; -411.953
763.381; -184.227; -499.026; -485.953
763.640;  -78.027; -139.026; -307.954
763.900;  -98.127; -242.026; -203.954
764.160; -184.727; -458.025; -491.954
764.419; -209.826; -726.025; -782.955
764.679; -246.426; -795.025; -726.955
764.939;  -95.326; -124.025; -210.955
765.198; -196.526; -608.025; -563.956
765.458; -169.026; -710.024; -612.956
765.717; -189.625; -454.024; -590.957
765.976; -127.525; -428.024; -411.957
766.236; -208.325; -475.024; -610.957
766.495;   10.975;  260.977;   73.042
766.755; -316.524;-1090.023; -987.958
767.014; -175.824; -594.023; -665.958
767.273; -125.424; -373.023; -397.959
767.533;  -97.324; -228.023; -307.959
767.792;  -74.524; -151.022; -188.960
768.051; -119.223; -228.022; -276.960
768.310; -160.423; -546.022; -650.960
768.569;  -46.823; -161.022;    4.039
768.828; -116.123; -285.022; -363.961
769.088; -296.722;-1050.021; -942.961
769.347; -220.322; -755.021; -599.962
769.606; -272.622; -876.021; -857.962
769.865; -301.322;-1016.021;-1033.963
770.124;  -96.322; -411.021; -336.963
770.383; -260.121; -778.020; -910.963
770.641; -122.121; -398.020; -400.964
770.900; -302.121; -953.020; -846.964
771.159; -277.721; -851.020; -951.964
771.418; -285.521; -917.020; -779.965
771.677;  -47.320; -224.019; -293.965
771.936; -269.720; -794.019; -865.966
772.194; -240.120; -465.019; -437.966
772.453; -141.020; -213.019; -391.966
772.712;   72.381;  416.982;  329.033
772.970;  -30.819;   32.982;   63.033
773.229;   -7.319;  -22.018;  102.033
773.488; -249.519; -814.018; -770.968
773.746;   86.681;  296.982;  335.032
774.005;  -35.118;  190.983;  -22.969
774.263;   18.582;  243.983;  177.031
774.522; -188.118; -422.017; -548.969
774.780; -165.818; -484.017; -417.970
775.039; -181.717; -551.017; -531.970
775.297;  -44.017; -135.016; -351.970
775.555; -212.617; -489.016; -612.971
775.814; -210.917; -618.016; -570.971
776.072; -242.517; -749.016; -740.971
776.330; -173.916; -630.016; -520.972
776.589; -237.616; -703.015; -721.972
776.847; -240.716; -645.015; -624.973
777.105; -327.216;-1016.015;-1032.973
777.363; -139.715; -459.015; -454.973
777.621; -236.615; -660.015; -717.974
777.879;  -20.915;  -42.014;   32.026
778.138; -182.115; -554.014; -717.974
778.396; -186.015; -585.014; -526.975
778.654; -309.314;-1015.014; -970.975
778.912; -107.414; -269.014; -371.976
779.170; -258.714; -880.013; -803.976
779.427; -248.414; -922.013; -897.976
779.685; -275.414; -880.013; -832.977
779.943; -231.613; -654.013; -593.977
780.201; -286.213; -964.012; -883.978
780.459; -196.213; -651.012; -610.978
780.717; -118.313; -440.012; -390.978
780.974; -157.012; -449.012; -490.979
781.232; -141.412; -358.012; -338.979
781.490; -160.512; -551.011; -472.979
781.747; -135.512; -555.011; -476.980
782.005;   60.388;  462.989;  254.020
782.263; -277.111; -542.011;-1004.981
782.520; -143.911; -326.011; -501.981
782.778; -312.511;-1013.010;-1051.981
783.035; -311.211; -962.010; -938.982
783.293; -113.510; -248.010; -206.982
783.550;  -47.410; -134.010; -198.982
783.808; -246.610; -764.010; -776.983
784.065; -266.510; -745.009; -874.983
784.322;  -80.610;   25.991;  -86.984
784.580; -246.609; -915.009; -771.984
784.837; -187.509; -392.009; -466.984
785.094; -239.009; -783.009; -762.985
785.352; -156.209; -304.008; -404.985
785.609; -276.009; -934.008; -839.985
785.866; -148.408; -345.008; -401.986
786.123; -232.108; -639.008; -583.986
786.380; -192.908; -665.008; -604.987
786.637; -105.108; -225.007; -380.987
786.895; -198.807; -456.007; -543.987
787.152;  -41.907; -135.007; -267.988
787.409;  -39.707; -123.007; -225.988
787.666; -148.507; -299.006; -378.988
787.923; -183.807; -616.006; -695.989
788.179; -186.906; -551.006; -584.989
788.436; -198.906; -585.006; -585.990
788.693;  -44.806;  -92.006;  -87.990
788.950;  -70.006; -125.005; -112.990
789.207; -151.605; -381.005; -372.991
789.464; -104.205; -161.005; -301.991
789.720;   19.695;  150.995;  110.009
789.977; -316.805;-1003.005; -671.992
790.234;  -28.305;   44.996;  -66.992
790.490; -277.204; -884.004;-1031.993
790.747;  -32.104;  -85.004;   22.007
791.004; -154.204; -426.004; -348.993
791.260; -138.204; -430.004; -560.994
791.517; -233.403; -843.003; -788.994
791.773; -116.803; -379.003; -342.994
792.030; -234.703; -596.003; -660.995
792.286; -204.003; -686.003; -636.995
792.543;  -52.903;  -74.002; -159.995
792.799; -120.702; -584.002; -382.996
793.055; -381.202;-1179.002;-1210.996
793.312; -244.802; -827.002; -816.997
793.568; -201.102; -746.002; -599.997
793.824; -112.302; -226.001; -284.997
794.081; -156.801; -447.001; -508.998
794.337; -204.901; -664.001; -561.998
794.593;  -83.701; -319.001; -271.999
794.849; -242.801; -746.001; -772.999
795.105; -132.200; -270.000; -261.999
795.361; -128.800; -490.000; -457.000
795.617; -302.800; -875.000; -945.000
795.873; -147.800; -360.000; -407.000
796.129; -134.100; -368.000; -306.000
796.385;  -75.200; -124.000; -156.000
796.641;   83.900;  412.000;  550.000
796.897; -207.500; -666.000; -635.000
797.153;   80.900;  453.000;  357.000
797.409; -272.300; -785.000; -868.000
797.665; -202.900; -625.000; -732.000
797.921; -236.300; -775.000; -762.000
798.176; -239.500; -744.000; -747.000
798.432; -259.700; -824.000; -596.000
798.688; -309.600;-1174.000;-1078.000
798.943;  -47.000; -165.000; -147.000
799.199; -309.400;-1005.000; -959.000
799.455;  102.800;  369.000;  316.000
799.710; -264.800; -813.000; -380.000
799.966; -108.100; -162.000; -160.000
800.221; -196.200; -638.000; -721.000
800.477; -202.700; -743.000; -710.000
800.732; -275.500; -773.000; -800.000
800.988;   41.000;  205.000;  -19.000
801.243; -139.400; -454.000; -344.000
801.498; -254.500; -814.000; -739.000
801.754;  -95.300; -289.000; -163.000
802.009;  -88.100; -257.000; -335.000
802.264; -298.700; -967.000;-1033.000
802.520;  -57.100;  222.000;   -3.000
802.775; -168.700; -524.000; -359.000
803.030;   84.900;  395.000;  356.000
803.285; -295.600; -840.000; -903.000
803.540; -195.700; -686.000; -699.000
803.795; -196.800; -648.000; -583.000
804.051;  -90.500; -279.000; -346.000
804.306;    3.900;  168.000;  128.000
804.561;   54.800;  451.000;  362.000
804.816;  189.500;  714.000;  861.000
805.071;  -91.900; -185.000; -280.000
805.325; -159.400; -257.000; -427.000
805.580; -295.000; -841.000; -877.000
805.835;  -90.000; -204.000; -297.000
806.090; -227.800; -760.000; -676.000
806.345; -142.000; -344.000; -264.000
806.600; -189.700; -549.000; -632.000
806.854; -167.500; -408.000; -538.000
807.109; -115.900; -493.000; -577.000
807.364; -147.700; -407.000; -328.000
807.618; -165.400; -415.000; -381.000
807.873; -202.400; -470.000; -494.000
808.128;  -69.900; -257.000; -518.000
808.382; -131.400; -224.000; -332.000
808.637; -137.100; -440.000; -511.000
808.891;  -53.500; -257.000; -180.000
809.146; -284.300; -902.000; -794.000
809.400; -251.900; -848.000; -923.000
809.654; -212.400; -779.000; -551.000
809.909; -313.000; -841.000; -927.000
810.163; -242.700; -813.000; -651.000
810.418; -294.000; -940.000; -861.000
810.672; -217.300; -685.000; -690.000
810.926; -311.200; -993.000; -973.000
811.180; -139.800; -439.000; -372.000
811.434;    3.700;  240.000;  135.000
811.689; -138.700; -231.000; -365.000
811.943; -319.600; -936.000; -953.000
812.197; -246.000; -893.000; -671.000
812.451; -158.900; -379.000; -514.000
812.705; -254.600; -809.000; -619.000
812.959; -144.000; -263.000; -388.000
813.213; -115.800; -283.000; -209.000
813.467;  102.300;  470.000;  253.000
813.721; -232.900; -764.000; -792.000
813.975; -263.400; -826.000; -877.000
814.229;   40.400;  430.000;  353.000
814.482; -204.800; -517.000; -566.000
814.736; -239.600; -766.000; -744.000
814.990; -285.400; -779.000; -872.000
815.244; -119.600; -228.000; -285.000
815.497; -210.300; -636.000; -601.000
815.751;  -49.100; -141.000;   82.000
816.005; -182.400; -470.000; -586.000
816.258; -124.800; -510.000; -363.000
816.512; -223.300; -693.000; -610.000
816.766;   28.100;  121.000;  157.000
817.019;    5.000;  148.000;  149.000
817.273; -295.000;-1000.000; -802.000
817.526;  -89.400; -206.000; -173.000
817.779; -321.400;-1049.000; -960.000
818.033; -263.200; -693.000; -807.000
818.286; -239.500; -725.000; -792.000
818.540; -179.000; -403.000; -403.000
818.793; -164.000; -402.000; -489.000
819.046; -218.500; -582.000; -520.000
819.299;  -39.800; -157.000; -166.000
819.553; -209.600; -552.000; -592.000
819.806; -305.600;-1016.000; -838.000
820.059; -135.500; -334.000; -354.000
820.312;  -24.900;  152.000;  185.000
820.565;  -13.800;  110.000;  -27.000
820.818; -104.100;  -59.000; -173.000
821.071; -329.100;-1041.000; -957.000
821.324; -208.000; -536.000; -540.000
821.577; -181.400; -457.000; -483.000
821.830;  -74.800; -270.000; -172.000
822.083; -246.800; -733.000; -288.000
822.336;  -90.400; -261.000; -167.000
822.589; -266.800; -805.000; -688.000
822.842; -277.800; -875.000; -770.000
823.094; -361.500;-1076.000;-1114.000
823.347; -260.700; -925.000; -729.000
823.600;   24.600;  402.000;  187.000
823.853; -121.600; -311.000; -267.000
824.105; -151.000; -331.000; -575.000
824.358; -238.700; -617.000; -716.000
824.611;    4.800;  234.000;   40.000
824.863; -192.900; -612.000; -591.000
825.116;  -27.200;  -33.000;   27.000
825.368; -144.400; -366.000; -372.000
825.621; -118.300; -186.000; -240.000
825.873; -223.600; -704.000; -737.000
826.126; -239.400; -669.000; -641.000
826.378; -179.500; -389.000; -505.000
826.630; -299.800; -890.000; -898.000
826.883; -253.900; -754.000; -693.000
827.135; -124.900; -279.000; -270.000
827.387; -275.600; -893.000; -839.000
827.639;  -66.800;  -86.000;   32.000
827.892; -238.100; -742.000; -582.000
828.144; -281.200; -848.000; -804.000
828.396;  -47.900;  104.000;  -80.000
828.648; -155.900; -440.000; -333.000
828.900; -242.200; -702.000; -795.000
829.152; -237.200; -684.000; -683.000
829.404;  -90.400; -215.000; -267.000
829.656;   16.900;  321.000;  214.000
829.908;  -26.000;  393.000;  229.000
830.160; -320.600;-1064.000;-1047.000
830.412; -161.400; -481.000; -430.000
830.664; -225.700; -557.000; -665.000
830.916;  -69.900; -268.000; -206.000
831.167; -317.200;-1073.000; -951.000
831.419; -180.500; -623.000; -566.000
831.671; -265.400; -764.000; -809.000
831.923; -123.900; -311.000; -447.000
832.174; -129.600; -273.000; -331.000
832.426; -217.000; -493.000; -582.000
832.678; -358.600;-1043.000;-1091.000
832.929; -312.300; -947.000; -935.000
833.181; -198.900; -575.000; -677.000
833.432;  -77.100;  -59.000; -186.000
833.684;    1.000;  112.000;  -27.000
833.935; -200.000; -610.000; -566.000
834.187; -240.000; -829.000; -823.000
834.438;  -48.700;  -58.000;  -25.000
834.689; -139.700; -255.000; -123.000
834.941;  -87.400; -343.000; -244.000
835.192; -197.700; -590.000; -533.000
835.443; -154.700; -419.000; -506.000
835.695;  -31.600;  138.000;  -16.000
835.946; -158.800; -608.000; -378.000
836.197; -197.900; -599.000; -622.000
836.448; -188.200; -528.000; -395.000
836.699; -143.800; -253.000; -341.000
836.950;  -35.300;   72.000;    7.000
837.201; -341.700;-1003.000; -987.000
837.452; -133.800; -356.000; -170.000
837.703; -285.900; -791.000; -737.000
837.954; -141.700; -205.000; -365.000
838.205; -327.500;-1029.000;-1008.000
838.456; -109.200; -196.000; -282.000
838.707; -160.900; -423.000; -519.000
838.958; -225.000; -634.000; -647.000
839.209;  -30.900;   18.000;   40.000
839.460; -123.200; -439.000; -201.000
839.710; -102.700; -135.000; -297.000
839.961;  114.000;  730.000;  612.000
840.212; -179.900; -382.000; -497.000
840.462; -120.100; -328.000; -277.000
840.713; -157.600; -571.000; -536.000
840.964;  -57.900;  -62.000; -143.000
841.214; -200.400; -384.000; -624.000
841.465;  -66.400; -214.000; -141.000
841.715; -140.400; -417.000; -380.000
841.966; -255.300; -746.000; -685.000
842.216; -182.600; -330.000; -431.000
842.466;  -96.700; -169.000; -313.000
842.717; -333.700; -964.000; -952.000
842.967; -179.700; -635.000; -641.000
843.217;  -49.800;   20.000;   28.000
843.468;  -47.300; -104.000; -132.000
843.718; -227.500; -718.000; -726.000
843.968; -249.200; -837.000; -765.000
844.218; -110.600; -315.000; -262.000
844.469; -193.800; -577.000; -561.000
844.719; -243.100; -537.000; -682.000
844.969; -192.800; -550.000; -580.000
845.219; -265.100; -814.000; -862.000
845.469; -157.000; -392.000; -342.000
845.719; -269.500; -792.000; -884.000
845.969;  -19.900;  119.000;  174.000
846.219; -233.200; -738.000; -720.000
846.469;   50.300;  464.000;  432.000
846.718;  -94.500; -115.000;   31.000
846.968; -229.700; -827.000; -827.000
847.218;  -84.700; -224.000; -371.000
847.468; -176.200; -586.000; -555.000
847.718; -276.600; -827.000; -798.000
847.967; -252.400; -826.000; -915.000
848.217; -205.400; -449.000; -569.000
848.467; -111.000; -405.000; -376.000
848.716; -221.900; -708.000; -725.000
848.966; -117.100; -372.000; -358.000
849.215; -172.800; -428.000; -419.000
849.465; -242.900; -785.000; -615.000
849.714; -355.500;-1132.000;-1150.000
849.964; -185.000; -551.000; -613.000
850.213; -162.700; -393.000; -355.000
850.463;   36.100;  137.000;  340.000
850.712; -178.300; -542.000; -567.000
850.961; -241.000; -739.000; -678.000
851.211; -164.900; -513.000; -504.000
851.460; -220.100; -635.000; -650.000
851.709;   -8.000;  -25.000;   18.000
851.958; -253.300; -912.000; -750.000
852.208; -311.600; -859.000; -879.000
852.457;  -72.800; -181.000;  -13.000
852.706; -248.600; -791.000; -823.000
852.955; -178.400; -507.000; -528.000
853.204; -180.300; -521.000; -461.000
853.453; -191.000; -418.000; -458.000
853.702; -271.000; -660.000; -750.000
853.951; -188.900; -532.000; -520.000
854.200; -224.100; -613.000; -562.000
854.449; -244.400; -695.000; -661.000
854.698; -171.000; -340.000; -279.000
854.946;  -81.300; -181.000; -284.000
855.195; -262.000; -843.000; -868.000
855.444; -165.100; -395.000; -420.000
855.693; -172.800; -345.000; -432.000
855.941; -187.700; -387.000; -516.000
856.190; -107.100; -256.000; -382.000
856.439; -220.200; -652.000; -703.000
856.687;  -73.200;  -99.000;  -72.000
856.936; -171.700; -621.000; -323.000
857.184; -319.000;-1067.000;-1020.000
857.433; -149.900; -423.000; -512.000
857.681; -297.300; -989.000; -953.000
857.930; -114.100; -282.000; -433.000
858.178; -292.300; -856.000; -929.000
858.427; -243.700; -802.000; -781.000
858.675; -197.700; -377.000; -544.000
858.923; -161.500; -527.000; -819.000
859.172; -343.200;-1094.000;-1070.000
859.420; -112.900; -339.000; -239.000
859.668; -239.300; -624.000; -628.000
859.916;    5.900;  109.000;  115.000
860.164; -208.100; -699.000; -603.000
860.413; -283.700; -878.000; -696.000
860.661; -252.600; -709.000; -577.000
860.909; -144.800; -339.000; -325.000
861.157; -150.300; -277.000; -444.000
861.405; -215.000; -534.000; -670.000
861.653;   20.400;  310.000;  310.000
861.901; -199.700; -543.000; -613.000
862.149; -287.500; -801.000; -824.000
862.396; -120.700; -297.000; -187.000
862.644; -125.200; -368.000; -347.000
862.892;  -33.600;   98.000;  138.000
863.140; -186.800; -549.000; -530.000
863.388; -276.000; -815.000; -759.000
863.635; -199.200; -642.000; -601.000
863.883;   59.300;  231.000;  190.000
864.131; -151.400; -288.000; -357.000
864.378; -230.700; -675.000; -540.000
864.626; -148.900; -347.000; -415.000
864.873; -168.700; -556.000; -505.000
865.121; -271.200; -714.000; -799.000
865.368;  -58.200; -173.000;   75.000
865.616; -109.800;  -33.000;  -40.000
865.863; -178.500; -462.000; -506.000
866.111; -260.100; -795.000; -824.000
866.358; -158.400; -426.000; -420.000
866.605;  -82.200;  -64.000; -804.000
866.853; -212.700; -621.000; -537.000
867.100; -257.200; -728.000; -775.000
867.347; -243.100; -672.000; -611.000
867.594; -252.900; -740.000; -714.000
867.841;  -36.800;   97.000;   17.000
868.089; -293.100; -746.000; -698.000
868.336; -178.800; -477.000; -420.000
868.583; -224.700; -637.000; -741.000
868.830;  -69.700; -131.000; -170.000
869.077; -278.400; -859.000; -787.000
869.324; -205.000; -502.000; -458.000
869.571; -195.600; -398.000; -430.000
869.818; -183.800; -485.000; -439.000
870.065; -188.400; -439.000; -513.000
870.311; -183.600; -456.000; -542.000
870.558; -138.500; -332.000; -311.000
870.805;  -91.400; -320.000; -384.000
871.052; -186.500; -494.000; -369.000
871.298;  -99.200; -204.000; -131.000
871.545;  -74.100; -151.000; -185.000
871.792; -126.300; -173.000; -222.000
872.038;  -64.900;   43.000; -126.000
872.285; -164.300; -496.000; -387.000
872.532; -146.200; -357.000; -387.000
872.778;   78.400;  556.000;  403.000
873.025; -158.200; -384.000; -359.000
873.271;  110.100;  501.000;  578.000
873.517;  -65.400; -133.000; -209.000
873.764;  -94.200; -193.000;  -80.000
874.010;  -98.500; -143.000; -230.000
874.257;  -12.100;  123.000;   90.000
874.503; -214.400; -579.000; -479.000
874.749;  -78.200;   31.000;  275.000
874.995;  -89.700;  -80.000;  -20.000
875.242; -187.100; -540.000; -478.000
875.488; -166.800; -414.000; -439.000
875.734; -110.300; -106.000; -234.000
875.980; -300.500; -872.000;-1032.000
876.226; -104.300; -157.000; -255.000
876.472;   27.100;  343.000;  237.000
876.718;  -24.600;  184.000;  158.000
876.964;  -26.900;   56.000;   55.000
877.210; -208.500; -547.000; -677.000
877.456; -194.500; -630.000; -557.000
877.702; -264.900; -821.000; -832.000
877.948; -164.300; -377.000; -497.000
878.193;   71.600;  361.000;  255.000
878.439; -199.900; -487.000; -472.000
878.685; -135.800; -272.000; -343.000
878.931; -219.000; -618.000; -676.000
879.176;  -85.700; -201.000; -201.000
879.422; -297.800; -933.000; -820.000
879.668;   49.000;   10.000;   79.000
879.913;  -34.200;   53.000;  137.000
880.159;  -59.200; -112.000;  -17.000
880.404;  -71.200; -152.000; -162.000
880.650;   -6.400;   91.000;  141.000
880.895; -269.000; -670.000; -710.000
881.141; -167.900; -454.000; -428.000
881.386; -214.000; -503.000; -658.000
881.631;  -96.600; -311.000; -166.000
881.877;  -22.200;  112.000;  -13.000
882.122; -196.000; -684.000; -600.000
882.367; -140.400; -136.000; -186.000
882.612;  -97.100;  -80.000; -176.000
882.858; -274.900; -877.000; -823.000
883.103; -113.300; -297.000; -267.000
883.348; -258.800; -759.000; -852.000
883.593; -238.800; -677.000; -602.000
883.838; -106.200; -311.000;  -24.000
884.083;   35.600;  353.000;  288.000
884.328; -139.200; -564.000; -545.000
884.573;  -95.900; -196.000; -143.000
884.818; -211.200; -694.000; -531.000
885.063; -158.100; -348.000; -315.000
885.308; -182.500; -475.000; -398.000
885.553;   52.500;  245.000;  325.000
885.797; -207.000; -545.000; -615.000
886.042;  -53.900;    8.000;   58.000
886.287; -111.000; -253.000; -211.000
886.532;  -37.800;   26.000;  204.000
886.776; -138.600; -407.000; -525.000
887.021; -221.900; -621.000; -574.000
887.265; -251.500; -685.000; -689.000
887.510; -207.700; -557.000; -496.000
887.755; -131.600; -194.000; -164.000
887.999; -207.000; -552.000; -575.000
888.244;  -49.100;  -58.000;  161.000
888.488;   58.000;  371.000;  393.000
888.732; -201.100; -368.000; -520.000
888.977; -201.000; -622.000; -567.000
889.221; -269.900; -683.000; -659.000
889.465; -178.700; -422.000; -566.000
889.710; -155.800;  -56.000; -299.000
889.954;   74.000;  579.000;  467.000
890.198; -239.600; -584.000; -707.000
890.442; -243.400; -716.000; -712.000
890.687; -282.200; -800.000; -753.000
890.931; -109.000; -273.000; -210.000
891.175; -189.900; -502.000; -500.000
891.419;  -83.100; -105.000; -110.000
891.663; -112.700; -239.000; -112.000
891.907; -252.100; -801.000; -545.000
892.151; -266.100; -920.000; -815.000
892.395; -156.400; -274.000; -387.000
892.638;   36.700;  408.000;  291.000
892.882; -270.200; -780.000; -867.000
893.126;  111.700;  758.000;  558.000
893.370;  -78.800; -167.000; -168.000
893.614; -215.600; -714.000; -715.000
893.857; -124.300; -183.000; -197.000
894.101; -211.900; -527.000; -631.000
894.345;  -20.800;  300.000;  150.000
894.588;   72.300;  569.000;  380.000
894.832;  -80.700; -178.000;  -84.000
895.075;  -90.600;   15.000;  -92.000
895.319; -155.200; -552.000; -420.000
895.563; -133.100; -413.000; -353.000
895.806; -252.100; -628.000; -741.000
896.049; -166.800; -576.000; -368.000
896.293;   64.900;  527.000;  405.000
896.536; -175.900; -465.000; -468.000
896.779;  -91.000; -149.000;   -1.000
897.023; -266.900; -751.000; -714.000
897.266;    3.300;  325.000;  269.000
897.509; -292.000; -900.000; -901.000
897.752;  -41.800;  149.000;  171.000
897.996; -294.400; -972.000; -864.000
898.239;  -13.600;  168.000;  102.000
898.482; -204.900; -431.000; -453.000
898.725;  -70.400;  101.000;   53.000
898.968; -261.400; -609.000; -744.000
899.211; -205.500; -513.000; -361.000
899.454; -224.500; -633.000; -539.000
899.697;  -86.700;   90.000;  -43.000
899.940; -262.600; -761.000; -757.000
900.182; -131.900; -335.000; -405.000
900.425; -124.200; -150.000; -298.000
900.668;   -3.400;  491.000;  350.000
900.911; -145.200; -292.000; -345.000
901.154;   -5.000;  141.000;   -3.000
901.396; -223.000; -407.000; -412.000
901.639; -215.700; -430.000; -496.000
901.882; -300.400; -790.000; -809.000
902.124;  -77.100;  -29.000; -143.000
902.367; -176.200; -315.000; -361.000
902.609; -202.500; -476.000; -453.000
902.852; -113.800; -108.000; -260.000
903.094; -187.200; -458.000; -337.000
903.337;  -43.900;  -26.000;   53.000
903.579; -154.700; -228.000; -441.000
903.821; -249.100; -597.000; -744.000
904.064;  -34.100;   85.000;  127.000
904.306;  -86.800; -126.000; -166.000
904.548; -127.100; -152.000; -366.000
904.790; -122.700; -195.000; -340.000
905.033; -206.800; -625.000; -577.000
905.275; -216.300; -513.000; -524.000
905.517;    7.300;  468.000;  256.000
905.759; -239.500; -667.000; -761.000
906.001; -177.100; -322.000; -369.000
906.243; -162.100; -162.000; -224.000
906.485; -123.100; -265.000; -207.000
906.727; -247.400; -499.000; -542.000
906.969; -141.200;  -30.000; -135.000
907.211; -201.000; -316.000; -382.000
907.453; -120.600; -188.000; -237.000
907.695; -154.900; -158.000; -385.000
907.936;   92.200;  818.000;  706.000
908.178;  -77.700;   92.000; -135.000
908.420; -105.100; -111.000; -162.000
908.662; -247.600; -633.000; -682.000
908.903; -147.600; -208.000; -123.000
909.145; -119.500; -240.000; -305.000
909.386;    3.900;  315.000;  280.000
909.628;   31.500;  363.000;  397.000
909.870;   -7.100;   29.000;  264.000
910.111; -325.200; -809.000; -949.000
910.353; -126.100; -123.000; -161.000
910.594; -224.600; -574.000; -606.000
910.835; -147.300; -265.000; -326.000
911.077; -221.500; -503.000; -604.000
911.318; -204.500; -505.000; -471.000
911.559; -257.400; -577.000; -880.000
911.801; -149.300; -284.000; -280.000
912.042;  -79.900;  -50.000; -159.000
912.283;   34.200;  404.000;  371.000
912.524; -193.900; -396.000; -457.000
912.765; -100.100; -193.000;   79.000
913.006; -150.100; -307.000; -338.000
913.247; -163.100; -270.000; -290.000
913.488;  -85.500;  -43.000;   30.000
913.729; -194.100; -373.000; -373.000
913.970; -111.200;  -96.000; -292.000
914.211; -105.200; -160.000; -198.000
914.452;  -98.800; -118.000;  -11.000
914.693;   58.400;  510.000;  592.000
914.934;   56.700;  510.000;  440.000
915.175;  -86.900;   53.000;  -95.000
915.415; -126.500; -137.000;   27.000
915.656;  -69.300;  -28.000;  192.000
915.897; -140.700; -252.000;  -82.000
916.137;  -99.400;   74.000;   -9.000
916.378; -227.600; -573.000; -517.000
916.619; -104.000; -159.000;  -63.000
916.859;  -20.500;  303.000;  330.000
917.100;  325.100; 1655.000; 1070.000
917.340;  145.000;  930.000;  728.000
917.581;  136.900;  965.000;  789.000
917.821; -183.000; -171.000;  143.000
918.061;  -95.500; -199.000;  -72.000
918.302; -118.100; -152.000; -211.000
918.542;  -75.700;  -22.000;    3.000
918.782;  -24.800;  369.000;  377.000
919.023;   34.300;  360.000;  427.000
919.263; 1148.700; 8131.000;  202.000
919.503; -133.200; -137.000;  -54.000
919.743;    7.500;  390.000;  266.000
919.983;  -93.300; -134.000;  -26.000
920.223;  -91.100;  135.000;   14.000
920.463;   30.400;  631.000;  554.000
920.703;  -50.100;   84.000;   39.000
920.943; -112.100; -110.000;   90.000
921.183; -223.400; -414.000; -405.000
921.423;   34.200;  307.000;  546.000
921.663; -145.900; -174.000; -257.000
921.903;  -54.200;  237.000;  173.000
922.143;   -7.300;  372.000;  389.000
922.383;  -90.200;  158.000;  115.000
922.622; -117.000; -120.000;  -15.000
922.862;   93.300;  796.000;  785.000
923.102; -108.100;  -51.000;   33.000
923.341;  -99.800;   59.000;   74.000
923.581;  -37.200;  450.000;  360.000
923.821;   -8.000;  301.000;  398.000
924.060;  -10.900;  351.000;  193.000
924.300;  -83.900;  -16.000; -128.000
924.539;   28.600;  584.000;  473.000
924.779;   76.700;  812.000;  597.000
925.018;  -36.400;  247.000;  353.000
925.257;   51.900;  595.000;  666.000
925.497;    3.900;  447.000;  412.000
925.736;  -76.200;  -35.000;  102.000
925.975;   63.800;  687.000;  669.000
926.214;  137.900;  907.000;  850.000
926.454;   89.800;  706.000;  757.000
926.693;   18.600;  419.000;  543.000
926.932;  148.200; 1021.000;  825.000
927.171;  197.500; 1107.000; 1044.000
927.410;  198.500; 1144.000;  967.000
927.649;  158.400;  924.000;  742.000
927.888;   46.400;  590.000;  564.000
928.127;    1.500;  680.000;  678.000
928.366;   99.500;  842.000;  826.000
928.605;   94.100;  831.000;  737.000
928.844;  203.500; 1451.000; 1393.000
929.083;   53.200;  770.000;  613.000
929.321;  285.300; 1335.000; 1359.000
929.560;  192.800; 1158.000; 1122.000
929.799;   34.400;  574.000;  475.000
930.038;  230.900; 1025.000; 1394.000
930.276;  -47.500;  334.000;  397.000
930.515;   43.400;  827.000;  681.000
930.753;   34.200;  614.000;  589.000
930.992;   53.900;  664.000;  717.000
931.230;   68.900;  847.000;  847.000
931.469;  435.900; 2162.000;  892.000
931.707;  227.800;  840.000;  751.000
931.946;  195.900; 1278.000; 1344.000
932.184;  213.700; 1437.000; 1175.000
932.423;  168.000; 1265.000;  963.000
932.661;  229.500; 1296.000; 1428.000
932.899;   72.500;  987.000;  821.000
933.137;   36.900;  754.000;  564.000
933.376;  270.900; 1664.000; 1335.000
933.614;  309.900; 1759.000; 1196.000
933.852;  160.000; 1357.000; 1171.000
934.090;  326.600; 1722.000; 1747.000
934.328;  217.800; 1252.000; 1457.000
934.566;  150.200; 1431.000; 1110.000
934.804;  199.000; 1263.000; 1309.000
935.042;  239.000; 1861.000; 1850.000
935.280;  362.900; 2088.000; 2063.000
935.518;  381.500; 2113.000; 2007.000
935.756;  405.300; 2481.000; 2316.000
935.994;  290.100; 1808.000; 1751.000
936.231;  604.100; 2890.000; 2950.000
936.469;  425.900; 2367.000; 2378.000
936.707;  411.000; 2220.000; 2167.000
936.945;  584.100; 2825.000; 2882.000
937.182;  512.700; 2679.000; 2741.000
937.420;  601.800; 3602.000; 3031.000
937.657;  765.500; 3365.000; 3478.000
937.895;  699.000; 3331.000; 3488.000
938.133;  733.100; 3540.000; 3528.000
938.370;  771.300; 3896.000; 4191.000
938.607;  914.100; 4488.000; 4205.000
938.845; 1237.800; 5587.000; 5549.000
939.082; 1008.000; 5387.000; 5177.000
939.320; 1165.500; 5799.000; 5728.000
939.557; 1325.400; 6549.000; 6491.000
939.794; 1427.200; 7285.000; 7097.000
940.031; 1815.700; 8421.000; 8368.000
940.269; 1978.600; 9552.000; 9107.000
940.506; 2209.800;10901.000;10507.000

