
Integration time [ms]: 100.000
Averaging Nr. [scans]: 40
Smoothing Nr. [pixels]: 0
Data measured with spectrometer [name]: 2101013U2
Wave   ;Sample   ;Dark     ;Reference
[nm]   ;[counts] ;[counts] ;[counts] 

394.013;   35.872; -450.257; -315.536
394.305;  202.670; -461.258; -419.536
394.596; 1121.617; -676.269; -527.514
394.887; 2758.783; -796.268; -654.518
395.178; 1050.314;  145.736;   11.476
395.470;   83.575; -210.263; -356.526
395.761;  180.848;  305.734;  394.479
396.052;  241.966; -545.284; -306.489
396.343;  286.261; -557.276; -454.503
396.634;  109.155; -200.279; -290.497
396.926;  104.031; -618.268; -565.517
397.217;  103.341;   11.725;  -17.504
397.508;   51.807; -366.273; -154.507
397.799;   44.180; -555.279; -571.497
398.090;    4.849; -973.280; -902.495
398.381;  121.116;   11.708;  -11.473
398.672;  -15.157; -585.292; -742.473
398.963;   37.711; -348.279; -373.498
399.254;  112.402;   54.709; -209.475
399.545;  -29.630;-1017.266; -883.520
399.836;   60.225; -407.277; -343.501
400.127;   47.268; -205.295; -209.468
400.418;   50.351; -423.274; -392.506
400.709;   51.786; -359.281; -333.493
401.000;   45.156; -268.291; -309.476
401.290;  104.729;  225.698;  115.545
401.581;   51.699; -166.286; -228.485
401.872;   32.015; -542.298; -486.462
402.163;   48.110; -313.296; -252.467
402.454;   88.402; -123.291; -163.475
402.744;   66.502; -844.297; -813.465
403.035;  411.783; -226.293;  -86.471
403.326;  536.620; -366.292; -384.474
403.617;  365.734;  204.701;  165.539
403.907;  260.672; -593.283; -679.490
404.198; 2452.683; -545.307; -599.446
404.489; 6319.827; -618.283; -588.491
404.779; 2067.108; -618.302; -660.456
405.070;  230.561;  -67.304; -174.451
405.360;  347.110; -259.293; -238.472
405.651;  359.494;  125.699;   98.542
405.942;  186.619;  209.714;  127.516
406.232;  246.959; -432.285; -413.487
406.523;  461.253;  641.706;  758.530
406.813;   80.797; -579.286; -644.484
407.104;  307.415;  261.708;  144.527
407.394;  143.885; -604.299; -591.462
407.685;  150.858;  336.715;  222.513
407.975;   63.176; -400.283; -382.490
408.265;  108.517; -134.289; -190.478
408.556;   54.574; -472.291; -459.475
408.846;  186.703;  474.706;  429.530
409.137;   81.150;   -1.288; -216.480
409.427;   43.334; -193.285; -271.487
409.717;   27.885; -776.273; -692.508
410.007;  147.927;    4.715; -170.486
410.298;   93.320; -360.295; -342.469
410.588;   72.581; -495.285; -510.486
410.878;   32.286; -792.287; -873.482
411.168;  114.017; -481.298; -478.463
411.459;  119.020; -295.283; -242.489
411.749;   69.898; -609.292; -507.474
412.039;   52.998; -755.289; -386.480
412.329;  209.593;   40.722;  132.501
412.619;  195.822;  -62.286; -148.485
412.909;  365.195;  639.711;  594.521
413.199;  309.225; -130.280; -251.495
413.490;  394.760;  521.710;  352.523
413.780;  139.229;-1013.279; -913.496
414.070;  335.412;  -46.276;  235.497
414.360;  373.139; -729.278; -666.498
414.650;  401.157; -726.288; -688.482
414.940;  551.128; -538.280; -441.496
415.230;  935.279;   50.712;   74.519
415.520; 6153.216;  155.730;   66.486
415.809;24277.811; -305.281; -125.493
416.099;18741.678; -388.277; -229.501
416.389; 5291.624;  435.726;  236.494
416.679; 3121.879;   91.738;   85.473
416.969;  543.866; -527.287; -503.483
417.259;  458.930;  341.721;  171.503
417.549;  694.085;  522.718;  318.508
417.838; 1700.983; -205.268; -147.518
418.128; 5575.790;  650.710;  492.522
418.418; 4639.566; -491.272; -579.509
418.708; 3142.599;    9.726;  -48.506
418.997;11823.370; -474.275; -480.505
419.287;12384.131; -733.273; -790.507
419.577;11767.320; -160.283; -123.489
419.866;38845.325; -588.277; -498.501
420.156;39586.987; -242.270;  -55.513
420.446; 7123.871; -112.263;  -26.526
420.735;  824.956; -376.271; -446.512
421.025;  828.139; 1830.722;  315.502
421.314;  657.529; -203.271; -226.512
421.604; 1308.850;   89.732;  233.484
421.893;  753.475; -705.271; -602.511
422.183;  230.571; -487.263; -461.526
422.472;  387.527;  -36.271; -107.511
422.762;  450.251; -416.266; -379.521
423.051;  242.588; -916.276; -916.503
423.341;  308.108; -491.273; -439.507
423.630;  407.282; -121.265;   15.477
423.919;  395.594;   58.725;   49.495
424.209;  371.952;  -31.263;   56.473
424.498;  500.080;   68.732;  161.483
424.787; 1098.811; -535.267; -601.518
425.077; 3378.930;   34.735;   29.478
425.366; 4604.607; -734.262; -744.528
425.655;10051.058;  639.727;  259.493
425.945;22387.286; -313.247; -268.554
426.234;12387.030;  117.741;  300.467
426.523; 5166.810;  -86.259; -350.534
426.812; 7067.721;  107.734;  159.480
427.101;10371.122; -127.269; -323.515
427.390;13029.091;  -55.270;  -86.514
427.680; 2849.930; -624.257; -411.538
427.969;  484.416; -330.255; -301.540
428.258;  315.721; -385.257; -477.536
428.547;  527.420;  449.728;  397.490
428.836; 1170.432; -421.253; -398.543
429.125; 1691.537; -199.259;  -72.534
429.414;  796.479; -330.251; -294.548
429.703; 3160.879; -231.251; -213.548
429.992; 9522.233; -938.250; -828.549
430.281; 6215.964; -397.264; -331.524
430.570;  572.095;  -21.252;   32.454
430.859;  532.635;  279.741;  352.466
431.148;  422.582;  636.752;  631.446
431.437;  287.669;  391.748;  367.454
431.725;  142.523; -544.257; -481.536
432.014;  125.464; -845.253; -756.545
432.303;  386.808; -149.239; -105.569
432.592;  583.021; -460.263; -178.525
432.881; 1058.258; -601.248; -437.554
433.169; 6297.441; -343.255;  -61.540
433.458;12835.116;  445.765;  540.424
433.747; 5384.763; -397.261; -289.529
434.036;  870.808; -275.242; -280.564
434.324; 2105.020; -395.249; -379.551
434.613; 3686.002;   40.757;  159.437
434.902; 1204.898;  333.760;  439.433
435.190;  511.056;   75.761;  295.431
435.479;  304.759;  -52.245;   83.441
435.767;   84.942; -411.244; -427.561
436.056;  203.879; -340.242; -294.563
436.345;  367.175; -372.240; -223.568
436.633;  388.791;   60.750;  383.450
436.922;  250.327;  208.760;  414.432
437.210;  545.631; -194.236;    1.426
437.499; 1661.214; -583.235; -432.576
437.787; 1854.981; -339.236;  -10.574
438.075;  492.137;   56.761;  162.430
438.364;  659.164;  -44.238;  250.429
438.652;  408.044; -286.226; -138.592
438.941;  139.058;    3.770;  269.415
439.229;    0.342; -665.252; -466.545
439.517;   35.998; -160.234;  -85.577
439.806;  -12.165; -501.225; -290.595
440.094;  185.205;  377.766;  650.421
440.382;  143.609; -653.233; -302.580
440.670;  197.989; -361.235; -285.576
440.959;   33.777; -347.223; -170.599
441.247;   70.845; -151.229; -109.587
441.535;   89.196; -266.235;   31.423
441.823;   33.303; -497.234; -305.578
442.111;  169.774;  173.771;  327.412
442.400;  479.983; -628.245; -335.559
442.688; 1244.380; -111.234; -620.579
442.976;  893.065; -786.213; -450.617
443.264;   82.816; -324.224; -364.597
443.552;  106.870; -258.226;   51.408
443.840;  159.145;  602.765;  876.423
444.128;  102.258;  265.767;  269.420
444.416;   -0.674; -694.228; -312.588
444.704;   16.782; -465.219;  -92.605
444.992;   71.648;   -0.226;  240.407
445.280;   59.959; -517.230;  -94.585
445.568;   21.843; -694.212; -396.618
445.856;  329.316; -174.221;  357.398
446.143;  705.403;  -54.220;   -7.604
446.431;  574.830;  -25.228;  625.411
446.719;  241.551;  489.783;  675.391
447.007;  181.803;  481.769;  705.416
447.295;  164.674;  597.777;  871.402
447.583;   85.467; -464.229;  -34.587
447.870;  132.813; -434.221; -202.601
448.158;  384.683; -104.230;  129.415
448.446;  298.854; -800.219; -338.604
448.733;  174.493;   13.776;  269.403
449.021;  239.268;   60.788;  341.382
449.309;  191.383; -296.210;  208.379
449.596;  231.597;  128.783;   59.392
449.884;  152.656; -571.222; -325.600
450.172;  148.385; -756.227; -406.590
450.459;  453.773;  645.786;  780.387
450.747; 2484.371; -411.218; -147.608
451.034; 7875.881;  493.772;  889.411
451.322; 6466.151; -413.214; -170.614
451.609;  549.719;  292.777;  508.403
451.897;  599.821; -550.203; -183.634
452.184; 1819.599; -622.223; -400.598
452.472; 1717.679;   97.792;  269.375
452.759;  341.830;  512.781;  864.395
453.047;  114.440; -407.212; -125.617
453.334;   61.362; -732.219; -216.606
453.621;   73.628; -438.214; -161.615
453.909;  115.263;   13.796;  384.368
454.196;  101.483; -299.199; -123.641
454.483;  216.184;  317.798;  540.364
454.771;  116.732; -215.208;  196.374
455.058;   37.160; -316.207;  102.374
455.345;  117.738;   71.807;  344.347
455.632;  100.814; -128.207;  235.373
455.919;   38.980;  -82.196;  182.354
456.207;  -54.138; -774.198; -450.642
456.494;  -14.304; -475.200;  -66.639
456.781;    7.554; -399.202; -198.635
457.068;   49.170; -253.206;  -29.628
457.355;    2.021; -698.206; -401.629
457.642;  -12.273; -552.205; -290.630
457.929;  -11.771; -778.194; -417.651
458.216;   74.166; -575.212; -354.617
458.503;  247.259; -173.193;  -19.652
458.790;  244.005; -864.208; -630.625
459.077;  268.459;  -77.202;  110.364
459.364;  814.597; -350.195; -210.649
459.651; 1747.993;  -46.206;  220.372
459.938;  784.220; -864.209; -665.623
460.225;  143.462;  132.799;  276.363
460.512;  -49.822; -836.197; -688.645
460.799;  106.119;  -32.218;  320.392
461.086;   64.800; -370.200; -251.640
461.372;   34.888; -509.198; -279.642
461.659;   90.257; -165.196;  108.354
461.946;   56.757; -445.193;  -54.651
462.233;  231.723;  842.800;  888.361
462.519;  345.295; -814.201; -464.639
462.806; 1023.853; -768.197; -497.645
463.093;  876.278; -445.191;  -66.656
463.380;  -32.206; -920.186; -824.664
463.666;   57.630; -259.197;  -18.646
463.953;   73.942; -406.195; -243.648
464.239;  201.267; -173.195;  -77.648
464.526;  371.553;  413.806;  743.350
464.813;  324.740; -565.190; -304.658
465.099;  341.808;  606.807;  607.348
465.386;  330.137;  903.807;  921.348
465.672;    6.128; -694.197; -522.645
465.959;   18.007; -598.188; -520.662
466.245;   -0.013; -468.193; -359.652
466.532;   96.290; -109.195;   63.352
466.818;   64.869; -357.186; -216.664
467.104;    6.959; -488.182; -415.672
467.391;  -27.434; -628.189; -459.658
467.677;   26.172; -289.186;    9.335
467.964;    3.798; -682.189; -471.660
468.250;   64.950; -331.186; -160.665
468.536;   57.293;   90.811;  180.341
468.822;  -23.113; -821.184; -574.668
469.109;  137.014;  351.827;  471.311
469.395;  193.572;  729.808;  787.346
469.681;  196.171;   46.811;  156.341
469.967; 1283.400; -699.188; -382.660
470.254; 2735.108; -494.188; -306.662
470.540; 1762.255; -601.196; -476.646
470.826;  256.170; -488.181; -397.675
471.112;  320.316;  288.816;  113.331
471.398;   78.870; -253.183;  -58.670
471.684;   43.598; -626.177; -447.680
471.970;   -0.226; -918.180; -981.675
472.256;   38.096; -521.192; -441.654
472.542;    4.850; -499.171; -434.691
472.828;   12.430; -743.182; -607.672
473.114;   21.294; -380.166; -283.700
473.400;   17.615; -504.175; -293.684
473.686;   26.725; -452.166; -400.701
473.972;   50.804; -230.174; -131.687
474.258;  -41.110; -925.173; -843.689
474.544;  213.815; -183.178;   -2.679
474.830;  329.766;  -65.175;   45.316
475.116;  503.466; -123.190; -196.658
475.401;  689.476; -558.180; -467.676
475.687;  213.100; -725.180; -718.676
475.973;   -2.512; -673.181; -770.673
476.259;  248.819;  736.825;  764.315
476.544;  363.156; -539.176; -437.682
476.830;  856.371; -398.172; -322.690
477.116;  745.605; -430.177; -336.682
477.401;  154.226;  346.820;  358.324
477.687;  -11.585; -289.175; -405.684
477.973;   57.741;   21.819;   28.326
478.258;  -15.455; -448.163; -348.706
478.544;   56.955;   21.815;   61.334
478.829;  -63.844; -818.171; -738.692
479.115;  -31.754; -749.172; -651.690
479.401;  -18.550; -444.174; -449.686
479.686;   41.599; -253.180;  -74.676
479.972;  -31.155; -886.178; -776.680
480.257;   31.345; -258.166;  -65.700
480.542;   -3.940; -614.170; -469.693
480.828;  239.988; 1288.824; 1392.317
481.113;  -40.614; -464.176; -426.683
481.399;  -17.006; -236.161; -202.711
481.684;  -47.430; -620.166; -462.700
481.969;   35.108; -158.159;  -73.713
482.255;   -9.330; -439.169; -285.695
482.540;    0.320; -569.178; -441.680
482.825;   16.389; -395.187; -404.663
483.110;   99.999;  -85.169; -105.696
483.396;  195.079; -840.157; -652.718
483.681;  514.354;  543.826;  730.313
483.966;  166.177; -696.160; -700.712
484.251;   -2.572; -404.174; -310.687
484.536;   -3.870; -356.165; -378.703
484.822;    7.481; -205.173; -218.687
485.107;  -38.708; -599.152; -502.726
485.392;  130.961;  662.836;  541.296
485.677;   66.333;  354.832;  163.302
485.962;  112.427;  160.843;  270.283
486.247;   82.478;  -14.162;   -8.707
486.532;   45.746; -178.166; -325.701
486.817;  163.164;  381.839;  431.291
487.102;  121.200; -453.154; -514.722
487.387;  673.406; -637.156; -652.718
487.672; 1197.741; -154.164;  -38.705
487.957;  784.296; -394.160; -286.711
488.241;  216.734; -290.150; -314.729
488.526;  779.419; -280.152; -148.726
488.811; 1258.422; -881.177; -818.680
489.096;  914.578; -666.154; -702.723
489.381;  531.915;    3.847;  162.275
489.666;  400.819; -428.161; -510.710
489.950;  194.381;  558.846;  627.277
490.235;  -35.321; -480.151; -458.728
490.520;  -44.632; -756.161; -723.710
490.804;  -64.317; -827.156; -736.719
491.089;   -1.500; -469.149; -299.732
491.374;   43.290; -132.164;  -75.704
491.658;   -9.839; -817.147; -717.735
491.943;  142.373; -657.152; -609.727
492.227;  244.246; -178.155;  -38.721
492.512;   56.776; -294.157; -341.717
492.797;  -43.782; -713.149; -716.731
493.081;  -44.911; -588.147; -598.735
493.366;  -45.780; -751.161; -635.711
493.650;  190.092;  831.859;  917.254
493.935;   47.085; -648.147; -447.734
494.219;  -54.196; -778.142; -687.743
494.503;  -30.112; -585.150; -487.730
494.788;   36.243;   46.842;   74.285
495.072;   99.085;  184.850;  434.271
495.356;  166.228; -463.148; -343.733
495.641;  467.645; -812.146; -736.736
495.925;  420.238; -976.156; -903.719
496.209;   34.824; -599.149; -451.732
496.494;  -61.495; -763.142; -544.744
496.778;    8.975; -364.154; -360.722
497.062;  -50.788; -819.156; -627.719
497.346;  -28.827; -869.160; -640.711
497.631;  129.706;  580.852;  560.266
497.915;   70.406;  -64.145;  175.261
498.199;   35.629; -341.157; -277.718
498.483;   36.667; -562.152; -508.725
498.767;  198.636;  301.850;  300.271
499.051;  195.197; -126.149; -100.732
499.335;   36.820; -693.149; -739.731
499.619;  -34.232; -381.129; -423.767
499.903;    9.695; -272.155;  -65.721
500.187;   48.082; -588.153; -316.724
500.471;   24.047; -796.152; -595.727
500.755;  116.293;   62.839;  -96.710
501.039;   10.995; -270.155; -357.721
501.323;   76.793;  -21.141;  264.254
501.607;   33.846; -447.163; -503.706
501.891;  -11.594; -607.156; -512.718
502.174;  -30.658; -726.144; -585.741
502.458;   67.851;   89.849;  370.273
502.742;   31.767; -180.138; -191.751
503.026;  115.510; -412.147; -254.734
503.310;  192.157; -437.159; -375.713
503.593;  120.912; -464.147; -325.735
503.877;  117.307; -232.133; -156.760
504.161;  183.485;    2.847;  -50.724
504.444;  132.395; -841.158; -710.716
504.728;  471.589; -487.164; -522.704
505.012;  737.908; -257.150;  -76.729
505.295;  558.019; -417.161; -212.711
505.579;  540.062; -256.156; -496.719
505.862;  775.852; -555.145; -333.738
506.146;  773.209; -681.159; -758.714
506.429;  436.984;  568.841;  461.286
506.713;   61.305; -732.151; -667.728
506.996;  335.075;   90.846;  295.278
507.280;  338.284; -633.165; -474.703
507.563;  260.918; -469.155; -261.721
507.847;  103.233; -423.153; -112.724
508.130;   81.795; -665.161; -456.711
508.413;  121.366; -758.167; -577.700
508.697;  252.716; -151.167;   12.300
508.980;  158.960; -422.153; -312.724
509.263;   -2.085; -466.155; -450.720
509.547;   41.958; -124.150;   82.271
509.830;   48.447; -172.160;  140.289
510.113;   76.662;  128.844;  298.281
510.396;   35.965; -530.152; -300.725
510.680;  130.803; -818.145; -812.738
510.963;  555.079;  184.846;  180.277
511.246;  448.841; -493.150; -357.730
511.529;  265.908; -482.145;  -83.739
511.812;  403.829; -250.134;   10.241
512.095;  286.602; -740.151; -396.728
512.378;   70.241; -317.147; -245.736
512.661;   36.875; -703.137; -623.753
512.944;   30.256; -750.142; -637.744
513.227;   69.147; -170.137; -171.752
513.510;   35.392; -479.144; -671.741
513.793;   37.598; -485.140; -435.747
514.076;  112.688;  -43.127;  -39.771
514.359;   96.450; -294.149; -135.732
514.642;   89.809; -442.142; -567.744
514.925;  788.896;  581.860;  561.253
515.208; 1035.525; -498.134; -443.758
515.491;  689.014; -276.133; -182.761
515.773;  387.796; -410.143; -337.742
516.056; 2174.981;  249.864;  409.246
516.339; 2885.310; -754.136; -652.755
516.622; 1870.388; -518.150; -488.730
516.904; 1131.728;  882.857;  975.257
517.187;  533.271; -730.138; -523.752
517.470;  397.851; -568.143; -510.743
517.752;  449.088; -624.136; -470.756
518.035;  359.108; -708.139; -725.749
518.318;  387.510; -799.136; -744.755
518.600; 2553.643; -300.132; -325.762
518.883; 3474.108;  310.858;   88.256
519.165; 1666.514; -585.138; -426.751
519.448;  399.192;  -61.132;  -19.762
519.730;  203.671; -573.126; -415.773
520.013;  315.935;  588.867;  664.240
520.295;  775.931;  -94.134;  -15.759
520.578; 1707.330; -335.131; -305.764
520.860; 1913.618; -254.132;   56.238
521.143; 1029.565; -763.135; -584.756
521.425;  459.959; -251.125; -279.775
521.707;  696.339; -622.127; -380.771
521.990; 1803.664; -199.127;  167.229
522.272; 2097.374; -116.140;   -4.748
522.554;  950.221; -237.143; -157.742
522.836;  355.004;  -24.134;   99.241
523.119;  199.559; -496.148; -189.734
523.401;  163.362; -448.130; -314.766
523.683;   89.250; -865.137; -693.753
523.965;  282.119;  408.862;  260.248
524.247;  277.030;   54.878;  170.220
524.529;  208.756; -451.134; -367.759
524.812;  354.189;   -3.130;  191.234
525.094;  892.443; -773.138; -631.751
525.376; 1404.643; -143.124;   78.223
525.658;  868.782; -441.136; -339.754
525.940;   21.827; -805.131; -671.764
526.222;   36.111; -188.136;  -88.755
526.504;  101.900; -190.131;   32.237
526.786;  166.958; -960.133; -647.760
527.068;  278.098; -124.123;  -67.778
527.349;  108.529; -865.137; -774.754
527.631;  142.417; -137.132;   22.238
527.913;  139.888; -664.127; -450.771
528.195;  180.427; -761.125; -639.774
528.477;  259.501;  -93.134;  -30.758
528.759;  148.439; -648.130; -522.766
529.040;   68.897; -569.123; -293.778
529.322;   49.854; -235.125;  -10.774
529.604;  130.216;  -47.130;   93.233
529.886;  118.420; -546.126; -302.773
530.167;  109.758;  232.870;  192.235
530.449;   49.315;    1.853;   63.265
530.731;   25.729; -572.122; -459.779
531.012;   76.900; -513.120; -216.784
531.294;   89.914; -118.116;  -43.792
531.575;  139.009;  290.875;  538.225
531.857;   64.445; -548.135; -266.757
532.138;   94.492; -113.141;   40.254
532.420;  169.117;  294.865;  403.244
532.701;  208.210; -722.133; -751.760
532.983;  335.613;  232.867;  182.239
533.264;  115.519; -243.126;  175.228
533.546;  -38.689; -491.136; -508.755
533.827;   33.632;  173.867;   -1.759
534.109;   34.420; -352.135;  -80.757
534.390;   72.146; -725.132; -582.762
534.671;  253.791; -270.135;  -82.756
534.953;  134.350; -751.123; -611.779
535.234;   21.699; -426.117; -255.789
535.515;  -79.117; -891.119; -735.785
535.796;  -24.016; -431.128; -193.770
536.078; -112.283;-1050.124; -904.777
536.359;   12.700;  -22.123;    3.221
536.640;   -7.247; -480.125; -197.774
536.921;  159.321;  225.871;  143.232
537.202;  386.340;  -87.138;  -16.751
537.483;  475.755;  251.869;  377.236
537.764;  181.258;   17.870;   98.235
538.045;  -25.325; -543.134; -371.758
538.326;  -29.077; -596.129; -447.768
538.607;   23.665; -686.127; -476.771
538.888;  156.891;   98.879;    5.218
539.169;  196.660; -704.122; -535.781
539.450;  322.045;  236.871;   16.233
539.731;  235.495; -361.121; -182.783
540.012;  148.575;  199.880;  412.216
540.293;   84.362;   82.876;  158.224
540.574;   14.309; -895.113; -717.796
540.855;  441.993;  435.879;  377.218
541.136;  520.508;   47.878;  139.220
541.416;  292.515; -161.130; -220.766
541.697;  197.250; -274.131; -170.763
541.978; 1072.669; -270.135; -315.757
542.259; 1367.464; -211.127; -236.771
542.539;  646.157; -191.116; -186.790
542.820;  203.858;  461.875;  480.225
543.101;  128.655;  -52.145;  -77.738
543.381;   27.114; -638.127; -591.771
543.662;  251.012;  159.873; -254.771
543.942;  596.235; -751.127; -830.770
544.223; 1095.559;  193.878;  161.219
544.504;  683.017; -275.124; -182.777
544.784;  612.545; -592.126; -408.773
545.065; 1690.886;  104.884; -254.791
545.345; 2013.908;  227.881;   14.215
545.626; 1328.358;  -14.113; -108.796
545.906;  920.682;   77.869;   98.235
546.186;  380.400;   92.874;  -95.773
546.467;  210.670;   99.877;  -95.778
546.747;  347.182;  264.884;  327.210
547.027;  409.216;   91.876;  111.223
547.308;  341.559; -376.127; -530.770
547.588;  419.149;  299.871;  371.232
547.868;  191.659;  458.870;  588.235
548.149;  210.244;  609.885;  593.207
548.429;  128.313; -347.127; -299.771
548.709;  204.499; -645.120; -461.784
548.989;  485.518;   84.882;   88.213
549.269; 2191.566;   10.868;  139.239
549.550; 4977.724;  215.877;  117.222
549.830; 4477.226; -758.111; -556.799
550.110;  892.809; -468.110; -320.801
550.390;  846.854; -128.122;  -56.779
550.670; 1182.929; -868.114; -783.795
550.950;  828.368; -509.121; -471.782
551.230;  189.814;  549.879;  460.218
551.510;   -7.183; -381.121; -326.782
551.790;   37.742; -173.109; -127.803
552.070;  265.770;  940.877; 1181.223
552.350;  429.762; -492.119; -377.786
552.630;  619.312;   -2.121;   77.219
552.909;  382.812;  181.884;   73.209
553.189;  230.822;  -49.132;   33.237
553.469;  203.837; -703.119; -514.786
553.749;  201.941; -469.127; -357.772
554.029;  154.778;   33.883;  -24.790
554.308;  152.648; -154.115;  -37.794
554.588;   79.183; -196.128; -204.770
554.868;   72.519; -366.121;  -47.782
555.147;  154.545; -114.115;  -46.793
555.427;  626.964; -260.116; -250.792
555.707; 4061.243; -284.115; -200.793
555.986; 4909.105; -719.111; -538.800
556.266; 2564.631;   23.884;   72.210
556.546;  132.742; -888.121; -675.782
556.825;  280.327; -657.114; -556.794
557.105; 1880.206; -125.128;   17.230
557.384; 2135.786;  122.884;  187.209
557.664;  828.513; -717.116; -508.792
557.943;   91.718; -557.121; -411.782
558.222;  181.221; -345.118; -344.788
558.502;  272.421; -116.115;  -76.793
558.781;  509.142;  194.885;  499.208
559.061;  423.245; -232.118; -227.788
559.340;  299.825;  302.883;  353.211
559.619;  740.931;   93.884;  148.210
559.899; 1065.727; -239.117; -266.789
560.178;  980.371; -778.115; -593.793
560.457; 3272.079; -623.117; -562.790
560.736; 4563.531; -472.111; -482.800
561.015; 3029.929; -500.128; -502.769
561.295;  394.011;  180.893;  215.193
561.574;  346.343;  119.885;  116.207
561.853;  515.071;  274.891;  303.197
562.132;  529.998;  -45.114;  182.206
562.411;  446.012;  396.879;  553.219
562.690;  157.017; -592.115; -458.792
562.969;  153.566;  472.888;  630.203
563.248;  488.385; 2966.878; 2487.219
563.527;  279.180; -290.111; -408.800
563.806;  418.213; -650.127; -521.771
564.085;  428.526; -297.105; -206.810
564.364;  261.505; -594.117; -405.790
564.643;  523.938; -276.121; -223.781
564.922; 1959.840;  221.890;  397.198
565.201; 1991.618; -640.109; -700.803
565.479;  854.290; -297.115; -219.792
565.758;  339.681; -810.128; -712.770
566.037;  505.295; -155.109; -100.803
566.316;  235.711; -286.116;  -28.791
566.595;   43.618;  -17.115;  -12.793
566.873;   95.182; -166.111;  -79.801
567.152;  -58.185; -490.113; -590.797
567.431;   13.932; -113.116;    6.210
567.709;   21.937; -344.107; -212.807
567.988;  273.477; -810.114; -769.794
568.266;  556.018; -160.115;  -68.793
568.545;  410.648; -644.100; -514.819
568.824;  601.215;  160.885;  356.208
569.102;  589.251; -351.114; -235.794
569.381;  238.439; -492.116; -407.792
569.659;  -35.164; -553.113; -553.796
569.938;   50.333; -743.122; -465.780
570.216;  127.697; -225.109; -225.804
570.494;  -10.695; -632.114; -572.795
570.773;   36.016;  202.879;  114.218
571.051;   11.998; -373.123; -357.778
571.330;   66.059; -221.113; -174.796
571.608;   34.916; -181.098; -173.823
571.886;  -66.676; -671.111; -581.799
572.164;  -57.206; -739.121; -621.782
572.443;  -60.095; -562.105; -512.811
572.721;  -20.421; -399.117; -289.790
572.999;  -35.577; -280.117; -168.788
573.277;   89.124;  379.894;  620.191
573.555;  310.101;   94.894;   37.190
573.834; 1415.122;  -86.117; -114.788
574.112; 1627.189;  880.893;  811.193
574.390;  507.781; -143.111;  -96.801
574.668;   -3.734;  -91.112;  -61.797
574.946;   -8.049; -165.106; -187.810
575.224;   17.768;   71.891;  -16.803
575.502;  -27.116; -200.116; -204.791
575.780;  -83.133; -767.112; -829.798
576.058;  206.255; 1589.889; 1004.200
576.336;  -14.414; -210.110; -129.801
576.614;  -55.932; -511.112; -340.798
576.891;   53.022; -711.115; -823.794
577.169;  515.455; -158.108; -285.805
577.447;  595.463;  169.893;  202.193
577.725;  273.347;  629.888;  854.201
578.003;   12.595;  -71.112; -371.798
578.280;   96.864; -208.104; -242.812
578.558;   74.946; -450.115; -422.793
578.836;  131.129; -210.114; -145.795
579.114;   54.416; -630.112; -670.797
579.391;   65.574;   -6.117;  -18.789
579.669;  -80.677; -595.114; -704.794
579.947;  178.885; -326.107; -127.806
580.224;  331.335; -692.107; -524.806
580.502;  343.364;  127.893;   76.193
580.779;   17.880;  -42.117;   75.210
581.057;  -69.328; -584.109; -470.804
581.334;  -97.221; -726.102; -695.815
581.612;   53.902;   54.895;  511.190
581.889;  -34.408;  -83.101; -129.818
582.167;  -23.294; -298.099; -190.821
582.444; -110.438; -845.102; -814.817
582.721;  108.087;  657.899;  715.183
582.999;   51.279; -326.100; -167.821
583.276;  540.502; -812.123; -713.779
583.553;  727.357; -364.102; -294.816
583.831;  241.361; -607.104; -631.812
584.108;   45.028;  349.892;  174.195
584.385;    9.753; -122.102;  -98.815
584.662;  -62.842; -651.111; -828.801
584.940;   29.107;  204.889;  204.199
585.217;  -32.264;  -73.113; -303.796
585.494;   39.716;   71.890;  118.198
585.771;  199.648; -250.109; -354.804
586.048;  510.161; -196.113;  -76.796
586.325;  324.410; -721.110; -773.801
586.602;   82.389;  230.896;  213.188
586.879;  -23.250; -499.100; -580.820
587.156;   63.153; -156.105; -331.810
587.433;  -35.365; -701.102; -667.817
587.710;   84.718;  152.888;  234.202
587.987;  290.883; -264.105; -236.811
588.264;  813.395;  315.888;  387.202
588.541; 1365.717;  -61.104;   26.187
588.818; 2738.375;   72.892;  171.196
589.095; 2369.262; -163.104; -174.812
589.371;  368.346; -459.109; -414.804
589.648;    5.439; -581.107; -437.807
589.925;   25.505; -517.114; -621.795
590.202;   30.518; -741.112; -607.798
590.478;   90.110; -166.105;  -73.811
590.755;  278.506; -241.108; -132.806
591.032; 2587.912; -741.110; -699.802
591.308; 3530.856; -732.094; -790.831
591.585; 1840.712; -573.110; -560.802
591.862;  155.736;-1056.102; -950.817
592.138;   72.604; -475.108; -474.805
592.415;  147.190; -486.104; -495.813
592.691; 1511.413;  460.896;  518.188
592.968; 1909.518; -208.098; -123.824
593.244;  917.057; -695.116; -595.790
593.521;   79.936; -105.102;  -42.817
593.797;  -19.870; -810.122; -720.780
594.074;  345.331; -611.096; -588.826
594.350;  646.942;  828.905;  729.172
594.626;  307.858; -303.111; -283.801
594.903;  108.812; -643.101; -645.817
595.179;  193.044;  243.896;  418.187
595.455;   20.465; -136.107; -150.807
595.731;   -2.804;  -19.103;  -38.814
596.008;  -35.373; -464.111; -434.800
596.284;   31.827; -187.100; -242.820
596.560;   67.562; -501.093; -493.833
596.836;  202.080; -173.105;  -70.810
597.112;  337.955; -582.108; -437.805
597.388;  283.953;  -49.097;  -48.826
597.665;  113.013;  437.887;  530.203
597.941;  -73.233; -572.089; -658.839
598.217;   26.940; -323.110; -293.802
598.493;  275.425;   61.891; -204.804
598.769;  508.247; -175.100;  -50.819
599.045;  296.333; -490.108; -562.806
599.321;   56.626; -193.100; -261.820
599.597;  153.149; -355.109; -476.804
599.872;  491.442;  409.896;  429.187
600.148;  375.055;  -61.097; -172.826
600.424;  317.887;   91.893;  202.193
600.700;  257.490; -170.107; -280.807
600.976;  122.799; -442.097; -464.825
601.252;  244.121; -226.109; -272.803
601.527;  232.293; -833.104; -840.813
601.803;  152.835; -453.105; -404.812
602.079;  186.447; -124.100; -118.819
602.354;  571.647; -620.092; -531.835
602.630;  819.511; -140.113; -482.796
602.906; 2409.717; -910.101; -863.818
603.181; 6906.887; -627.119; -534.786
603.457; 5813.378;   98.903; -278.826
603.733;  872.770; -605.120; -626.783
604.008;  981.576; -245.106; -164.810
604.284; 3106.388; -636.101; -580.817
604.559; 2745.247;   -3.112;  -42.799
604.835;  497.729; -163.105; -225.810
605.110;  429.307; -732.099; -892.821
605.385;  713.190;  224.907;  267.167
605.661;  660.794; -625.095; -729.829
605.936; 1208.958; -664.108; -737.806
606.211; 1007.002;  -17.103; -170.815
606.487;  202.750; -329.114; -376.794
606.762;   12.387; -791.119; -745.786
607.037;  -11.495; -501.105; -433.810
607.313;  -62.887; -589.096; -574.828
607.588;  -10.674; -375.106; -137.810
607.863;   41.617;  -28.101; -143.818
608.138;  182.464;  513.890;  516.198
608.413;   35.836; -576.099; -592.822
608.688;   48.579; -203.108; -267.805
608.964;  195.845; -509.106; -218.809
609.239;  260.227; -107.105; -212.810
609.514;  246.360;  281.895;  240.188
609.789;  657.639; -187.104; -716.812
610.064;  893.936; -435.096; -609.827
610.339;  915.821; -855.109; -799.804
610.614; 1220.677; -131.100; -315.820
610.889;  709.660;  215.895;  107.188
611.163;   44.336; -407.104; -591.812
611.438;   85.901;   81.886; -167.794
611.713;    0.538; -467.101; -499.817
611.988;   58.616; -144.101; -328.818
612.263;  -20.696; -771.102; -717.815
612.538;  225.210;  385.887;  251.204
612.812;  175.853; -832.100; -911.820
613.087;  144.691; -358.098; -338.823
613.362;  -37.285; -497.107; -557.807
613.637;   40.948;  261.897;  138.186
613.911;  -14.627; -256.092; -345.835
614.186;  142.363; -249.107; -292.807
614.460;  691.691; -842.081; -758.854
614.735;  824.990;  -55.087;  -17.843
615.010;  170.030;   43.912;  -82.841
615.284;  268.129;  360.892;  246.195
615.559;  372.147; -792.092; -955.835
615.833;  302.834;  -76.099;  -87.822
616.108;   -7.367; -225.090; -390.837
616.382;  135.466;  274.913;  402.156
616.656;  164.859; -241.090; -232.837
616.931;  522.709; -785.099; -700.822
617.205; 1096.818; -973.104; -979.813
617.480; 1004.981;  -91.125;    6.225
617.754;  162.654; -396.125; -128.774
618.028;   18.550; -369.129; -382.768
618.302;   61.952;   73.892;  -25.805
618.577;  -42.000; -371.103; -518.815
618.851;  -52.682; -399.109; -600.803
619.125;  -53.344; -335.134; -378.759
619.399;  -42.456; -244.104; -374.813
619.673;  -46.560; -330.115; -515.792
619.947;  -52.571; -333.114; -448.795
620.222;  -14.291; -198.110; -204.801
620.496;    4.243;  -47.121;  -96.782
620.770;   25.785; -187.122;  -93.781
621.044;  201.078;  323.895;  346.190
621.318;  752.346; -653.120; -614.783
621.592;  674.694; -430.121; -409.783
621.866;  358.048; -476.112; -572.799
622.140;   23.684; -207.116; -356.791
622.413;   59.127;  138.889;  112.200
622.687;  -57.436; -746.101; -492.817
622.961;   13.127; -130.108; -143.805
623.235;  -58.522; -633.111; -661.800
623.509; -106.116; -816.105; -848.811
623.783;    2.836;  -12.107;   48.193
624.056;  -16.678; -254.120; -280.783
624.330;   48.191;   63.888;   -3.797
624.604;   54.455; -271.116; -355.790
624.877;   62.438;  180.890;   26.198
625.151;   39.299; -249.114; -238.794
625.425;  -29.455; -150.103; -283.814
625.698;  -43.994; -367.119; -374.785
625.972;  -97.710; -799.110; -765.802
626.245;   69.832;  685.884;  484.210
626.519;  -47.749; -426.120; -340.784
626.792;  -29.885; -192.107; -380.807
627.066;  -86.597; -485.122; -662.779
627.339;  -94.539; -736.110; -663.802
627.613;   41.600;  351.880;  148.216
627.886;   59.842;  187.891; -612.803
628.160;  -10.454;  312.880; -161.783
628.433;  -82.066; -695.125; -703.775
628.706;  -85.774; -517.120; -615.784
628.979;   20.316;  296.876;  117.223
629.253;  -90.989; -785.119; -833.786
629.526;  385.769; -334.126; -253.772
629.799;  357.423; -641.123; -479.778
630.072;  169.726; -497.128; -516.769
630.346;  -58.043;-1115.116;-1080.790
630.619;  462.191; -467.107; -545.808
630.892;  632.303;  709.889;  593.200
631.165;  333.843;  790.896;  679.187
631.438;  -66.805;-1092.112;-1055.798
631.711;   59.401;  453.877;  257.221
631.984;  -61.623; -523.117; -624.789
632.257;  -77.451; -636.117; -681.789
632.530;  -57.793; -412.119; -433.785
632.803;   21.072; -109.115;    7.207
633.076;  -65.805; -360.123; -422.777
633.349;   18.380;  173.872;  121.231
633.622;  -47.045; -187.119; -240.785
633.895; -121.453; -903.120; -823.783
634.167;  -69.679; -496.126; -525.773
634.440;   -6.512;  -19.116; -137.792
634.713;   -9.065;  -22.119; -120.786
634.986;   68.645;  593.871;  453.233
635.258;  -89.080; -507.115; -597.793
635.531;   92.845;  742.882; -343.788
635.804;  -30.824; -303.117; -318.789
636.077;  -92.940; -830.116; -852.791
636.349;    5.844; -586.115; -474.793
636.622;  387.443; 1695.874; 1392.228
636.894;  239.576; -474.120; -909.784
637.167;  157.137; -836.127; -789.771
637.439;   43.033; -278.128; -213.770
637.712;  -47.930; -312.126; -293.772
637.984;  -80.065; -635.116; -707.791
638.257;  373.845;  515.877;  488.222
638.529;  563.885; -881.125; -924.776
638.802;  255.076; -508.128; -449.769
639.074; -110.016; -927.122; -952.781
639.346; -114.753; -942.135; -930.757
639.619;   -9.818;  -79.142; -319.744
639.891;   10.128;  -83.122; -168.779
640.163;  -80.345; -689.122; -756.780
640.435;   34.857;  273.878;  103.220
640.708;    1.208;  -72.122; -132.780
640.980;  -27.890; -366.122; -362.781
641.252;  177.412;  -25.121;  -71.781
641.524; 1800.514;  580.879;  573.219
641.796; 1837.616;-1094.121; -907.782
642.068;  334.317; -191.121; -300.782
642.340;  -69.431; -486.121; -566.783
642.613;   51.571;  294.880;  323.217
642.885;  -99.002; -787.120; -878.783
643.157;  -48.025; -810.120; -658.784
643.428;   45.252;  170.880;  218.216
643.700;  -56.222; -498.120; -425.784
643.972;  -35.395;  -16.119; -133.785
644.244;  -88.993; -474.119; -559.785
644.516;  -46.741; -250.119; -114.786
644.788;   67.336;  662.881;  548.214
645.060;  -29.012;  -12.119; -124.786
645.332;  -97.711; -525.118; -535.787
645.603;   24.491;  479.882;  342.213
645.875;  -80.007; -334.118; -369.787
646.147;  147.870; 1487.882; 1242.212
646.418;  -51.903; -931.117; -918.788
646.690;  144.998; -714.117; -715.789
646.962;   30.150; -413.117; -451.789
647.233;  -21.873;   15.883;   11.211
647.505; -108.996; -595.117; -475.790
647.776;   29.531;  328.884;  229.210
648.048;    7.158; -248.116; -418.790
648.320;  -86.766; -752.116; -679.791
648.591; -152.339;-1055.116; -958.791
648.862;  -97.037; -505.116; -577.792
649.134;   19.765;  115.885;  198.208
649.405;  -54.933; -661.115; -618.792
649.677;  -44.307; -475.115; -598.793
649.948;  -20.580; -181.115; -296.793
650.219;   -4.478;  -37.115; -147.793
650.491;  -70.126; -431.114; -520.794
650.762; -123.649; -705.114; -731.794
651.033;  -77.322; -437.114; -424.795
651.304;  -93.496; -743.114; -728.795
651.576;  -61.944; -680.114; -645.795
651.847;  -35.417; -250.113; -140.796
652.118;  -26.565;  -32.113; -189.796
652.389;  -94.513; -639.113; -722.796
652.660;  -33.187; -147.113;  -89.797
652.931; -126.785; -897.112; -871.797
653.202;  -76.908; -382.112; -541.798
653.473;  -68.256; -633.112; -533.798
653.744;  149.646; -595.112; -590.798
654.015;  144.973; -356.112; -303.799
654.286;  -63.101; -642.111; -663.799
654.557;  -64.024; -586.111; -521.799
654.828; -158.322;-1114.111;-1088.800
655.099;  -97.420; -404.111; -291.800
655.370; -107.618; -427.111; -543.801
655.641; -116.567; -656.110; -714.801
655.911; -111.565; -618.110; -638.801
656.182;   36.412;  437.890;  387.198
656.453;   92.114;  830.890;  746.198
656.724;  -72.359; -466.110; -426.802
656.994;  -90.107; -553.109; -568.803
657.265; -109.656; -862.109; -873.803
657.536;  -88.254; -500.109; -377.804
657.806; -104.627; -561.109; -593.804
658.077; -137.925; -866.109; -950.804
658.347;  -75.948; -523.108; -598.805
658.618; -104.621; -646.108; -694.805
658.888;  -20.795;  -41.108;  112.195
659.159;  -82.193; -432.108; -548.806
659.429;  -14.491; -292.108; -349.806
659.700;   20.986; -435.107; -390.807
659.970;  -13.337; -370.107; -359.807
660.241;   19.364; -754.107; -921.807
660.511;  522.516; -147.107; -174.808
660.781;   97.768; -793.106; -748.808
661.052;  -52.880; -222.106; -381.808
661.322;  -24.778;   21.894;   -9.809
661.592;   12.399;  257.894;  148.191
661.862;  -65.475; -369.106; -382.810
662.133; -101.573; -551.105; -502.810
662.403; -118.746; -770.105; -676.810
662.673;  -50.094; -256.105; -213.811
662.943; -110.892; -612.105; -551.811
663.213;    1.084;  -85.105;  -81.811
663.483;  -83.964; -593.104; -568.812
663.753;  -46.962; -194.104; -152.812
664.023;  -12.485;   68.896;  -32.813
664.293;  -62.483; -319.104; -126.813
664.563; -113.906; -694.104; -648.813
664.833; -127.305; -743.103; -608.814
665.103; -122.853; -730.103; -793.814
665.373; -108.601; -766.103; -806.814
665.643;  -83.174; -863.103; -918.815
665.913;   39.678; -534.103; -714.815
666.182;  143.954; -685.102; -719.816
666.452;  261.706;  -22.102;  -89.816
666.722;  -29.442; -724.102; -784.816
666.992; -134.015; -948.102; -921.817
667.261;  -92.738; -824.102; -808.817
667.531;  197.764;  134.899;   45.183
667.801;  536.315; -440.101; -412.818
668.070;  249.742;  714.899;  697.182
668.340; -108.481; -883.101; -840.819
668.609;   87.721;  588.900;  301.181
668.879;  -86.052; -490.100; -558.819
669.149;  -68.576; -539.100; -516.820
669.418; -108.999; -698.100; -726.820
669.688;  -26.522; -482.100; -666.820
669.957;   60.255; -423.099; -546.821
670.226;  -25.468; -268.099; -331.821
670.496;  -91.016; -431.099; -635.822
670.765;  -71.065; -418.099; -501.822
671.034; -126.838; -872.099; -828.822
671.304;  -11.586;   55.902; -111.823
671.573; -158.684;-1085.098; -957.823
671.842;   77.693; -380.098; -294.823
672.112;   28.395; -692.098; -586.824
672.381;    2.146; -239.098; -214.824
672.650; -137.577;-1005.097;-1021.825
672.919;  -84.300; -631.097; -507.825
673.188;  -91.598; -681.097; -878.825
673.457; -148.421;-1101.097;-1143.826
673.726;  -71.370; -579.096; -646.826
673.995;  -54.993; -533.096; -479.826
674.265;  -13.641; -263.096; -333.827
674.534;   -6.864; -183.096; -235.827
674.802;   11.663; -618.096; -703.828
675.071; 1026.590; -886.095; -801.828
675.340; 3995.941; -464.095; -339.828
675.609; 1331.318;  103.905;   82.171
675.878;   73.995; -949.095; -893.829
676.147;   36.872;  -26.095;   -8.829
676.416;   78.124; -210.094; -294.830
676.685;  754.075; 1000.906; -622.830
676.953;  110.452; -603.094; -452.831
677.222;  -37.621; -193.094; -273.831
677.491;  -20.344;  -24.094; -127.831
677.759;  -12.817;   11.907;  172.168
678.028;  -25.590; -279.093; -222.832
678.297;   -4.514;   71.907;  197.168
678.565; -143.487; -898.093; -944.833
678.834;  -46.385; -311.093; -268.833
679.102;  -75.058; -411.092; -391.834
679.371; -137.431; -898.092; -727.834
679.639; -131.980; -797.092; -786.834
679.908; -128.528; -794.092; -724.835
680.176; -162.326; -895.091; -941.835
680.445;  -77.124; -346.091; -352.835
680.713;  -30.497;  -58.091;  -23.836
680.982;  -91.195; -523.091; -525.836
681.250; -106.544; -578.091; -507.837
681.518;  -91.517; -534.090; -751.837
681.787;  -17.990; -204.090; -167.837
682.055;  -73.938; -490.090; -422.838
682.323; -144.486; -993.090; -992.838
682.591;   30.816; -216.090; -538.838
682.859;   88.292;    9.911;  -35.839
683.128;   18.444;  232.911;  497.161
683.396; -177.054;-1102.089;-1122.840
683.664;  -34.177; -241.089;   21.160
683.932;    6.000;  144.911;  -76.840
684.200;  -81.574; -576.088; -320.841
684.468;  -40.197;  -73.088; -124.841
684.736;  -19.445; -214.088; -175.841
685.004; -126.368;-1024.088; -982.842
685.272;  -44.841; -880.088; -774.842
685.540;  -66.514; -499.087; -557.843
685.808;  -82.163; -651.087; -682.843
686.076; -105.311; -894.087; -969.843
686.343;  -57.784; -601.087; -815.844
686.611;   45.918; -195.087; -224.844
686.879;  471.945; -530.086; -553.844
687.147; 3387.521; -483.086; -480.845
687.414;  967.498;  -12.086; -169.845
687.682;    3.100; -658.086; -757.846
687.950;  312.177;  259.915;  263.154
688.217;    9.229; -792.085; -760.846
688.485;   -1.919; -632.085; -636.847
688.753;  522.632;  -11.085; -102.847
689.020;  164.559; -820.085; -851.847
689.288; -106.064; -853.084; -787.848
689.555;  -31.887; -195.084; -148.848
689.823;  -53.785; -241.084; -345.849
690.090;  -75.834; -546.084; -651.849
690.358; -149.207; -877.084; -897.849
690.625;   12.345;  120.917;   45.150
690.892;  -80.328; -403.083; -369.850
691.160;  -13.501;   72.917;  -35.850
691.427;  -10.849;  141.917;  130.149
691.694; -128.098; -855.083; -929.851
691.962; -152.146;-1177.082;-1060.852
692.229;   13.781;  127.918;   56.148
692.496;   68.658;  130.918;  -49.852
692.763;   -0.040; -164.082; -201.853
693.031;  -81.964; -739.082; -716.853
693.298;  -30.562; -509.081; -368.853
693.565;  311.790; -155.081; -163.854
693.832; 1309.717;   -5.081;   -9.854
694.099;  167.169; -643.081; -642.855
694.366;  -56.304; -882.081; -896.855
694.633;  -50.353; -920.080; -633.855
694.900;  757.599; 4367.920; -114.856
695.167;  431.401; -214.080; -380.856
695.434;   89.553; -646.080; -623.856
695.701;  182.405;  121.921;  -61.857
695.968;  468.007; -365.079; -361.857
696.234;  994.133; -415.079; -646.858
696.501;10161.160; -776.079; -614.858
696.768; 5210.262; -554.079; -617.858
697.035;  336.489; -632.078; -667.859
697.302;   38.816; -448.078; -552.859
697.568;   14.217; -458.078; -497.859
697.835;  -45.731; -683.078; -624.860
698.102;  -17.529; -498.078; -407.860
698.368;   76.923;  384.923;  396.139
698.635;  -35.000;  -47.077; -424.861
698.901;  -24.873; -240.077; -348.861
699.168;   71.928; -534.077; -456.862
699.435;   60.705;  -72.077;  -13.862
699.701; -115.768; -868.076; -764.862
699.968;    3.609;  144.924; -441.863
700.234; -100.589; -783.076; -822.863
700.500;  -62.038; -448.076; -539.864
700.767;    2.089;   -1.075;   26.136
701.033; -124.459;-1015.075; -963.864
701.299;  -52.182; -450.075; -483.865
701.566;  114.845;  950.925;  763.135
701.832;   32.672;  -31.075;  -76.865
702.098; -113.827;-1054.074;-1034.866
702.365;  -86.575;-1098.074;-1030.866
702.631;  -45.698;-1038.074;-1063.867
702.897; 1385.029; -765.074; -676.867
703.163; 2282.206;  348.926;  254.133
703.429;  167.332; -256.073; -273.868
703.695;  -33.716; -796.073; -792.868
703.961;   19.086; -214.073; -210.868
704.227;  -50.837; -630.073; -725.869
704.493;  120.115;  613.927;  510.131
704.759;  -25.133; -565.072; -540.870
705.025;   44.793; -203.072; -194.870
705.291;   -5.030; -666.072; -562.870
705.557;  184.097;  719.928;   34.129
705.823;   28.049; -742.072; -694.871
706.089;  130.701; -307.071; -326.871
706.355;  350.603; -315.071; -244.872
706.620; 5386.979; -776.071; -729.872
706.886; 7625.606; -309.071; -362.873
707.152;  734.858; -818.070; -973.873
707.418;  -26.065;-1153.070;-1186.873
707.683;   -1.563; -550.070; -530.874
707.949;  -41.762; -547.070; -578.874
708.215;    3.040; -129.070; -207.874
708.480;  -28.883; -520.069; -420.875
708.746;   82.319;   68.931;   28.125
709.011;  -64.429; -578.069; -612.876
709.277;  -69.852; -538.069; -543.876
709.542;  -48.251; -428.069; -387.876
709.808;    1.051;  -59.068;   89.123
710.073;  -98.122; -577.068; -695.877
710.339;  -24.495; -242.068; -228.877
710.604;   76.482; -780.068; -845.878
710.869;  328.058; -277.068; -366.878
711.135;  -76.240; -715.067; -628.879
711.400;  -83.738; -507.067; -608.879
711.665;  -66.136; -404.067; -479.879
711.931;  -93.434; -661.067; -677.880
712.196; -120.782; -876.067; -954.880
712.461;  106.419; -402.066; -490.880
712.726;  135.321; -727.066; -771.881
712.991;  -83.102; -647.066; -664.881
713.256;  -37.175; -350.066; -332.882
713.521;  -58.423; -417.065; -381.882
713.787;  -63.897; -454.065; -472.882
714.052;  -22.195; -214.065; -400.883
714.317;  -95.693;-1045.065; -981.883
714.581;  997.284; -374.065; -268.883
714.846; 1369.761; -822.064; -888.884
715.111;  125.138;  261.936;  257.116
715.376;  -37.536;  -86.064; -223.885
715.641;   -3.759; -365.064; -367.885
715.906;  283.818;   15.936; -551.885
716.171;  130.670;  221.937;  209.114
716.436;   23.322;  -78.063; -104.886
716.700; -115.502; -818.063; -692.886
716.965; -122.950; -794.063; -807.887
717.230;  -59.898; -339.063; -392.887
717.494;  -25.746;  -40.062; -134.888
717.759;  -88.219; -784.062; -640.888
718.024;   -2.542;  269.938;  250.112
718.288;   62.634;  685.938;  395.111
718.553; -148.239; -803.062; -977.889
718.817; -141.587; -883.061; -899.889
719.082;  -35.685; -115.061; -125.890
719.346; -142.808;-1000.061; -947.890
719.611;  -52.181; -300.061; -255.891
719.875;  -99.380; -568.060; -537.891
720.140;  -64.653; -453.060; -603.891
720.404;   37.724; -136.060; -249.892
720.668;  865.476; -475.060; -411.892
720.933;  320.228;  146.940;  137.108
721.197; -106.046; -667.059; -600.893
721.461; -129.969; -851.059; -826.893
721.725;  -10.042;  -21.059; -250.894
721.990;  -58.190; -284.059; -204.894
722.254;  -30.588;  -26.059; -108.894
722.518;  -75.111; -286.058; -442.895
722.782; -103.285; -743.058; -594.895
723.046;  140.992;  614.942;  570.105
723.310;   20.844;  374.942;  210.104
723.574;  -92.604; -654.058; -614.896
723.838; -106.202; -576.057; -642.897
724.102;  -44.401; -226.057; -239.897
724.366; -138.774;-1032.057; -978.897
724.630; -101.472; -749.057; -571.898
724.894;  -84.020; -722.057; -514.898
725.158;  -24.643;   38.944; -295.898
725.422;  -70.041; -394.056; -327.899
725.685;  -53.065; -441.056; -349.899
725.949;  -90.138; -566.056; -519.900
726.213;  -62.211; -732.056; -811.900
726.477;  182.816;-1020.055; -933.900
726.740;  138.468; -274.055; -104.901
727.004;  324.044; -384.055; -510.901
727.268; 3273.746; -442.055; -400.901
727.531;  905.698; -961.055; -775.902
727.795;  -42.950; -713.054; -673.902
728.059;  -67.848; -552.054; -557.903
728.322;  -72.171; -841.054; -669.903
728.586;   30.680; -692.054; -701.903
728.849;  -79.218; -695.053; -756.904
729.112; -112.016; -812.053; -912.904
729.376; -120.214; -959.053; -905.904
729.639;  -96.512; -536.053; -536.905
729.903; -116.586; -733.053; -699.905
730.166;  -47.784; -437.052; -399.906
730.429;  -23.357; -317.052; -468.906
730.693;  -58.280; -355.052; -894.906
730.956;  216.747;  810.948;  651.093
731.219;  698.374; -310.052; -103.907
731.482;  129.175;-1003.051; -894.907
731.745;   97.702; -794.051; -935.908
732.009;   23.654;  -30.051;   50.092
732.272; -101.669; -904.051; -771.909
732.535;  -39.917; -300.051; -310.909
732.798; -150.590;-1083.050;-1166.909
733.061;  -54.989; -430.050; -456.910
733.324;    0.188;   31.950; -180.910
733.587;   62.890;  290.950;  365.090
733.850;  -81.433; -973.049;-1050.911
734.113;   29.519;   33.951;   32.089
734.376;   -7.605; -328.049; -447.912
734.639;  202.522; 1188.951; 1011.088
734.901;   73.524; -180.049; -402.912
735.164;  508.351; -883.048; -837.913
735.427; 1333.628; -166.048; -355.913
735.690;  142.930; -205.048; -234.913
735.952;  -33.194; -923.048; -925.914
736.215;  -14.042;-1113.048;-1009.914
736.478;   35.685; -771.047; -774.915
736.740;  208.787;   33.953;  129.085
737.003;  707.264; -658.047; -672.915
737.266; 4156.615;  -94.047;   46.084
737.528;  444.792; -682.047; -660.916
737.791;  305.894; -316.046; -327.916
738.053;  792.296;  465.954;  649.083
738.316;10735.648; -162.046; -136.917
738.578; 7514.550; -770.046; -736.918
738.841;  431.651; -382.046; -446.918
739.103;  176.953; -875.045; -777.918
739.365;  525.205;   79.955;  -69.919
739.628;   -7.943; -884.045; -805.919
739.890;  -28.141; -758.045; -710.919
740.152;  -54.290; -692.044; -754.920
740.414;   -9.363; -408.044; -359.920
740.677;  -53.286; -785.044; -634.921
740.939;  -44.609; -587.044; -487.921
741.201;  278.068; -432.044; -572.921
741.463;   41.145; -689.043; -745.922
741.725;    2.671;  -21.043; -199.922
741.987;   49.373;  220.957;  116.078
742.249;    7.425; -751.043; -859.923
742.511;  237.827; -703.043; -794.923
742.773;   15.029; -546.042; -546.924
743.035;  114.731;  796.958;  533.076
743.297;  -47.168; -963.042;-1013.924
743.559;  761.434; -278.042; -262.925
743.821;   64.611; -735.042; -744.925
744.083;   15.063;  -44.041; -149.925
744.345;  -96.110; -869.041; -892.926
744.607;   19.216;   75.959;  122.074
744.868;  -57.407; -490.041; -554.927
745.130;  -93.730; -994.041;-1008.927
745.392;   33.597;   -1.040;  -44.927
745.653;  -14.526; -411.040; -378.928
745.915;  153.401;  896.960;  631.072
746.177;   47.152;   35.960;  -43.928
746.438;   -8.496; -428.040; -543.929
746.700;  -36.944; -947.039; -988.929
746.961;    5.733; -659.039; -740.930
747.223;  137.110; -190.039;  -74.930
747.484;   73.536; -391.039; -471.930
747.746;  147.838;  -23.038; -106.931
748.007;  102.790; -647.038; -689.931
748.269;  311.392; -468.038; -440.931
748.530;  479.669; -852.038; -638.932
748.791;  272.396; -354.038; -420.932
749.053;  434.322;  286.963;  163.067
749.314;  454.149; -236.037; -169.933
749.575;  497.951; -945.037; -905.933
749.836;  836.478; -217.037;   86.066
750.098; 2442.530;  -60.037;  -21.934
750.359;37130.306;  414.964;  555.066
750.620; 9376.008; -121.036; -220.935
750.881; 1037.535; -585.036; -513.935
751.142; 1383.612; -950.036; -938.936
751.403;16745.639; -789.036; -705.936
751.664; 7401.866;-1034.035; -999.936
751.925;  481.767; -175.035; -262.937
752.186;  275.519; -298.035; -278.937
752.447;  136.421; -590.035; -445.937
752.708;   48.923; -532.035; -648.938
752.969;    8.625; -566.034; -576.938
753.230;  -13.324; -777.034; -672.939
753.491;   -3.822; -650.034; -631.939
753.751;   60.080;  109.966;   19.061
754.012;  100.832;  258.967;  181.060
754.273;   53.484; -174.033;  -71.940
754.534;   12.586; -487.033; -580.940
754.794;  -82.513; -926.033; -911.941
755.055;  148.114; 1051.967;  881.059
755.316;  -49.384; -700.032; -566.942
755.576;  -19.757; -606.032; -576.942
755.837;  -35.805; -527.032; -695.942
756.097;  -31.703; -530.032; -564.943
756.358;  -77.452; -725.032; -770.943
756.618;  -51.350; -705.031; -641.943
756.879;    2.327; -254.031; -349.944
757.139; -105.771;-1098.031;-1116.944
757.400;  -52.594; -538.031; -553.945
757.660;  -15.393; -365.031; -401.945
757.920;  -12.191; -266.030; -228.945
758.181;  -12.489; -468.030; -351.946
758.441;  -97.512; -870.030; -809.946
758.701;  -47.635; -308.030; -215.946
758.961;  -31.208; -220.030; -278.947
759.222;  -49.832; -574.029; -502.947
759.482;  -72.605; -683.029; -723.948
759.742;  -80.678; -706.029; -547.948
760.002;    2.799;  -83.029; -143.948
760.262;   15.926;   50.972;  182.051
760.522;  -36.898; -498.028; -574.949
760.782;  -42.296; -738.028; -612.949
761.042;  -36.469; -618.028; -573.950
761.302;   51.983;   55.972;  -18.950
761.562;   43.735; -164.027; -154.951
761.822;   90.812; -710.027; -551.951
762.082;  -44.237;-1104.027;-1093.951
762.342;   68.590; -328.027; -403.952
762.601;   69.042; -567.027; -506.952
762.861;  367.169; -281.026; -207.952
763.121;  396.771; -406.026; -411.953
763.381; 7369.772; -499.026; -485.953
763.640; 8103.949; -139.026; -307.954
763.900;  371.001; -242.026; -203.954
764.160;   84.153; -458.025; -491.954
764.419;   -4.745; -726.025; -782.955
764.679;  -64.293; -795.025; -726.955
764.939;  -19.417; -124.025; -210.955
765.198;  -85.140; -608.025; -563.956
765.458;  -72.513; -710.024; -612.956
765.717;  -87.886; -454.024; -590.957
765.976;  -59.809; -428.024; -411.957
766.236;  -69.182; -475.024; -610.957
766.495;   24.669;  260.977;   73.042
766.755;  -95.154;-1090.023; -987.958
767.014;    8.398; -594.023; -665.958
767.273;  -56.125; -373.023; -397.959
767.533;  -40.748; -228.023; -307.959
767.792;  -35.772; -151.022; -188.960
768.051;  -55.370; -228.022; -276.960
768.310;  -82.618; -546.022; -650.960
768.569;   -1.716; -161.022;    4.039
768.828;  -37.264; -285.022; -363.961
769.088; -110.737;-1050.021; -942.961
769.347;  -90.111; -755.021; -599.962
769.606; -101.384; -876.021; -857.962
769.865; -129.807;-1016.021;-1033.963
770.124;    3.195; -411.021; -336.963
770.383;  -54.478; -778.020; -910.963
770.641;   -1.177; -398.020; -400.964
770.900;  -72.575; -953.020; -846.964
771.159;  -52.023; -851.020; -951.964
771.418;  -15.796; -917.020; -779.965
771.677;  128.681; -224.019; -293.965
771.936;  135.658; -794.019; -865.966
772.194; 2160.659; -465.019; -437.966
772.453;10790.236; -213.019; -391.966
772.712;  744.188;  416.982;  329.033
772.970;  113.540;   32.982;   63.033
773.229;   90.967;  -22.018;  102.033
773.488;  -90.632; -814.018; -770.968
773.746;   46.520;  296.982;  335.032
774.005;  -14.128;  190.983;  -22.969
774.263;   20.124;  243.983;  177.031
774.522;  -40.049; -422.017; -548.969
774.780;  -83.747; -484.017; -417.970
775.039;  -96.996; -551.017; -531.970
775.297;  -15.094; -135.016; -351.970
775.555; -115.667; -489.016; -612.971
775.814; -120.215; -618.016; -570.971
776.072; -125.788; -749.016; -740.971
776.330;  -94.237; -630.016; -520.972
776.589; -122.460; -703.015; -721.972
776.847; -128.458; -645.015; -624.973
777.105; -166.206;-1016.015;-1032.973
777.363;  -81.854; -459.015; -454.973
777.621; -149.002; -660.015; -717.974
777.879;  -23.651;  -42.014;   32.026
778.138; -115.874; -554.014; -717.974
778.396; -104.572; -585.014; -526.975
778.654; -169.695;-1015.014; -970.975
778.912;  -68.018; -269.014; -371.976
779.170; -126.091; -880.013; -803.976
779.427; -158.965; -922.013; -897.976
779.685; -145.413; -880.013; -832.977
779.943;  -72.836; -654.013; -593.977
780.201; -168.134; -964.012; -883.978
780.459; -124.307; -651.012; -610.978
780.717;  -77.981; -440.012; -390.978
780.974;  -93.329; -449.012; -490.979
781.232;  -81.327; -358.012; -338.979
781.490;  -79.550; -551.011; -472.979
781.747; -105.148; -555.011; -476.980
782.005;   10.354;  462.989;  254.020
782.263; -163.495; -542.011;-1004.981
782.520;  -80.793; -326.011; -501.981
782.778; -178.566;-1013.010;-1051.981
783.035; -171.464; -962.010; -938.982
783.293;  -72.737; -248.010; -206.982
783.550;  -60.761; -134.010; -198.982
783.808; -127.759; -764.010; -776.983
784.065; -152.982; -745.009; -874.983
784.322;  -61.830;   25.991;  -86.984
784.580; -140.853; -915.009; -771.984
784.837; -100.201; -392.009; -466.984
785.094; -126.075; -783.009; -762.985
785.352;  -79.623; -304.008; -404.985
785.609;  -96.896; -934.008; -839.985
785.866;  -90.394; -345.008; -401.986
786.123;  -62.492; -639.008; -583.986
786.380; -105.766; -665.008; -604.987
786.637;  -35.539; -225.007; -380.987
786.895;  -29.437; -456.007; -543.987
787.152;  -42.460; -135.007; -267.988
787.409;  -51.483; -123.007; -225.988
787.666;  -81.806; -299.006; -378.988
787.923; -113.455; -616.006; -695.989
788.179; -101.928; -551.006; -584.989
788.436; -113.376; -585.006; -585.990
788.693;  -29.699;  -92.006;  -87.990
788.950;  130.953; -125.005; -112.990
789.207;  225.479; -381.005; -372.991
789.464;  -49.494; -161.005; -301.991
789.720;   -5.817;  150.995;  110.009
789.977; -177.165;-1003.005; -671.992
790.234;  -26.813;   44.996;  -66.992
790.490; -148.911; -884.004;-1031.993
790.747;  -27.610;  -85.004;   22.007
791.004;  -32.108; -426.004; -348.993
791.260;  -70.506; -430.004; -560.994
791.517; -104.704; -843.003; -788.994
791.773;  -49.027; -379.003; -342.994
792.030; -107.900; -596.003; -660.995
792.286; -100.949; -686.003; -636.995
792.543;  -31.072;  -74.002; -159.995
792.799;  -59.095; -584.002; -382.996
793.055; -175.918;-1179.002;-1210.996
793.312; -108.216; -827.002; -816.997
793.568;  -60.865; -746.002; -599.997
793.824;    3.562; -226.001; -284.997
794.081;   20.664; -447.001; -508.998
794.337;   61.616; -664.001; -561.998
794.593; 1281.618; -319.001; -271.999
794.849; 6562.420; -746.001; -772.999
795.105;  346.946; -270.000; -261.999
795.361;    2.548; -490.000; -457.000
795.617;  -61.300; -875.000; -945.000
795.873;  -52.800; -360.000; -407.000
796.129;  -53.900; -368.000; -306.000
796.385;  -14.425; -124.000; -156.000
796.641;   62.700;  412.000;  550.000
796.897;  -77.325; -666.000; -635.000
797.153;   64.000;  453.000;  357.000
797.409;  -98.350; -785.000; -868.000
797.665;  -71.900; -625.000; -732.000
797.921;  -91.875; -775.000; -762.000
798.176;  -68.800; -744.000; -747.000
798.432;  -60.325; -824.000; -596.000
798.688;  -79.975;-1174.000;-1078.000
798.943;   81.025; -165.000; -147.000
799.199;   -9.725;-1005.000; -959.000
799.455;  202.400;  369.000;  316.000
799.710;  124.075; -813.000; -380.000
799.966;  281.350; -162.000; -160.000
800.221;  457.600; -638.000; -721.000
800.477;10382.675; -743.000; -710.000
800.732; 9183.725; -773.000; -800.000
800.988;  627.800;  205.000;  -19.000
801.243; 1736.125; -454.000; -344.000
801.498; 7441.075; -814.000; -739.000
801.754;  426.000; -289.000; -163.000
802.009;   80.050; -257.000; -335.000
802.264;  -56.300; -967.000;-1033.000
802.520;   20.500;  222.000;   -3.000
802.775;  -60.675; -524.000; -359.000
803.030;   54.925;  395.000;  356.000
803.285; -126.625; -840.000; -903.000
803.540;  -55.500; -686.000; -699.000
803.795;  -51.350; -648.000; -583.000
804.051;  -43.500; -279.000; -346.000
804.306;    7.950;  168.000;  128.000
804.561;  146.350;  451.000;  362.000
804.816;  113.500;  714.000;  861.000
805.071;   22.650; -185.000; -280.000
805.325;  208.700; -257.000; -427.000
805.580;  -99.050; -841.000; -877.000
805.835;  -18.350; -204.000; -297.000
806.090;  -85.375; -760.000; -676.000
806.345;  -34.425; -344.000; -264.000
806.600;  -42.825; -549.000; -632.000
806.854;  -29.650; -408.000; -538.000
807.109;  -19.325; -493.000; -577.000
807.364;  -14.800; -407.000; -328.000
807.618;   -1.850; -415.000; -381.000
807.873;   42.825; -470.000; -494.000
808.128;  102.525; -257.000; -518.000
808.382;   87.575; -224.000; -332.000
808.637;   65.100; -440.000; -511.000
808.891;  187.725; -257.000; -180.000
809.146;   96.300; -902.000; -794.000
809.400;  249.275; -848.000; -923.000
809.654;  322.400; -779.000; -551.000
809.909;  491.050; -841.000; -927.000
810.163; 6708.825; -813.000; -651.000
810.418;17419.950; -940.000; -861.000
810.672; 1057.025; -685.000; -690.000
810.926;  711.400; -993.000; -973.000
811.180; 1368.425; -439.000; -372.000
811.434;31207.600;  240.000;  135.000
811.689;12562.150; -231.000; -365.000
811.943;  624.475; -936.000; -953.000
812.197;  317.000; -893.000; -671.000
812.451;  108.275; -379.000; -514.000
812.705;  -26.425; -809.000; -619.000
812.959;   -2.975; -263.000; -388.000
813.213;   -9.025; -283.000; -209.000
813.467;   70.750;  470.000;  253.000
813.721;  -99.500; -764.000; -792.000
813.975; -116.225; -826.000; -877.000
814.229;   43.550;  430.000;  353.000
814.482;  -78.200; -517.000; -566.000
814.736; -128.150; -766.000; -744.000
814.990; -142.575; -779.000; -872.000
815.244;  -48.450; -228.000; -285.000
815.497;  -82.600; -636.000; -601.000
815.751;  -15.875; -141.000;   82.000
816.005;  -83.950; -470.000; -586.000
816.258;  -68.250; -510.000; -363.000
816.512; -121.225; -693.000; -610.000
816.766;   -9.100;  121.000;  157.000
817.019;   28.225;  148.000;  149.000
817.273; -116.125;-1000.000; -802.000
817.526;  -30.200; -206.000; -173.000
817.779;  -35.725;-1049.000; -960.000
818.033;  -80.275; -693.000; -807.000
818.286; -119.575; -725.000; -792.000
818.540;  -98.975; -403.000; -403.000
818.793;  -74.375; -402.000; -489.000
819.046; -113.725; -582.000; -520.000
819.299;  -38.250; -157.000; -166.000
819.553; -118.050; -552.000; -592.000
819.806; -164.725;-1016.000; -838.000
820.059;  -77.700; -334.000; -354.000
820.312;   14.300;  152.000;  185.000
820.565;  -15.125;  110.000;  -27.000
820.818;  -37.325;  -59.000; -173.000
821.071; -161.150;-1041.000; -957.000
821.324; -121.125; -536.000; -540.000
821.577; -118.550; -457.000; -483.000
821.830;  -65.575; -270.000; -172.000
822.083; -128.700; -733.000; -288.000
822.336;  -59.375; -261.000; -167.000
822.589; -137.175; -805.000; -688.000
822.842; -145.225; -875.000; -770.000
823.094; -188.200;-1076.000;-1114.000
823.347; -126.625; -925.000; -729.000
823.600;    8.600;  402.000;  187.000
823.853;  -49.900; -311.000; -267.000
824.105;  -68.750; -331.000; -575.000
824.358; -118.625; -617.000; -716.000
824.611;   27.050;  234.000;   40.000
824.863;  -44.600; -612.000; -591.000
825.116;   34.025;  -33.000;   27.000
825.368;   73.025; -366.000; -372.000
825.621;  156.800; -186.000; -240.000
825.873;   76.975; -704.000; -737.000
826.126;  547.400; -669.000; -641.000
826.378;11566.450; -389.000; -505.000
826.630; 2820.650; -890.000; -898.000
826.883;   25.425; -754.000; -693.000
827.135;   34.625; -279.000; -270.000
827.387; -122.450; -893.000; -839.000
827.639;  -39.175;  -86.000;   32.000
827.892; -134.100; -742.000; -582.000
828.144; -154.250; -848.000; -804.000
828.396;  -38.100;  104.000;  -80.000
828.648; -107.675; -440.000; -333.000
828.900; -139.325; -702.000; -795.000
829.152; -115.175; -684.000; -683.000
829.404;  -66.725; -215.000; -267.000
829.656;  -51.375;  321.000;  214.000
829.908;   -6.200;  393.000;  229.000
830.160; -162.750;-1064.000;-1047.000
830.412;  -87.175; -481.000; -430.000
830.664; -122.150; -557.000; -665.000
830.916;  -84.750; -268.000; -206.000
831.167; -184.850;-1073.000; -951.000
831.419; -116.725; -623.000; -566.000
831.671; -152.825; -764.000; -809.000
831.923;  -85.725; -311.000; -447.000
832.174;  -83.525; -273.000; -331.000
832.426; -122.100; -493.000; -582.000
832.678; -197.575;-1043.000;-1091.000
832.929; -156.825; -947.000; -935.000
833.181;  -69.800; -575.000; -677.000
833.432;  -58.150;  -59.000; -186.000
833.684;  -27.350;  112.000;  -27.000
833.935; -120.650; -610.000; -566.000
834.187; -139.875; -829.000; -823.000
834.438;  -51.300;  -58.000;  -25.000
834.689;  -53.925; -255.000; -123.000
834.941;  -66.225; -343.000; -244.000
835.192; -107.700; -590.000; -533.000
835.443;  -91.050; -419.000; -506.000
835.695;  -29.025;  138.000;  -16.000
835.946; -102.575; -608.000; -378.000
836.197; -108.300; -599.000; -622.000
836.448; -100.275; -528.000; -395.000
836.699;  -59.625; -253.000; -341.000
836.950;   -7.950;   72.000;    7.000
837.201; -147.875;-1003.000; -987.000
837.452;  -45.950; -356.000; -170.000
837.703; -122.400; -791.000; -737.000
837.954;  -39.250; -205.000; -365.000
838.205;  -85.600;-1029.000;-1008.000
838.456;  194.775; -196.000; -282.000
838.707;   10.200; -423.000; -519.000
838.958;   16.700; -634.000; -647.000
839.209;  286.725;   18.000;   40.000
839.460;  107.525; -439.000; -201.000
839.710;  171.675; -135.000; -297.000
839.961;  436.275;  730.000;  612.000
840.212;  330.625; -382.000; -497.000
840.462; 1127.725; -328.000; -277.000
840.713;17913.750; -571.000; -536.000
840.964; 7240.050;  -62.000; -143.000
841.214;  508.500; -384.000; -624.000
841.465;  569.200; -214.000; -141.000
841.715;  506.100; -417.000; -380.000
841.966;  676.125; -746.000; -685.000
842.216; 9267.850; -330.000; -431.000
842.466;35300.775; -169.000; -313.000
842.717; 1919.800; -964.000; -952.000
842.967;  319.100; -635.000; -641.000
843.217;  284.200;   20.000;   28.000
843.468;   82.650; -104.000; -132.000
843.718;  -52.150; -718.000; -726.000
843.968;  -84.150; -837.000; -765.000
844.218;    4.500; -315.000; -262.000
844.469;  -49.775; -577.000; -561.000
844.719; -112.850; -537.000; -682.000
844.969;  -95.150; -550.000; -580.000
845.219; -155.575; -814.000; -862.000
845.469;  -81.375; -392.000; -342.000
845.719; -142.700; -792.000; -884.000
845.969;  -21.775;  119.000;  174.000
846.219; -118.325; -738.000; -720.000
846.469;   25.200;  464.000;  432.000
846.718;  -69.025; -115.000;   31.000
846.968; -129.025; -827.000; -827.000
847.218;  -45.100; -224.000; -371.000
847.468;    8.200; -586.000; -555.000
847.718; -145.700; -827.000; -798.000
847.967; -137.050; -826.000; -915.000
848.217;  -82.175; -449.000; -569.000
848.467;  -67.175; -405.000; -376.000
848.716; -122.625; -708.000; -725.000
848.966;   -5.075; -372.000; -358.000
849.215;  -69.100; -428.000; -419.000
849.465;  -86.325; -785.000; -615.000
849.714; -161.750;-1132.000;-1150.000
849.964;  -70.250; -551.000; -613.000
850.213;  -44.600; -393.000; -355.000
850.463;   63.575;  137.000;  340.000
850.712;  -14.500; -542.000; -567.000
850.961;    3.550; -739.000; -678.000
851.211;   89.850; -513.000; -504.000
851.460;  161.075; -635.000; -650.000
851.709;  570.000;  -25.000;   18.000
851.958;10268.825; -912.000; -750.000
852.208;12734.150; -859.000; -879.000
852.457;  467.875; -181.000;  -13.000
852.706;   59.050; -791.000; -823.000
852.955;    3.750; -507.000; -528.000
853.204;  -71.575; -521.000; -461.000
853.453;  -79.375; -418.000; -458.000
853.702; -139.475; -660.000; -750.000
853.951; -104.050; -532.000; -520.000
854.200; -127.425; -613.000; -562.000
854.449; -131.825; -695.000; -661.000
854.698; -102.875; -340.000; -279.000
854.946;  -72.025; -181.000; -284.000
855.195; -156.725; -843.000; -868.000
855.444;  -92.825; -395.000; -420.000
855.693; -132.075; -345.000; -432.000
855.941; -115.950; -387.000; -516.000
856.190;  -76.000; -256.000; -382.000
856.439; -136.225; -652.000; -703.000
856.687;  -63.825;  -99.000;  -72.000
856.936; -122.000; -621.000; -323.000
857.184; -189.750;-1067.000;-1020.000
857.433; -106.950; -423.000; -512.000
857.681; -167.675; -989.000; -953.000
857.930;  -73.100; -282.000; -433.000
858.178; -176.725; -856.000; -929.000
858.427; -143.325; -802.000; -781.000
858.675; -115.700; -377.000; -544.000
858.923; -117.450; -527.000; -819.000
859.172; -195.375;-1094.000;-1070.000
859.420;  -94.500; -339.000; -239.000
859.668; -134.500; -624.000; -628.000
859.916;  -32.975;  109.000;  115.000
860.164; -132.625; -699.000; -603.000
860.413;  295.625; -878.000; -696.000
860.661;  219.600; -709.000; -577.000
860.909;  -75.975; -339.000; -325.000
861.157;  -97.850; -277.000; -444.000
861.405; -133.150; -534.000; -670.000
861.653;   13.225;  310.000;  310.000
861.901;  181.775; -543.000; -613.000
862.149;  -20.725; -801.000; -824.000
862.396;  -87.375; -297.000; -187.000
862.644; -105.275; -368.000; -347.000
862.892;  -33.350;   98.000;  138.000
863.140; -127.275; -549.000; -530.000
863.388; -156.275; -815.000; -759.000
863.635; -128.575; -642.000; -601.000
863.883;   -3.675;  231.000;  190.000
864.131;  -99.750; -288.000; -357.000
864.378; -144.650; -675.000; -540.000
864.626; -117.950; -347.000; -415.000
864.873; -124.325; -556.000; -505.000
865.121; -149.300; -714.000; -799.000
865.368;  -52.825; -173.000;   75.000
865.616;  -46.325;  -33.000;  -40.000
865.863;  -72.550; -462.000; -506.000
866.111; -109.975; -795.000; -824.000
866.358;   32.175; -426.000; -420.000
866.605; 2127.625;  -64.000; -804.000
866.853; 2221.375; -621.000; -537.000
867.100;  -61.250; -728.000; -775.000
867.347;  -97.700; -672.000; -611.000
867.594;  -87.225; -740.000; -714.000
867.841;   87.525;   97.000;   17.000
868.089; -167.600; -746.000; -698.000
868.336; -127.600; -477.000; -420.000
868.583; -149.850; -637.000; -741.000
868.830;  -48.375; -131.000; -170.000
869.077; -167.275; -859.000; -787.000
869.324; -137.375; -502.000; -458.000
869.571; -145.025; -398.000; -430.000
869.818; -125.800; -485.000; -439.000
870.065; -101.775; -439.000; -513.000
870.311; -120.400; -456.000; -542.000
870.558; -103.550; -332.000; -311.000
870.805; -103.200; -320.000; -384.000
871.052; -102.100; -494.000; -369.000
871.298;  -52.675; -204.000; -131.000
871.545;  -71.000; -151.000; -185.000
871.792; -101.225; -173.000; -222.000
872.038;  -70.875;   43.000; -126.000
872.285; -139.825; -496.000; -387.000
872.532; -108.875; -357.000; -387.000
872.778;   10.200;  556.000;  403.000
873.025; -102.150; -384.000; -359.000
873.271;   17.350;  501.000;  578.000
873.517;  -32.500; -133.000; -209.000
873.764;  -29.900; -193.000;  -80.000
874.010;  -75.375; -143.000; -230.000
874.257;  -30.400;  123.000;   90.000
874.503; -134.725; -579.000; -479.000
874.749;  -67.250;   31.000;  275.000
874.995;  -68.950;  -80.000;  -20.000
875.242; -123.300; -540.000; -478.000
875.488; -122.000; -414.000; -439.000
875.734;  -54.300; -106.000; -234.000
875.980;  205.250; -872.000;-1032.000
876.226;  378.350; -157.000; -255.000
876.472;   -3.900;  343.000;  237.000
876.718;  -42.900;  184.000;  158.000
876.964;  -46.350;   56.000;   55.000
877.210; -150.850; -547.000; -677.000
877.456; -143.700; -630.000; -557.000
877.702; -184.350; -821.000; -832.000
877.948; -118.900; -377.000; -497.000
878.193;    7.600;  361.000;  255.000
878.439;  -94.875; -487.000; -472.000
878.685; -100.950; -272.000; -343.000
878.931; -138.200; -618.000; -676.000
879.176;  -80.175; -201.000; -201.000
879.422; -183.125; -933.000; -820.000
879.668;   66.875;   10.000;   79.000
879.913;  139.225;   53.000;  137.000
880.159;  -52.750; -112.000;  -17.000
880.404;  -73.200; -152.000; -162.000
880.650;  -51.000;   91.000;  141.000
880.895; -161.600; -670.000; -710.000
881.141; -128.725; -454.000; -428.000
881.386; -150.350; -503.000; -658.000
881.631;  -80.925; -311.000; -166.000
881.877;  -39.000;  112.000;  -13.000
882.122; -146.625; -684.000; -600.000
882.367;  -93.350; -136.000; -186.000
882.612;  -76.175;  -80.000; -176.000
882.858; -170.250; -877.000; -823.000
883.103; -103.975; -297.000; -267.000
883.348; -165.950; -759.000; -852.000
883.593; -136.275; -677.000; -602.000
883.838;  -65.525; -311.000;  -24.000
884.083;   24.825;  353.000;  288.000
884.328;  -91.750; -564.000; -545.000
884.573;  -49.825; -196.000; -143.000
884.818;  178.225; -694.000; -531.000
885.063;  181.000; -348.000; -315.000
885.308; -109.950; -475.000; -398.000
885.553;  -18.650;  245.000;  325.000
885.797; -136.825; -545.000; -615.000
886.042;  -55.250;    8.000;   58.000
886.287; -101.850; -253.000; -211.000
886.532;  -52.850;   26.000;  204.000
886.776; -114.150; -407.000; -525.000
887.021; -151.950; -621.000; -574.000
887.265; -171.225; -685.000; -689.000
887.510; -132.400; -557.000; -496.000
887.755;  -98.125; -194.000; -164.000
887.999; -137.700; -552.000; -575.000
888.244;  -65.875;  -58.000;  161.000
888.488;   -1.850;  371.000;  393.000
888.732; -136.825; -368.000; -520.000
888.977; -135.850; -622.000; -567.000
889.221; -161.100; -683.000; -659.000
889.465; -130.050; -422.000; -566.000
889.710;  -87.875;  -56.000; -299.000
889.954;   -8.775;  579.000;  467.000
890.198; -161.000; -584.000; -707.000
890.442; -157.725; -716.000; -712.000
890.687; -171.725; -800.000; -753.000
890.931;  -98.400; -273.000; -210.000
891.175; -142.125; -502.000; -500.000
891.419;  -82.275; -105.000; -110.000
891.663; -103.200; -239.000; -112.000
891.907; -172.450; -801.000; -545.000
892.151; -190.150; -920.000; -815.000
892.395; -110.025; -274.000; -387.000
892.638;  -42.275;  408.000;  291.000
892.882; -188.925; -780.000; -867.000
893.126;   18.975;  758.000;  558.000
893.370;  -97.550; -167.000; -168.000
893.614; -165.875; -714.000; -715.000
893.857; -107.400; -183.000; -197.000
894.101; -148.275; -527.000; -631.000
894.345;  -57.100;  300.000;  150.000
894.588;    1.350;  569.000;  380.000
894.832;  -96.450; -178.000;  -84.000
895.075;  -88.125;   15.000;  -92.000
895.319; -129.300; -552.000; -420.000
895.563; -122.050; -413.000; -353.000
895.806; -165.275; -628.000; -741.000
896.049;  -74.750; -576.000; -368.000
896.293;  106.125;  527.000;  405.000
896.536;  -82.050; -465.000; -468.000
896.779;  -50.025; -149.000;   -1.000
897.023; -148.400; -751.000; -714.000
897.266;  -36.650;  325.000;  269.000
897.509; -196.825; -900.000; -901.000
897.752;  -54.950;  149.000;  171.000
897.996; -200.725; -972.000; -864.000
898.239;  -41.250;  168.000;  102.000
898.482; -124.450; -431.000; -453.000
898.725;  -22.900;  101.000;   53.000
898.968; -165.900; -609.000; -744.000
899.211; -107.300; -513.000; -361.000
899.454; -112.975; -633.000; -539.000
899.697;  -77.300;   90.000;  -43.000
899.940; -166.900; -761.000; -757.000
900.182;  -95.400; -335.000; -405.000
900.425;  -98.725; -150.000; -298.000
900.668;  -13.675;  491.000;  350.000
900.911; -123.400; -292.000; -345.000
901.154;  -52.025;  141.000;   -3.000
901.396; -137.800; -407.000; -412.000
901.639; -135.200; -430.000; -496.000
901.882; -199.475; -790.000; -809.000
902.124;  -69.700;  -29.000; -143.000
902.367; -119.475; -315.000; -361.000
902.609; -138.025; -476.000; -453.000
902.852; -100.850; -108.000; -260.000
903.094; -118.275; -458.000; -337.000
903.337;  -82.475;  -26.000;   53.000
903.579; -106.950; -228.000; -441.000
903.821; -151.200; -597.000; -744.000
904.064;  -61.100;   85.000;  127.000
904.306;  -96.550; -126.000; -166.000
904.548; -113.825; -152.000; -366.000
904.790; -117.275; -195.000; -340.000
905.033; -126.075; -625.000; -577.000
905.275; -129.300; -513.000; -524.000
905.517;   52.300;  468.000;  256.000
905.759;  -67.475; -667.000; -761.000
906.001; -102.850; -322.000; -369.000
906.243;  -75.150; -162.000; -224.000
906.485;  123.175; -265.000; -207.000
906.727;  113.175; -499.000; -542.000
906.969;  -38.725;  -30.000; -135.000
907.211;  105.400; -316.000; -382.000
907.453;  268.575; -188.000; -237.000
907.695;   -6.475; -158.000; -385.000
907.936;   35.625;  818.000;  706.000
908.178;  -66.500;   92.000; -135.000
908.420;  -71.275; -111.000; -162.000
908.662; -149.200; -633.000; -682.000
908.903;  -80.775; -208.000; -123.000
909.145;  -66.275; -240.000; -305.000
909.386;   -0.950;  315.000;  280.000
909.628;   32.100;  363.000;  397.000
909.870;  -10.450;   29.000;  264.000
910.111; -106.425; -809.000; -949.000
910.353;   23.000; -123.000; -161.000
910.594;    2.575; -574.000; -606.000
910.835;   78.600; -265.000; -326.000
911.077;  121.250; -503.000; -604.000
911.318;  266.475; -505.000; -471.000
911.559;  434.500; -577.000; -880.000
911.801; 1340.425; -284.000; -280.000
912.042;10332.475;  -50.000; -159.000
912.283;26841.450;  404.000;  371.000
912.524; 4084.975; -396.000; -457.000
912.765;  446.075; -193.000;   79.000
913.006;  232.250; -307.000; -338.000
913.247;   45.000; -270.000; -290.000
913.488;    1.575;  -43.000;   30.000
913.729;  -83.125; -373.000; -373.000
913.970;  -62.925;  -96.000; -292.000
914.211;  -82.200; -160.000; -198.000
914.452;  -68.600; -118.000;  -11.000
914.693;   19.525;  510.000;  592.000
914.934;    7.625;  510.000;  440.000
915.175;  -75.500;   53.000;  -95.000
915.415;  -70.825; -137.000;   27.000
915.656;  -58.575;  -28.000;  192.000
915.897;  -91.625; -252.000;  -82.000
916.137;  -70.850;   74.000;   -9.000
916.378; -134.300; -573.000; -517.000
916.619;  -99.125; -159.000;  -63.000
916.859;  -42.450;  303.000;  330.000
917.100;  142.400; 1655.000; 1070.000
917.340;   42.300;  930.000;  728.000
917.581;   42.725;  965.000;  789.000
917.821;  -38.450; -171.000;  143.000
918.061;   17.775; -199.000;  -72.000
918.302;  -66.300; -152.000; -211.000
918.542;  -34.200;  -22.000;    3.000
918.782;   47.150;  369.000;  377.000
919.023;  116.800;  360.000;  427.000
919.263; 1367.325; 8131.000;  202.000
919.503; 1146.200; -137.000;  -54.000
919.743;  638.875;  390.000;  266.000
919.983;  275.525; -134.000;  -26.000
920.223;   58.925;  135.000;   14.000
920.463;  159.625;  631.000;  554.000
920.703;  126.050;   84.000;   39.000
920.943;  158.775; -110.000;   90.000
921.183;  219.575; -414.000; -405.000
921.423;  489.800;  307.000;  546.000
921.663;  703.925; -174.000; -257.000
921.903; 1570.675;  237.000;  173.000
922.143; 8598.350;  372.000;  389.000
922.383;33197.375;  158.000;  115.000
922.622;11152.525; -120.000;  -15.000
922.862; 1210.600;  796.000;  785.000
923.102;  436.450;  -51.000;   33.000
923.341;  171.700;   59.000;   74.000
923.581;   85.825;  450.000;  360.000
923.821;   11.775;  301.000;  398.000
924.060;   -5.525;  351.000;  193.000
924.300;  -59.875;  -16.000; -128.000
924.539;  -22.225;  584.000;  473.000
924.779;   15.675;  812.000;  597.000
925.018;  -52.925;  247.000;  353.000
925.257;   -5.925;  595.000;  666.000
925.497;  -46.825;  447.000;  412.000
925.736;  -73.725;  -35.000;  102.000
925.975;   -3.525;  687.000;  669.000
926.214;   19.125;  907.000;  850.000
926.454;    5.950;  706.000;  757.000
926.693;  -67.975;  419.000;  543.000
926.932;   24.200; 1021.000;  825.000
927.171;   59.525; 1107.000; 1044.000
927.410;   48.900; 1144.000;  967.000
927.649;   25.925;  924.000;  742.000
927.888;  -17.750;  590.000;  564.000
928.127;   -7.025;  680.000;  678.000
928.366;   21.425;  842.000;  826.000
928.605;   41.900;  831.000;  737.000
928.844;  232.675; 1451.000; 1393.000
929.083;  621.900;  770.000;  613.000
929.321;  328.375; 1335.000; 1359.000
929.560;   96.525; 1158.000; 1122.000
929.799;  -27.000;  574.000;  475.000
930.038;   87.825; 1025.000; 1394.000
930.276;  -50.550;  334.000;  397.000
930.515;  -17.575;  827.000;  681.000
930.753;  -31.700;  614.000;  589.000
930.992;  -18.675;  664.000;  717.000
931.230;    4.550;  847.000;  847.000
931.469;  179.875; 2162.000;  892.000
931.707;   69.375;  840.000;  751.000
931.946;   59.175; 1278.000; 1344.000
932.184;   59.675; 1437.000; 1175.000
932.423;   41.800; 1265.000;  963.000
932.661;   86.525; 1296.000; 1428.000
932.899;   32.650;  987.000;  821.000
933.137;    7.525;  754.000;  564.000
933.376;  151.000; 1664.000; 1335.000
933.614;  154.700; 1759.000; 1196.000
933.852;   60.225; 1357.000; 1171.000
934.090;  118.350; 1722.000; 1747.000
934.328;   84.950; 1252.000; 1457.000
934.566;   74.025; 1431.000; 1110.000
934.804;  133.425; 1263.000; 1309.000
935.042;  441.400; 1861.000; 1850.000
935.280; 1722.775; 2088.000; 2063.000
935.518; 1594.975; 2113.000; 2007.000
935.756;  350.600; 2481.000; 2316.000
935.994;  161.275; 1808.000; 1751.000
936.231;  336.200; 2890.000; 2950.000
936.469;  189.375; 2367.000; 2378.000
936.707;  174.200; 2220.000; 2167.000
936.945;  239.400; 2825.000; 2882.000
937.182;  205.050; 2679.000; 2741.000
937.420;  311.600; 3602.000; 3031.000
937.657;  421.200; 3365.000; 3478.000
937.895;  354.950; 3331.000; 3488.000
938.133;  314.250; 3540.000; 3528.000
938.370;  328.125; 3896.000; 4191.000
938.607;  389.700; 4488.000; 4205.000
938.845;  529.400; 5587.000; 5549.000
939.082;  492.825; 5387.000; 5177.000
939.320;  549.150; 5799.000; 5728.000
939.557;  645.125; 6549.000; 6491.000
939.794;  712.100; 7285.000; 7097.000
940.031;  930.600; 8421.000; 8368.000
940.269; 1134.700; 9552.000; 9107.000
940.506; 1100.275;10901.000;10507.000

