
Integration time [ms]: 100.000
Averaging Nr. [scans]: 40
Smoothing Nr. [pixels]: 0
Data measured with spectrometer [name]: 2101013U2
Wave   ;Sample   ;Dark     ;Reference
[nm]   ;[counts] ;[counts] ;[counts] 

394.013;   55.965; -450.257; -315.536
394.305;  172.513; -461.258; -419.536
394.596;  876.216; -676.269; -527.514
394.887; 2119.482; -796.268; -654.518
395.178;  848.835;  145.736;   11.476
395.470;   89.496; -210.263; -356.526
395.761;  221.821;  305.734;  394.479
396.052;  278.249; -545.284; -306.489
396.343;  320.289; -557.276; -454.503
396.634;  136.835; -200.279; -290.497
396.926;  174.029; -618.268; -565.517
397.217;  145.119;   11.725;  -17.504
397.508;   71.884; -366.273; -154.507
397.799;   59.185; -555.279; -571.497
398.090;    0.580; -973.280; -902.495
398.381;  163.229;   11.708;  -11.473
398.672;    9.605; -585.292; -742.473
398.963;   66.516; -348.279; -373.498
399.254;  132.888;   54.709; -209.475
399.545;  -13.032;-1017.266; -883.520
399.836;   75.704; -407.277; -343.501
400.127;   70.957; -205.295; -209.468
400.418;   87.353; -423.274; -392.506
400.709;   80.468; -359.281; -333.493
401.000;   69.117; -268.291; -309.476
401.290;  117.372;  225.698;  115.545
401.581;   74.258; -166.286; -228.485
401.872;   29.830; -542.298; -486.462
402.163;   66.825; -313.296; -252.467
402.454;  106.439; -123.291; -163.475
402.744;  112.991; -844.297; -813.465
403.035;  551.921; -226.293;  -86.471
403.326;  704.483; -366.292; -384.474
403.617;  454.425;  204.701;  165.539
403.907;  239.904; -593.283; -679.490
404.198; 1934.429; -545.307; -599.446
404.489; 5116.059; -618.283; -588.491
404.779; 1922.975; -618.302; -660.456
405.070;  235.655;  -67.304; -174.451
405.360;  298.372; -259.293; -238.472
405.651;  350.511;  125.699;   98.542
405.942;  202.753;  209.714;  127.516
406.232;  358.117; -432.285; -413.487
406.523;  618.241;  641.706;  758.530
406.813;  142.280; -579.286; -644.484
407.104;  432.203;  261.708;  144.527
407.394;  265.601; -604.299; -591.462
407.685;  174.066;  336.715;  222.513
407.975;   90.833; -400.283; -382.490
408.265;  133.752; -134.289; -190.478
408.556;   71.486; -472.291; -459.475
408.846;  179.217;  474.706;  429.530
409.137;   86.410;   -1.288; -216.480
409.427;   50.742; -193.285; -271.487
409.717;   44.286; -776.273; -692.508
410.007;  162.611;    4.715; -170.486
410.298;  100.209; -360.295; -342.469
410.588;   76.289; -495.285; -510.486
410.878;   38.171; -792.287; -873.482
411.168;  111.033; -481.298; -478.463
411.459;  108.703; -295.283; -242.489
411.749;   52.960; -609.292; -507.474
412.039;   78.934; -755.289; -386.480
412.329;  201.772;   40.722;  132.501
412.619;  224.056;  -62.286; -148.485
412.909;  370.505;  639.711;  594.521
413.199;  382.405; -130.280; -251.495
413.490;  449.021;  521.710;  352.523
413.780;  152.234;-1013.279; -913.496
414.070;  320.565;  -46.276;  235.497
414.360;  389.244; -729.278; -666.498
414.650;  395.417; -726.288; -688.482
414.940;  489.458; -538.280; -441.496
415.230;  828.164;   50.712;   74.519
415.520; 5263.965;  155.730;   66.486
415.809;20303.142; -305.281; -125.493
416.099;15851.606; -388.277; -229.501
416.389; 4168.176;  435.726;  236.494
416.679; 2457.774;   91.738;   85.473
416.969;  455.000; -527.287; -503.483
417.259;  538.510;  341.721;  171.503
417.549;  652.841;  522.718;  318.508
417.838; 1356.481; -205.268; -147.518
418.128; 4345.701;  650.710;  492.522
418.418; 3731.517; -491.272; -579.509
418.708; 2526.176;    9.726;  -48.506
418.997; 9180.322; -474.275; -480.505
419.287; 9591.033; -733.273; -790.507
419.577; 8681.402; -160.283; -123.489
419.866;29321.379; -588.277; -498.501
420.156;31450.862; -242.270;  -55.513
420.446; 6015.367; -112.263;  -26.526
420.735;  966.231; -376.271; -446.512
421.025;  853.318; 1830.722;  315.502
421.314;  819.029; -203.271; -226.512
421.604; 1915.450;   89.732;  233.484
421.893; 1158.901; -705.271; -602.511
422.183;  219.392; -487.263; -461.526
422.472;  348.152;  -36.271; -107.511
422.762;  420.073; -416.266; -379.521
423.051;  239.241; -916.276; -916.503
423.341;  336.635; -491.273; -439.507
423.630;  430.829; -121.265;   15.477
423.919;  371.422;   58.725;   49.495
424.209;  350.748;  -31.263;   56.473
424.498;  443.079;   68.732;  161.483
424.787;  933.785; -535.267; -601.518
425.077; 2926.977;   34.735;   29.478
425.366; 4598.578; -734.262; -744.528
425.655; 8083.035;  639.727;  259.493
425.945;15170.749; -313.247; -268.554
426.234; 8758.849;  117.741;  300.467
426.523; 4290.254;  -86.259; -350.534
426.812; 5960.519;  107.734;  159.480
427.101; 8295.671; -127.269; -323.515
427.390;10941.815;  -55.270;  -86.514
427.680; 3094.247; -624.257; -411.538
427.969;  515.807; -330.255; -301.540
428.258;  332.789; -385.257; -477.536
428.547;  565.521;  449.728;  397.490
428.836; 1484.722; -421.253; -398.543
429.125; 2162.706; -199.259;  -72.534
429.414;  883.469; -330.251; -294.548
429.703; 2639.794; -231.251; -213.548
429.992; 7578.622; -938.250; -828.549
430.281; 5066.761; -397.264; -331.524
430.570;  601.635;  -21.252;   32.454
430.859;  682.103;  279.741;  352.466
431.148;  515.695;  636.752;  631.446
431.437;  327.684;  391.748;  367.454
431.725;  159.016; -544.257; -481.536
432.014;  110.929; -845.253; -756.545
432.303;  399.590; -149.239; -105.569
432.592;  663.042; -460.263; -178.525
432.881;  917.896; -601.248; -437.554
433.169; 4835.683; -343.255;  -61.540
433.458; 9871.647;  445.765;  540.424
433.747; 4433.558; -397.261; -289.529
434.036; 1032.593; -275.242; -280.564
434.324; 1831.934; -395.249; -379.551
434.613; 3029.162;   40.757;  159.437
434.902; 1187.331;  333.760;  439.433
435.190;  855.814;   75.761;  295.431
435.479;  489.770;  -52.245;   83.441
435.767;  166.802; -411.244; -427.561
436.056;  271.064; -340.242; -294.563
436.345;  361.758; -372.240; -223.568
436.633;  393.154;   60.750;  383.450
436.922;  367.560;  208.760;  414.432
437.210;  949.563; -194.236;    1.426
437.499; 3034.245; -583.235; -432.576
437.787; 3324.662; -339.236;  -10.574
438.075;  780.220;   56.761;  162.430
438.364; 1003.322;  -44.238;  250.429
438.652;  639.870; -286.226; -138.592
438.941;  183.586;    3.770;  269.415
439.229;   33.982; -665.252; -466.545
439.517;   48.853; -160.234;  -85.577
439.806;   20.759; -501.225; -290.595
440.094;  231.360;  377.766;  650.421
440.382;  271.164; -653.233; -302.580
440.670;  303.620; -361.235; -285.576
440.959;   53.501; -347.223; -170.599
441.247;   99.097; -151.229; -109.587
441.535;  118.301; -266.235;   31.423
441.823;   69.308; -497.234; -305.578
442.111;  219.301;  173.771;  327.412
442.400;  727.019; -628.245; -335.559
442.688; 2057.310; -111.234; -620.579
442.976; 1562.258; -786.213; -450.617
443.264;  167.766; -324.224; -364.597
443.552;  141.921; -258.226;   51.408
443.840;  192.425;  602.765;  876.423
444.128;  124.663;  265.767;  269.420
444.416;    8.978; -694.228; -312.588
444.704;   35.653; -465.219;  -92.605
444.992;   94.598;   -0.226;  240.407
445.280;   88.512; -517.230;  -94.585
445.568;   71.811; -694.212; -396.618
445.856;  460.589; -174.221;  357.398
446.143; 1022.250;  -54.220;   -7.604
446.431;  857.957;  -25.228;  625.411
446.719;  302.596;  489.783;  675.391
447.007;  202.457;  481.769;  705.416
447.295;  198.398;  597.777;  871.402
447.583;   94.170; -464.229;  -34.587
447.870;  172.586; -434.221; -202.601
448.158;  474.861; -104.230;  129.415
448.446;  414.376; -800.219; -338.604
448.733;  185.017;   13.776;  269.403
449.021;  281.386;   60.788;  341.382
449.309;  191.400; -296.210;  208.379
449.596;  224.568;  128.783;   59.392
449.884;  157.080; -571.222; -325.600
450.172;  124.562; -756.227; -406.590
450.459;  375.567;  645.786;  780.387
450.747; 1725.967; -411.218; -147.608
451.034; 5651.133;  493.772;  889.411
451.322; 4725.295; -413.214; -170.614
451.609;  434.768;  292.777;  508.403
451.897;  472.809; -550.203; -183.634
452.184; 1421.973; -622.223; -400.598
452.472; 1387.970;   97.792;  269.375
452.759;  373.977;  512.781;  864.395
453.047;  133.608; -407.212; -125.617
453.334;   84.659; -732.219; -216.606
453.621;  116.322; -438.214; -161.615
453.909;  136.851;   13.796;  384.368
454.196;  138.243; -299.199; -123.641
454.483;  247.171;  317.798;  540.364
454.771;  174.848; -215.208;  196.374
455.058;   45.301; -316.207;  102.374
455.345;  101.270;   71.807;  344.347
455.632;   65.354; -128.207;  235.373
455.919;   57.615;  -82.196;  182.354
456.207;  -61.202; -774.198; -450.642
456.494;  -12.018; -475.200;  -66.639
456.781;    9.217; -399.202; -198.635
457.068;  100.035; -253.206;  -29.628
457.355;    3.786; -698.206; -401.629
457.642;   19.466; -552.205; -290.630
457.929;   15.062; -778.194; -417.651
458.216;   66.959; -575.212; -354.617
458.503;  157.666; -173.193;  -19.652
458.790;  176.996; -864.208; -630.625
459.077;  246.046;  -77.202;  110.364
459.364;  659.380; -350.195; -210.649
459.651; 1334.483;  -46.206;  220.372
459.938;  644.962; -864.209; -665.623
460.225;  176.124;  132.799;  276.363
460.512;  -32.213; -836.197; -688.645
460.799;  107.665;  -32.218;  320.392
461.086;  109.211; -370.200; -251.640
461.372;   78.148; -509.198; -279.642
461.659;  157.541; -165.196;  108.354
461.946;   94.715; -445.193;  -54.651
462.233;  286.959;  842.800;  888.361
462.519;  307.431; -814.201; -464.639
462.806;  815.337; -768.197; -497.645
463.093;  708.334; -445.191;  -66.656
463.380;   -9.702; -920.186; -824.664
463.666;   60.439; -259.197;  -18.646
463.953;  101.550; -406.195; -243.648
464.239;  157.025; -173.195;  -77.648
464.526;  401.760;  413.806;  743.350
464.813;  365.145; -565.190; -304.658
465.099;  401.641;  606.807;  607.348
465.386;  388.469;  903.807;  921.348
465.672;   74.388; -694.197; -522.645
465.959;   51.037; -598.188; -520.662
466.245;   36.569; -468.193; -359.652
466.532;  121.848; -109.195;   63.352
466.818;   97.222; -357.186; -216.664
467.104;   16.685; -488.182; -415.672
467.391;   -2.503; -628.189; -459.658
467.677;   40.901; -289.186;    9.335
467.964;   32.678; -682.189; -471.660
468.250;   86.978; -331.186; -160.665
468.536;   95.598;   90.811;  180.341
468.822;  -22.286; -821.184; -574.668
469.109;  143.560;  351.827;  471.311
469.395;  208.979;  729.808;  787.346
469.681;  185.176;   46.811;  156.341
469.967;  994.305; -699.188; -382.660
470.254; 2138.437; -494.188; -306.662
470.540; 1399.089; -601.196; -476.646
470.826;  213.995; -488.181; -397.675
471.112;  233.143;  288.816;  113.331
471.398;  102.572; -253.183;  -58.670
471.684;   54.097; -626.177; -447.680
471.970;  -18.101; -918.180; -981.675
472.256;   17.328; -521.192; -441.654
472.542;   41.471; -499.171; -434.691
472.828;   31.406; -743.182; -607.672
473.114;   52.086; -380.166; -283.700
473.400;   27.737; -504.175; -293.684
473.686;   71.517; -452.166; -400.701
473.972;   60.301; -230.174; -131.687
474.258;  -47.840; -925.173; -843.689
474.544;  144.739; -183.178;   -2.679
474.830;  223.464;  -65.175;   45.316
475.116;  328.596; -123.190; -196.658
475.401;  453.176; -558.180; -467.676
475.687;  152.275; -725.180; -718.676
475.973;   15.739; -673.181; -770.673
476.259;  274.141;  736.825;  764.315
476.544;  333.804; -539.176; -437.682
476.830;  572.517; -398.172; -322.690
477.116;  505.053; -430.177; -336.682
477.401;  132.151;  346.820;  358.324
477.687;  -15.738; -289.175; -405.684
477.973;   36.342;   21.819;   28.326
478.258;   -0.039; -448.163; -348.706
478.544;   49.808;   21.815;   61.334
478.829;  -49.249; -818.171; -738.692
479.115;  -32.683; -749.172; -651.690
479.401;    2.197; -444.174; -449.686
479.686;   15.624; -253.180;  -74.676
479.972;  -33.806; -886.178; -776.680
480.257;   47.463; -258.166;  -65.700
480.542;   14.529; -614.170; -469.693
480.828;  252.036; 1288.824; 1392.317
481.113;  -18.941; -464.176; -426.683
481.399;   -2.592; -236.161; -202.711
481.684;  -41.088; -620.166; -462.700
481.969;   23.346; -158.159;  -73.713
482.255;   -7.686; -439.169; -285.695
482.540;   -7.831; -569.178; -441.680
482.825;    0.043; -395.187; -404.663
483.110;   68.367;  -85.169; -105.696
483.396;  118.916; -840.157; -652.718
483.681;  360.701;  543.826;  730.313
483.966;   76.890; -696.160; -700.712
484.251;    6.700; -404.174; -310.687
484.536;    5.397; -356.165; -378.703
484.822;   13.553; -205.173; -218.687
485.107;  -31.298; -599.152; -502.726
485.392;  132.127;  662.836;  541.296
485.677;   89.052;  354.832;  163.302
485.962;  109.864;  160.843;  270.283
486.247;  101.369;  -14.162;   -8.707
486.532;   42.439; -178.166; -325.701
486.817;  162.628;  381.839;  431.291
487.102;   97.811; -453.154; -514.722
487.387;  446.718; -637.156; -652.718
487.672;  807.107; -154.164;  -38.705
487.957;  525.310; -394.160; -286.711
488.241;  172.767; -290.150; -314.729
488.526;  525.003; -280.152; -148.726
488.811;  792.846; -881.177; -818.680
489.096;  651.788; -666.154; -702.723
489.381;  381.500;    3.847;  162.275
489.666;  253.483; -428.161; -510.710
489.950;  154.091;  558.846;  627.277
490.235;  -24.612; -480.151; -458.728
490.520;  -36.193; -756.161; -723.710
490.804;  -58.230; -827.156; -736.719
491.089;    1.457; -469.149; -299.732
491.374;   35.406; -132.164;  -75.704
491.658;   -3.382; -817.147; -717.735
491.943;  168.232; -657.152; -609.727
492.227;  276.232; -178.155;  -38.721
492.512;   65.713; -294.157; -341.717
492.797;  -74.999; -713.149; -716.731
493.081;  -26.280; -588.147; -598.735
493.366;  -30.941; -751.161; -635.711
493.650;  216.920;  831.859;  917.254
493.935;   17.442; -648.147; -447.734
494.219;  -52.192; -778.142; -687.743
494.503;  -34.678; -585.150; -487.730
494.788;   45.381;   46.842;   74.285
495.072;   97.994;  184.850;  434.271
495.356;  133.260; -463.148; -343.733
495.641;  400.451; -812.146; -736.736
495.925;  408.699; -976.156; -903.719
496.209;   58.582; -599.149; -451.732
496.494;  -35.916; -763.142; -544.744
496.778;   11.411; -364.154; -360.722
497.062;  -67.301; -819.156; -627.719
497.346;  -46.213; -869.160; -640.711
497.631;  135.238;  580.852;  560.266
497.915;   71.336;  -64.145;  175.261
498.199;   41.791; -341.157; -277.718
498.483;   27.951; -562.152; -508.725
498.767;  167.270;  301.850;  300.271
499.051;  142.079; -126.149; -100.732
499.335;    0.528; -693.149; -739.731
499.619;  -23.536; -381.129; -423.767
499.903;   25.206; -272.155;  -65.721
500.187;   23.018; -588.153; -316.724
500.471;    5.381; -796.152; -595.727
500.755;  104.308;   62.839;  -96.710
501.039;   38.281; -270.155; -357.721
501.323;   95.997;  -21.141;  264.254
501.607;   54.962; -447.163; -503.706
501.891;   -0.157; -607.156; -512.718
502.174;  -32.603; -726.144; -585.741
502.458;   74.235;   89.849;  370.273
502.742;   38.894; -180.138; -191.751
503.026;   75.742; -412.147; -254.734
503.310;  114.745; -437.159; -375.713
503.593;   79.093; -464.147; -325.735
503.877;  110.257; -232.133; -156.760
504.161;  170.145;    2.847;  -50.724
504.444;  106.858; -841.158; -710.716
504.728;  322.355; -487.164; -522.704
505.012;  524.917; -257.150;  -76.729
505.295;  426.509; -417.161; -212.711
505.579;  385.249; -256.156; -496.719
505.862;  507.883; -555.145; -333.738
506.146;  476.797; -681.159; -758.714
506.429;  328.823;  568.841;  461.286
506.713;   39.389; -732.151; -667.728
506.996;  253.935;   90.846;  295.278
507.280;  234.151; -633.165; -474.703
507.563;  152.154; -469.155; -261.721
507.847;   66.093; -423.153; -112.724
508.130;   53.259; -665.161; -456.711
508.413;   74.433; -758.167; -577.700
508.697;  184.009; -151.167;   12.300
508.980;   81.220; -422.153; -312.724
509.263;  -10.849; -466.155; -450.720
509.547;   38.017; -124.150;   82.271
509.830;   49.461; -172.160;  140.289
510.113;   81.749;  128.844;  298.281
510.396;   30.700; -530.152; -300.725
510.680;  267.934; -818.145; -812.738
510.963;  966.240;  184.846;  180.277
511.246;  870.449; -493.150; -357.730
511.529;  277.039; -482.145;  -83.739
511.812;  248.753; -250.134;   10.241
512.095;  148.936; -740.151; -396.728
512.378;   61.947; -317.147; -245.736
512.661;    8.926; -703.137; -623.753
512.944;    4.410; -750.142; -637.744
513.227;   63.173; -170.137; -171.752
513.510;    6.922; -479.144; -671.741
513.793;   16.001; -485.140; -435.747
514.076;  133.134;  -43.127;  -39.771
514.359;   98.357; -294.149; -135.732
514.642;   62.238; -442.142; -567.744
514.925;  556.224;  581.860;  561.253
515.208;  672.675; -498.134; -443.758
515.491;  469.688; -276.133; -182.761
515.773;  257.675; -410.143; -337.742
516.056; 1474.432;  249.864;  409.246
516.339; 2080.311; -754.136; -652.755
516.622; 1925.772; -518.150; -488.730
516.904; 1677.957;  882.857;  975.257
517.187;  756.797; -730.138; -523.752
517.470;  358.231; -568.143; -510.743
517.752;  306.488; -624.136; -470.756
518.035;  213.635; -708.139; -725.749
518.318;  211.436; -799.136; -744.755
518.600; 1619.066; -300.132; -325.762
518.883; 2265.637;  310.858;   88.256
519.165; 1132.090; -585.138; -426.751
519.448;  366.066;  -61.132;  -19.762
519.730;  196.241; -573.126; -415.773
520.013;  337.334;  588.867;  664.240
520.295; 1149.005;  -94.134;  -15.759
520.578; 2551.903; -335.131; -305.764
520.860; 2798.141; -254.132;   56.238
521.143; 1388.940; -763.135; -584.756
521.425;  422.953; -251.125; -279.775
521.707;  515.184; -622.127; -380.771
521.990; 1282.510; -199.127;  167.229
522.272; 1451.227; -116.140;   -4.748
522.554;  776.401; -237.143; -157.742
522.836;  419.103;  -24.134;   99.241
523.119;  235.591; -496.148; -189.734
523.401;  134.034; -448.130; -314.766
523.683;   66.101; -865.137; -693.753
523.965;  200.095;  408.862;  260.248
524.247;  207.823;   54.878;  170.220
524.529;  149.005; -451.134; -367.759
524.812;  293.261;   -3.130;  191.234
525.094;  573.445; -773.138; -631.751
525.376;  956.386; -143.124;   78.223
525.658;  570.783; -441.136; -339.754
525.940;   12.375; -805.131; -671.764
526.222;   49.286; -188.136;  -88.755
526.504;  146.398; -190.131;   32.237
526.786;  248.557; -960.133; -647.760
527.068;  435.417; -124.123;  -67.778
527.349;  183.930; -865.137; -774.754
527.631;  125.991; -137.132;   22.238
527.913;   73.558; -664.127; -450.771
528.195;   94.646; -761.125; -639.774
528.477;  163.650;  -93.134;  -30.758
528.759;   78.511; -648.130; -522.766
529.040;   19.390; -569.123; -293.778
529.322;   53.574; -235.125;  -10.774
529.604;  172.013;  -47.130;   93.233
529.886;  168.816; -546.126; -302.773
530.167;  136.055;  232.870;  192.235
530.449;   48.947;    1.853;   63.265
530.731;  -11.178; -572.122; -459.779
531.012;   41.741; -513.120; -216.784
531.294;   21.953; -118.116;  -43.792
531.575;  128.153;  290.875;  538.225
531.857;    7.520; -548.135; -266.757
532.138;   68.395; -113.141;   40.254
532.420;  183.992;  294.865;  403.244
532.701;  272.059; -722.133; -751.760
532.983;  399.462;  232.867;  182.239
533.264;  132.664; -243.126;  175.228
533.546;  -31.239; -491.136; -508.755
533.827;   75.406;  173.867;   -1.759
534.109;   58.070; -352.135;  -80.757
534.390;  116.219; -725.132; -582.762
534.671;  237.067; -270.135;  -82.756
534.953;  119.843; -751.123; -611.779
535.234;   14.114; -426.117; -255.789
535.515;  -83.001; -891.119; -735.785
535.796;  -26.145; -431.128; -193.770
536.078; -115.939;-1050.124; -904.777
536.359;   14.719;  -22.123;    3.221
536.640;   -4.127; -480.125; -197.774
536.921;  158.868;  225.871;  143.232
537.202;  278.992;  -87.138;  -16.751
537.483;  332.378;  251.869;  377.236
537.764;  127.605;   17.870;   98.235
538.045;  -48.851; -543.134; -371.758
538.326;  -55.480; -596.129; -447.768
538.607;   -9.065; -686.127; -476.771
538.888;  122.708;   98.879;    5.218
539.169;  109.453; -704.122; -535.781
539.450;  283.717;  236.871;   16.233
539.731;  185.387; -361.121; -182.783
540.012;  129.691;  199.880;  412.216
540.293;   97.556;   82.876;  158.224
540.574;   21.272; -895.113; -717.796
540.855;  438.335;  435.879;  377.218
541.136;  450.550;   47.878;  139.220
541.416;  221.612; -161.130; -220.766
541.697;  130.148; -274.131; -170.763
541.978;  728.794; -270.135; -315.757
542.259;  929.635; -211.127; -236.771
542.539;  464.797; -191.116; -186.790
542.820;  181.603;  461.875;  480.225
543.101;  118.011;  -52.145;  -77.738
543.381;   29.535; -638.127; -591.771
543.662;  197.607;  159.873; -254.771
543.942;  384.381; -751.127; -830.770
544.223;  767.077;  193.878;  161.219
544.504;  482.986; -275.124; -182.777
544.784;  425.915; -592.126; -408.773
545.065; 1224.425;  104.884; -254.791
545.345; 1476.399;  227.881;   14.215
545.626;  932.396;  -14.113; -108.796
545.906;  631.155;   77.869;   98.235
546.186;  244.120;   92.874;  -95.773
546.467;  148.688;   99.877;  -95.778
546.747;  244.747;  264.884;  327.210
547.027;  279.584;   91.876;  111.223
547.308;  219.555; -376.127; -530.770
547.588;  306.920;  299.871;  371.232
547.868;  167.556;  458.870;  588.235
548.149;  163.607;  609.885;  593.207
548.429;   78.533; -347.127; -299.771
548.709;   97.391; -645.120; -461.784
548.989;  324.133;   84.882;   88.213
549.269; 1490.339;   10.868;  139.239
549.550; 3378.142;  215.877;  117.222
549.830; 3003.763; -758.111; -556.799
550.110;  608.845; -468.110; -320.801
550.390;  582.247; -128.122;  -56.779
550.670;  780.492; -868.114; -783.795
550.950;  560.385; -509.121; -471.782
551.230;  156.681;  549.879;  460.218
551.510;  -13.816; -381.121; -326.782
551.790;    7.202; -173.109; -127.803
552.070;  225.338;  940.877; 1181.223
552.350;  252.578; -492.119; -377.786
552.630;  385.529;   -2.121;   77.219
552.909;  258.701;  181.884;   73.209
553.189;  162.070;  -49.132;   33.237
553.469;  101.803; -703.119; -514.786
553.749;   97.386; -469.127; -357.772
554.029;  115.293;   33.883;  -24.790
554.308;   76.561; -154.115;  -37.794
554.588;   45.279; -196.128; -204.770
554.868;   28.511; -366.121;  -47.782
555.147;  106.134; -114.115;  -46.793
555.427;  406.853; -260.116; -250.792
555.707; 2689.957; -284.115; -200.793
555.986; 3196.916; -719.111; -538.800
556.266; 1720.096;   23.884;   72.210
556.546;   36.009; -888.121; -675.782
556.825;  159.440; -657.114; -556.794
557.105; 1228.277; -125.128;   17.230
557.384; 1461.100;  122.884;  187.209
557.664;  494.103; -717.116; -508.792
557.943;   52.560; -557.121; -411.782
558.222;   97.311; -345.118; -344.788
558.502;  207.510; -116.115;  -76.793
558.781;  370.481;  194.885;  499.208
559.061;  276.261; -232.118; -227.788
559.340;  198.340;  302.883;  353.211
559.619;  468.421;   93.884;  148.210
559.899;  676.717; -239.117; -266.789
560.178;  614.185; -778.115; -593.793
560.457; 2104.719; -623.117; -562.790
560.736; 2981.867; -472.111; -482.800
561.015; 1972.600; -500.128; -502.769
561.295;  276.871;  180.893;  215.193
561.574;  280.832;  119.885;  116.207
561.853;  380.531;  274.891;  303.197
562.132;  347.262;  -45.114;  182.206
562.411;  317.630;  396.879;  553.219
562.690;   60.006; -592.115; -458.792
562.969;  115.503;  472.888;  630.203
563.248;  463.027; 2966.878; 2487.219
563.527;  174.367; -290.111; -408.800
563.806;  228.683; -650.127; -521.771
564.085;  253.935; -297.105; -206.810
564.364;  126.420; -594.117; -405.790
564.643;  326.630; -276.121; -223.781
564.922; 1255.676;  221.890;  397.198
565.201; 1244.229; -640.109; -700.803
565.479;  525.204; -297.115; -219.792
565.758;  217.627; -810.128; -712.770
566.037;  319.005; -155.109; -100.803
566.316;  160.550; -286.116;  -28.791
566.595;   27.357;  -17.115;  -12.793
566.873;   84.769; -166.111;  -79.801
567.152;  -76.198; -490.113; -590.797
567.431;   13.446; -113.116;    6.210
567.709;    7.221; -344.107; -212.807
567.988;  155.365; -810.114; -769.794
568.266;  372.307; -160.115;  -68.793
568.545;  248.204; -644.100; -514.819
568.824;  396.879;  160.885;  356.208
569.102;  325.565; -351.114; -235.794
569.381;  115.553; -492.116; -407.792
569.659;  -37.676; -553.113; -553.796
569.938;   -7.499; -743.122; -465.780
570.216;   65.758; -225.109; -225.804
570.494;  -53.432; -632.114; -572.795
570.773;   25.134;  202.879;  114.218
571.051;   -6.034; -373.123; -357.778
571.330;   18.497; -221.113; -174.796
571.608;   12.021; -181.098; -173.823
571.886;  -84.389; -671.111; -581.799
572.164;  -86.314; -739.121; -621.782
572.443;  -61.086; -562.105; -512.811
572.721;  -59.031; -399.117; -289.790
572.999;  -46.562; -280.117; -168.788
573.277;   85.757;  379.894;  620.191
573.555;  191.209;   94.894;   37.190
573.834;  881.262;  -86.117; -114.788
574.112; 1084.673;  880.893;  811.193
574.390;  308.393; -143.111;  -96.801
574.668;    4.929;  -91.112;  -61.797
574.946;  -27.340; -165.106; -187.810
575.224;    0.779;   71.891;  -16.803
575.502;  -26.977; -200.116; -204.791
575.780;  -96.870; -767.112; -829.798
576.058;  214.192; 1589.889; 1004.200
576.336;  -23.578; -210.110; -129.801
576.614;  -72.420; -511.112; -340.798
576.891;   11.761; -711.115; -823.794
577.169;  317.290; -158.108; -285.805
577.447;  403.523;  169.893;  202.193
577.725;  202.384;  629.888;  854.201
578.003;   -9.443;  -71.112; -371.798
578.280;   72.197; -208.104; -242.812
578.558;   52.335; -450.115; -422.793
578.836;  105.168; -210.114; -145.795
579.114;   40.678; -630.112; -670.797
579.391;   58.639;   -6.117;  -18.789
579.669;  -78.613; -595.114; -704.794
579.947;  116.095; -326.107; -127.806
580.224;  189.620; -692.107; -524.806
580.502;  204.099;  127.893;   76.193
580.779;   29.945;  -42.117;   75.210
581.057;  -78.617; -584.109; -470.804
581.334; -107.789; -726.102; -695.815
581.612;   38.460;   54.895;  511.190
581.889;  -32.327;  -83.101; -129.818
582.167;  -49.039; -298.099; -190.821
582.444;  -95.407; -845.102; -814.817
582.721;   95.769;  657.899;  715.183
582.999;   16.709; -326.100; -167.821
583.276;  296.645; -812.123; -713.779
583.553;  464.139; -364.102; -294.816
583.831;  122.294; -607.104; -631.812
584.108;   53.688;  349.892;  174.195
584.385;   -5.840; -122.102;  -98.815
584.662;  -82.756; -651.111; -828.801
584.940;   20.718;  204.889;  204.199
585.217;  -24.901;  -73.113; -303.796
585.494;   24.827;   71.890;  118.198
585.771;  156.359; -250.109; -354.804
586.048;  350.199; -196.113;  -76.796
586.325;  195.021; -721.110; -773.801
586.602;   57.297;  230.896;  213.188
586.879;  -44.819; -499.100; -580.820
587.156;   15.211; -156.105; -331.810
587.433;  -56.884; -701.102; -667.817
587.710;   57.605;  152.888;  234.202
587.987;  223.391; -264.105; -236.811
588.264;  607.857;  315.888;  387.202
588.541; 1035.325;  -61.104;   26.187
588.818; 2022.061;   72.892;  171.196
589.095; 1736.120; -163.104; -174.812
589.371;  263.882; -459.109; -414.804
589.648;  -13.927; -581.107; -437.807
589.925;   -5.356; -517.114; -621.795
590.202;  -27.720; -741.112; -607.798
590.478;   51.568; -166.105;  -73.811
590.755;  167.641; -241.108; -132.806
591.032; 1649.048; -741.110; -699.802
591.308; 2309.033; -732.094; -790.831
591.585; 1194.673; -573.110; -560.802
591.862;   41.318;-1056.102; -950.817
592.138;   -1.336; -475.108; -474.805
592.415;   89.373; -486.104; -495.813
592.691; 1108.046;  460.896;  518.188
592.968; 1405.297; -208.098; -123.824
593.244;  626.547; -695.116; -595.790
593.521;   43.043; -105.102;  -42.817
593.797;  -44.577; -810.122; -720.780
594.074;  204.759; -611.096; -588.826
594.350;  504.444;  828.905;  729.172
594.626;  205.669; -303.111; -283.801
594.903;   34.618; -643.101; -645.817
595.179;  141.676;  243.896;  418.187
595.455;    4.124; -136.107; -150.807
595.731;  -10.872;  -19.103;  -38.814
596.008;  -63.311; -464.111; -434.800
596.284;    3.533; -187.100; -242.820
596.560;   15.714; -501.093; -493.833
596.836;  132.913; -173.105;  -70.810
597.112;  204.965; -582.108; -437.805
597.388;  198.657;  -49.097;  -48.826
597.665;   92.626;  437.887;  530.203
597.941;  -65.509; -572.089; -658.839
598.217;  -19.599; -323.110; -293.802
598.493;  172.235;   61.891; -204.804
598.769;  331.377; -175.100;  -50.819
599.045;  187.192; -490.108; -562.806
599.321;   28.007; -193.100; -261.820
599.597;   78.009; -355.109; -476.804
599.872;  341.474;  409.896;  429.187
600.148;  252.983;  -61.097; -172.826
600.424;  196.672;   91.893;  202.193
600.700;  142.449; -170.107; -280.807
600.976;   52.753; -442.097; -464.825
601.252;  153.031; -226.109; -272.803
601.527;  106.725; -833.104; -840.813
601.803;   87.243; -453.105; -404.812
602.079;  109.602; -124.100; -118.819
602.354;  386.273; -620.092; -531.835
602.630;  564.924; -140.113; -482.796
602.906; 1642.323; -910.101; -863.818
603.181; 4713.628; -627.119; -534.786
603.457; 4010.406;   98.903; -278.826
603.733;  576.787; -605.120; -626.783
604.008;  699.385; -245.106; -164.810
604.284; 2199.970; -636.101; -580.817
604.559; 1889.284;   -3.112;  -42.799
604.835;  333.013; -163.105; -225.810
605.110;  266.137; -732.099; -892.821
605.385;  513.791;  224.907;  267.167
605.661;  399.797; -625.095; -729.829
605.936;  748.368; -664.108; -737.806
606.211;  671.834;  -17.103; -170.815
606.487;  119.564; -329.114; -376.794
606.762;  -27.797; -791.119; -745.786
607.037;  -45.187; -501.105; -433.810
607.313;  -63.384; -589.096; -574.828
607.588;  -29.765; -375.106; -137.810
607.863;    1.948;  -28.101; -143.818
608.138;  149.100;  513.890;  516.198
608.413;  -23.385; -576.099; -592.822
608.688;    2.764; -203.108; -267.805
608.964;  104.979; -509.106; -218.809
609.239;  137.910; -107.105; -212.810
609.514;  184.668;  281.895;  240.188
609.789;  438.372; -187.104; -716.812
610.064;  597.940; -435.096; -609.827
610.339;  564.807; -855.109; -799.804
610.614;  781.632; -131.100; -315.820
610.889;  437.968;  215.895;  107.188
611.163;  -11.231; -407.104; -591.812
611.438;   35.165;   81.886; -167.794
611.713;  -19.905; -467.101; -499.817
611.988;   13.022; -144.101; -328.818
612.263;  -65.189; -771.102; -717.815
612.538;  143.248;  385.887;  251.204
612.812;   81.883; -832.100; -911.820
613.087;   66.195; -358.098; -338.823
613.362;  -67.151; -497.107; -557.807
613.637;   29.030;  261.897;  138.186
613.911;  -17.876; -256.092; -345.835
614.186;   48.423; -249.107; -292.807
614.460;  408.886; -842.081; -758.854
614.735;  511.863;  -55.087;  -17.843
615.010;  106.104;   43.912;  -82.841
615.284;  171.114;  360.892;  246.195
615.559;  227.048; -792.092; -955.835
615.833;  204.764;  -76.099;  -87.822
616.108;  -21.666; -225.090; -390.837
616.382;  118.664;  274.913;  402.156
616.656;   97.309; -241.090; -232.837
616.931;  338.939; -785.099; -700.822
617.205;  731.001; -973.104; -979.813
617.480;  666.376;  -91.125;    6.225
617.754;   91.799; -396.125; -128.774
618.028;  -23.829; -369.129; -382.768
618.302;   42.137;   73.892;  -25.805
618.577;  -68.893; -371.103; -518.815
618.851;  -68.322; -399.109; -600.803
619.125;  -65.345; -335.134; -378.759
619.399;  -30.574; -244.104; -374.813
619.673;  -62.871; -330.115; -515.792
619.947;  -49.582; -333.114; -448.795
620.222;  -31.980; -198.110; -204.801
620.496;  -13.790;  -47.121;  -96.782
620.770;    3.453; -187.122;  -93.781
621.044;  153.686;  323.895;  346.190
621.318;  515.263; -653.120; -614.783
621.592;  433.861; -430.121; -409.783
621.866;  202.985; -476.112; -572.799
622.140;  -14.302; -207.116; -356.791
622.413;   26.064;  138.889;  112.200
622.687;  -56.780; -746.101; -492.817
622.961;    5.538; -130.108; -143.805
623.235;  -76.411; -633.111; -661.800
623.509; -120.407; -816.105; -848.811
623.783;    3.820;  -12.107;   48.193
624.056;  -35.411; -254.120; -280.783
624.330;   32.129;   63.888;   -3.797
624.604;    5.870; -271.116; -355.790
624.877;   48.874;  180.890;   26.198
625.151;   12.488; -249.114; -238.794
625.425;  -54.697; -150.103; -283.814
625.698;  -60.327; -367.119; -374.785
625.972; -110.374; -799.110; -765.802
626.245;   57.947;  685.884;  484.210
626.519;  -59.832; -426.120; -340.784
626.792;  -45.826; -192.107; -380.807
627.066; -103.054; -485.122; -662.779
627.339; -105.852; -736.110; -663.802
627.613;   25.291;  351.880;  148.216
627.886;  -75.747;  187.891; -612.803
628.160;  -27.712;  312.880; -161.783
628.433; -106.847; -695.125; -703.775
628.706;  -95.607; -517.120; -615.784
628.979;    5.410;  296.876;  117.223
629.253; -102.323; -785.119; -833.786
629.526;  227.964; -334.126; -253.772
629.799;  183.891; -641.123; -479.778
630.072;   75.572; -497.128; -516.769
630.346; -100.328;-1115.116;-1080.790
630.619;  266.350; -467.107; -545.808
630.892;  441.165;  709.889;  593.200
631.165;  245.376;  790.896;  679.187
631.438; -109.468;-1092.112;-1055.798
631.711;   37.019;  453.877;  257.221
631.984;  -57.983; -523.117; -624.789
632.257;  -89.961; -636.117; -681.789
632.530;  -56.702; -412.119; -433.785
632.803;   17.686; -109.115;    7.207
633.076;  -67.287; -360.123; -422.777
633.349;   -2.699;  173.872;  121.231
633.622;  -43.928; -187.119; -240.785
633.895; -139.186; -903.120; -823.783
634.167;  -84.984; -496.126; -525.773
634.440;  -24.797;  -19.116; -137.792
634.713;  -26.424;  -22.119; -120.786
634.986;   55.992;  593.871;  453.233
635.258;  -85.591; -507.115; -597.793
635.531;   86.910;  742.882; -343.788
635.804;  -49.109; -303.117; -318.789
636.077; -104.126; -830.116; -852.791
636.349;  -31.692; -586.115; -474.793
636.622;  325.588; 1695.874; 1392.228
636.894;  128.493; -474.120; -909.784
637.167;   44.908; -836.127; -789.771
637.439;    2.454; -278.128; -213.770
637.712;  -55.935; -312.126; -293.772
637.984;  -98.925; -635.116; -707.791
638.257;  314.039;  515.877;  488.222
638.529;  404.254; -881.125; -924.776
638.802;  177.347; -508.128; -449.769
639.074; -129.898; -927.122; -952.781
639.346; -150.278; -942.135; -930.757
639.619;   -5.614;  -79.142; -319.744
639.891;   -8.579;  -83.122; -168.779
640.163;  -88.377; -689.122; -756.780
640.435;   19.749;  273.878;  103.220
640.708;   -8.574;  -72.122; -132.780
640.980;  -52.947; -366.122; -362.781
641.252;  153.629;  -25.121;  -71.781
641.524; 1468.031;  580.879;  573.219
641.796; 1448.133;-1094.121; -907.782
642.068;  254.635; -191.121; -300.782
642.340;  -72.439; -486.121; -566.783
642.613;   33.588;  294.880;  323.217
642.885; -110.360; -787.120; -878.783
643.157;  -72.484; -810.120; -658.784
643.428;   57.018;  170.880;  218.216
643.700;  -86.405; -498.120; -425.784
643.972;  -35.828;  -16.119; -133.785
644.244; -103.377; -474.119; -559.785
644.516;  -44.325; -250.119; -114.786
644.788;   62.252;  662.881;  548.214
645.060;  -20.947;  -12.119; -124.786
645.332; -112.670; -525.118; -535.787
645.603;   41.207;  479.882;  342.213
645.875;  -75.692; -334.118; -369.787
646.147;  175.860; 1487.882; 1242.212
646.418; -101.063; -931.117; -918.788
646.690;   44.314; -714.117; -715.789
646.962;  -11.035; -413.117; -451.789
647.233;   -4.558;   15.883;   11.211
647.505; -109.706; -595.117; -475.790
647.776;   20.395;  328.884;  229.210
648.048;  -27.703; -248.116; -418.790
648.320;  -91.751; -752.116; -679.791
648.591; -173.999;-1055.116; -958.791
648.862;  -98.223; -505.116; -577.792
649.134;  -11.246;  115.885;  198.208
649.405;  -68.594; -661.115; -618.792
649.677;  -78.093; -475.115; -598.793
649.948;  -28.616; -181.115; -296.793
650.219;  -12.689;  -37.115; -147.793
650.491;  -85.488; -431.114; -520.794
650.762; -127.011; -705.114; -731.794
651.033;  -95.234; -437.114; -424.795
651.304; -113.482; -743.114; -728.795
651.576;  -88.106; -680.114; -645.795
651.847;  -44.229; -250.113; -140.796
652.118;  -32.177;  -32.113; -189.796
652.389; -116.251; -639.113; -722.796
652.660;  -28.399; -147.113;  -89.797
652.931; -166.572; -897.112; -871.797
653.202;  -88.646; -382.112; -541.798
653.473;  -69.544; -633.112; -533.798
653.744;   82.083; -595.112; -590.798
654.015;   69.085; -356.112; -303.799
654.286;  -77.989; -642.111; -663.799
654.557;  -89.812; -586.111; -521.799
654.828; -164.160;-1114.111;-1088.800
655.099;  -95.309; -404.111; -291.800
655.370;  -93.132; -427.111; -543.801
655.641; -134.530; -656.110; -714.801
655.911; -110.853; -618.110; -638.801
656.182;   51.648;  437.890;  387.198
656.453;  108.575;  830.890;  746.198
656.724;  -72.798; -466.110; -426.802
656.994;  -95.372; -553.109; -568.803
657.265; -120.395; -862.109; -873.803
657.536;  -89.618; -500.109; -377.804
657.806; -119.042; -561.109; -593.804
658.077; -137.765; -866.109; -950.804
658.347;  -99.838; -523.108; -598.805
658.618; -121.086; -646.108; -694.805
658.888;  -42.985;  -41.108;  112.195
659.159;  -83.858; -432.108; -548.806
659.429;  -47.131; -292.108; -349.806
659.700;  -14.155; -435.107; -390.807
659.970;  -26.803; -370.107; -359.807
660.241;  -35.951; -754.107; -921.807
660.511;  356.276; -147.107; -174.808
660.781;   23.602; -793.106; -748.808
661.052;  -43.296; -222.106; -381.808
661.322;  -25.669;   21.894;   -9.809
661.592;    9.357;  257.894;  148.191
661.862;  -74.441; -369.106; -382.810
662.133;  -92.239; -551.105; -502.810
662.403; -119.738; -770.105; -676.810
662.673;  -68.161; -256.105; -213.811
662.943; -113.659; -612.105; -551.811
663.213;  -23.732;  -85.105;  -81.811
663.483;  -94.956; -593.104; -568.812
663.753;  -57.979; -194.104; -152.812
664.023;  -11.002;   68.896;  -32.813
664.293;  -59.676; -319.104; -126.813
664.563; -116.674; -694.104; -648.813
664.833; -126.522; -743.103; -608.814
665.103; -142.896; -730.103; -793.814
665.373; -126.294; -766.103; -806.814
665.643; -104.092; -863.103; -918.815
665.913;  -16.640; -534.103; -714.815
666.182;   74.661; -685.102; -719.816
666.452;  166.688;  -22.102;  -89.816
666.722;  -63.160; -724.102; -784.816
666.992; -134.534; -948.102; -921.817
667.261;  -95.957; -824.102; -808.817
667.531;  184.720;  134.899;   45.183
667.801;  485.247; -440.101; -412.818
668.070;  233.198;  714.899;  697.182
668.340; -114.550; -883.101; -840.819
668.609;   82.402;  588.900;  301.181
668.879;  -96.472; -490.100; -558.819
669.149;  -72.720; -539.100; -516.820
669.418; -112.843; -698.100; -726.820
669.688;  -39.742; -482.100; -666.820
669.957;   15.635; -423.099; -546.821
670.226;  -42.788; -268.099; -331.821
670.496;  -98.836; -431.099; -635.822
670.765;  -92.385; -418.099; -501.822
671.034; -137.208; -872.099; -828.822
671.304;  -18.531;   55.902; -111.823
671.573; -172.755;-1085.098; -957.823
671.842;   15.747; -380.098; -294.823
672.112;  -23.476; -692.098; -586.824
672.381;  -15.574; -239.098; -214.824
672.650; -149.248;-1005.097;-1021.825
672.919; -103.946; -631.097; -507.825
673.188; -108.369; -681.097; -878.825
673.457; -162.718;-1101.097;-1143.826
673.726;  -91.641; -579.096; -646.826
673.995;  -55.239; -533.096; -479.826
674.265;  -37.438; -263.096; -333.827
674.534;  -20.686; -183.096; -235.827
674.802;  -27.784; -618.096; -703.828
675.071;  702.843; -886.095; -801.828
675.340; 2768.444; -464.095; -339.828
675.609;  924.396;  103.905;   82.171
675.878;    8.348; -949.095; -893.829
676.147;    5.324;  -26.095;   -8.829
676.416;   47.351; -210.094; -294.830
676.685;  523.353; 1000.906; -622.830
676.953;   35.080; -603.094; -452.831
677.222;  -33.669; -193.094; -273.831
677.491;  -20.867;  -24.094; -127.831
677.759;  -33.615;   11.907;  172.168
678.028;  -42.689; -279.093; -222.832
678.297;  -14.687;   71.907;  197.168
678.565; -156.285; -898.093; -944.833
678.834;  -63.884; -311.093; -268.833
679.102;  -87.882; -411.092; -391.834
679.371; -147.830; -898.092; -727.834
679.639; -148.278; -797.092; -786.834
679.908; -123.977; -794.092; -724.835
680.176; -155.250; -895.091; -941.835
680.445;  -87.698; -346.091; -352.835
680.713;  -19.622;  -58.091;  -23.836
680.982;  -91.070; -523.091; -525.836
681.250; -102.243; -578.091; -507.837
681.518; -120.117; -534.090; -751.837
681.787;  -32.815; -204.090; -167.837
682.055;  -77.963; -490.090; -422.838
682.323; -153.061; -993.090; -992.838
682.591;   -0.585; -216.090; -538.838
682.859;   45.692;    9.911;  -35.839
683.128;    5.694;  232.911;  497.161
683.396; -173.330;-1102.089;-1122.840
683.664;  -46.278; -241.089;   21.160
683.932;    1.374;  144.911;  -76.840
684.200;  -94.699; -576.088; -320.841
684.468;  -36.023;  -73.088; -124.841
684.736;  -47.721; -214.088; -175.841
685.004; -121.144;-1024.088; -982.842
685.272;  -91.118; -880.088; -774.842
685.540;  -84.341; -499.087; -557.843
685.808; -101.514; -651.087; -682.843
686.076; -128.113; -894.087; -969.843
686.343;  -77.986; -601.087; -815.844
686.611;    5.366; -195.087; -224.844
686.879;  318.518; -530.086; -553.844
687.147; 2361.169; -483.086; -480.845
687.414;  662.146;  -12.086; -169.845
687.682;  -31.427; -658.086; -757.846
687.950;  220.674;  259.915;  263.154
688.217;  -37.924; -792.085; -760.846
688.485;  -32.572; -632.085; -636.847
688.753;  368.130;  -11.085; -102.847
689.020;   64.156; -820.085; -851.847
689.288; -112.017; -853.084; -787.848
689.555;  -24.565; -195.084; -148.848
689.823;  -49.489; -241.084; -345.849
690.090; -106.062; -546.084; -651.849
690.358; -156.960; -877.084; -897.849
690.625;    4.316;  120.917;   45.150
690.892; -107.957; -403.083; -369.850
691.160;  -22.980;   72.917;  -35.850
691.427;    3.622;  141.917;  130.149
691.694; -153.252; -855.083; -929.851
691.962; -151.500;-1177.082;-1060.852
692.229;   -3.923;  127.918;   56.148
692.496;   42.178;  130.918;  -49.852
692.763;  -16.095; -164.082; -201.853
693.031;  -79.393; -739.082; -716.853
693.298;  -64.342; -509.081; -368.853
693.565;  222.060; -155.081; -163.854
693.832;  878.087;   -5.081;   -9.854
694.099;   80.439; -643.081; -642.855
694.366;  -76.210; -882.081; -896.855
694.633;  -67.483; -920.080; -633.855
694.900;  727.969; 4367.920; -114.856
695.167;  334.320; -214.080; -380.856
695.434;   35.597; -646.080; -623.856
695.701;  180.174;  121.921;  -61.857
695.968;  345.601; -365.079; -361.857
696.234;  937.927; -415.079; -646.858
696.501; 9891.704; -776.079; -614.858
696.768; 4922.181; -554.079; -617.858
697.035;  277.582; -632.078; -667.859
697.302;   20.034; -448.078; -552.859
697.568;    7.011; -458.078; -497.859
697.835;  -37.288; -683.078; -624.860
698.102;  -45.436; -498.078; -407.860
698.368;   62.516;  384.923;  396.139
698.635;  -35.782;  -47.077; -424.861
698.901;  -41.281; -240.077; -348.861
699.168;   19.896; -534.077; -456.862
699.435;   39.298;  -72.077;  -13.862
699.701; -114.951; -868.076; -764.862
699.968;  -62.974;  144.924; -441.863
700.234; -111.647; -783.076; -822.863
700.500;  -58.970; -448.076; -539.864
700.767;   -2.144;   -1.075;   26.136
701.033; -138.717;-1015.075; -963.864
701.299;  -72.740; -450.075; -483.865
701.566;  117.161;  950.925;  763.135
701.832;   20.663;  -31.075;  -76.865
702.098; -109.010;-1054.074;-1034.866
702.365; -104.684;-1098.074;-1030.866
702.631;  -68.657;-1038.074;-1063.867
702.897; 1144.145; -765.074; -676.867
703.163; 1811.197;  348.926;  254.133
703.429;  111.973; -256.073; -273.868
703.695;  -34.500; -796.073; -792.868
703.961;    2.027; -214.073; -210.868
704.227;  -60.622; -630.073; -725.869
704.493;  116.805;  613.927;  510.131
704.759;  -26.918; -565.072; -540.870
705.025;   38.683; -203.072; -194.870
705.291;   -7.490; -666.072; -562.870
705.557;  191.887;  719.928;   34.129
705.823;   21.464; -742.072; -694.871
706.089;  138.515; -307.071; -326.871
706.355;  359.767; -315.071; -244.872
706.620; 5911.444; -776.071; -729.872
706.886; 7623.820; -309.071; -362.873
707.152;  644.797; -818.070; -973.873
707.418;  -35.701;-1153.070;-1186.873
707.683;    9.251; -550.070; -530.874
707.949;  -46.523; -547.070; -578.874
708.215;   -0.171; -129.070; -207.874
708.480;  -39.369; -520.069; -420.875
708.746;   81.482;   68.931;   28.125
709.011;  -83.216; -578.069; -612.876
709.277;  -74.339; -538.069; -543.876
709.542;  -53.188; -428.069; -387.876
709.808;  -10.786;  -59.068;   89.123
710.073;  -92.784; -577.068; -695.877
710.339;  -32.557; -242.068; -228.877
710.604;   31.319; -780.068; -845.878
710.869;  247.246; -277.068; -366.878
711.135;  -84.977; -715.067; -628.879
711.400;  -92.201; -507.067; -608.879
711.665;  -54.249; -404.067; -479.879
711.931; -112.097; -661.067; -677.880
712.196; -127.245; -876.067; -954.880
712.461;   57.031; -402.066; -490.880
712.726;   70.483; -727.066; -771.881
712.991;  -97.365; -647.066; -664.881
713.256;  -45.164; -350.066; -332.882
713.521;  -81.212; -417.065; -381.882
713.787;  -69.235; -454.065; -472.882
714.052;  -26.509; -214.065; -400.883
714.317;  -87.582;-1045.065; -981.883
714.581; 1082.420; -374.065; -268.883
714.846; 1400.547; -822.064; -888.884
715.111;  117.398;  261.936;  257.116
715.376;  -42.675;  -86.064; -223.885
715.641;  -19.048; -365.064; -367.885
715.906;  206.803;   15.936; -551.885
716.171;   82.505;  221.937;  209.114
716.436;   16.857;  -78.063; -104.886
716.700; -112.242; -818.063; -692.886
716.965; -130.965; -794.063; -807.887
717.230;  -79.738; -339.063; -392.887
717.494;  -32.836;  -40.062; -134.888
717.759; -109.335; -784.062; -640.888
718.024;    1.117;  269.938;  250.112
718.288;   74.919;  685.938;  395.111
718.553; -150.605; -803.062; -977.889
718.817; -145.778; -883.061; -899.889
719.082;  -33.276; -115.061; -125.890
719.346; -135.899;-1000.061; -947.890
719.611;  -55.098; -300.061; -255.891
719.875; -118.696; -568.060; -537.891
720.140;  -73.994; -453.060; -603.891
720.404;    6.307; -136.060; -249.892
720.668;  615.734; -475.060; -411.892
720.933;  219.786;  146.940;  137.108
721.197; -112.563; -667.059; -600.893
721.461; -141.136; -851.059; -826.893
721.725;  -13.909;  -21.059; -250.894
721.990;  -68.607; -284.059; -204.894
722.254;  -33.306;  -26.059; -108.894
722.518;  -71.279; -286.058; -442.895
722.782;  -96.727; -743.058; -594.895
723.046;  100.774;  614.942;  570.105
723.310;   29.851;  374.942;  210.104
723.574; -109.747; -654.058; -614.896
723.838; -114.695; -576.057; -642.897
724.102;  -50.619; -226.057; -239.897
724.366; -140.267;-1032.057; -978.897
724.630; -116.715; -749.057; -571.898
724.894;  -83.539; -722.057; -514.898
725.158;  -14.912;   38.944; -295.898
725.422;  -51.260; -394.056; -327.899
725.685;  -83.234; -441.056; -349.899
725.949;  -87.882; -566.056; -519.900
726.213;  -94.605; -732.056; -811.900
726.477;   71.997;-1020.055; -933.900
726.740;   96.623; -274.055; -104.901
727.004;  302.550; -384.055; -510.901
727.268; 3297.177; -442.055; -400.901
727.531;  855.778; -961.055; -775.902
727.795;  -55.895; -713.054; -673.902
728.059;  -77.793; -552.054; -557.903
728.322;  -92.767; -841.054; -669.903
728.586;  -10.590; -692.054; -701.903
728.849; -103.613; -695.053; -756.904
729.112; -120.336; -812.053; -912.904
729.376; -135.510; -959.053; -905.904
729.639;  -82.533; -536.053; -536.905
729.903; -123.456; -733.053; -699.905
730.166;  -60.230; -437.052; -399.906
730.429;  -49.753; -317.052; -468.906
730.693;  -75.976; -355.052; -894.906
730.956;  176.076;  810.948;  651.093
731.219;  544.752; -310.052; -103.907
731.482;   46.779;-1003.051; -894.907
731.745;   25.431; -794.051; -935.908
732.009;    2.782;  -30.051;   50.092
732.272; -120.116; -904.051; -771.909
732.535;  -56.214; -300.051; -310.909
732.798; -174.138;-1083.050;-1166.909
733.061;  -71.336; -430.050; -456.910
733.324;   -7.534;   31.950; -180.910
733.587;   45.843;  290.950;  365.090
733.850;  -82.706; -973.049;-1050.911
734.113;    8.996;   33.951;   32.089
734.376;  -22.077; -328.049; -447.912
734.639;  195.324; 1188.951; 1011.088
734.901;   40.351; -180.049; -402.912
735.164;  382.978; -883.048; -837.913
735.427;  984.855; -166.048; -355.913
735.690;   82.731; -205.048; -234.913
735.952;  -67.342; -923.048; -925.914
736.215;  -57.065;-1113.048;-1009.914
736.478;   10.611; -771.047; -774.915
736.740;  184.063;   33.953;  129.085
737.003;  551.590; -658.047; -672.915
737.266; 3119.266;  -94.047;   46.084
737.528;  333.593; -682.047; -660.916
737.791;  287.795; -316.046; -327.916
738.053;  740.247;  465.954;  649.083
738.316;10236.773; -162.046; -136.917
738.578; 6678.575; -770.046; -736.918
738.841;  377.702; -382.046; -446.918
739.103;  133.628; -875.045; -777.918
739.365;  385.805;   79.955;  -69.919
739.628;  -11.118; -884.045; -805.919
739.890;  -58.491; -758.045; -710.919
740.152;  -63.615; -692.044; -754.920
740.414;  -30.638; -408.044; -359.920
740.677;  -58.386; -785.044; -634.921
740.939;  -68.260; -587.044; -487.921
741.201;  176.942; -432.044; -572.921
741.463;   -9.781; -689.043; -745.922
741.725;   -1.905;  -21.043; -199.922
741.987;   32.572;  220.957;  116.078
742.249;  -43.251; -751.043; -859.923
742.511;  118.001; -703.043; -794.923
742.773;   -9.123; -546.042; -546.924
743.035;  117.854;  796.958;  533.076
743.297;  -65.794; -963.042;-1013.924
743.559;  579.257; -278.042; -262.925
743.821;  -12.541; -735.042; -744.925
744.083;   -4.614;  -44.041; -149.925
744.345;  -98.438; -869.041; -892.926
744.607;   16.064;   75.959;  122.074
744.868;  -77.009; -490.041; -554.927
745.130; -129.257; -994.041;-1008.927
745.392;   36.369;   -1.040;  -44.927
745.653;  -22.954; -411.040; -378.928
745.915;  161.573;  896.960;  631.072
746.177;   49.299;   35.960;  -43.928
746.438;  -31.499; -428.040; -543.929
746.700;  -76.222; -947.039; -988.929
746.961;  -10.370; -659.039; -740.930
747.223;  111.881; -190.039;  -74.930
747.484;   56.908; -391.039; -471.930
747.746;  117.310;  -23.038; -106.931
748.007;   87.236; -647.038; -689.931
748.269;  218.138; -468.038; -440.931
748.530;  338.315; -852.038; -638.932
748.791;  206.891; -354.038; -420.932
749.053;  385.518;  286.963;  163.067
749.314;  373.020; -236.037; -169.933
749.575;  397.172; -945.037; -905.933
749.836;  712.823; -217.037;   86.066
750.098; 2160.725;  -60.037;  -21.934
750.359;31444.302;  414.964;  555.066
750.620; 7492.628; -121.036; -220.935
750.881;  857.280; -585.036; -513.935
751.142; 1171.982; -950.036; -938.936
751.403;15649.359; -789.036; -705.936
751.664; 6415.010;-1034.035; -999.936
751.925;  408.037; -175.035; -262.937
752.186;  240.539; -298.035; -278.937
752.447;   92.465; -590.035; -445.937
752.708;   16.817; -532.035; -648.938
752.969;   -7.956; -566.034; -576.938
753.230;  -33.480; -777.034; -672.939
753.491;  -10.853; -650.034; -631.939
753.751;   52.999;  109.966;   19.061
754.012;   75.101;  258.967;  181.060
754.273;   35.652; -174.033;  -71.940
754.534;   -5.021; -487.033; -580.940
754.794; -113.519; -926.033; -911.941
755.055;  135.032; 1051.967;  881.059
755.316;  -47.216; -700.032; -566.942
755.576;  -48.114; -606.032; -576.942
755.837;  -62.738; -527.032; -695.942
756.097;  -46.586; -530.032; -564.943
756.358;  -89.934; -725.032; -770.943
756.618;  -66.157; -705.031; -641.943
756.879;  -12.656; -254.031; -349.944
757.139; -145.279;-1098.031;-1116.944
757.400;  -70.252; -538.031; -553.945
757.660;  -45.251; -365.031; -401.945
757.920;   -4.899; -266.030; -228.945
758.181;  -48.097; -468.030; -351.946
758.441; -102.595; -870.030; -809.946
758.701;  -50.694; -308.030; -215.946
758.961;  -39.417; -220.030; -278.947
759.222;  -55.515; -574.029; -502.947
759.482;  -93.064; -683.029; -723.948
759.742; -107.812; -706.029; -547.948
760.002;   -6.510;  -83.029; -143.948
760.262;    2.741;   50.972;  182.051
760.522;  -51.182; -498.028; -574.949
760.782;  -71.505; -738.028; -612.949
761.042;  -44.903; -618.028; -573.950
761.302;   34.773;   55.972;  -18.950
761.562;   32.725; -164.027; -154.951
761.822;   27.802; -710.027; -551.951
762.082;  -48.272;-1104.027;-1093.951
762.342;   49.005; -328.027; -403.952
762.601;   64.132; -567.027; -506.952
762.861;  283.234; -281.026; -207.952
763.121;  385.810; -406.026; -411.953
763.381; 7232.287; -499.026; -485.953
763.640; 7344.389; -139.026; -307.954
763.900;  297.490; -242.026; -203.954
764.160;   46.217; -458.025; -491.954
764.419;  -20.756; -726.025; -782.955
764.679;  -82.505; -795.025; -726.955
764.939;  -18.528; -124.025; -210.955
765.198;  -89.551; -608.025; -563.956
765.458; -105.549; -710.024; -612.956
765.717;  -96.323; -454.024; -590.957
765.976;  -70.546; -428.024; -411.957
766.236;  -88.544; -475.024; -610.957
766.495;   11.907;  260.977;   73.042
766.755; -122.766;-1090.023; -987.958
767.014;  -33.239; -594.023; -665.958
767.273;  -70.338; -373.023; -397.959
767.533;  -48.386; -228.023; -307.959
767.792;  -44.259; -151.022; -188.960
768.051;  -73.657; -228.022; -276.960
768.310;  -93.581; -546.022; -650.960
768.569;   -1.479; -161.022;    4.039
768.828;  -40.652; -285.022; -363.961
769.088; -125.426;-1050.021; -942.961
769.347;  -96.949; -755.021; -599.962
769.606; -105.847; -876.021; -857.962
769.865; -121.220;-1016.021;-1033.963
770.124;  -25.469; -411.021; -336.963
770.383;  -68.042; -778.020; -910.963
770.641;  -16.815; -398.020; -400.964
770.900;  -61.189; -953.020; -846.964
771.159;  -44.612; -851.020; -951.964
771.418;  -15.585; -917.020; -779.965
771.677;  121.141; -224.019; -293.965
771.936;  153.318; -794.019; -865.966
772.194; 2585.520; -465.019; -437.966
772.453;11232.647; -213.019; -391.966
772.712;  748.048;  416.982;  329.033
772.970;  132.925;   32.982;   63.033
773.229;   92.227;  -22.018;  102.033
773.488;  -83.897; -814.018; -770.968
773.746;   54.930;  296.982;  335.032
774.005;   -6.768;  190.983;  -22.969
774.263;    2.634;  243.983;  177.031
774.522;  -87.565; -422.017; -548.969
774.780;  -86.388; -484.017; -417.970
775.039; -101.586; -551.017; -531.970
775.297;  -11.435; -135.016; -351.970
775.555; -117.658; -489.016; -612.971
775.814; -133.256; -618.016; -570.971
776.072; -121.555; -749.016; -740.971
776.330; -113.978; -630.016; -520.972
776.589; -142.026; -703.015; -721.972
776.847; -129.249; -645.015; -624.973
777.105; -172.373;-1016.015;-1032.973
777.363;  -90.646; -459.015; -454.973
777.621; -154.519; -660.015; -717.974
777.879;  -38.918;  -42.014;   32.026
778.138; -104.641; -554.014; -717.974
778.396; -105.939; -585.014; -526.975
778.654; -177.888;-1015.014; -970.975
778.912;  -81.486; -269.014; -371.976
779.170; -139.334; -880.013; -803.976
779.427; -169.757; -922.013; -897.976
779.685; -135.181; -880.013; -832.977
779.943; -111.829; -654.013; -593.977
780.201; -153.927; -964.012; -883.978
780.459; -134.776; -651.012; -610.978
780.717;  -88.499; -440.012; -390.978
780.974; -115.822; -449.012; -490.979
781.232;  -80.545; -358.012; -338.979
781.490;  -96.219; -551.011; -472.979
781.747; -110.542; -555.011; -476.980
782.005;   17.685;  462.989;  254.020
782.263; -166.589; -542.011;-1004.981
782.520;  -93.037; -326.011; -501.981
782.778; -177.160;-1013.010;-1051.981
783.035; -181.859; -962.010; -938.982
783.293;  -63.732; -248.010; -206.982
783.550;  -59.980; -134.010; -198.982
783.808; -147.703; -764.010; -776.983
784.065; -180.102; -745.009; -874.983
784.322;  -44.075;   25.991;  -86.984
784.580; -158.023; -915.009; -771.984
784.837; -108.347; -392.009; -466.984
785.094; -141.645; -783.009; -762.985
785.352;  -78.893; -304.008; -404.985
785.609; -134.466; -934.008; -839.985
785.866;  -90.515; -345.008; -401.986
786.123; -109.413; -639.008; -583.986
786.380; -117.311; -665.008; -604.987
786.637;  -59.260; -225.007; -380.987
786.895;  -43.308; -456.007; -543.987
787.152;  -55.731; -135.007; -267.988
787.409;  -56.705; -123.007; -225.988
787.666; -101.778; -299.006; -378.988
787.923; -112.301; -616.006; -695.989
788.179; -102.049; -551.006; -584.989
788.436; -114.573; -585.006; -585.990
788.693;  -44.521;  -92.006;  -87.990
788.950;  108.881; -125.005; -112.990
789.207;  122.982; -381.005; -372.991
789.464;  -63.466; -161.005; -301.991
789.720;  -20.214;  150.995;  110.009
789.977; -189.913;-1003.005; -671.992
790.234;  -42.611;   44.996;  -66.992
790.490; -162.809; -884.004;-1031.993
790.747;  -19.907;  -85.004;   22.007
791.004;  -60.131; -426.004; -348.993
791.260;  -87.254; -430.004; -560.994
791.517; -107.577; -843.003; -788.994
791.773;  -63.701; -379.003; -342.994
792.030; -127.899; -596.003; -660.995
792.286; -110.772; -686.003; -636.995
792.543;  -26.195;  -74.002; -159.995
792.799;  -72.444; -584.002; -382.996
793.055; -179.442;-1179.002;-1210.996
793.312; -110.440; -827.002; -816.997
793.568;  -77.014; -746.002; -599.997
793.824;   11.138; -226.001; -284.997
794.081;   11.715; -447.001; -508.998
794.337;   40.716; -664.001; -561.998
794.593; 1306.793; -319.001; -271.999
794.849; 5776.395; -746.001; -772.999
795.105;  259.372; -270.000; -261.999
795.361;  -22.802; -490.000; -457.000
795.617;  -80.025; -875.000; -945.000
795.873;  -53.600; -360.000; -407.000
796.129;  -38.675; -368.000; -306.000
796.385;  -31.000; -124.000; -156.000
796.641;   72.550;  412.000;  550.000
796.897;  -93.650; -666.000; -635.000
797.153;   65.250;  453.000;  357.000
797.409; -111.675; -785.000; -868.000
797.665;  -83.375; -625.000; -732.000
797.921; -101.700; -775.000; -762.000
798.176;  -55.925; -744.000; -747.000
798.432;  -66.900; -824.000; -596.000
798.688;  -88.750;-1174.000;-1078.000
798.943;   50.700; -165.000; -147.000
799.199;   -5.400;-1005.000; -959.000
799.455;  216.675;  369.000;  316.000
799.710;  114.575; -813.000; -380.000
799.966;  279.925; -162.000; -160.000
800.221;  467.475; -638.000; -721.000
800.477;10326.725; -743.000; -710.000
800.732; 8284.375; -773.000; -800.000
800.988;  612.750;  205.000;  -19.000
801.243; 2263.400; -454.000; -344.000
801.498; 8951.425; -814.000; -739.000
801.754;  482.600; -289.000; -163.000
802.009;  100.775; -257.000; -335.000
802.264;  -54.925; -967.000;-1033.000
802.520;   16.175;  222.000;   -3.000
802.775;  -57.225; -524.000; -359.000
803.030;   46.025;  395.000;  356.000
803.285; -120.300; -840.000; -903.000
803.540;  -66.850; -686.000; -699.000
803.795;  -73.375; -648.000; -583.000
804.051;  -48.025; -279.000; -346.000
804.306;   21.775;  168.000;  128.000
804.561;  106.675;  451.000;  362.000
804.816;  128.425;  714.000;  861.000
805.071;   -1.025; -185.000; -280.000
805.325;  114.100; -257.000; -427.000
805.580; -130.775; -841.000; -877.000
805.835;   -8.475; -204.000; -297.000
806.090;  -85.450; -760.000; -676.000
806.345;  -24.575; -344.000; -264.000
806.600;  -52.475; -549.000; -632.000
806.854;  -48.900; -408.000; -538.000
807.109;  -34.750; -493.000; -577.000
807.364;  -11.225; -407.000; -328.000
807.618;  -13.925; -415.000; -381.000
807.873;   24.125; -470.000; -494.000
808.128;   68.575; -257.000; -518.000
808.382;   67.975; -224.000; -332.000
808.637;   54.900; -440.000; -511.000
808.891;  135.950; -257.000; -180.000
809.146;   54.475; -902.000; -794.000
809.400;  196.525; -848.000; -923.000
809.654;  256.375; -779.000; -551.000
809.909;  413.500; -841.000; -927.000
810.163; 6001.650; -813.000; -651.000
810.418;13969.575; -940.000; -861.000
810.672;  895.800; -685.000; -690.000
810.926;  648.700; -993.000; -973.000
811.180; 1372.950; -439.000; -372.000
811.434;31468.125;  240.000;  135.000
811.689;11288.700; -231.000; -365.000
811.943;  531.225; -936.000; -953.000
812.197;  265.000; -893.000; -671.000
812.451;  106.975; -379.000; -514.000
812.705;  -31.575; -809.000; -619.000
812.959;   -4.325; -263.000; -388.000
813.213;  -15.675; -283.000; -209.000
813.467;   61.550;  470.000;  253.000
813.721; -106.550; -764.000; -792.000
813.975; -122.475; -826.000; -877.000
814.229;   35.425;  430.000;  353.000
814.482;  -89.350; -517.000; -566.000
814.736; -134.050; -766.000; -744.000
814.990; -123.000; -779.000; -872.000
815.244;  -56.525; -228.000; -285.000
815.497; -102.450; -636.000; -601.000
815.751;  -24.875; -141.000;   82.000
816.005;  -96.775; -470.000; -586.000
816.258;  -81.450; -510.000; -363.000
816.512; -107.225; -693.000; -610.000
816.766;  -11.625;  121.000;  157.000
817.019;    5.300;  148.000;  149.000
817.273; -140.350;-1000.000; -802.000
817.526;  -28.050; -206.000; -173.000
817.779;  -82.375;-1049.000; -960.000
818.033; -101.300; -693.000; -807.000
818.286; -133.150; -725.000; -792.000
818.540; -101.650; -403.000; -403.000
818.793;  -95.100; -402.000; -489.000
819.046; -127.500; -582.000; -520.000
819.299;  -48.225; -157.000; -166.000
819.553; -109.525; -552.000; -592.000
819.806; -169.275;-1016.000; -838.000
820.059;  -69.925; -334.000; -354.000
820.312;   -5.225;  152.000;  185.000
820.565;  -16.700;  110.000;  -27.000
820.818;  -61.725;  -59.000; -173.000
821.071; -168.625;-1041.000; -957.000
821.324; -108.625; -536.000; -540.000
821.577; -104.375; -457.000; -483.000
821.830;  -70.350; -270.000; -172.000
822.083; -140.075; -733.000; -288.000
822.336;  -68.400; -261.000; -167.000
822.589; -144.425; -805.000; -688.000
822.842; -153.575; -875.000; -770.000
823.094; -175.600;-1076.000;-1114.000
823.347; -143.675; -925.000; -729.000
823.600;    3.675;  402.000;  187.000
823.853;  -57.550; -311.000; -267.000
824.105;  -88.400; -331.000; -575.000
824.358; -133.550; -617.000; -716.000
824.611;   16.375;  234.000;   40.000
824.863;  -69.775; -612.000; -591.000
825.116;   37.850;  -33.000;   27.000
825.368;   40.025; -366.000; -372.000
825.621;  124.825; -186.000; -240.000
825.873;   56.600; -704.000; -737.000
826.126;  598.500; -669.000; -641.000
826.378;11080.250; -389.000; -505.000
826.630; 2382.475; -890.000; -898.000
826.883;   14.725; -754.000; -693.000
827.135;   20.125; -279.000; -270.000
827.387; -119.525; -893.000; -839.000
827.639;  -35.725;  -86.000;   32.000
827.892; -148.625; -742.000; -582.000
828.144; -157.650; -848.000; -804.000
828.396;  -42.300;  104.000;  -80.000
828.648; -107.075; -440.000; -333.000
828.900; -149.300; -702.000; -795.000
829.152; -131.575; -684.000; -683.000
829.404;  -79.100; -215.000; -267.000
829.656;  -48.750;  321.000;  214.000
829.908;  -22.275;  393.000;  229.000
830.160; -171.650;-1064.000;-1047.000
830.412;  -99.475; -481.000; -430.000
830.664; -129.075; -557.000; -665.000
830.916;  -80.100; -268.000; -206.000
831.167; -188.825;-1073.000; -951.000
831.419; -112.700; -623.000; -566.000
831.671; -161.250; -764.000; -809.000
831.923;  -92.625; -311.000; -447.000
832.174;  -78.750; -273.000; -331.000
832.426; -125.675; -493.000; -582.000
832.678; -193.600;-1043.000;-1091.000
832.929; -167.950; -947.000; -935.000
833.181;  -94.725; -575.000; -677.000
833.432;  -53.900;  -59.000; -186.000
833.684;  -28.700;  112.000;  -27.000
833.935; -123.425; -610.000; -566.000
834.187; -131.675; -829.000; -823.000
834.438;  -57.450;  -58.000;  -25.000
834.689;  -62.500; -255.000; -123.000
834.941;  -68.775; -343.000; -244.000
835.192; -105.975; -590.000; -533.000
835.443; -124.500; -419.000; -506.000
835.695;  -13.875;  138.000;  -16.000
835.946; -105.825; -608.000; -378.000
836.197; -116.775; -599.000; -622.000
836.448;  -96.650; -528.000; -395.000
836.699;  -78.125; -253.000; -341.000
836.950;  -20.875;   72.000;    7.000
837.201; -154.825;-1003.000; -987.000
837.452;  -65.500; -356.000; -170.000
837.703; -129.925; -791.000; -737.000
837.954;  -38.525; -205.000; -365.000
838.205;  -99.750;-1029.000;-1008.000
838.456;  122.900; -196.000; -282.000
838.707;   -9.025; -423.000; -519.000
838.958;  -15.550; -634.000; -647.000
839.209;  205.975;   18.000;   40.000
839.460;   84.800; -439.000; -201.000
839.710;  141.950; -135.000; -297.000
839.961;  369.100;  730.000;  612.000
840.212;  289.450; -382.000; -497.000
840.462; 1121.450; -328.000; -277.000
840.713;17730.250; -571.000; -536.000
840.964; 6368.150;  -62.000; -143.000
841.214;  420.525; -384.000; -624.000
841.465;  456.050; -214.000; -141.000
841.715;  409.600; -417.000; -380.000
841.966;  525.975; -746.000; -685.000
842.216; 8022.225; -330.000; -431.000
842.466;27653.850; -169.000; -313.000
842.717; 1344.350; -964.000; -952.000
842.967;  225.175; -635.000; -641.000
843.217;  203.975;   20.000;   28.000
843.468;   27.950; -104.000; -132.000
843.718;  -78.125; -718.000; -726.000
843.968; -112.275; -837.000; -765.000
844.218;  -11.925; -315.000; -262.000
844.469;  -79.200; -577.000; -561.000
844.719; -110.150; -537.000; -682.000
844.969; -113.175; -550.000; -580.000
845.219; -148.125; -814.000; -862.000
845.469;  -88.375; -392.000; -342.000
845.719; -161.175; -792.000; -884.000
845.969;  -30.900;  119.000;  174.000
846.219; -122.425; -738.000; -720.000
846.469;   10.600;  464.000;  432.000
846.718;  -66.300; -115.000;   31.000
846.968; -145.300; -827.000; -827.000
847.218;  -69.875; -224.000; -371.000
847.468;    2.150; -586.000; -555.000
847.718; -151.550; -827.000; -798.000
847.967; -153.000; -826.000; -915.000
848.217;  -90.100; -449.000; -569.000
848.467;  -75.300; -405.000; -376.000
848.716; -119.400; -708.000; -725.000
848.966;  -25.600; -372.000; -358.000
849.215;  -74.275; -428.000; -419.000
849.465; -106.700; -785.000; -615.000
849.714; -150.600;-1132.000;-1150.000
849.964;  -92.175; -551.000; -613.000
850.213;  -34.900; -393.000; -355.000
850.463;   73.300;  137.000;  340.000
850.712;  -22.050; -542.000; -567.000
850.961;  -11.575; -739.000; -678.000
851.211;   74.375; -513.000; -504.000
851.460;  138.825; -635.000; -650.000
851.709;  533.725;  -25.000;   18.000
851.958;10327.675; -912.000; -750.000
852.208;11347.425; -859.000; -879.000
852.457;  407.175; -181.000;  -13.000
852.706;   51.000; -791.000; -823.000
852.955;   -0.450; -507.000; -528.000
853.204;  -71.575; -521.000; -461.000
853.453;  -94.625; -418.000; -458.000
853.702; -137.925; -660.000; -750.000
853.951; -107.500; -532.000; -520.000
854.200; -132.475; -613.000; -562.000
854.449; -155.150; -695.000; -661.000
854.698;  -94.800; -340.000; -279.000
854.946;  -82.700; -181.000; -284.000
855.195; -151.425; -843.000; -868.000
855.444;  -94.200; -395.000; -420.000
855.693; -133.425; -345.000; -432.000
855.941; -125.950; -387.000; -516.000
856.190;  -66.300; -256.000; -382.000
856.439; -142.575; -652.000; -703.000
856.687;  -72.150;  -99.000;  -72.000
856.936; -117.325; -621.000; -323.000
857.184; -199.775;-1067.000;-1020.000
857.433; -101.300; -423.000; -512.000
857.681; -174.525; -989.000; -953.000
857.930;  -89.500; -282.000; -433.000
858.178; -186.450; -856.000; -929.000
858.427; -165.725; -802.000; -781.000
858.675; -130.225; -377.000; -544.000
858.923; -115.325; -527.000; -819.000
859.172; -196.850;-1094.000;-1070.000
859.420;  -95.275; -339.000; -239.000
859.668; -144.975; -624.000; -628.000
859.916;  -44.775;  109.000;  115.000
860.164; -131.575; -699.000; -603.000
860.413;  164.725; -878.000; -696.000
860.661;  100.450; -709.000; -577.000
860.909;  -93.200; -339.000; -325.000
861.157;  -86.800; -277.000; -444.000
861.405; -136.025; -534.000; -670.000
861.653;   20.475;  310.000;  310.000
861.901;   87.900; -543.000; -613.000
862.149;  -60.525; -801.000; -824.000
862.396;  -80.875; -297.000; -187.000
862.644; -102.675; -368.000; -347.000
862.892;  -39.700;   98.000;  138.000
863.140; -127.825; -549.000; -530.000
863.388; -163.975; -815.000; -759.000
863.635; -130.575; -642.000; -601.000
863.883;  -14.000;  231.000;  190.000
864.131; -108.400; -288.000; -357.000
864.378; -141.125; -675.000; -540.000
864.626; -116.050; -347.000; -415.000
864.873; -128.150; -556.000; -505.000
865.121; -159.725; -714.000; -799.000
865.368;  -41.275; -173.000;   75.000
865.616;  -39.025;  -33.000;  -40.000
865.863;  -71.550; -462.000; -506.000
866.111; -108.750; -795.000; -824.000
866.358;   60.675; -426.000; -420.000
866.605; 2871.950;  -64.000; -804.000
866.853; 2638.025; -621.000; -537.000
867.100;  -21.200; -728.000; -775.000
867.347; -106.350; -672.000; -611.000
867.594;  -85.775; -740.000; -714.000
867.841;   27.600;   97.000;   17.000
868.089; -148.150; -746.000; -698.000
868.336; -114.025; -477.000; -420.000
868.583; -139.075; -637.000; -741.000
868.830;  -61.150; -131.000; -170.000
869.077; -175.950; -859.000; -787.000
869.324; -145.175; -502.000; -458.000
869.571; -132.300; -398.000; -430.000
869.818; -134.900; -485.000; -439.000
870.065; -126.175; -439.000; -513.000
870.311; -115.950; -456.000; -542.000
870.558; -119.325; -332.000; -311.000
870.805;  -96.875; -320.000; -384.000
871.052; -109.300; -494.000; -369.000
871.298;  -80.575; -204.000; -131.000
871.545;  -75.100; -151.000; -185.000
871.792; -100.500; -173.000; -222.000
872.038;  -80.225;   43.000; -126.000
872.285; -125.625; -496.000; -387.000
872.532; -107.950; -357.000; -387.000
872.778;   13.100;  556.000;  403.000
873.025; -103.575; -384.000; -359.000
873.271;   14.750;  501.000;  578.000
873.517;  -49.025; -133.000; -209.000
873.764;  -69.100; -193.000;  -80.000
874.010;  -74.850; -143.000; -230.000
874.257;  -64.700;  123.000;   90.000
874.503; -134.600; -579.000; -479.000
874.749;  -78.300;   31.000;  275.000
874.995;  -73.425;  -80.000;  -20.000
875.242; -143.100; -540.000; -478.000
875.488; -122.125; -414.000; -439.000
875.734;  -73.450; -106.000; -234.000
875.980;  102.550; -872.000;-1032.000
876.226;  220.300; -157.000; -255.000
876.472;  -19.425;  343.000;  237.000
876.718;  -54.150;  184.000;  158.000
876.964;  -40.900;   56.000;   55.000
877.210; -167.900; -547.000; -677.000
877.456; -133.575; -630.000; -557.000
877.702; -194.775; -821.000; -832.000
877.948; -132.675; -377.000; -497.000
878.193;    7.475;  361.000;  255.000
878.439; -107.525; -487.000; -472.000
878.685; -104.500; -272.000; -343.000
878.931; -133.850; -618.000; -676.000
879.176;  -97.125; -201.000; -201.000
879.422; -183.625; -933.000; -820.000
879.668;    2.325;   10.000;   79.000
879.913;   76.225;   53.000;  137.000
880.159;  -63.250; -112.000;  -17.000
880.404;  -62.000; -152.000; -162.000
880.650;  -57.000;   91.000;  141.000
880.895; -160.000; -670.000; -710.000
881.141; -130.225; -454.000; -428.000
881.386; -164.225; -503.000; -658.000
881.631;  -95.825; -311.000; -166.000
881.877;  -46.200;  112.000;  -13.000
882.122; -143.600; -684.000; -600.000
882.367;  -95.225; -136.000; -186.000
882.612;  -91.875;  -80.000; -176.000
882.858; -179.000; -877.000; -823.000
883.103; -113.925; -297.000; -267.000
883.348; -146.800; -759.000; -852.000
883.593; -165.050; -677.000; -602.000
883.838;  -55.975; -311.000;  -24.000
884.083;    5.425;  353.000;  288.000
884.328;  -84.350; -564.000; -545.000
884.573;  -61.950; -196.000; -143.000
884.818;  107.900; -694.000; -531.000
885.063;   74.675; -348.000; -315.000
885.308; -112.125; -475.000; -398.000
885.553;  -23.125;  245.000;  325.000
885.797; -137.850; -545.000; -615.000
886.042;  -66.625;    8.000;   58.000
886.287;  -95.125; -253.000; -211.000
886.532;  -68.825;   26.000;  204.000
886.776;  -99.550; -407.000; -525.000
887.021; -155.925; -621.000; -574.000
887.265; -167.300; -685.000; -689.000
887.510; -149.025; -557.000; -496.000
887.755;  -85.775; -194.000; -164.000
887.999; -131.875; -552.000; -575.000
888.244;  -57.725;  -58.000;  161.000
888.488;   -9.300;  371.000;  393.000
888.732; -127.900; -368.000; -520.000
888.977; -132.300; -622.000; -567.000
889.221; -161.775; -683.000; -659.000
889.465; -138.625; -422.000; -566.000
889.710;  -88.775;  -56.000; -299.000
889.954;  -13.225;  579.000;  467.000
890.198; -155.050; -584.000; -707.000
890.442; -162.275; -716.000; -712.000
890.687; -174.450; -800.000; -753.000
890.931;  -93.925; -273.000; -210.000
891.175; -146.250; -502.000; -500.000
891.419;  -93.900; -105.000; -110.000
891.663; -100.075; -239.000; -112.000
891.907; -162.875; -801.000; -545.000
892.151; -179.900; -920.000; -815.000
892.395; -110.250; -274.000; -387.000
892.638;  -32.500;  408.000;  291.000
892.882; -179.975; -780.000; -867.000
893.126;   -0.875;  758.000;  558.000
893.370; -107.725; -167.000; -168.000
893.614; -151.425; -714.000; -715.000
893.857; -117.075; -183.000; -197.000
894.101; -140.650; -527.000; -631.000
894.345;  -72.325;  300.000;  150.000
894.588;   14.900;  569.000;  380.000
894.832;  -81.425; -178.000;  -84.000
895.075;  -96.100;   15.000;  -92.000
895.319; -136.450; -552.000; -420.000
895.563; -127.400; -413.000; -353.000
895.806; -163.450; -628.000; -741.000
896.049;  -82.100; -576.000; -368.000
896.293;   55.925;  527.000;  405.000
896.536; -106.200; -465.000; -468.000
896.779;  -73.800; -149.000;   -1.000
897.023; -152.775; -751.000; -714.000
897.266;  -40.575;  325.000;  269.000
897.509; -191.425; -900.000; -901.000
897.752;  -52.825;  149.000;  171.000
897.996; -211.850; -972.000; -864.000
898.239;  -40.325;  168.000;  102.000
898.482; -134.600; -431.000; -453.000
898.725;  -70.375;  101.000;   53.000
898.968; -170.575; -609.000; -744.000
899.211; -111.850; -513.000; -361.000
899.454; -131.700; -633.000; -539.000
899.697;  -74.200;   90.000;  -43.000
899.940; -175.600; -761.000; -757.000
900.182; -116.575; -335.000; -405.000
900.425; -114.500; -150.000; -298.000
900.668;  -25.200;  491.000;  350.000
900.911; -106.400; -292.000; -345.000
901.154;  -73.650;  141.000;   -3.000
901.396; -154.075; -407.000; -412.000
901.639; -153.075; -430.000; -496.000
901.882; -186.575; -790.000; -809.000
902.124;  -94.400;  -29.000; -143.000
902.367; -122.625; -315.000; -361.000
902.609; -144.675; -476.000; -453.000
902.852;  -89.600; -108.000; -260.000
903.094; -136.950; -458.000; -337.000
903.337;  -55.150;  -26.000;   53.000
903.579; -117.750; -228.000; -441.000
903.821; -165.200; -597.000; -744.000
904.064;  -69.075;   85.000;  127.000
904.306;  -95.675; -126.000; -166.000
904.548; -109.950; -152.000; -366.000
904.790; -115.750; -195.000; -340.000
905.033; -148.825; -625.000; -577.000
905.275; -120.125; -513.000; -524.000
905.517;   21.175;  468.000;  256.000
905.759; -100.275; -667.000; -761.000
906.001; -120.350; -322.000; -369.000
906.243;  -73.850; -162.000; -224.000
906.485;   72.550; -265.000; -207.000
906.727;   13.550; -499.000; -542.000
906.969;  -69.375;  -30.000; -135.000
907.211;   53.350; -316.000; -382.000
907.453;  158.175; -188.000; -237.000
907.695;  -27.775; -158.000; -385.000
907.936;   32.950;  818.000;  706.000
908.178;  -73.375;   92.000; -135.000
908.420;  -71.925; -111.000; -162.000
908.662; -147.500; -633.000; -682.000
908.903;  -98.500; -208.000; -123.000
909.145;  -80.275; -240.000; -305.000
909.386;   -0.975;  315.000;  280.000
909.628;   38.300;  363.000;  397.000
909.870;  -12.050;   29.000;  264.000
910.111; -104.900; -809.000; -949.000
910.353;  -11.350; -123.000; -161.000
910.594;  -19.800; -574.000; -606.000
910.835;   67.775; -265.000; -326.000
911.077;  110.325; -503.000; -604.000
911.318;  265.725; -505.000; -471.000
911.559;  410.100; -577.000; -880.000
911.801; 1321.325; -284.000; -280.000
912.042;10624.225;  -50.000; -159.000
912.283;25357.725;  404.000;  371.000
912.524; 3495.625; -396.000; -457.000
912.765;  429.175; -193.000;   79.000
913.006;  211.675; -307.000; -338.000
913.247;   23.250; -270.000; -290.000
913.488;   -6.975;  -43.000;   30.000
913.729;  -93.400; -373.000; -373.000
913.970;  -72.225;  -96.000; -292.000
914.211;  -73.775; -160.000; -198.000
914.452;  -81.725; -118.000;  -11.000
914.693;    2.125;  510.000;  592.000
914.934;   20.275;  510.000;  440.000
915.175;  -73.225;   53.000;  -95.000
915.415;  -74.750; -137.000;   27.000
915.656;  -79.700;  -28.000;  192.000
915.897;  -94.375; -252.000;  -82.000
916.137;  -72.575;   74.000;   -9.000
916.378; -138.700; -573.000; -517.000
916.619; -105.775; -159.000;  -63.000
916.859;  -13.050;  303.000;  330.000
917.100;  119.250; 1655.000; 1070.000
917.340;   63.125;  930.000;  728.000
917.581;   31.175;  965.000;  789.000
917.821;  -52.025; -171.000;  143.000
918.061;  -20.750; -199.000;  -72.000
918.302;  -62.525; -152.000; -211.000
918.542;  -47.625;  -22.000;    3.000
918.782;   24.925;  369.000;  377.000
919.023;   97.425;  360.000;  427.000
919.263; 1259.900; 8131.000;  202.000
919.503;  903.750; -137.000;  -54.000
919.743;  457.200;  390.000;  266.000
919.983;  176.100; -134.000;  -26.000
920.223;   59.325;  135.000;   14.000
920.463;  138.450;  631.000;  554.000
920.703;  130.300;   84.000;   39.000
920.943;  152.825; -110.000;   90.000
921.183;  227.825; -414.000; -405.000
921.423;  511.575;  307.000;  546.000
921.663;  746.175; -174.000; -257.000
921.903; 1637.100;  237.000;  173.000
922.143; 9316.100;  372.000;  389.000
922.383;34478.600;  158.000;  115.000
922.622;10470.825; -120.000;  -15.000
922.862; 1155.025;  796.000;  785.000
923.102;  450.750;  -51.000;   33.000
923.341;  169.925;   59.000;   74.000
923.581;   86.625;  450.000;  360.000
923.821;    4.000;  301.000;  398.000
924.060;    9.200;  351.000;  193.000
924.300;  -55.900;  -16.000; -128.000
924.539;    6.700;  584.000;  473.000
924.779;   -1.625;  812.000;  597.000
925.018;  -42.850;  247.000;  353.000
925.257;   -3.200;  595.000;  666.000
925.497;  -48.200;  447.000;  412.000
925.736;  -92.550;  -35.000;  102.000
925.975;   -0.675;  687.000;  669.000
926.214;   11.100;  907.000;  850.000
926.454;   20.100;  706.000;  757.000
926.693;  -39.225;  419.000;  543.000
926.932;   25.675; 1021.000;  825.000
927.171;   61.775; 1107.000; 1044.000
927.410;   70.950; 1144.000;  967.000
927.649;   10.625;  924.000;  742.000
927.888;  -20.500;  590.000;  564.000
928.127;  -22.025;  680.000;  678.000
928.366;   18.025;  842.000;  826.000
928.605;   25.400;  831.000;  737.000
928.844;  206.575; 1451.000; 1393.000
929.083;  521.550;  770.000;  613.000
929.321;  267.450; 1335.000; 1359.000
929.560;   89.175; 1158.000; 1122.000
929.799;  -33.175;  574.000;  475.000
930.038;   78.175; 1025.000; 1394.000
930.276;  -66.875;  334.000;  397.000
930.515;  -15.250;  827.000;  681.000
930.753;  -15.600;  614.000;  589.000
930.992;  -33.250;  664.000;  717.000
931.230;    6.250;  847.000;  847.000
931.469;  161.600; 2162.000;  892.000
931.707;   75.425;  840.000;  751.000
931.946;   50.400; 1278.000; 1344.000
932.184;   45.100; 1437.000; 1175.000
932.423;   45.425; 1265.000;  963.000
932.661;   80.000; 1296.000; 1428.000
932.899;    1.250;  987.000;  821.000
933.137;   -0.700;  754.000;  564.000
933.376;  127.175; 1664.000; 1335.000
933.614;  159.525; 1759.000; 1196.000
933.852;   58.800; 1357.000; 1171.000
934.090;  137.125; 1722.000; 1747.000
934.328;  104.825; 1252.000; 1457.000
934.566;  104.275; 1431.000; 1110.000
934.804;  144.950; 1263.000; 1309.000
935.042;  570.450; 1861.000; 1850.000
935.280; 2282.575; 2088.000; 2063.000
935.518; 2000.675; 2113.000; 2007.000
935.756;  391.025; 2481.000; 2316.000
935.994;  160.800; 1808.000; 1751.000
936.231;  317.325; 2890.000; 2950.000
936.469;  176.125; 2367.000; 2378.000
936.707;  158.600; 2220.000; 2167.000
936.945;  236.000; 2825.000; 2882.000
937.182;  193.550; 2679.000; 2741.000
937.420;  292.275; 3602.000; 3031.000
937.657;  370.200; 3365.000; 3478.000
937.895;  342.125; 3331.000; 3488.000
938.133;  309.100; 3540.000; 3528.000
938.370;  340.900; 3896.000; 4191.000
938.607;  403.975; 4488.000; 4205.000
938.845;  566.600; 5587.000; 5549.000
939.082;  484.500; 5387.000; 5177.000
939.320;  536.875; 5799.000; 5728.000
939.557;  645.300; 6549.000; 6491.000
939.794;  709.200; 7285.000; 7097.000
940.031;  882.975; 8421.000; 8368.000
940.269; 1084.350; 9552.000; 9107.000
940.506; 1089.750;10901.000;10507.000

