
Integration time [ms]: 200.000
Averaging Nr. [scans]: 10
Smoothing Nr. [pixels]: 0
Data measured with spectrometer [name]: 2101013U2
Wave   ;Sample   ;Dark     ;Reference
[nm]   ;[counts] ;[counts] ;[counts] 

394.013;  118.484; -450.257; -315.536
394.305;  441.981; -461.258; -419.536
394.596; 1841.553; -676.269; -527.514
394.887; 4161.774; -796.268; -654.518
395.178; 1671.812;  145.736;   11.476
395.470;  155.826; -210.263; -356.526
395.761;  433.392;  305.734;  394.479
396.052;  761.296; -545.284; -306.489
396.343;  720.584; -557.276; -454.503
396.634;  211.945; -200.279; -290.497
396.926;  226.470; -618.268; -565.517
397.217;  213.089;   11.725;  -17.504
397.508;   82.109; -366.273; -154.507
397.799;   66.445; -555.279; -571.497
398.090;  -18.262; -973.280; -902.495
398.381;  254.103;   11.708;  -11.473
398.672;  -27.896; -585.292; -742.473
398.963;   89.052; -348.279; -373.498
399.254;  190.015;   54.709; -209.475
399.545;  -37.312;-1017.266; -883.520
399.836;   97.770; -407.277; -343.501
400.127;   96.873; -205.295; -209.468
400.418;   91.302; -423.274; -392.506
400.709;  115.021; -359.281; -333.493
401.000;   99.720; -268.291; -309.476
401.290;  216.794;  225.698;  115.545
401.581;  148.375; -166.286; -228.485
401.872;   16.238; -542.298; -486.462
402.163;  103.164; -313.296; -252.467
402.454;  169.816; -123.291; -163.475
402.744;  114.853; -844.297; -813.465
403.035;  683.792; -226.293;  -86.471
403.326;  921.808; -366.292; -384.474
403.617;  693.931;  204.701;  165.539
403.907;  342.003; -593.283; -679.490
404.198; 3584.236; -545.307; -599.446
404.489; 9550.010; -618.283; -588.491
404.779; 3393.998; -618.302; -660.456
405.070;  390.671;  -67.304; -174.451
405.360;  538.194; -259.293; -238.472
405.651;  618.212;  125.699;   98.542
405.942;  345.669;  209.714;  127.516
406.232;  433.587; -432.285; -413.487
406.523;  856.585;  641.706;  758.530
406.813;  157.772; -579.286; -644.484
407.104;  644.401;  261.708;  144.527
407.394;  334.733; -604.299; -591.462
407.685;  303.386;  336.715;  222.513
407.975;  132.708; -400.283; -382.490
408.265;  208.934; -134.289; -190.478
408.556;   93.912; -472.291; -459.475
408.846;  388.786;  474.706;  429.530
409.137;  132.845;   -1.288; -216.480
409.427;   89.787; -193.285; -271.487
409.717;   42.613; -776.273; -692.508
410.007;  235.479;    4.715; -170.486
410.298;  161.676; -360.295; -342.469
410.588;  103.983; -495.285; -510.486
410.878;   11.959; -792.287; -873.482
411.168;  178.041; -481.298; -478.463
411.459;  222.501; -295.283; -242.489
411.749;   61.211; -609.292; -507.474
412.039;   44.843; -755.289; -386.480
412.329;  388.861;   40.722;  132.501
412.619;  305.972;  -62.286; -148.485
412.909;  642.238;  639.711;  594.521
413.199;  541.838; -130.280; -251.495
413.490;  684.626;  521.710;  352.523
413.780;  188.343;-1013.279; -913.496
414.070;  538.085;  -46.276;  235.497
414.360;  555.956; -729.278; -666.498
414.650;  615.054; -726.288; -688.482
414.940;  795.342; -538.280; -441.496
415.230; 1336.750;   50.712;   74.519
415.520; 8953.152;  155.730;   66.486
415.809;35711.021; -305.281; -125.493
416.099;28600.173; -388.277; -229.501
416.389; 7632.899;  435.726;  236.494
416.679; 4533.330;   91.738;   85.473
416.969;  775.464; -527.287; -503.483
417.259;  982.045;  341.721;  171.503
417.549; 1104.019;  522.718;  318.508
417.838; 2450.373; -205.268; -147.518
418.128; 8073.633;  650.710;  492.522
418.418; 6779.121; -491.272; -579.509
418.708; 4459.200;    9.726;  -48.506
418.997;16696.894; -474.275; -480.505
419.287;17706.508; -733.273; -790.507
419.577;16229.100; -160.283; -123.489
419.866;53199.170; -588.277; -498.501
420.156;55891.847; -242.270;  -55.513
420.446;10470.021; -112.263;  -26.526
420.735; 1391.039; -376.271; -446.512
421.025; 1457.255; 1830.722;  315.502
421.314; 1143.337; -203.271; -226.512
421.604; 2446.864;   89.732;  233.484
421.893; 1411.532; -705.271; -602.511
422.183;  333.321; -487.263; -461.526
422.472;  607.934;  -36.271; -107.511
422.762;  679.995; -416.266; -379.521
423.051;  347.885; -916.276; -916.503
423.341;  463.710; -491.273; -439.507
423.630;  650.503; -121.265;   15.477
423.919;  608.193;   58.725;   49.495
424.209;  619.828;  -31.263;   56.473
424.498;  791.870;   68.732;  161.483
424.787; 1552.478; -535.267; -601.518
425.077; 4836.101;   34.735;   29.478
425.366; 6942.035; -734.262; -744.528
425.655;14046.511;  639.727;  259.493
425.945;29953.896; -313.247; -268.554
426.234;17204.163;  117.741;  300.467
426.523; 7286.470;  -86.259; -350.534
426.812;10282.490;  107.734;  159.480
427.101;14674.659; -127.269; -323.515
427.390;18948.052;  -55.270;  -86.514
427.680; 4501.194; -624.257; -411.538
427.969;  784.508; -330.255; -301.540
428.258;  495.184; -385.257; -477.536
428.547;  865.026;  449.728;  397.490
428.836; 1900.728; -421.253; -398.543
429.125; 2873.272; -199.259;  -72.534
429.414; 1257.156; -330.251; -294.548
429.703; 4527.756; -231.251; -213.548
429.992;13362.361; -938.250; -828.549
430.281; 9084.712; -397.264; -331.524
430.570;  965.444;  -21.252;   32.454
430.859; 1006.669;  279.741;  352.466
431.148;  841.691;  636.752;  631.446
431.437;  494.844;  391.748;  367.454
431.725;  245.486; -544.257; -481.536
432.014;  124.837; -845.253; -756.545
432.303;  567.185; -149.239; -105.569
432.592;  899.520; -460.263; -178.525
432.881; 1522.492; -601.248; -437.554
433.169; 8591.309; -343.255;  -61.540
433.458;17894.827;  445.765;  540.424
433.747; 7762.542; -397.261; -289.529
434.036; 1407.155; -275.242; -280.564
434.324; 2975.876; -395.249; -379.551
434.613; 5347.947;   40.757;  159.437
434.902; 1913.273;  333.760;  439.433
435.190; 1012.184;   75.761;  295.431
435.479;  584.724;  -52.245;   83.441
435.767;  176.234; -411.244; -427.561
436.056;  328.650; -340.242; -294.563
436.345;  548.376; -372.240; -223.568
436.633;  678.670;   60.750;  383.450
436.922;  489.479;  208.760;  414.432
437.210; 1040.915; -194.236;    1.426
437.499; 3236.425; -583.235; -432.576
437.787; 3717.714; -339.236;  -10.574
438.075;  967.791;   56.761;  162.430
438.364; 1215.894;  -44.238;  250.429
438.652;  747.524; -286.226; -138.592
438.941;  245.080;    3.770;  269.415
439.229;   -3.959; -665.252; -466.545
439.517;  112.235; -160.234;  -85.577
439.806;  -15.856; -501.225; -290.595
440.094;  357.345;  377.766;  650.421
440.382;  292.150; -653.233; -302.580
440.670;  341.724; -361.235; -285.576
440.959;   46.166; -347.223; -170.599
441.247;  110.294; -151.229; -109.587
441.535;  195.833; -266.235;   31.423
441.823;   32.942; -497.234; -305.578
442.111;  298.699;  173.771;  327.412
442.400;  815.723; -628.245; -335.559
442.688; 2253.244; -111.234; -620.579
442.976; 1695.475; -786.213; -450.617
443.264;  237.552; -324.224; -364.597
443.552;  174.526; -258.226;   51.408
443.840;  325.432;  602.765;  876.423
444.128;  235.949;  265.767;  269.420
444.416;   14.002; -694.228; -312.588
444.704;   25.803; -465.219;  -92.605
444.992;  172.829;   -0.226;  240.407
445.280;   72.181; -517.230;  -94.585
445.568;   21.780; -694.212; -396.618
445.856;  550.883; -174.221;  357.398
446.143; 1208.598;  -54.220;   -7.604
446.431; 1053.707;  -25.228;  625.411
446.719;  453.127;  489.783;  675.391
447.007;  326.073;  481.769;  705.416
447.295;  330.062;  597.777;  871.402
447.583;  141.091; -464.229;  -34.587
447.870;  208.279; -434.221; -202.601
448.158;  682.679; -104.230;  129.415
448.446;  472.799; -800.219; -338.604
448.733;  274.054;   13.776;  269.403
449.021;  398.179;   60.788;  341.382
449.309;  275.398; -296.210;  208.379
449.596;  321.222;  128.783;   59.392
449.884;  216.071; -571.222; -325.600
450.172;  171.514; -756.227; -406.590
450.459;  663.454;  645.786;  780.387
450.747; 3124.920; -411.218; -147.608
451.034;10234.408;  493.772;  889.411
451.322; 8732.258; -413.214; -170.614
451.609;  799.456;  292.777;  508.403
451.897;  746.877; -550.203; -183.634
452.184; 2468.862; -622.223; -400.598
452.472; 2416.225;   97.792;  269.375
452.759;  590.800;  512.781;  864.395
453.047;  156.676; -407.212; -125.617
453.334;  116.710; -732.219; -216.606
453.621;  141.361; -438.214; -161.615
453.909;  230.166;   13.796;  384.368
454.196;  119.923; -299.199; -123.641
454.483;  343.993;  317.798;  540.364
454.771;  215.728; -215.208;  196.374
455.058;   97.432; -316.207;  102.374
455.345;  193.792;   71.807;  344.347
455.632;  134.737; -128.207;  235.373
455.919;  131.351;  -82.196;  182.354
456.207; -111.271; -774.198; -450.642
456.494;  -34.292; -475.200;  -66.639
456.781;    5.687; -399.202; -198.635
457.068;  115.945; -253.206;  -29.628
457.355;  -18.854; -698.206; -401.629
457.642;  -15.047; -552.205; -290.630
457.929;  -12.619; -778.194; -417.651
458.216;   67.077; -575.212; -354.617
458.503;  342.087; -173.193;  -19.652
458.790;  283.126; -864.208; -630.625
459.077;  445.393;  -77.202;  110.364
459.364; 1071.172; -350.195; -210.649
459.651; 2278.642;  -46.206;  220.372
459.938; 1050.614; -864.209; -665.623
460.225;  277.697;  132.799;  276.363
460.512; -101.552; -836.197; -688.645
460.799;  182.219;  -32.218;  320.392
461.086;  122.613; -370.200; -251.640
461.372;   84.329; -509.198; -279.642
461.659;  202.953; -165.196;  108.354
461.946;  138.985; -445.193;  -54.651
462.233;  461.210;  842.800;  888.361
462.519;  444.707; -814.201; -464.639
462.806; 1296.548; -768.197; -497.645
463.093; 1216.811; -445.191;  -66.656
463.380;  -99.738; -920.186; -824.664
463.666;   83.050; -259.197;  -18.646
463.953;  135.765; -406.195; -243.648
464.239;  282.265; -173.195;  -77.648
464.526;  599.879;  413.806;  743.350
464.813;  499.225; -565.190; -304.658
465.099;  606.786;  606.807;  607.348
465.386;  580.791;  903.807;  921.348
465.672;   32.948; -694.197; -522.645
465.959;   18.947; -598.188; -520.662
466.245;   14.591; -468.193; -359.652
466.532;  172.563; -109.195;   63.352
466.818;  134.462; -357.186; -216.664
467.104;  -24.188; -488.182; -415.672
467.391;  -48.973; -628.189; -459.658
467.677;   57.366; -289.186;    9.335
467.964;   -8.164; -682.189; -471.660
468.250;  107.969; -331.186; -160.665
468.536;  144.429;   90.811;  180.341
468.822;  -92.516; -821.184; -574.668
469.109;  289.712;  351.827;  471.311
469.395;  338.703;  729.808;  787.346
469.681;  306.333;   46.811;  156.341
469.967; 1634.938; -699.188; -382.660
470.254; 3635.748; -494.188; -306.662
470.540; 2331.051; -601.196; -476.646
470.826;  286.826; -488.181; -397.675
471.112;  467.689;  288.816;  113.331
471.398;  148.894; -253.183;  -58.670
471.684;   33.661; -626.177; -447.680
471.970;  -92.370; -918.180; -981.675
472.256;   44.502; -521.192; -441.654
472.542;   20.326; -499.171; -434.691
472.828;    1.907; -743.182; -607.672
473.114;   37.680; -380.166; -283.700
473.400;   31.881; -504.175; -293.684
473.686;   64.188; -452.166; -400.701
473.972;  100.700; -230.174; -131.687
474.258; -128.788; -925.173; -843.689
474.544;  288.451; -183.178;   -2.679
474.830;  452.184;  -65.175;   45.316
475.116;  600.227; -123.190; -196.658
475.401;  865.033; -558.180; -467.676
475.687;  238.232; -725.180; -718.676
475.973;  -32.283; -673.181; -770.673
476.259;  463.786;  736.825;  764.315
476.544;  493.471; -539.176; -437.682
476.830; 1016.821; -398.172; -322.690
477.116;  955.869; -430.177; -336.682
477.401;  260.633;  346.820;  358.324
477.687;  -19.618; -289.175; -405.684
477.973;  130.121;   21.819;   28.326
478.258;  -14.486; -448.163; -348.706
478.544;   89.976;   21.815;   61.334
478.829; -105.067; -818.171; -738.692
479.115;  -94.279; -749.172; -651.690
479.401;   26.594; -444.174; -449.686
479.686;   73.331; -253.180;  -74.676
479.972;  -77.243; -886.178; -776.680
480.257;   58.382; -258.166;  -65.700
480.542;  -13.962; -614.170; -469.693
480.828;  484.379; 1288.824; 1392.317
481.113;  -41.223; -464.176; -426.683
481.399;  -14.457; -236.161; -202.711
481.684; -107.019; -620.166; -462.700
481.969;   76.660; -158.159;  -73.713
482.255;  -10.649; -439.169; -285.695
482.540;    2.057; -569.178; -441.680
482.825;  -13.644; -395.187; -404.663
483.110;  139.455;  -85.169; -105.696
483.396;  193.787; -840.157; -652.718
483.681;  715.400;  543.826;  730.313
483.966;  176.253; -696.160; -700.712
484.251;   22.499; -404.174; -310.687
484.536;   22.295; -356.165; -378.703
484.822;   29.702; -205.173; -218.687
485.107;  -57.966; -599.152; -502.726
485.392;  253.602;  662.836;  541.296
485.677;  178.267;  354.832;  163.302
485.962;  200.884;  160.843;  270.283
486.247;  199.923;  -14.162;   -8.707
486.532;   61.383; -178.166; -325.701
486.817;  286.036;  381.839;  431.291
487.102;  123.813; -453.154; -514.722
487.387;  777.589; -637.156; -652.718
487.672; 1462.908; -154.164;  -38.705
487.957;  955.145; -394.160; -286.711
488.241;  254.355; -290.150; -314.729
488.526;  922.436; -280.152; -148.726
488.811; 1458.160; -881.177; -818.680
489.096; 1087.317; -666.154; -702.723
489.381;  666.132;    3.847;  162.275
489.666;  430.743; -428.161; -510.710
489.950;  338.120;  558.846;  627.277
490.235;  -53.551; -480.151; -458.728
490.520; -105.958; -756.161; -723.710
490.804; -130.508; -827.156; -736.719
491.089;    1.075; -469.149; -299.732
491.374;   91.307; -132.164;  -75.704
491.658;  -45.611; -817.147; -717.735
491.943;  194.241; -657.152; -609.727
492.227;  353.508; -178.155;  -38.721
492.512;   42.783; -294.157; -341.717
492.797; -132.433; -713.149; -716.731
493.081; -100.407; -588.147; -598.735
493.366;  -85.256; -751.161; -635.711
493.650;  422.159;  831.859;  917.254
493.935;    1.788; -648.147; -447.734
494.219;  -89.357; -778.142; -687.743
494.503; -101.239; -585.150; -487.730
494.788;   79.273;   46.842;   74.285
495.072;  207.057;  184.850;  434.271
495.356;  214.779; -463.148; -343.733
495.641;  520.601; -812.146; -736.736
495.925;  521.098; -976.156; -903.719
496.209;   54.074; -599.149; -451.732
496.494;  -97.656; -763.142; -544.744
496.778;   38.313; -364.154; -360.722
497.062; -112.503; -819.156; -627.719
497.346; -138.653; -869.160; -640.711
497.631;  269.883;  580.852;  560.266
497.915;  169.114;  -64.145;  175.261
498.199;  110.487; -341.157; -277.718
498.483;   37.734; -562.152; -508.725
498.767;  311.058;  301.850;  300.271
499.051;  247.171; -126.149; -100.732
499.335;    3.369; -693.149; -739.731
499.619;  -49.515; -381.129; -423.767
499.903;   55.006; -272.155;  -65.721
500.187;   17.422; -588.153; -316.724
500.471;  -41.559; -796.152; -595.727
500.755;  158.042;   62.839;  -96.710
501.039;   46.507; -270.155; -357.721
501.323;  170.461;  -21.141;  264.254
501.607;   90.814; -447.163; -503.706
501.891;  -39.211; -607.156; -512.718
502.174;  -97.872; -726.144; -585.741
502.458;  134.346;   89.849;  370.273
502.742;   55.791; -180.138; -191.751
503.026;  102.888; -412.147; -254.734
503.310;  200.959; -437.159; -375.713
503.593;  160.890; -464.147; -325.735
503.877;  153.841; -232.133; -156.760
504.161;  251.925;    2.847;  -50.724
504.444;   94.376; -841.158; -710.716
504.728;  562.005; -487.164; -522.704
505.012;  915.754; -257.150;  -76.729
505.295;  677.943; -417.161; -212.711
505.579;  615.897; -256.156; -496.719
505.862;  903.309; -555.145; -333.738
506.146;  882.762; -681.159; -758.714
506.429;  641.262;  568.841;  461.286
506.713;   41.151; -732.151; -667.728
506.996;  480.713;   90.846;  295.278
507.280;  455.900; -633.165; -474.703
507.563;  271.105; -469.155; -261.721
507.847;  121.123; -423.153; -112.724
508.130;   83.844; -665.161; -456.711
508.413;   91.077; -758.167; -577.700
508.697;  322.277; -151.167;   12.300
508.980;  170.125; -422.153; -312.724
509.263;  -37.200; -466.155; -450.720
509.547;   60.054; -124.150;   82.271
509.830;  116.947; -172.160;  140.289
510.113;  157.897;  128.844;  298.281
510.396;   24.532; -530.152; -300.725
510.680;  216.611; -818.145; -812.738
510.963; 1093.918;  184.846;  180.277
511.246;  891.564; -493.150; -357.730
511.529;  429.117; -482.145;  -83.739
511.812;  465.537; -250.134;   10.241
512.095;  298.347; -740.151; -396.728
512.378;   96.395; -317.147; -245.736
512.661;  -30.400; -703.137; -623.753
512.944;  -14.855; -750.142; -637.744
513.227;   91.097; -170.137; -171.752
513.510;   16.128; -479.144; -671.741
513.793;    9.966; -485.140; -435.747
514.076;  213.811;  -43.127;  -39.771
514.359;  155.375; -294.149; -135.732
514.642;   60.949; -442.142; -567.744
514.925; 1025.464;  581.860;  561.253
515.208; 1188.932; -498.134; -443.758
515.491;  822.049; -276.133; -182.761
515.773;  433.432; -410.143; -337.742
516.056; 2650.308;  249.864;  409.246
516.339; 3556.413; -754.136; -652.755
516.622; 2665.961; -518.150; -488.730
516.904; 2028.141;  882.857;  975.257
517.187;  907.195; -730.138; -523.752
517.470;  522.440; -568.143; -510.743
517.752;  514.917; -624.136; -470.756
518.035;  378.280; -708.139; -725.749
518.318;  441.613; -799.136; -744.755
518.600; 2982.054; -300.132; -325.762
518.883; 4096.848;  310.858;   88.256
519.165; 2038.986; -585.138; -426.751
519.448;  547.853;  -61.132;  -19.762
519.730;  233.020; -573.126; -415.773
520.013;  504.045;  588.867;  664.240
520.295; 1274.939;  -94.134;  -15.759
520.578; 2817.970; -335.131; -305.764
520.860; 3175.754; -254.132;   56.238
521.143; 1557.019; -763.135; -584.756
521.425;  671.836; -251.125; -279.775
521.707;  840.511; -622.127; -380.771
521.990; 2322.012; -199.127;  167.229
522.272; 2539.169; -116.140;   -4.748
522.554; 1238.833; -237.143; -157.742
522.836;  611.436;  -24.134;   99.241
523.119;  280.286; -496.148; -189.734
523.401;  185.878; -448.130; -314.766
523.683;   14.701; -865.137; -693.753
523.965;  391.893;  408.862;  260.248
524.247;  347.163;   54.878;  170.220
524.529;  245.539; -451.134; -367.759
524.812;  505.880;   -3.130;  191.234
525.094; 1012.992; -773.138; -631.751
525.376; 1698.647; -143.124;   78.223
525.658; 1025.810; -441.136; -339.754
525.940;  -40.635; -805.131; -671.764
526.222;   31.414; -188.136;  -88.755
526.504;  194.663; -190.131;   32.237
526.786;  191.842; -960.133; -647.760
527.068;  460.754; -124.123;  -67.778
527.349;  142.705; -865.137; -774.754
527.631;  208.153; -137.132;   22.238
527.913;  128.210; -664.127; -450.771
528.195;  151.527; -761.125; -639.774
528.477;  341.532;  -93.134;  -30.758
528.759;  122.880; -648.130; -522.766
529.040;   34.253; -569.123; -293.778
529.322;   78.431; -235.125;  -10.774
529.604;  184.983;  -47.130;   93.233
529.886;  127.120; -546.126; -302.773
530.167;  193.573;  232.870;  192.235
530.449;   75.994;    1.853;   63.265
530.731;  -21.639; -572.122; -459.779
531.012;   22.987; -513.120; -216.784
531.294;   78.436; -118.116;  -43.792
531.575;  256.636;  290.875;  538.225
531.857;   60.026; -548.135; -266.757
532.138;  203.959; -113.141;   40.254
532.420;  318.121;  294.865;  403.244
532.701;  251.745; -722.133; -751.760
532.983;  517.548;  232.867;  182.239
533.264;  186.417; -243.126;  175.228
533.546;  -55.286; -491.136; -508.755
533.827;   83.440;  173.867;   -1.759
534.109;   40.326; -352.135;  -80.757
534.390;   33.458; -725.132; -582.762
534.671;  337.821; -270.135;  -82.756
534.953;  110.556; -751.123; -611.779
535.234;   23.517; -426.117; -255.789
535.515; -200.302; -891.119; -735.785
535.796;  -63.595; -431.128; -193.770
536.078; -204.653;-1050.124; -904.777
536.359;   13.357;  -22.123;    3.221
536.640;  -31.171; -480.125; -197.774
536.921;  252.690;  225.871;  143.232
537.202;  464.588;  -87.138;  -16.751
537.483;  616.569;  251.869;  377.236
537.764;  239.273;   17.870;   98.235
538.045; -100.769; -543.134; -371.758
538.326;  -95.808; -596.129; -447.768
538.607;  -32.688; -686.127; -476.771
538.888;  233.376;   98.879;    5.218
539.169;  170.469; -704.122; -535.781
539.450;  473.788;  236.871;   16.233
539.731;  286.781; -361.121; -182.783
540.012;  202.987;  199.880;  412.216
540.293;  140.940;   82.876;  158.224
540.574;  -66.338; -895.113; -717.796
540.855;  669.779;  435.879;  377.218
541.136;  695.566;   47.878;  139.220
541.416;  330.581; -161.130; -220.766
541.697;  229.063; -274.131; -170.763
541.978; 1308.524; -270.135; -315.757
542.259; 1538.512; -211.127; -236.771
542.539;  803.328; -191.116; -186.790
542.820;  314.036;  461.875;  480.225
543.101;  172.313;  -52.145;  -77.738
543.381;  -32.188; -638.127; -591.771
543.662;  374.509;  159.873; -254.771
543.942;  643.206; -751.127; -830.770
544.223; 1372.768;  193.878;  161.219
544.504;  823.447; -275.124; -182.777
544.784;  694.520; -592.126; -408.773
545.065; 2101.733;  104.884; -254.791
545.345; 2511.798;  227.881;   14.215
545.626; 1623.261;  -14.113; -108.796
545.906; 1143.272;   77.869;   98.235
546.186;  423.725;   92.874;  -95.773
546.467;  294.650;   99.877;  -95.778
546.747;  464.128;  264.884;  327.210
547.027;  505.545;   91.876;  111.223
547.308;  347.606; -376.127; -530.770
547.588;  545.993;  299.871;  371.232
547.868;  304.174;  458.870;  588.235
548.149;  362.142;  609.885;  593.207
548.429;  199.510; -347.127; -299.771
548.709;  178.887; -645.120; -461.784
548.989;  615.510;   84.882;   88.213
549.269; 2599.451;   10.868;  139.239
549.550; 5999.255;  215.877;  117.222
549.830; 5100.183; -758.111; -556.799
550.110; 1035.693; -468.110; -320.801
550.390; 1079.262; -128.122;  -56.779
550.670; 1283.456; -868.114; -783.795
550.950;  976.479; -509.121; -471.782
551.230;  338.174;  549.879;  460.218
551.510;  -54.523; -381.121; -326.782
551.790;   58.202; -173.109; -127.803
552.070;  486.050;  940.877; 1181.223
552.350;  478.303; -492.119; -377.786
552.630;  738.071;   -2.121;   77.219
552.909;  482.434;  181.884;   73.209
553.189;  295.460;  -49.132;   33.237
553.469;  180.902; -703.119; -514.786
553.749;  177.314; -469.127; -357.772
554.029;  211.623;   33.883;  -24.790
554.308;  178.448; -154.115;  -37.794
554.588;   83.104; -196.128; -204.770
554.868;   74.580; -366.121;  -47.782
555.147;  215.544; -114.115;  -46.793
555.427;  782.037; -260.116; -250.792
555.707; 4724.741; -284.115; -200.793
555.986; 5524.887; -719.111; -538.800
556.266; 3100.927;   23.884;   72.210
556.546;   92.177; -888.121; -675.782
556.825;  278.253; -657.114; -556.794
557.105; 2175.401; -125.128;   17.230
557.384; 2509.832;  122.884;  187.209
557.664;  908.736; -717.116; -508.792
557.943;  102.279; -557.121; -411.782
558.222;  198.314; -345.118; -344.788
558.502;  321.346; -116.115;  -76.793
558.781;  689.240;  194.885;  499.208
559.061;  494.813; -232.118; -227.788
559.340;  410.320;  302.883;  353.211
559.619;  899.326;   93.884;  148.210
559.899; 1193.222; -239.117; -266.789
560.178; 1137.145; -778.115; -593.793
560.457; 3905.524; -623.117; -562.790
560.736; 5108.189; -472.111; -482.800
561.015; 3572.699; -500.128; -502.769
561.295;  515.127;  180.893;  215.193
561.574;  485.042;  119.885;  116.207
561.853;  657.908;  274.891;  303.197
562.132;  648.748;  -45.114;  182.206
562.411;  572.772;  396.879;  553.219
562.690;  122.140; -592.115; -458.792
562.969;  286.570;  472.888;  630.203
563.248; 1009.769; 2966.878; 2487.219
563.527;  348.788; -290.111; -408.800
563.806;  425.810; -650.127; -521.771
564.085;  517.246; -297.105; -206.810
564.364;  256.926; -594.117; -405.790
564.643;  620.672; -276.121; -223.781
564.922; 2315.000;  221.890;  397.198
565.201; 2167.505; -640.109; -700.803
565.479;  980.838; -297.115; -219.792
565.758;  299.302; -810.128; -712.770
566.037;  588.106; -155.109; -100.803
566.316;  312.133; -286.116;  -28.791
566.595;   51.242;  -17.115;  -12.793
566.873;  188.090; -166.111;  -79.801
567.152; -142.431; -490.113; -590.797
567.431;   15.628; -113.116;    6.210
567.709;   27.027; -344.107; -212.807
567.988;  258.553; -810.114; -769.794
568.266;  593.141; -160.115;  -68.793
568.545;  458.704; -644.100; -514.819
568.824;  809.137;  160.885;  356.208
569.102;  605.552; -351.114; -235.794
569.381;  245.836; -492.116; -407.792
569.659; -104.435; -553.113; -553.796
569.938;  -12.833; -743.122; -465.780
570.216;  128.509; -225.109; -225.804
570.494;  -75.744; -632.114; -572.795
570.773;  120.677;  202.879;  114.218
571.051;    6.754; -373.123; -357.778
571.330;   82.462; -221.113; -174.796
571.608;   66.127; -181.098; -173.823
571.886; -141.719; -671.111; -581.799
572.164; -162.620; -739.121; -621.782
572.443;  -98.049; -562.105; -512.811
572.721;  -68.576; -399.117; -289.790
572.999;  -46.484; -280.117; -168.788
573.277;  187.342;  379.894;  620.191
573.555;  351.245;   94.894;   37.190
573.834; 1616.116;  -86.117; -114.788
574.112; 1934.230;  880.893;  811.193
574.390;  573.389; -143.111;  -96.801
574.668;  -14.629;  -91.112;  -61.797
574.946;  -20.855; -165.106; -187.810
575.224;   46.404;   71.891;  -16.803
575.502;  -27.870; -200.116; -204.791
575.780; -189.428; -767.112; -829.798
576.058;  539.788; 1589.889; 1004.200
576.336;   -1.005; -210.110; -129.801
576.614;  -89.028; -511.112; -340.798
576.891;    9.847; -711.115; -823.794
577.169;  577.319; -158.108; -285.805
577.447;  741.229;  169.893;  202.193
577.725;  411.678;  629.888;  854.201
578.003;  -13.425;  -71.112; -371.798
578.280;  135.162; -208.104; -242.812
578.558;   32.846; -450.115; -422.793
578.836;  181.456; -210.114; -145.795
579.114;   19.070; -630.112; -670.797
579.391;  104.418;   -6.117;  -18.789
579.669; -150.352; -595.114; -704.794
579.947;  246.126; -326.107; -127.806
580.224;  296.925; -692.107; -524.806
580.502;  398.530;  127.893;   76.193
580.779;   37.125;  -42.117;   75.210
581.057; -126.390; -584.109; -470.804
581.334; -192.520; -726.102; -695.815
581.612;  105.546;   54.895;  511.190
581.889;  -25.403;  -83.101; -129.818
582.167;  -46.786; -298.099; -190.821
582.444; -201.710; -845.102; -814.817
582.721;  243.791;  657.899;  715.183
582.999;   83.811; -326.100; -167.821
583.276;  540.659; -812.123; -713.779
583.553;  783.484; -364.102; -294.816
583.831;  213.758; -607.104; -631.812
584.108;  110.717;  349.892;  174.195
584.385;  -24.721; -122.102;  -98.815
584.662; -162.409; -651.111; -828.801
584.940;   60.990;  204.889;  204.199
585.217;  -54.236;  -73.113; -303.796
585.494;   57.301;   71.890;  118.198
585.771;  224.411; -250.109; -354.804
586.048;  540.664; -196.113;  -76.796
586.325;  317.194; -721.110; -773.801
586.602;  156.762;  230.896;  213.188
586.879;  -85.993; -499.100; -580.820
587.156;   57.447; -156.105; -331.810
587.433; -111.013; -701.102; -667.817
587.710;  126.973;  152.888;  234.202
587.987;  344.754; -264.105; -236.811
588.264; 1038.575;  315.888;  387.202
588.541; 1711.765;  -61.104;   26.187
588.818; 3303.313;   72.892;  171.196
589.095; 2788.660; -163.104; -174.812
589.371;  428.508; -459.109; -414.804
589.648;  -23.270; -581.107; -437.807
589.925;  -21.543; -517.114; -621.795
590.202;  -39.928; -741.112; -607.798
590.478;  118.556; -166.105;  -73.811
590.755;  310.521; -241.108; -132.806
591.032; 2976.197; -741.110; -699.802
591.308; 3914.776; -732.094; -790.831
591.585; 2057.796; -573.110; -560.802
591.862;   79.689;-1056.102; -950.817
592.138;   28.618; -475.108; -474.805
592.415;  129.363; -486.104; -495.813
592.691; 1913.660;  460.896;  518.188
592.968; 2262.929; -208.098; -123.824
593.244; 1079.628; -695.116; -595.790
593.521;   87.690; -105.102;  -42.817
593.797; -115.936; -810.122; -720.780
594.074;  350.045; -611.096; -588.826
594.350;  891.759;  828.905;  729.172
594.626;  371.891; -303.111; -283.801
594.903;   90.190; -643.101; -645.817
595.179;  277.868;  243.896;  418.187
595.455;   10.932; -136.107; -150.807
595.731;   23.670;  -19.103;  -38.814
596.008;  -94.616; -464.111; -434.800
596.284;   42.910; -187.100; -242.820
596.560;    6.684; -501.093; -493.833
596.836;  221.450; -173.105;  -70.810
597.112;  398.019; -582.108; -437.805
597.388;  315.842;  -49.097;  -48.826
597.665;  194.567;  437.887;  530.203
597.941; -129.179; -572.089; -658.839
598.217;  -23.499; -323.110; -293.802
598.493;  315.713;   61.891; -204.804
598.769;  596.002; -175.100;  -50.819
599.045;  321.822; -490.108; -562.806
599.321;   51.808; -193.100; -261.820
599.597;  124.412; -355.109; -476.804
599.872;  623.165;  409.896;  429.187
600.148;  447.944;  -61.097; -172.826
600.424;  374.728;   91.893;  202.193
600.700;  250.931; -170.107; -280.807
600.976;  101.037; -442.097; -464.825
601.252;  280.807; -226.109; -272.803
601.527;  154.766; -833.104; -840.813
601.803;  160.157; -453.105; -404.812
602.079;  212.202; -124.100; -118.819
602.354;  630.897; -620.092; -531.835
602.630;  979.564; -140.113; -482.796
602.906; 2926.097; -910.101; -863.818
603.181; 7705.003; -627.119; -534.786
603.457; 6802.141;   98.903; -278.826
603.733;  962.182; -605.120; -626.783
604.008; 1253.646; -245.106; -164.810
604.284; 3561.992; -636.101; -580.817
604.559; 3207.478;   -3.112;  -42.799
604.835;  548.649; -163.105; -225.810
605.110;  397.815; -732.099; -892.821
605.385;  886.888;  224.907;  267.167
605.661;  813.462; -625.095; -729.829
605.936; 1329.423; -664.108; -737.806
606.211; 1203.378;  -17.103; -170.815
606.487;  188.351; -329.114; -376.794
606.762;  -74.297; -791.119; -745.786
607.037;  -71.150; -501.105; -433.810
607.313; -100.946; -589.096; -574.828
607.588;   -3.055; -375.106; -137.810
607.863;   36.896;  -28.101; -143.818
608.138;  296.199;  513.890;  516.198
608.413;  -21.680; -576.099; -592.822
608.688;   16.818; -203.108; -267.805
608.964;  198.538; -509.106; -218.809
609.239;  258.146; -107.105; -212.810
609.514;  344.056;  281.895;  240.188
609.789;  746.262; -187.104; -716.812
610.064;  996.652; -435.096; -609.827
610.339; 1023.208; -855.109; -799.804
610.614; 1310.309; -131.100; -315.820
610.889;  809.157;  215.895;  107.188
611.163;   -1.743; -407.104; -591.812
611.438;   82.652;   81.886; -167.794
611.713;  -21.408; -467.101; -499.817
611.988;   36.495; -144.101; -328.818
612.263;  -98.520; -771.102; -717.815
612.538;  344.963;  385.887;  251.204
612.812;   93.110; -832.100; -911.820
613.087;   96.126; -358.098; -338.823
613.362;  -80.869; -497.107; -557.807
613.637;   94.073;  261.897;  138.186
613.911;  -26.402; -256.092; -345.835
614.186;  127.029; -249.107; -292.807
614.460;  681.014; -842.081; -758.854
614.735;  894.950;  -55.087;  -17.843
615.010;  218.537;   43.912;  -82.841
615.284;  347.817;  360.892;  246.195
615.559;  331.996; -792.092; -955.835
615.833;  396.517;  -76.099;  -87.822
616.108;  -11.989; -225.090; -390.837
616.382;  211.352;  274.913;  402.156
616.656;  215.411; -241.090; -232.837
616.931;  557.618; -785.099; -700.822
617.205; 1174.067; -973.104; -979.813
617.480; 1185.833;  -91.125;    6.225
617.754;  192.630; -396.125; -128.774
618.028;  -21.506; -369.129; -382.768
618.302;  110.116;   73.892;  -25.805
618.577; -115.325; -371.103; -518.815
618.851; -123.596; -399.109; -600.803
619.125;  -62.561; -335.134; -378.759
619.399;  -21.233; -244.104; -374.813
619.673;  -80.162; -330.115; -515.792
619.947;  -93.444; -333.114; -448.795
620.222;  -23.608; -198.110; -204.801
620.496;   16.179;  -47.121;  -96.782
620.770;   25.869; -187.122;  -93.781
621.044;  298.147;  323.895;  346.190
621.318;  831.683; -653.120; -614.783
621.592;  769.380; -430.121; -409.783
621.866;  368.779; -476.112; -572.799
622.140;   40.930; -207.116; -356.791
622.413;  102.984;  138.889;  112.200
622.687;  -74.908; -746.101; -492.817
622.961;   58.416; -130.108; -143.805
623.235; -116.715; -633.111; -661.800
623.509; -199.244; -816.105; -848.811
623.783;   39.526;  -12.107;   48.193
624.056;  -22.316; -254.120; -280.783
624.330;  110.071;   63.888;   -3.797
624.604;   79.426; -271.116; -355.790
624.877;  129.898;  180.890;   26.198
625.151;   37.249; -249.114; -238.794
625.425;  -59.030; -150.103; -283.814
625.698;  -93.504; -367.119; -374.785
625.972; -217.899; -799.110; -765.802
626.245;  150.128;  685.884;  484.210
626.519;  -69.911; -426.120; -340.784
626.792;  -71.069; -192.107; -380.807
627.066; -147.240; -485.122; -662.779
627.339; -173.004; -736.110; -663.802
627.613;   83.188;  351.880;  148.216
627.886;  139.603;  187.891; -612.803
628.160;  -13.318;  312.880; -161.783
628.433; -176.163; -695.125; -703.775
628.706; -157.111; -517.120; -615.784
628.979;   84.545;  296.876;  117.223
629.253; -201.998; -785.119; -833.786
629.526;  401.818; -334.126; -253.772
629.799;  316.154; -641.123; -479.778
630.072;  166.996; -497.128; -516.769
630.346; -177.072;-1115.116;-1080.790
630.619;  484.332; -467.107; -545.808
630.892;  798.686;  709.889;  593.200
631.165;  509.767;  790.896;  679.187
631.438; -218.825;-1092.112;-1055.798
631.711;  100.058;  453.877;  257.221
631.984; -115.678; -523.117; -624.789
632.257; -133.482; -636.117; -681.789
632.530;  -82.304; -412.119; -433.785
632.803;   53.247; -109.115;    7.207
633.076; -120.250; -360.123; -422.777
633.349;   66.101;  173.872;  121.231
633.622;  -41.105; -187.119; -240.785
633.895; -239.516; -903.120; -823.783
634.167; -147.180; -496.126; -525.773
634.440;   20.936;  -19.116; -137.792
634.713;   66.100;  -22.119; -120.786
634.986;  190.788;  593.871;  453.233
635.258; -141.556; -507.115; -597.793
635.531;  235.813;  742.882; -343.788
635.804;  -59.479; -303.117; -318.789
636.077; -183.069; -830.116; -852.791
636.349;  -81.058; -586.115; -474.793
636.622;  733.117; 1695.874; 1392.228
636.894;  238.190; -474.120; -909.784
637.167;   82.409; -836.127; -789.771
637.439;   29.705; -278.128; -213.770
637.712;  -86.581; -312.126; -293.772
637.984; -150.168; -635.116; -707.791
638.257;  613.750;  515.877;  488.222
638.529;  595.638; -881.125; -924.776
638.802;  283.595; -508.128; -449.769
639.074; -210.632; -927.122; -952.781
639.346; -234.072; -942.135; -930.757
639.619;   28.547;  -79.142; -319.744
639.891;   -3.540;  -83.122; -168.779
640.163; -163.437; -689.122; -756.780
640.435;   44.365;  273.878;  103.220
640.708;   12.067;  -72.122; -132.780
640.980;  -37.431; -366.122; -362.781
641.252;  272.172;  -25.121;  -71.781
641.524; 2304.674;  580.879;  573.219
641.796; 2072.676;-1094.121; -907.782
642.068;  360.478; -191.121; -300.782
642.340;  -89.219; -486.121; -566.783
642.613;  115.883;  294.880;  323.217
642.885; -203.015; -787.120; -878.783
643.157; -126.212; -810.120; -658.784
643.428;  113.490;  170.880;  218.216
643.700; -128.908; -498.120; -425.784
643.972;  -33.606;  -16.119; -133.785
644.244; -150.803; -474.119; -559.785
644.516;  -72.901; -250.119; -114.786
644.788;  157.701;  662.881;  548.214
645.060;   -7.297;  -12.119; -124.786
645.332; -164.794; -525.118; -535.787
645.603;   98.008;  479.882;  342.213
645.875; -116.890; -334.118; -369.787
646.147;  357.613; 1487.882; 1242.212
646.418; -181.185; -931.117; -918.788
646.690;   78.517; -714.117; -715.789
646.962;    8.219; -413.117; -451.789
647.233;   36.322;   15.883;   11.211
647.505; -152.576; -595.117; -475.790
647.776;   92.826;  328.884;  229.210
648.048;  -21.871; -248.116; -418.790
648.320; -155.969; -752.116; -679.791
648.591; -293.367;-1055.116; -958.791
648.862; -134.765; -505.116; -577.792
649.134;   48.438;  115.885;  198.208
649.405; -140.260; -661.115; -618.792
649.677; -108.258; -475.115; -598.793
649.948;  -24.656; -181.115; -296.793
650.219;   13.747;  -37.115; -147.793
650.491; -135.051; -431.114; -520.794
650.762; -229.449; -705.114; -731.794
651.033; -118.746; -437.114; -424.795
651.304; -205.244; -743.114; -728.795
651.576; -151.542; -680.114; -645.795
651.847;  -55.740; -250.113; -140.796
652.118;  -11.437;  -32.113; -189.796
652.389; -190.735; -639.113; -722.796
652.660;  -16.833; -147.113;  -89.797
652.931; -259.731; -897.112; -871.797
653.202; -157.928; -382.112; -541.798
653.473;  -95.026; -633.112; -533.798
653.744;  134.776; -595.112; -590.798
654.015;  150.479; -356.112; -303.799
654.286; -147.219; -642.111; -663.799
654.557; -116.117; -586.111; -521.799
654.828; -281.115;-1114.111;-1088.800
655.099; -129.712; -404.111; -291.800
655.370; -132.710; -427.111; -543.801
655.641; -214.408; -656.110; -714.801
655.911; -161.106; -618.110; -638.801
656.182;  175.897;  437.890;  387.198
656.453;  220.199;  830.890;  746.198
656.724; -103.899; -466.110; -426.802
656.994; -154.296; -553.109; -568.803
657.265; -217.694; -862.109; -873.803
657.536; -132.492; -500.109; -377.804
657.806; -181.290; -561.109; -593.804
658.077; -249.987; -866.109; -950.804
658.347; -116.285; -523.108; -598.805
658.618; -215.083; -646.108; -694.805
658.888;    4.819;  -41.108;  112.195
659.159; -118.978; -432.108; -548.806
659.429;  -12.876; -292.108; -349.806
659.700;   16.726; -435.107; -390.807
659.970;  -40.671; -370.107; -359.807
660.241;  -54.969; -754.107; -921.807
660.511;  623.633; -147.107; -174.808
660.781;   35.035; -793.106; -748.808
661.052;  -59.962; -222.106; -381.808
661.322;   -8.360;   21.894;   -9.809
661.592;   75.242;  257.894;  148.191
661.862; -149.155; -369.106; -382.810
662.133; -154.853; -551.105; -502.810
662.403; -195.551; -770.105; -676.810
662.673;  -82.049; -256.105; -213.811
662.943; -176.146; -612.105; -551.811
663.213;    2.856;  -85.105;  -81.811
663.483; -155.542; -593.104; -568.812
663.753;  -50.640; -194.104; -152.812
664.023;    0.963;   68.896;  -32.813
664.293;  -69.435; -319.104; -126.813
664.563; -221.933; -694.104; -648.813
664.833; -234.430; -743.103; -608.814
665.103; -216.428; -730.103; -793.814
665.373; -210.826; -766.103; -806.814
665.643; -186.424; -863.103; -918.815
665.913;   -5.721; -534.103; -714.815
666.182;   79.181; -685.102; -719.816
666.452;  320.683;  -22.102;  -89.816
666.722; -120.415; -724.102; -784.816
666.992; -220.612; -948.102; -921.817
667.261; -188.910; -824.102; -808.817
667.531;  299.192;  134.899;   45.183
667.801;  663.695; -440.101; -412.818
668.070;  406.897;  714.899;  697.182
668.340; -203.701; -883.101; -840.819
668.609;  205.701;  588.900;  301.181
668.879; -139.796; -490.100; -558.819
669.149; -126.394; -539.100; -516.820
669.418; -193.392; -698.100; -726.820
669.688;  -83.490; -482.100; -666.820
669.957;   57.013; -423.099; -546.821
670.226;  -40.285; -268.099; -331.821
670.496; -142.383; -431.099; -635.822
670.765; -120.180; -418.099; -501.822
671.034; -243.278; -872.099; -828.822
671.304;    7.924;   55.902; -111.823
671.573; -296.474;-1085.098; -957.823
671.842;   46.929; -380.098; -294.823
672.112;  -11.069; -692.098; -586.824
672.381;   10.333; -239.098; -214.824
672.650; -262.164;-1005.097;-1021.825
672.919; -150.562; -631.097; -507.825
673.188; -179.260; -681.097; -878.825
673.457; -314.958;-1101.097;-1143.826
673.726; -127.555; -579.096; -646.826
673.995;  -41.953; -533.096; -479.826
674.265;  -43.751; -263.096; -333.827
674.534;  -30.549; -183.096; -235.827
674.802;  -28.146; -618.096; -703.828
675.071; 1169.956; -886.095; -801.828
675.340; 4467.458; -464.095; -339.828
675.609; 1640.361;  103.905;   82.171
675.878;  -18.237; -949.095; -893.829
676.147;   80.165;  -26.095;   -8.829
676.416;  115.067; -210.094; -294.830
676.685; 1063.670; 1000.906; -622.830
676.953;   77.972; -603.094; -452.831
677.222;  -36.026; -193.094; -273.831
677.491;   -1.524;  -24.094; -127.831
677.759;   -6.121;   11.907;  172.168
678.028;  -61.219; -279.093; -222.832
678.297;   10.283;   71.907;  197.168
678.565; -287.114; -898.093; -944.833
678.834; -101.012; -311.093; -268.833
679.102; -138.810; -411.092; -391.834
679.371; -256.908; -898.092; -727.834
679.639; -248.805; -797.092; -786.834
679.908; -217.603; -794.092; -724.835
680.176; -278.201; -895.091; -941.835
680.445; -116.299; -346.091; -352.835
680.713;  -15.796;  -58.091;  -23.836
680.982; -156.394; -523.091; -525.836
681.250; -164.192; -578.091; -507.837
681.518; -177.389; -534.090; -751.837
681.787;  -29.187; -204.090; -167.837
682.055; -116.985; -490.090; -422.838
682.323; -255.883; -993.090; -992.838
682.591;   33.820; -216.090; -538.838
682.859;   69.422;    9.911;  -35.839
683.128;   52.424;  232.911;  497.161
683.396; -311.574;-1102.089;-1122.840
683.664;  -45.571; -241.089;   21.160
683.932;   43.631;  144.911;  -76.840
684.200; -161.867; -576.088; -320.841
684.468;  -16.364;  -73.088; -124.841
684.736;  -32.062; -214.088; -175.841
685.004; -238.660;-1024.088; -982.842
685.272; -140.858; -880.088; -774.842
685.540; -101.355; -499.087; -557.843
685.808; -150.653; -651.087; -682.843
686.076; -203.451; -894.087; -969.843
686.343; -105.148; -601.087; -815.844
686.611;   74.254; -195.087; -224.844
686.879;  604.156; -530.086; -553.844
687.147; 3806.558; -483.086; -480.845
687.414; 1063.561;  -12.086; -169.845
687.682;  -71.737; -658.086; -757.846
687.950;  433.165;  259.915;  263.154
688.217;  -49.033; -792.085; -760.846
688.485;  -30.230; -632.085; -636.847
688.753;  601.872;  -11.085; -102.847
689.020;   95.274; -820.085; -851.847
689.288; -224.323; -853.084; -787.848
689.555;  -17.421; -195.084; -148.848
689.823;  -48.919; -241.084; -345.849
690.090; -141.117; -546.084; -651.849
690.358; -270.514; -877.084; -897.849
690.625;   26.688;  120.917;   45.150
690.892; -104.310; -403.083; -369.850
691.160;  -19.108;   72.917;  -35.850
691.427;   44.395;  141.917;  130.149
691.694; -240.203; -855.083; -929.851
691.962; -265.301;-1177.082;-1060.852
692.229;   64.602;  127.918;   56.148
692.496;  135.604;  130.918;  -49.852
692.763;    6.006; -164.082; -201.853
693.031; -129.792; -739.082; -716.853
693.298;  -90.089; -509.081; -368.853
693.565;  414.413; -155.081; -163.854
693.832; 1427.615;   -5.081;   -9.854
694.099;  141.717; -643.081; -642.855
694.366; -181.080; -882.081; -896.855
694.633; -130.978; -920.080; -633.855
694.900; 1525.124; 4367.920; -114.856
695.167;  481.627; -214.080; -380.856
695.434;   54.729; -646.080; -623.856
695.701;  297.131;  121.921;  -61.857
695.968;  578.233; -365.079; -361.857
696.234; 1438.836; -415.079; -646.858
696.501;13758.638; -776.079; -614.858
696.768; 6455.740; -554.079; -617.858
697.035;  338.842; -632.078; -667.859
697.302;   15.845; -448.078; -552.859
697.568;   -3.053; -458.078; -497.859
697.835;  -98.851; -683.078; -624.860
698.102;  -23.148; -498.078; -407.860
698.368;  163.954;  384.923;  396.139
698.635;  -67.044;  -47.077; -424.861
698.901;    3.558; -240.077; -348.861
699.168;   58.961; -534.077; -456.862
699.435;  136.563;  -72.077;  -13.862
699.701; -242.735; -868.076; -764.862
699.968;  -62.632;  144.924; -441.863
700.234; -171.630; -783.076; -822.863
700.500;  -75.628; -448.076; -539.864
700.767;   41.874;   -1.075;   26.136
701.033; -238.323;-1015.075; -963.864
701.299;  -74.021; -450.075; -483.865
701.566;  262.981;  950.925;  763.135
701.832;   80.083;  -31.075;  -76.865
702.098; -219.514;-1054.074;-1034.866
702.365; -204.212;-1098.074;-1030.866
702.631; -147.710;-1038.074;-1063.867
702.897; 1778.093; -765.074; -676.867
703.163; 2640.995;  348.926;  254.133
703.429;  205.697; -256.073; -273.868
703.695; -122.501; -796.073; -792.868
703.961;   55.902; -214.073; -210.868
704.227; -113.996; -630.073; -725.869
704.493;  218.706;  613.927;  510.131
704.759;  -51.692; -565.072; -540.870
705.025;   46.511; -203.072; -194.870
705.291;  -25.587; -666.072; -562.870
705.557;  363.015;  719.928;   34.129
705.823;   21.618; -742.072; -694.871
706.089;  207.520; -307.071; -326.871
706.355;  586.922; -315.071; -244.872
706.620; 7914.224; -776.071; -729.872
706.886; 9964.327; -309.071; -362.873
707.152;  801.929; -818.070; -973.873
707.418; -115.069;-1153.070;-1186.873
707.683;  -34.067; -550.070; -530.874
707.949;  -89.864; -547.070; -578.874
708.215;   14.538; -129.070; -207.874
708.480;  -30.960; -520.069; -420.875
708.746;  130.743;   68.931;   28.125
709.011;  -77.355; -578.069; -612.876
709.277; -130.653; -538.069; -543.876
709.542;  -93.351; -428.069; -387.876
709.808;   16.852;  -59.068;   89.123
710.073; -143.846; -577.068; -695.877
710.339;  -49.844; -242.068; -228.877
710.604;   67.058; -780.068; -845.878
710.869;  351.061; -277.068; -366.878
711.135; -127.237; -715.067; -628.879
711.400; -143.135; -507.067; -608.879
711.665;  -91.032; -404.067; -479.879
711.931; -171.730; -661.067; -677.880
712.196; -222.828; -876.067; -954.880
712.461;  118.374; -402.066; -490.880
712.726;   64.477; -727.066; -771.881
712.991; -151.621; -647.066; -664.881
713.256; -104.619; -350.066; -332.882
713.521;  -85.616; -417.065; -381.882
713.787; -107.114; -454.065; -472.882
714.052;  -35.212; -214.065; -400.883
714.317; -209.610;-1045.065; -981.883
714.581; 1484.993; -374.065; -268.883
714.846; 1650.595; -822.064; -888.884
715.111;  250.697;  261.936;  257.116
715.376;  -45.401;  -86.064; -223.885
715.641;  -26.598; -365.064; -367.885
715.906;  337.304;   15.936; -551.885
716.171;  195.506;  221.937;  209.114
716.436;   78.709;  -78.063; -104.886
716.700; -154.489; -818.063; -692.886
716.965; -203.087; -794.063; -807.887
717.230;  -96.185; -339.063; -392.887
717.494;  -18.982;  -40.062; -134.888
717.759; -164.280; -784.062; -640.888
718.024;   26.422;  269.938;  250.112
718.288;  194.824;  685.938;  395.111
718.553; -252.073; -803.062; -977.889
718.817; -272.771; -883.061; -899.889
719.082;  -20.869; -115.061; -125.890
719.346; -265.666;-1000.061; -947.890
719.611;  -63.564; -300.061; -255.891
719.875; -152.762; -568.060; -537.891
720.140; -122.260; -453.060; -603.891
720.404;   62.543; -136.060; -249.892
720.668; 1010.945; -475.060; -411.892
720.933;  440.747;  146.940;  137.108
721.197; -188.051; -667.059; -600.893
721.461; -250.148; -851.059; -826.893
721.725;   34.154;  -21.059; -250.894
721.990; -102.844; -284.059; -204.894
722.254;    0.859;  -26.059; -108.894
722.518; -108.539; -286.058; -442.895
722.782; -122.437; -743.058; -594.895
723.046;  272.965;  614.942;  570.105
723.310;   79.068;  374.942;  210.104
723.574; -167.330; -654.058; -614.896
723.838; -180.228; -576.057; -642.897
724.102;  -31.126; -226.057; -239.897
724.366; -262.223;-1032.057; -978.897
724.630; -165.721; -749.057; -571.898
724.894; -121.519; -722.057; -514.898
725.158;   24.484;   38.944; -295.898
725.422;  -73.414; -394.056; -327.899
725.685; -116.012; -441.056; -349.899
725.949; -149.210; -566.056; -519.900
726.213; -169.007; -732.056; -811.900
726.477;   93.695;-1020.055; -933.900
726.740;  158.297; -274.055; -104.901
727.004;  508.800; -384.055; -510.901
727.268; 4365.202; -442.055; -400.901
727.531; 1008.204; -961.055; -775.902
727.795;  -92.894; -713.054; -673.902
728.059; -120.791; -552.054; -557.903
728.322; -155.789; -841.054; -669.903
728.586;  -20.187; -692.054; -701.903
728.849; -169.585; -695.053; -756.904
729.112; -223.782; -812.053; -912.904
729.376; -256.580; -959.053; -905.904
729.639; -131.778; -536.053; -536.905
729.903; -193.875; -733.053; -699.905
730.166;  -83.673; -437.052; -399.906
730.429;  -44.171; -317.052; -468.906
730.693; -106.769; -355.052; -894.906
730.956;  408.634;  810.948;  651.093
731.219;  831.136; -310.052; -103.907
731.482;   90.038;-1003.051; -894.907
731.745;   32.740; -794.051; -935.908
732.009;   82.943;  -30.051;   50.092
732.272; -158.855; -904.051; -771.909
732.535;  -50.953; -300.051; -310.909
732.798; -282.350;-1083.050;-1166.909
733.061;  -93.748; -430.050; -456.910
733.324;   39.754;   31.950; -180.910
733.587;  129.256;  290.950;  365.090
733.850; -129.741; -973.049;-1050.911
734.113;   73.361;   33.951;   32.089
734.376;   -2.237; -328.049; -447.912
734.639;  440.565; 1188.951; 1011.088
734.901;  105.468; -180.049; -402.912
735.164;  628.970; -883.048; -837.913
735.427; 1518.072; -166.048; -355.913
735.690;  153.875; -205.048; -234.913
735.952; -151.423; -923.048; -925.914
736.215; -125.021;-1113.048;-1009.914
736.478;    6.981; -771.047; -774.915
736.740;  335.084;   33.953;  129.085
737.003;  960.586; -658.047; -672.915
737.266; 4819.188;  -94.047;   46.084
737.528;  495.790; -682.047; -660.916
737.791;  365.393; -316.046; -327.916
738.053; 1241.795;  465.954;  649.083
738.316;14886.297; -162.046; -136.917
738.578; 8922.000; -770.046; -736.918
738.841;  569.902; -382.046; -446.918
739.103;  213.404; -875.045; -777.918
739.365;  637.406;   79.955;  -69.919
739.628;  -60.091; -884.045; -805.919
739.890;  -51.789; -758.045; -710.919
740.152;  -71.387; -692.044; -754.920
740.414;  -32.484; -408.044; -359.920
740.677; -102.382; -785.044; -634.921
740.939;  -87.780; -587.044; -487.921
741.201;  311.622; -432.044; -572.921
741.463;  -14.375; -689.043; -745.922
741.725;   39.327;  -21.043; -199.922
741.987;  167.329;  220.957;  116.078
742.249;  -55.569; -751.043; -859.923
742.511;  171.334; -703.043; -794.923
742.773;  -42.664; -546.042; -546.924
743.035;  231.638;  796.958;  533.076
743.297; -120.759; -963.042;-1013.924
743.559;  919.243; -278.042; -262.925
743.821;  -30.255; -735.042; -744.925
744.083;   -3.453;  -44.041; -149.925
744.345; -188.050; -869.041; -892.926
744.607;  107.952;   75.959;  122.074
744.868; -100.346; -490.041; -554.927
745.130; -226.744; -994.041;-1008.927
745.392;   95.959;   -1.040;  -44.927
745.653;  -10.939; -411.040; -378.928
745.915;  334.763;  896.960;  631.072
746.177;   88.866;   35.960;  -43.928
746.438;  -14.432; -428.040; -543.929
746.700; -103.930; -947.039; -988.929
746.961;  -17.528; -659.039; -740.930
747.223;  155.275; -190.039;  -74.930
747.484;   84.077; -391.039; -471.930
747.746;  237.379;  -23.038; -106.931
748.007;  118.781; -647.038; -689.931
748.269;  405.484; -468.038; -440.931
748.530;  549.586; -852.038; -638.932
748.791;  320.288; -354.038; -420.932
749.053;  637.291;  286.963;  163.067
749.314;  578.393; -236.037; -169.933
749.575;  558.495; -945.037; -905.933
749.836; 1151.797; -217.037;   86.066
750.098; 3631.500;  -60.037;  -21.934
750.359;46447.502;  414.964;  555.066
750.620;10248.104; -121.036; -220.935
750.881; 1319.806; -585.036; -513.935
751.142; 1782.209; -950.036; -938.936
751.403;22688.511; -789.036; -705.936
751.664; 8136.713;-1034.035; -999.936
751.925;  642.616; -175.035; -262.937
752.186;  393.118; -298.035; -278.937
752.447;  175.820; -590.035; -445.937
752.708;   46.222; -532.035; -648.938
752.969;  -16.175; -566.034; -576.938
753.230;  -35.973; -777.034; -672.939
753.491;  -78.771; -650.034; -631.939
753.751;  137.132;  109.966;   19.061
754.012;  198.134;  258.967;  181.060
754.273;   92.236; -174.033;  -71.940
754.534;  -11.562; -487.033; -580.940
754.794; -186.359; -926.033; -911.941
755.055;  364.543; 1051.967;  881.059
755.316;  -64.755; -700.032; -566.942
755.576;  -15.553; -606.032; -576.942
755.837;  -77.050; -527.032; -695.942
756.097;  -50.848; -530.032; -564.943
756.358; -122.046; -725.032; -770.943
756.618; -115.943; -705.031; -641.943
756.879;   22.959; -254.031; -349.944
757.139; -241.839;-1098.031;-1116.944
757.400;  -81.037; -538.031; -553.945
757.660;   -3.634; -365.031; -401.945
757.920;   20.468; -266.030; -228.945
758.181;  -22.130; -468.030; -351.946
758.441; -166.328; -870.030; -809.946
758.701;  -40.925; -308.030; -215.946
758.961;  -18.323; -220.030; -278.947
759.222;  -84.021; -574.029; -502.947
759.482; -129.218; -683.029; -723.948
759.742; -147.516; -706.029; -547.948
760.002;   22.486;  -83.029; -143.948
760.262;   83.688;   50.972;  182.051
760.522;  -53.809; -498.028; -574.949
760.782; -131.907; -738.028; -612.949
761.042;  -56.705; -618.028; -573.950
761.302;   89.997;   55.972;  -18.950
761.562;  101.700; -164.027; -154.951
761.822;   76.502; -710.027; -551.951
762.082; -126.796;-1104.027;-1093.951
762.342;   71.907; -328.027; -403.952
762.601;   67.909; -567.027; -506.952
762.861;  449.811; -281.026; -207.952
763.121;  601.413; -406.026; -411.953
763.381;10894.216; -499.026; -485.953
763.640; 9791.818; -139.026; -307.954
763.900;  490.120; -242.026; -203.954
764.160;  137.623; -458.025; -491.954
764.419;  -58.975; -726.025; -782.955
764.679; -100.473; -795.025; -726.955
764.939;   -4.671; -124.025; -210.955
765.198; -131.568; -608.025; -563.956
765.458; -111.766; -710.024; -612.956
765.717; -146.164; -454.024; -590.957
765.976;  -64.262; -428.024; -411.957
766.236; -114.759; -475.024; -610.957
766.495;   81.443;  260.977;   73.042
766.755; -206.055;-1090.023; -987.958
767.014;  -37.352; -594.023; -665.958
767.273;  -52.250; -373.023; -397.959
767.533;  -47.148; -228.023; -307.959
767.792;  -11.646; -151.022; -188.960
768.051;  -68.743; -228.022; -276.960
768.310; -128.241; -546.022; -650.960
768.569;   21.461; -161.022;    4.039
768.828;  -18.337; -285.022; -363.961
769.088; -233.434;-1050.021; -942.961
769.347; -135.232; -755.021; -599.962
769.606; -195.230; -876.021; -857.962
769.865; -248.827;-1016.021;-1033.963
770.124;  -16.125; -411.021; -336.963
770.383; -115.823; -778.020; -910.963
770.641;  -31.821; -398.020; -400.964
770.900; -148.818; -953.020; -846.964
771.159; -146.016; -851.020; -951.964
771.418;  -89.514; -917.020; -779.965
771.677;  166.788; -224.019; -293.965
771.936;  186.191; -794.019; -865.966
772.194; 3678.493; -465.019; -437.966
772.453;14001.595; -213.019; -391.966
772.712; 1100.698;  416.982;  329.033
772.970;  244.900;   32.982;   63.033
773.229;  172.402;  -22.018;  102.033
773.488; -166.296; -814.018; -770.968
773.746;  156.607;  296.982;  335.032
774.005;   46.709;  190.983;  -22.969
774.263;   91.011;  243.983;  177.031
774.522; -147.387; -422.017; -548.969
774.780; -142.284; -484.017; -417.970
775.039; -148.482; -551.017; -531.970
775.297;  -16.180; -135.016; -351.970
775.555; -153.577; -489.016; -612.971
775.814; -191.975; -618.016; -570.971
776.072; -202.173; -749.016; -740.971
776.330; -160.471; -630.016; -520.972
776.589; -204.868; -703.015; -721.972
776.847; -208.666; -645.015; -624.973
777.105; -292.464;-1016.015;-1032.973
777.363; -106.061; -459.015; -454.973
777.621; -224.759; -660.015; -717.974
777.879;   11.943;  -42.014;   32.026
778.138; -132.755; -554.014; -717.974
778.396; -159.952; -585.014; -526.975
778.654; -288.350;-1015.014; -970.975
778.912;  -84.448; -269.014; -371.976
779.170; -203.346; -880.013; -803.976
779.427; -239.743; -922.013; -897.976
779.685; -239.641; -880.013; -832.977
779.943; -186.739; -654.013; -593.977
780.201; -273.536; -964.012; -883.978
780.459; -188.434; -651.012; -610.978
780.717; -111.232; -440.012; -390.978
780.974; -148.430; -449.012; -490.979
781.232;  -65.027; -358.012; -338.979
781.490; -150.925; -551.011; -472.979
781.747; -122.523; -555.011; -476.980
782.005;  147.879;  462.989;  254.020
782.263; -283.618; -542.011;-1004.981
782.520; -111.316; -326.011; -501.981
782.778; -274.514;-1013.010;-1051.981
783.035; -276.411; -962.010; -938.982
783.293;  -65.409; -248.010; -206.982
783.550;  -65.407; -134.010; -198.982
783.808; -218.005; -764.010; -776.983
784.065; -274.802; -745.009; -874.983
784.322;  -12.800;   25.991;  -86.984
784.580; -269.698; -915.009; -771.984
784.837; -142.096; -392.009; -466.984
785.094; -229.193; -783.009; -762.985
785.352;  -98.091; -304.008; -404.985
785.609; -184.389; -934.008; -839.985
785.866; -109.086; -345.008; -401.986
786.123; -161.784; -639.008; -583.986
786.380; -161.782; -665.008; -604.987
786.637;  -74.280; -225.007; -380.987
786.895;  -68.877; -456.007; -543.987
787.152;  -66.675; -135.007; -267.988
787.409;  -48.373; -123.007; -225.988
787.666; -134.871; -299.006; -378.988
787.923; -173.768; -616.006; -695.989
788.179; -126.166; -551.006; -584.989
788.436; -167.064; -585.006; -585.990
788.693;  -11.961;  -92.006;  -87.990
788.950;  234.241; -125.005; -112.990
789.207;  155.343; -381.005; -372.991
789.464;  -32.855; -161.005; -301.991
789.720;   37.248;  150.995;  110.009
789.977; -317.050;-1003.005; -671.992
790.234;  -28.648;   44.996;  -66.992
790.490; -282.745; -884.004;-1031.993
790.747;   -0.743;  -85.004;   22.007
791.004;  -33.641; -426.004; -348.993
791.260; -116.239; -430.004; -560.994
791.517; -174.736; -843.003; -788.994
791.773;  -76.034; -379.003; -342.994
792.030; -191.632; -596.003; -660.995
792.286; -177.530; -686.003; -636.995
792.543;   -2.127;  -74.002; -159.995
792.799;  -91.025; -584.002; -382.996
793.055; -320.323;-1179.002;-1210.996
793.312; -179.920; -827.002; -816.997
793.568; -101.918; -746.002; -599.997
793.824;   30.084; -226.001; -284.997
794.081;   16.186; -447.001; -508.998
794.337;   41.689; -664.001; -561.998
794.593; 2262.591; -319.001; -271.999
794.849; 8161.893; -746.001; -772.999
795.105;  390.495; -270.000; -261.999
795.361;   25.498; -490.000; -457.000
795.617; -138.200; -875.000; -945.000
795.873;  -71.900; -360.000; -407.000
796.129;  -73.600; -368.000; -306.000
796.385;  -27.600; -124.000; -156.000
796.641;  176.600;  412.000;  550.000
796.897; -154.200; -666.000; -635.000
797.153;  169.200;  453.000;  357.000
797.409; -184.100; -785.000; -868.000
797.665; -105.600; -625.000; -732.000
797.921; -155.900; -775.000; -762.000
798.176; -110.700; -744.000; -747.000
798.432;  -95.500; -824.000; -596.000
798.688; -191.800;-1174.000;-1078.000
798.943;  147.100; -165.000; -147.000
799.199;  -85.500;-1005.000; -959.000
799.455;  370.700;  369.000;  316.000
799.710;   93.700; -813.000; -380.000
799.966;  413.900; -162.000; -160.000
800.221;  641.300; -638.000; -721.000
800.477;15390.400; -743.000; -710.000
800.732;10325.600; -773.000; -800.000
800.988;  855.000;  205.000;  -19.000
801.243; 3199.100; -454.000; -344.000
801.498;10696.700; -814.000; -739.000
801.754;  627.900; -289.000; -163.000
802.009;  130.100; -257.000; -335.000
802.264; -127.100; -967.000;-1033.000
802.520;   63.300;  222.000;   -3.000
802.775;  -67.200; -524.000; -359.000
803.030;  135.600;  395.000;  356.000
803.285; -221.600; -840.000; -903.000
803.540; -117.800; -686.000; -699.000
803.795;  -98.200; -648.000; -583.000
804.051;  -32.200; -279.000; -346.000
804.306;   66.300;  168.000;  128.000
804.561;  263.300;  451.000;  362.000
804.816;  306.400;  714.000;  861.000
805.071;   29.200; -185.000; -280.000
805.325;  254.200; -257.000; -427.000
805.580; -202.100; -841.000; -877.000
805.835;  -12.800; -204.000; -297.000
806.090; -131.600; -760.000; -676.000
806.345;  -13.900; -344.000; -264.000
806.600;  -81.200; -549.000; -632.000
806.854;  -83.300; -408.000; -538.000
807.109;  -12.800; -493.000; -577.000
807.364;   30.500; -407.000; -328.000
807.618;   -2.500; -415.000; -381.000
807.873;   34.400; -470.000; -494.000
808.128;  176.300; -257.000; -518.000
808.382;  141.500; -224.000; -332.000
808.637;   57.200; -440.000; -511.000
808.891;  244.300; -257.000; -180.000
809.146;   63.300; -902.000; -794.000
809.400;  288.200; -848.000; -923.000
809.654;  346.900; -779.000; -551.000
809.909;  582.500; -841.000; -927.000
810.163;10121.600; -813.000; -651.000
810.418;19637.800; -940.000; -861.000
810.672; 1196.000; -685.000; -690.000
810.926;  894.700; -993.000; -973.000
811.180; 2074.000; -439.000; -372.000
811.434;45370.600;  240.000;  135.000
811.689;13540.100; -231.000; -365.000
811.943;  668.400; -936.000; -953.000
812.197;  352.900; -893.000; -671.000
812.451;  171.500; -379.000; -514.000
812.705;  -63.800; -809.000; -619.000
812.959;  -87.700; -263.000; -388.000
813.213;   37.500; -283.000; -209.000
813.467;  168.000;  470.000;  253.000
813.721; -182.700; -764.000; -792.000
813.975; -185.400; -826.000; -877.000
814.229;  152.300;  430.000;  353.000
814.482; -134.000; -517.000; -566.000
814.736; -202.100; -766.000; -744.000
814.990; -247.400; -779.000; -872.000
815.244;  -59.900; -228.000; -285.000
815.497; -144.400; -636.000; -601.000
815.751;   38.300; -141.000;   82.000
816.005; -146.300; -470.000; -586.000
816.258;  -76.800; -510.000; -363.000
816.512; -177.900; -693.000; -610.000
816.766;   65.500;  121.000;  157.000
817.019;   85.000;  148.000;  149.000
817.273; -217.100;-1000.000; -802.000
817.526;  -14.000; -206.000; -173.000
817.779; -132.800;-1049.000; -960.000
818.033; -161.400; -693.000; -807.000
818.286; -196.700; -725.000; -792.000
818.540; -142.200; -403.000; -403.000
818.793; -110.100; -402.000; -489.000
819.046; -168.600; -582.000; -520.000
819.299;  -17.700; -157.000; -166.000
819.553; -150.300; -552.000; -592.000
819.806; -265.200;-1016.000; -838.000
820.059;  -30.300; -334.000; -354.000
820.312;   58.400;  152.000;  185.000
820.565;   50.100;  110.000;  -27.000
820.818;  -21.000;  -59.000; -173.000
821.071; -296.300;-1041.000; -957.000
821.324; -178.000; -536.000; -540.000
821.577; -131.000; -457.000; -483.000
821.830;  -74.700; -270.000; -172.000
822.083; -191.200; -733.000; -288.000
822.336;  -46.100; -261.000; -167.000
822.589; -235.600; -805.000; -688.000
822.842; -240.300; -875.000; -770.000
823.094; -339.700;-1076.000;-1114.000
823.347; -228.300; -925.000; -729.000
823.600;  116.700;  402.000;  187.000
823.853;  -44.400; -311.000; -267.000
824.105;  -76.400; -331.000; -575.000
824.358; -189.400; -617.000; -716.000
824.611;  101.100;  234.000;   40.000
824.863;  -65.600; -612.000; -591.000
825.116;   81.600;  -33.000;   27.000
825.368;   94.500; -366.000; -372.000
825.621;  215.600; -186.000; -240.000
825.873;   83.400; -704.000; -737.000
826.126;  880.300; -669.000; -641.000
826.378;15882.000; -389.000; -505.000
826.630; 2585.500; -890.000; -898.000
826.883;   -0.400; -754.000; -693.000
827.135;   54.200; -279.000; -270.000
827.387; -200.500; -893.000; -839.000
827.639;    2.000;  -86.000;   32.000
827.892; -212.600; -742.000; -582.000
828.144; -251.300; -848.000; -804.000
828.396;   -5.400;  104.000;  -80.000
828.648; -150.600; -440.000; -333.000
828.900; -234.000; -702.000; -795.000
829.152; -176.600; -684.000; -683.000
829.404;  -68.000; -215.000; -267.000
829.656;   66.100;  321.000;  214.000
829.908;   49.400;  393.000;  229.000
830.160; -265.900;-1064.000;-1047.000
830.412; -111.700; -481.000; -430.000
830.664; -196.000; -557.000; -665.000
830.916;  -86.100; -268.000; -206.000
831.167; -298.400;-1073.000; -951.000
831.419; -162.900; -623.000; -566.000
831.671; -235.600; -764.000; -809.000
831.923; -104.500; -311.000; -447.000
832.174; -103.100; -273.000; -331.000
832.426; -179.200; -493.000; -582.000
832.678; -326.800;-1043.000;-1091.000
832.929; -298.500; -947.000; -935.000
833.181; -125.800; -575.000; -677.000
833.432;  -26.900;  -59.000; -186.000
833.684;   37.400;  112.000;  -27.000
833.935; -174.900; -610.000; -566.000
834.187; -198.200; -829.000; -823.000
834.438;  -22.600;  -58.000;  -25.000
834.689;  -50.600; -255.000; -123.000
834.941;  -65.900; -343.000; -244.000
835.192; -149.900; -590.000; -533.000
835.443; -170.700; -419.000; -506.000
835.695;   23.900;  138.000;  -16.000
835.946; -139.100; -608.000; -378.000
836.197; -177.400; -599.000; -622.000
836.448; -134.300; -528.000; -395.000
836.699;  -53.900; -253.000; -341.000
836.950;   55.000;   72.000;    7.000
837.201; -254.900;-1003.000; -987.000
837.452;  -59.600; -356.000; -170.000
837.703; -227.000; -791.000; -737.000
837.954;  -29.500; -205.000; -365.000
838.205; -185.500;-1029.000;-1008.000
838.456;  208.900; -196.000; -282.000
838.707;   -2.400; -423.000; -519.000
838.958;  -10.000; -634.000; -647.000
839.209;  390.500;   18.000;   40.000
839.460;  168.200; -439.000; -201.000
839.710;  245.900; -135.000; -297.000
839.961;  623.700;  730.000;  612.000
840.212;  406.500; -382.000; -497.000
840.462; 1670.600; -328.000; -277.000
840.713;25391.300; -571.000; -536.000
840.964; 7432.200;  -62.000; -143.000
841.214;  580.200; -384.000; -624.000
841.465;  741.300; -214.000; -141.000
841.715;  656.500; -417.000; -380.000
841.966;  785.100; -746.000; -685.000
842.216;13731.800; -330.000; -431.000
842.466;39653.100; -169.000; -313.000
842.717; 1541.000; -964.000; -952.000
842.967;  369.800; -635.000; -641.000
843.217;  327.200;   20.000;   28.000
843.468;   85.500; -104.000; -132.000
843.718; -100.300; -718.000; -726.000
843.968; -159.400; -837.000; -765.000
844.218;   29.500; -315.000; -262.000
844.469; -130.000; -577.000; -561.000
844.719; -172.000; -537.000; -682.000
844.969; -148.100; -550.000; -580.000
845.219; -237.500; -814.000; -862.000
845.469; -107.300; -392.000; -342.000
845.719; -244.300; -792.000; -884.000
845.969;   59.200;  119.000;  174.000
846.219; -186.600; -738.000; -720.000
846.469;   95.000;  464.000;  432.000
846.718;  -68.800; -115.000;   31.000
846.968; -234.500; -827.000; -827.000
847.218;  -45.300; -224.000; -371.000
847.468; -153.600; -586.000; -555.000
847.718; -237.100; -827.000; -798.000
847.967; -242.500; -826.000; -915.000
848.217; -116.900; -449.000; -569.000
848.467;  -92.100; -405.000; -376.000
848.716; -181.700; -708.000; -725.000
848.966;  -20.400; -372.000; -358.000
849.215;  -71.500; -428.000; -419.000
849.465; -176.900; -785.000; -615.000
849.714; -290.000;-1132.000;-1150.000
849.964; -118.800; -551.000; -613.000
850.213;  -45.400; -393.000; -355.000
850.463;  195.500;  137.000;  340.000
850.712;  -40.100; -542.000; -567.000
850.961;  -27.200; -739.000; -678.000
851.211;  113.800; -513.000; -504.000
851.460;  187.000; -635.000; -650.000
851.709;  834.100;  -25.000;   18.000
851.958;15413.600; -912.000; -750.000
852.208;14098.600; -859.000; -879.000
852.457;  557.600; -181.000;  -13.000
852.706;   39.100; -791.000; -823.000
852.955;  -14.300; -507.000; -528.000
853.204;  -94.600; -521.000; -461.000
853.453; -138.300; -418.000; -458.000
853.702; -223.500; -660.000; -750.000
853.951; -177.300; -532.000; -520.000
854.200; -207.200; -613.000; -562.000
854.449; -206.600; -695.000; -661.000
854.698; -132.200; -340.000; -279.000
854.946;  -72.100; -181.000; -284.000
855.195; -265.000; -843.000; -868.000
855.444; -127.400; -395.000; -420.000
855.693; -158.500; -345.000; -432.000
855.941; -162.400; -387.000; -516.000
856.190;  -55.900; -256.000; -382.000
856.439; -222.900; -652.000; -703.000
856.687;  -52.900;  -99.000;  -72.000
856.936; -185.400; -621.000; -323.000
857.184; -320.700;-1067.000;-1020.000
857.433; -143.900; -423.000; -512.000
857.681; -288.200; -989.000; -953.000
857.930;  -84.600; -282.000; -433.000
858.178; -297.700; -856.000; -929.000
858.427; -244.200; -802.000; -781.000
858.675; -179.600; -377.000; -544.000
858.923; -165.700; -527.000; -819.000
859.172; -303.800;-1094.000;-1070.000
859.420; -107.600; -339.000; -239.000
859.668; -208.900; -624.000; -628.000
859.916;   11.800;  109.000;  115.000
860.164; -182.500; -699.000; -603.000
860.413;  360.000; -878.000; -696.000
860.661;  129.400; -709.000; -577.000
860.909; -113.500; -339.000; -325.000
861.157;  -96.400; -277.000; -444.000
861.405; -210.500; -534.000; -670.000
861.653;   82.500;  310.000;  310.000
861.901;  233.100; -543.000; -613.000
862.149; -117.500; -801.000; -824.000
862.396; -111.600; -297.000; -187.000
862.644; -123.000; -368.000; -347.000
862.892;   -7.100;   98.000;  138.000
863.140; -186.200; -549.000; -530.000
863.388; -257.400; -815.000; -759.000
863.635; -176.000; -642.000; -601.000
863.883;   69.300;  231.000;  190.000
864.131; -114.200; -288.000; -357.000
864.378; -220.300; -675.000; -540.000
864.626; -157.600; -347.000; -415.000
864.873; -161.700; -556.000; -505.000
865.121; -208.600; -714.000; -799.000
865.368;  -26.700; -173.000;   75.000
865.616;  -30.700;  -33.000;  -40.000
865.863; -115.000; -462.000; -506.000
866.111; -185.200; -795.000; -824.000
866.358;   66.300; -426.000; -420.000
866.605; 3881.400;  -64.000; -804.000
866.853; 2888.800; -621.000; -537.000
867.100;  -90.000; -728.000; -775.000
867.347; -172.400; -672.000; -611.000
867.594; -106.200; -740.000; -714.000
867.841;  164.800;   97.000;   17.000
868.089; -244.900; -746.000; -698.000
868.336; -159.900; -477.000; -420.000
868.583; -229.600; -637.000; -741.000
868.830;  -29.500; -131.000; -170.000
869.077; -287.300; -859.000; -787.000
869.324; -182.000; -502.000; -458.000
869.571; -187.600; -398.000; -430.000
869.818; -166.400; -485.000; -439.000
870.065; -180.100; -439.000; -513.000
870.311; -161.200; -456.000; -542.000
870.558; -137.300; -332.000; -311.000
870.805; -122.800; -320.000; -384.000
871.052; -145.000; -494.000; -369.000
871.298;  -40.500; -204.000; -131.000
871.545;  -55.900; -151.000; -185.000
871.792; -104.500; -173.000; -222.000
872.038;  -42.800;   43.000; -126.000
872.285; -164.300; -496.000; -387.000
872.532; -117.700; -357.000; -387.000
872.778;  104.300;  556.000;  403.000
873.025;  -89.600; -384.000; -359.000
873.271;  119.700;  501.000;  578.000
873.517;  -11.900; -133.000; -209.000
873.764;   -2.400; -193.000;  -80.000
874.010;  -72.800; -143.000; -230.000
874.257;   -6.500;  123.000;   90.000
874.503; -192.400; -579.000; -479.000
874.749;  -46.300;   31.000;  275.000
874.995;  -42.500;  -80.000;  -20.000
875.242; -177.200; -540.000; -478.000
875.488; -137.700; -414.000; -439.000
875.734;  -66.700; -106.000; -234.000
875.980;  236.700; -872.000;-1032.000
876.226;  357.400; -157.000; -255.000
876.472;   55.400;  343.000;  237.000
876.718;   -1.700;  184.000;  158.000
876.964;  -12.900;   56.000;   55.000
877.210; -226.800; -547.000; -677.000
877.456; -193.500; -630.000; -557.000
877.702; -303.100; -821.000; -832.000
877.948; -164.400; -377.000; -497.000
878.193;   54.800;  361.000;  255.000
878.439; -139.700; -487.000; -472.000
878.685; -136.300; -272.000; -343.000
878.931; -177.000; -618.000; -676.000
879.176;  -92.900; -201.000; -201.000
879.422; -311.500; -933.000; -820.000
879.668;   77.500;   10.000;   79.000
879.913;  192.000;   53.000;  137.000
880.159;  -38.600; -112.000;  -17.000
880.404;  -51.200; -152.000; -162.000
880.650;   -8.100;   91.000;  141.000
880.895; -231.800; -670.000; -710.000
881.141; -177.300; -454.000; -428.000
881.386; -208.900; -503.000; -658.000
881.631; -147.800; -311.000; -166.000
881.877;   12.700;  112.000;  -13.000
882.122; -179.100; -684.000; -600.000
882.367;  -69.100; -136.000; -186.000
882.612;  -52.100;  -80.000; -176.000
882.858; -280.600; -877.000; -823.000
883.103; -111.100; -297.000; -267.000
883.348; -221.200; -759.000; -852.000
883.593; -246.600; -677.000; -602.000
883.838;  -56.200; -311.000;  -24.000
884.083;  105.600;  353.000;  288.000
884.328;  -99.800; -564.000; -545.000
884.573;  -56.700; -196.000; -143.000
884.818;  302.000; -694.000; -531.000
885.063;  159.600; -348.000; -315.000
885.308; -180.500; -475.000; -398.000
885.553;   21.600;  245.000;  325.000
885.797; -199.700; -545.000; -615.000
886.042;  -30.600;    8.000;   58.000
886.287; -103.000; -253.000; -211.000
886.532;   24.800;   26.000;  204.000
886.776; -113.200; -407.000; -525.000
887.021; -223.100; -621.000; -574.000
887.265; -222.200; -685.000; -689.000
887.510; -180.700; -557.000; -496.000
887.755; -116.100; -194.000; -164.000
887.999; -220.500; -552.000; -575.000
888.244;  -23.900;  -58.000;  161.000
888.488;   47.700;  371.000;  393.000
888.732; -191.500; -368.000; -520.000
888.977; -200.500; -622.000; -567.000
889.221; -290.100; -683.000; -659.000
889.465; -175.500; -422.000; -566.000
889.710; -103.800;  -56.000; -299.000
889.954;   99.000;  579.000;  467.000
890.198; -217.800; -584.000; -707.000
890.442; -247.100; -716.000; -712.000
890.687; -273.400; -800.000; -753.000
890.931; -104.900; -273.000; -210.000
891.175; -188.300; -502.000; -500.000
891.419;  -67.800; -105.000; -110.000
891.663; -116.400; -239.000; -112.000
891.907; -274.200; -801.000; -545.000
892.151; -286.800; -920.000; -815.000
892.395; -153.400; -274.000; -387.000
892.638;   17.000;  408.000;  291.000
892.882; -257.400; -780.000; -867.000
893.126;  100.000;  758.000;  558.000
893.370; -107.800; -167.000; -168.000
893.614; -230.000; -714.000; -715.000
893.857; -128.900; -183.000; -197.000
894.101; -220.800; -527.000; -631.000
894.345;  -35.700;  300.000;  150.000
894.588;  123.600;  569.000;  380.000
894.832; -103.700; -178.000;  -84.000
895.075;  -96.500;   15.000;  -92.000
895.319; -166.200; -552.000; -420.000
895.563; -150.500; -413.000; -353.000
895.806; -244.200; -628.000; -741.000
896.049;  -95.000; -576.000; -368.000
896.293;  192.200;  527.000;  405.000
896.536; -120.200; -465.000; -468.000
896.779;  -77.300; -149.000;   -1.000
897.023; -216.700; -751.000; -714.000
897.266;   38.800;  325.000;  269.000
897.509; -303.600; -900.000; -901.000
897.752;  -15.100;  149.000;  171.000
897.996; -311.200; -972.000; -864.000
898.239;  -21.100;  168.000;  102.000
898.482; -149.400; -431.000; -453.000
898.725;  -18.500;  101.000;   53.000
898.968; -272.200; -609.000; -744.000
899.211; -156.800; -513.000; -361.000
899.454; -205.800; -633.000; -539.000
899.697;  -42.600;   90.000;  -43.000
899.940; -247.900; -761.000; -757.000
900.182; -143.000; -335.000; -405.000
900.425; -101.400; -150.000; -298.000
900.668;   46.700;  491.000;  350.000
900.911; -130.200; -292.000; -345.000
901.154;  -15.000;  141.000;   -3.000
901.396; -226.000; -407.000; -412.000
901.639; -216.000; -430.000; -496.000
901.882; -285.400; -790.000; -809.000
902.124; -105.400;  -29.000; -143.000
902.367; -145.300; -315.000; -361.000
902.609; -200.300; -476.000; -453.000
902.852; -101.300; -108.000; -260.000
903.094; -190.100; -458.000; -337.000
903.337;  -15.400;  -26.000;   53.000
903.579; -156.000; -228.000; -441.000
903.821; -246.700; -597.000; -744.000
904.064;  -55.600;   85.000;  127.000
904.306;  -85.700; -126.000; -166.000
904.548; -147.900; -152.000; -366.000
904.790; -116.300; -195.000; -340.000
905.033; -192.900; -625.000; -577.000
905.275; -181.900; -513.000; -524.000
905.517;  124.900;  468.000;  256.000
905.759; -173.000; -667.000; -761.000
906.001; -151.900; -322.000; -369.000
906.243;  -65.000; -162.000; -224.000
906.485;  198.900; -265.000; -207.000
906.727;   64.300; -499.000; -542.000
906.969;  -48.300;  -30.000; -135.000
907.211;  181.600; -316.000; -382.000
907.453;  356.300; -188.000; -237.000
907.695;  -12.700; -158.000; -385.000
907.936;  139.800;  818.000;  706.000
908.178;  -43.100;   92.000; -135.000
908.420;  -91.100; -111.000; -162.000
908.662; -197.300; -633.000; -682.000
908.903; -148.600; -208.000; -123.000
909.145;  -78.400; -240.000; -305.000
909.386;   87.500;  315.000;  280.000
909.628;  150.500;  363.000;  397.000
909.870;   82.700;   29.000;  264.000
910.111; -243.100; -809.000; -949.000
910.353;   47.700; -123.000; -161.000
910.594;  -35.000; -574.000; -606.000
910.835;  112.300; -265.000; -326.000
911.077;  179.900; -503.000; -604.000
911.318;  369.300; -505.000; -471.000
911.559;  576.700; -577.000; -880.000
911.801; 2089.400; -284.000; -280.000
912.042;18323.000;  -50.000; -159.000
912.283;37730.800;  404.000;  371.000
912.524; 4262.500; -396.000; -457.000
912.765;  655.500; -193.000;   79.000
913.006;  336.200; -307.000; -338.000
913.247;   62.900; -270.000; -290.000
913.488;   31.400;  -43.000;   30.000
913.729;  -90.500; -373.000; -373.000
913.970;  -87.100;  -96.000; -292.000
914.211;  -82.000; -160.000; -198.000
914.452;  -74.300; -118.000;  -11.000
914.693;  100.100;  510.000;  592.000
914.934;  109.100;  510.000;  440.000
915.175;  -91.800;   53.000;  -95.000
915.415; -100.200; -137.000;   27.000
915.656;  -42.100;  -28.000;  192.000
915.897; -138.500; -252.000;  -82.000
916.137;  -72.700;   74.000;   -9.000
916.378; -187.800; -573.000; -517.000
916.619; -125.200; -159.000;  -63.000
916.859;   15.800;  303.000;  330.000
917.100;  413.400; 1655.000; 1070.000
917.340;  209.300;  930.000;  728.000
917.581;  155.600;  965.000;  789.000
917.821;  -17.700; -171.000;  143.000
918.061;    2.400; -199.000;  -72.000
918.302;  -82.800; -152.000; -211.000
918.542;    4.900;  -22.000;    3.000
918.782;  103.900;  369.000;  377.000
919.023;  252.000;  360.000;  427.000
919.263; 2446.600; 8131.000;  202.000
919.503; 1391.500; -137.000;  -54.000
919.743;  876.600;  390.000;  266.000
919.983;  282.100; -134.000;  -26.000
920.223;   96.700;  135.000;   14.000
920.463;  268.800;  631.000;  554.000
920.703;  242.300;   84.000;   39.000
920.943;  201.500; -110.000;   90.000
921.183;  270.900; -414.000; -405.000
921.423;  736.800;  307.000;  546.000
921.663; 1023.900; -174.000; -257.000
921.903; 2376.400;  237.000;  173.000
922.143;14324.300;  372.000;  389.000
922.383;48824.100;  158.000;  115.000
922.622;12256.900; -120.000;  -15.000
922.862; 1526.700;  796.000;  785.000
923.102;  635.100;  -51.000;   33.000
923.341;  254.600;   59.000;   74.000
923.581;  140.400;  450.000;  360.000
923.821;   95.700;  301.000;  398.000
924.060;   86.500;  351.000;  193.000
924.300;  -54.100;  -16.000; -128.000
924.539;   74.500;  584.000;  473.000
924.779;  125.900;  812.000;  597.000
925.018;  -25.000;  247.000;  353.000
925.257;   76.000;  595.000;  666.000
925.497;    6.800;  447.000;  412.000
925.736;  -57.300;  -35.000;  102.000
925.975;  105.400;  687.000;  669.000
926.214;  140.100;  907.000;  850.000
926.454;   95.500;  706.000;  757.000
926.693;  -25.800;  419.000;  543.000
926.932;  147.600; 1021.000;  825.000
927.171;  213.800; 1107.000; 1044.000
927.410;  224.700; 1144.000;  967.000
927.649;   98.700;  924.000;  742.000
927.888;   62.900;  590.000;  564.000
928.127;   74.100;  680.000;  678.000
928.366;  183.800;  842.000;  826.000
928.605;  185.400;  831.000;  737.000
928.844;  487.100; 1451.000; 1393.000
929.083;  920.900;  770.000;  613.000
929.321;  490.700; 1335.000; 1359.000
929.560;  236.400; 1158.000; 1122.000
929.799;    8.200;  574.000;  475.000
930.038;  240.700; 1025.000; 1394.000
930.276;  -24.700;  334.000;  397.000
930.515;   93.800;  827.000;  681.000
930.753;   37.700;  614.000;  589.000
930.992;   57.600;  664.000;  717.000
931.230;   91.600;  847.000;  847.000
931.469;  447.000; 2162.000;  892.000
931.707;  200.800;  840.000;  751.000
931.946;  218.700; 1278.000; 1344.000
932.184;  200.700; 1437.000; 1175.000
932.423;  152.200; 1265.000;  963.000
932.661;  273.100; 1296.000; 1428.000
932.899;   95.200;  987.000;  821.000
933.137;   87.300;  754.000;  564.000
933.376;  324.700; 1664.000; 1335.000
933.614;  345.900; 1759.000; 1196.000
933.852;  203.600; 1357.000; 1171.000
934.090;  351.600; 1722.000; 1747.000
934.328;  288.600; 1252.000; 1457.000
934.566;  261.500; 1431.000; 1110.000
934.804;  345.600; 1263.000; 1309.000
935.042;  949.100; 1861.000; 1850.000
935.280; 3398.100; 2088.000; 2063.000
935.518; 2494.700; 2113.000; 2007.000
935.756;  639.300; 2481.000; 2316.000
935.994;  354.600; 1808.000; 1751.000
936.231;  739.600; 2890.000; 2950.000
936.469;  461.400; 2367.000; 2378.000
936.707;  380.600; 2220.000; 2167.000
936.945;  546.600; 2825.000; 2882.000
937.182;  509.200; 2679.000; 2741.000
937.420;  699.900; 3602.000; 3031.000
937.657;  883.700; 3365.000; 3478.000
937.895;  753.200; 3331.000; 3488.000
938.133;  651.200; 3540.000; 3528.000
938.370;  796.900; 3896.000; 4191.000
938.607;  895.300; 4488.000; 4205.000
938.845; 1236.900; 5587.000; 5549.000
939.082; 1084.200; 5387.000; 5177.000
939.320; 1158.900; 5799.000; 5728.000
939.557; 1406.000; 6549.000; 6491.000
939.794; 1565.500; 7285.000; 7097.000
940.031; 1958.500; 8421.000; 8368.000
940.269; 2197.700; 9552.000; 9107.000
940.506; 2360.100;10901.000;10507.000

