
Integration time [ms]: 100.000
Averaging Nr. [scans]: 40
Smoothing Nr. [pixels]: 0
Data measured with spectrometer [name]: 2101013U2
Wave   ;Sample   ;Dark     ;Reference
[nm]   ;[counts] ;[counts] ;[counts] 

394.013;   43.047; -450.257; -315.536
394.305;  180.570; -461.258; -419.536
394.596; 1599.393; -676.269; -527.514
394.887; 4242.288; -796.268; -654.518
395.178; 1538.526;  145.736;   11.476
395.470;   89.365; -210.263; -356.526
395.761;  151.782;  305.734;  394.479
396.052;  112.613; -545.284; -306.489
396.343;  101.725; -557.276; -454.503
396.634;   42.836; -200.279; -290.497
396.926;   28.660; -618.268; -565.517
397.217;   67.505;   11.725;  -17.504
397.508;   17.975; -366.273; -154.507
397.799;   29.186; -555.279; -571.497
398.090;   19.829; -973.280; -902.495
398.381;   82.621;   11.708;  -11.473
398.672;  -15.403; -585.292; -742.473
398.963;   21.343; -348.279; -373.498
399.254;   80.659;   54.709; -209.475
399.545;  -13.623;-1017.266; -883.520
399.836;   50.811; -407.277; -343.501
400.127;   44.017; -205.295; -209.468
400.418;   41.368; -423.274; -392.506
400.709;   31.888; -359.281; -333.493
401.000;   41.663; -268.291; -309.476
401.290;  108.589;  225.698;  115.545
401.581;   73.967; -166.286; -228.485
401.872;   35.932; -542.298; -486.462
402.163;   73.858; -313.296; -252.467
402.454;   97.209; -123.291; -163.475
402.744;   51.572; -844.297; -813.465
403.035;  246.985; -226.293;  -86.471
403.326;  332.151; -366.292; -384.474
403.617;  326.900;  204.701;  165.539
403.907;  370.945; -593.283; -679.490
404.198; 3690.182; -545.307; -599.446
404.489; 9331.402; -618.283; -588.491
404.779; 2617.443; -618.302; -660.456
405.070;  281.542;  -67.304; -174.451
405.360;  497.138; -259.293; -238.472
405.651;  477.707;  125.699;   98.542
405.942;  174.611;  209.714;  127.516
406.232;  108.904; -432.285; -413.487
406.523;  251.129;  641.706;  758.530
406.813;   53.514; -579.286; -644.484
407.104;  221.770;  261.708;  144.527
407.394;   93.502; -604.299; -591.462
407.685;  146.253;  336.715;  222.513
407.975;   69.150; -400.283; -382.490
408.265;  127.877; -134.289; -190.478
408.556;   60.881; -472.291; -459.475
408.846;  188.630;  474.706;  429.530
409.137;  114.038;   -1.288; -216.480
409.427;   79.529; -193.285; -271.487
409.717;   80.628; -776.273; -692.508
410.007;  148.371;    4.715; -170.486
410.298;  117.895; -360.295; -342.469
410.588;   95.276; -495.285; -510.486
410.878;   54.351; -792.287; -873.482
411.168;  133.085; -481.298; -478.463
411.459;  141.943; -295.283; -242.489
411.749;   92.204; -609.292; -507.474
412.039;   90.160; -755.289; -386.480
412.329;  237.627;   40.722;  132.501
412.619;  225.165;  -62.286; -148.485
412.909;  382.381;  639.711;  594.521
413.199;  340.354; -130.280; -251.495
413.490;  409.169;  521.710;  352.523
413.780;  234.134;-1013.279; -913.496
414.070;  401.751;  -46.276;  235.497
414.360;  428.448; -729.278; -666.498
414.650;  575.321; -726.288; -688.482
414.940;  768.908; -538.280; -441.496
415.230; 1257.643;   50.712;   74.519
415.520; 8731.767;  155.730;   66.486
415.809;35231.038; -305.281; -125.493
416.099;26482.764; -388.277; -229.501
416.389; 7860.090;  435.726;  236.494
416.679; 4591.419;   91.738;   85.473
416.969;  790.582; -527.287; -503.483
417.259;  664.361;  341.721;  171.503
417.549;  908.986;  522.718;  318.508
417.838; 2471.038; -205.268; -147.518
418.128; 8508.126;  650.710;  492.522
418.418; 6974.861; -491.272; -579.509
418.708; 4607.815;    9.726;  -48.506
418.997;18135.810; -474.275; -480.505
419.287;18321.624; -733.273; -790.507
419.577;17959.667; -160.283; -123.489
419.866;57532.761; -588.277; -498.501
420.156;55806.712; -242.270;  -55.513
420.446; 9271.610; -112.263;  -26.526
420.735;  912.904; -376.271; -446.512
421.025;  913.222; 1830.722;  315.502
421.314;  563.152; -203.271; -226.512
421.604;  724.404;   89.732;  233.484
421.893;  448.747; -705.271; -602.511
422.183;  302.910; -487.263; -461.526
422.472;  412.999;  -36.271; -107.511
422.762;  414.010; -416.266; -379.521
423.051;  294.526; -916.276; -916.503
423.341;  358.826; -491.273; -439.507
423.630;  413.692; -121.265;   15.477
423.919;  429.159;   58.725;   49.495
424.209;  503.842;  -31.263;   56.473
424.498;  657.784;   68.732;  161.483
424.787; 1513.717; -535.267; -601.518
425.077; 4427.490;   34.735;   29.478
425.366; 4762.724; -734.262; -744.528
425.655;13708.727;  639.727;  259.493
425.945;35165.008; -313.247; -268.554
426.234;18540.027;  117.741;  300.467
426.523; 7484.733;  -86.259; -350.534
426.812;10030.755;  107.734;  159.480
427.101;15225.199; -127.269; -323.515
427.390;17703.042;  -55.270;  -86.514
427.680; 2550.332; -624.257; -411.538
427.969;  533.671; -330.255; -301.540
428.258;  378.797; -385.257; -477.536
428.547;  511.241;  449.728;  397.490
428.836;  754.265; -421.253; -398.543
429.125; 1038.210; -199.259;  -72.534
429.414;  818.568; -330.251; -294.548
429.703; 4651.143; -231.251; -213.548
429.992;14368.848; -938.250; -828.549
430.281; 9055.476; -397.264; -331.524
430.570;  636.557;  -21.252;   32.454
430.859;  468.132;  279.741;  352.466
431.148;  434.277;  636.752;  631.446
431.437;  356.806;  391.748;  367.454
431.725;  235.124; -544.257; -481.536
432.014;  235.099; -845.253; -756.545
432.303;  443.821; -149.239; -105.569
432.592;  581.934; -460.263; -178.525
432.881; 1458.454; -601.248; -437.554
433.169; 9717.897; -343.255;  -61.540
433.458;19713.612;  445.765;  540.424
433.747; 7664.806; -397.261; -289.529
434.036;  965.241; -275.242; -280.564
434.324; 2993.938; -395.249; -379.551
434.613; 5395.083;   40.757;  159.437
434.902; 1538.883;  333.760;  439.433
435.190;  310.919;   75.761;  295.431
435.479;  191.385;  -52.245;   83.441
435.767;  104.395; -411.244; -427.561
436.056;  218.536; -340.242; -294.563
436.345;  530.536; -372.240; -223.568
436.633;  471.007;   60.750;  383.450
436.922;  208.314;  208.760;  414.432
437.210;  239.075; -194.236;    1.426
437.499;  537.110; -583.235; -432.576
437.787;  595.049; -339.236;  -10.574
438.075;  192.676;   56.761;  162.430
438.364;  229.454;  -44.238;  250.429
438.652;  127.008; -286.226; -138.592
438.941;  104.189;    3.770;  269.415
439.229;   10.603; -665.252; -466.545
439.517;   37.470; -160.234;  -85.577
439.806;   10.477; -501.225; -290.595
440.094;  152.680;  377.766;  650.421
440.382;   49.559; -653.233; -302.580
440.670;   62.384; -361.235; -285.576
440.959;   13.549; -347.223; -170.599
441.247;   61.303; -151.229; -109.587
441.535;   48.118; -266.235;   31.423
441.823;   15.801; -497.234; -305.578
442.111;  159.058;  173.771;  327.412
442.400;  286.360; -628.245; -335.559
442.688;  539.254; -111.234; -620.579
442.976;  269.232; -786.213; -450.617
443.264;   43.761; -324.224; -364.597
443.552;   71.609; -258.226;   51.408
443.840;  144.342;  602.765;  876.423
444.128;   90.183;  265.767;  269.420
444.416;    1.586; -694.228; -312.588
444.704;   23.260; -465.219;  -92.605
444.992;   62.588;   -0.226;  240.407
445.280;   21.990; -517.230;  -94.585
445.568;   -0.914; -694.212; -396.618
445.856;  153.916; -174.221;  357.398
446.143;  261.881;  -54.220;   -7.604
446.431;  250.716;  -25.228;  625.411
446.719;  172.459;  489.783;  675.391
447.007;  166.183;  481.769;  705.416
447.295;  166.320;  597.777;  871.402
447.583;   93.625; -464.229;  -34.587
447.870;   98.762; -434.221; -202.601
448.158;  245.338; -104.230;  129.415
448.446;  161.407; -800.219; -338.604
448.733;  141.537;   13.776;  269.403
449.021;  208.736;   60.788;  341.382
449.309;  172.679; -296.210;  208.379
449.596;  245.604;  128.783;   59.392
449.884;  205.279; -571.222; -325.600
450.172;  299.972; -756.227; -406.590
450.459;  663.411;  645.786;  780.387
450.747; 3867.328; -411.218; -147.608
451.034;12427.692;  493.772;  889.411
451.322; 9936.240; -413.214; -170.614
451.609;  764.614;  292.777;  508.403
451.897;  931.582; -550.203; -183.634
452.184; 2822.020; -622.223; -400.598
452.472; 2466.705;   97.792;  269.375
452.759;  356.833;  512.781;  864.395
453.047;   98.783; -407.212; -125.617
453.334;   58.217; -732.219; -216.606
453.621;   56.418; -438.214; -161.615
453.909;  110.247;   13.796;  384.368
454.196;  127.803; -299.199; -123.641
454.483;  243.273;  317.798;  540.364
454.771;  159.409; -215.208;  196.374
455.058;   56.163; -316.207;  102.374
455.345;  158.745;   71.807;  344.347
455.632;  138.292; -128.207;  235.373
455.919;   77.655;  -82.196;  182.354
456.207;  -38.992; -774.198; -450.642
456.494;    6.137; -475.200;  -66.639
456.781;   31.992; -399.202; -198.635
457.068;   65.050; -253.206;  -29.628
457.355;    9.052; -698.206; -401.629
457.642;   29.733; -552.205; -290.630
457.929;   26.459; -778.194; -417.651
458.216;  159.458; -575.212; -354.617
458.503;  401.090; -173.193;  -19.652
458.790;  439.756; -864.208; -630.625
459.077;  407.698;  -77.202;  110.364
459.364; 1216.776; -350.195; -210.649
459.651; 2626.248;  -46.206;  220.372
459.938; 1161.645; -864.209; -665.623
460.225;  119.052;  132.799;  276.363
460.512;  -12.973; -836.197; -688.645
460.799;  137.976;  -32.218;  320.392
461.086;  123.418; -370.200; -251.640
461.372;   22.009; -509.198; -279.642
461.659;   82.882; -165.196;  108.354
461.946;   35.638; -445.193;  -54.651
462.233;  226.240;  842.800;  888.361
462.519;  505.261; -814.201; -464.639
462.806; 1562.377; -768.197; -497.645
463.093; 1297.689; -445.191;  -66.656
463.380;    7.390; -920.186; -824.664
463.666;   74.055; -259.197;  -18.646
463.953;  139.344; -406.195; -243.648
464.239;  281.519; -173.195;  -77.648
464.526;  424.258;  413.806;  743.350
464.813;  334.028; -565.190; -304.658
465.099;  360.640;  606.807;  607.348
465.386;  279.995;  903.807;  921.348
465.672;   24.103; -694.197; -522.645
465.959;   50.750; -598.188; -520.662
466.245;   19.770; -468.193; -359.652
466.532;   70.742; -109.195;   63.352
466.818;   37.989; -357.186; -216.664
467.104;   -2.636; -488.182; -415.672
467.391;    4.730; -628.189; -459.658
467.677;   37.094; -289.186;    9.335
467.964;   -3.337; -682.189; -471.660
468.250;   55.797; -331.186; -160.665
468.536;   84.282;   90.811;  180.341
468.822;    4.687; -821.184; -574.668
469.109;  156.438;  351.827;  471.311
469.395;  214.932;  729.808;  787.346
469.681;  243.611;   46.811;  156.341
469.967; 1817.191; -699.188; -382.660
470.254; 4107.451; -494.188; -306.662
470.540; 2558.855; -601.196; -476.646
470.826;  384.052; -488.181; -397.675
471.112;  413.141;  288.816;  113.331
471.398;   90.647; -253.183;  -58.670
471.684;   66.512; -626.177; -447.680
471.970;   53.532; -918.180; -981.675
472.256;   60.330; -521.192; -441.654
472.542;   43.901; -499.171; -434.691
472.828;   46.509; -743.182; -607.672
473.114;   49.405; -380.166; -283.700
473.400;   23.582; -504.175; -293.684
473.686;   52.613; -452.166; -400.701
473.972;   66.725; -230.174; -131.687
474.258;   -3.912; -925.173; -843.689
474.544;  328.752; -183.178;   -2.679
474.830;  504.609;  -65.175;   45.316
475.116;  827.830; -123.190; -196.658
475.401; 1085.485; -558.180; -467.676
475.687;  298.234; -725.180; -718.676
475.973;   12.794; -673.181; -770.673
476.259;  248.437;  736.825;  764.315
476.544;  564.697; -539.176; -437.682
476.830; 1390.022; -398.172; -322.690
477.116; 1222.545; -430.177; -336.682
477.401;  176.459;  346.820;  358.324
477.687;    5.233; -289.175; -405.684
477.973;   50.073;   21.819;   28.326
478.258;   15.413; -448.163; -348.706
478.544;   53.128;   21.815;   61.334
478.829;  -48.342; -818.171; -738.692
479.115;  -32.304; -749.172; -651.690
479.401;   17.895; -444.174; -449.686
479.686;   64.683; -253.180;  -74.676
479.972;   12.383; -886.178; -776.680
480.257;   69.007; -258.166;  -65.700
480.542;   48.113; -614.170; -469.693
480.828;  264.980; 1288.824; 1392.317
481.113;  -12.122; -464.176; -426.683
481.399;   12.592; -236.161; -202.711
481.684;  -34.919; -620.166; -462.700
481.969;   27.459; -158.159;  -73.713
482.255;    1.976; -439.169; -285.695
482.540;   35.184; -569.178; -441.680
482.825;   44.983; -395.187; -404.663
483.110;  152.805;  -85.169; -105.696
483.396;  373.510; -840.157; -652.718
483.681;  779.526;  543.826;  730.313
483.966;  324.351; -696.160; -700.712
484.251;   16.499; -404.174; -310.687
484.536;   36.119; -356.165; -378.703
484.822;   51.428; -205.173; -218.687
485.107;   -9.693; -599.152; -502.726
485.392;  131.801;  662.836;  541.296
485.677;   80.367;  354.832;  163.302
485.962;  128.432;  160.843;  270.283
486.247;  118.523;  -14.162;   -8.707
486.532;   89.333; -178.166; -325.701
486.817;  170.760;  381.839;  431.291
487.102;  146.161; -453.154; -514.722
487.387; 1081.912; -637.156; -652.718
487.672; 1968.208; -154.164;  -38.705
487.957; 1204.494; -394.160; -286.711
488.241;  355.028; -290.150; -314.729
488.526; 1192.559; -280.152; -148.726
488.811; 1976.861; -881.177; -818.680
489.096; 1386.489; -666.154; -702.723
489.381;  701.579;    3.847;  162.275
489.666;  666.092; -428.161; -510.710
489.950;  224.593;  558.846;  627.277
490.235;  -18.054; -480.151; -458.728
490.520;  -27.809; -756.161; -723.710
490.804;  -26.710; -827.156; -736.719
491.089;   26.122; -469.149; -299.732
491.374;   43.281; -132.164;  -75.704
491.658;   -4.414; -817.147; -717.735
491.943;  137.464; -657.152; -609.727
492.227;  219.556; -178.155;  -38.721
492.512;   52.732; -294.157; -341.717
492.797;  -52.261; -713.149; -716.731
493.081;  -44.886; -588.147; -598.735
493.366;  -18.283; -751.161; -635.711
493.650;  218.830;  831.859;  917.254
493.935;   82.885; -648.147; -447.734
494.219;  -21.361; -778.142; -687.743
494.503;  -22.067; -585.150; -487.730
494.788;   74.346;   46.842;   74.285
495.072;  120.329;  184.850;  434.271
495.356;  242.126; -463.148; -343.733
495.641;  535.297; -812.146; -736.736
495.925;  450.096; -976.156; -903.719
496.209;   11.146; -599.149; -451.732
496.494;  -21.510; -763.142; -544.744
496.778;   18.436; -364.154; -360.722
497.062;  -26.930; -819.156; -627.719
497.346;   28.571; -869.160; -640.711
497.631;  191.005;  580.852;  560.266
497.915;   86.335;  -64.145;  175.261
498.199;   48.910; -341.157; -277.718
498.483;   57.982; -562.152; -508.725
498.767;  266.206;  301.850;  300.271
499.051;  287.543; -126.149; -100.732
499.335;   87.741; -693.149; -739.731
499.619;  -28.921; -381.129; -423.767
499.903;   22.104; -272.155;  -65.721
500.187;   33.620; -588.153; -316.724
500.471;   44.763; -796.152; -595.727
500.755;   98.816;   62.839;  -96.710
501.039;    4.880; -270.155; -357.721
501.323;   86.107;  -21.141;  264.254
501.607;   32.338; -447.163; -503.706
501.891;    9.537; -607.156; -512.718
502.174;  -43.201; -726.144; -585.741
502.458;   66.793;   89.849;  370.273
502.742;   60.786; -180.138; -191.751
503.026;  197.485; -412.147; -254.734
503.310;  316.707; -437.159; -375.713
503.593;  210.587; -464.147; -325.735
503.877;  138.936; -232.133; -156.760
504.161;  200.348;    2.847;  -50.724
504.444;  195.074; -841.158; -710.716
504.728;  758.455; -487.164; -522.704
505.012; 1110.977; -257.150;  -76.729
505.295;  845.117; -417.161; -212.711
505.579;  841.870; -256.156; -496.719
505.862; 1271.981; -555.145; -333.738
506.146; 1278.685; -681.159; -758.714
506.429;  555.711;  568.841;  461.286
506.713;  139.473; -732.151; -667.728
506.996;  497.561;   90.846;  295.278
507.280;  559.374; -633.165; -474.703
507.563;  381.903; -469.155; -261.721
507.847;  197.821; -423.153; -112.724
508.130;  187.493; -665.161; -456.711
508.413;  234.451; -758.167; -577.700
508.697;  403.227; -151.167;   12.300
508.980;  280.023; -422.153; -312.724
509.263;   41.198; -466.155; -450.720
509.547;   51.151; -124.150;   82.271
509.830;   64.571; -172.160;  140.289
510.113;  107.345;  128.844;  298.281
510.396;   56.480; -530.152; -300.725
510.680;   51.658; -818.145; -812.738
510.963;  224.191;  184.846;  180.277
511.246;  116.111; -493.150; -357.730
511.529;  302.414; -482.145;  -83.739
511.812;  643.856; -250.134;   10.241
512.095;  476.820; -740.151; -396.728
512.378;  116.192; -317.147; -245.736
512.661;   92.596; -703.137; -623.753
512.944;  104.892; -750.142; -637.744
513.227;  102.392; -170.137; -171.752
513.510;   76.199; -479.144; -671.741
513.793;   52.712; -485.140; -435.747
514.076;  168.305;  -43.127;  -39.771
514.359;  163.622; -294.149; -135.732
514.642;  158.520; -442.142; -567.744
514.925; 1151.285;  581.860;  561.253
515.208; 1691.677; -498.134; -443.758
515.491; 1049.294; -276.133; -182.761
515.773;  604.079; -410.143; -337.742
516.056; 3271.703;  249.864;  409.246
516.339; 4331.708; -754.136; -652.755
516.622; 2022.683; -518.150; -488.730
516.904;  561.512;  882.857;  975.257
517.187;  216.491; -730.138; -523.752
517.470;  416.686; -568.143; -510.743
517.752;  720.137; -624.136; -470.756
518.035;  608.525; -708.139; -725.749
518.318;  633.558; -799.136; -744.755
518.600; 3982.398; -300.132; -325.762
518.883; 5502.394;  310.858;   88.256
519.165; 2512.507; -585.138; -426.751
519.448;  443.823;  -61.132;  -19.762
519.730;  207.489; -573.126; -415.773
520.013;  238.014;  588.867;  664.240
520.295;  316.884;  -94.134;  -15.759
520.578;  641.964; -335.131; -305.764
520.860;  863.973; -254.132;   56.238
521.143;  648.764; -763.135; -584.756
521.425;  592.630; -251.125; -279.775
521.707;  999.105; -622.127; -380.771
521.990; 2817.531; -199.127;  167.229
522.272; 3264.589; -116.140;   -4.748
522.554; 1181.130; -237.143; -157.742
522.836;  248.631;  -24.134;   99.241
523.119;  191.208; -496.148; -189.734
523.401;  181.797; -448.130; -314.766
523.683;  173.371; -865.137; -693.753
523.965;  438.663;  408.862;  260.248
524.247;  435.306;   54.878;  170.220
524.529;  328.758; -451.134; -367.759
524.812;  497.000;   -3.130;  191.234
525.094; 1415.712; -773.138; -631.751
525.376; 2216.566; -143.124;   78.223
525.658; 1347.355; -441.136; -339.754
525.940;  103.385; -805.131; -671.764
526.222;   44.334; -188.136;  -88.755
526.504;   67.232; -190.131;   32.237
526.786;   32.437; -960.133; -647.760
527.068;  113.298; -124.123;  -67.778
527.349;    9.376; -865.137; -774.754
527.631;  136.548; -137.132;   22.238
527.913;  234.654; -664.127; -450.771
528.195;  316.946; -761.125; -639.774
528.477;  378.927;  -93.134;  -30.758
528.759;  283.075; -648.130; -522.766
529.040;  155.446; -569.123; -293.778
529.322;   81.774; -235.125;  -10.774
529.604;  101.527;  -47.130;   93.233
529.886;   54.238; -546.126; -302.773
530.167;   75.042;  232.870;  192.235
530.449;   67.266;    1.853;   63.265
530.731;   68.080; -572.122; -459.779
531.012;  159.730; -513.120; -216.784
531.294;  132.028; -118.116;  -43.792
531.575;  201.630;  290.875;  538.225
531.857;  150.171; -548.135; -266.757
532.138;  135.905; -113.141;   40.254
532.420;  122.141;  294.865;  403.244
532.701;   86.514; -722.133; -751.760
532.983;  191.143;  232.867;  182.239
533.264;   64.036; -243.126;  175.228
533.546;  -26.266; -491.136; -508.755
533.827;   24.135;  173.867;   -1.759
534.109;   12.246; -352.135;  -80.757
534.390;  111.803; -725.132; -582.762
534.671;  313.141; -270.135;  -82.756
534.953;  213.199; -751.123; -611.779
535.234;   65.560; -426.117; -255.789
535.515;  -31.760; -891.119; -735.785
535.796;   -4.026; -431.128; -193.770
536.078;  -86.485;-1050.124; -904.777
536.359;   21.250;  -22.123;    3.221
536.640;    5.298; -480.125; -197.774
536.921;  169.809;  225.871;  143.232
537.202;  547.158;  -87.138;  -16.751
537.483;  686.963;  251.869;  377.236
537.764;  267.242;   17.870;   98.235
538.045;  -39.099; -543.134; -371.758
538.326;  -20.064; -596.129; -447.768
538.607;   90.706; -686.127; -476.771
538.888;  284.444;   98.879;    5.218
539.169;  311.137; -704.122; -535.781
539.450;  414.282;  236.871;   16.233
539.731;  279.999; -361.121; -182.783
540.012;  159.980;  199.880;  412.216
540.293;   89.409;   82.876;  158.224
540.574;   10.929; -895.113; -717.796
540.855;  518.422;  435.879;  377.218
541.136;  659.234;   47.878;  139.220
541.416;  381.900; -161.130; -220.766
541.697;  331.683; -274.131; -170.763
541.978; 1663.469; -270.135; -315.757
542.259; 2119.681; -211.127; -236.771
542.539;  974.196; -191.116; -186.790
542.820;  223.929;  461.875;  480.225
543.101;  156.535;  -52.145;  -77.738
543.381;   52.130; -638.127; -591.771
543.662;  382.053;  159.873; -254.771
543.942;  976.400; -751.127; -830.770
544.223; 1654.436;  193.878;  161.219
544.504; 1102.890; -275.124; -182.777
544.784;  876.913; -592.126; -408.773
545.065; 2548.075;  104.884; -254.791
545.345; 2963.091;  227.881;   14.215
545.626; 1980.603;  -14.113; -108.796
545.906; 1418.141;   77.869;   98.235
546.186;  601.394;   92.874;  -95.773
546.467;  324.893;   99.877;  -95.778
546.747;  530.370;  264.884;  327.210
547.027;  590.913;   91.876;  111.223
547.308;  587.399; -376.127; -530.770
547.588;  579.612;  299.871;  371.232
547.868;  267.743;  458.870;  588.235
548.149;  256.884;  609.885;  593.207
548.429;  251.704; -347.127; -299.771
548.709;  378.255; -645.120; -461.784
548.989;  783.852;   84.882;   88.213
549.269; 3307.571;   10.868;  139.239
549.550; 7831.998;  215.877;  117.222
549.830; 6983.100; -758.111; -556.799
550.110; 1358.459; -468.110; -320.801
550.390; 1315.780; -128.122;  -56.779
550.670; 1921.747; -868.114; -783.795
550.950; 1335.697; -509.121; -471.782
551.230;  255.092;  549.879;  460.218
551.510;   43.045; -381.121; -326.782
551.790;   83.394; -173.109; -127.803
552.070;  344.893;  940.877; 1181.223
552.350;  710.370; -492.119; -377.786
552.630;  999.789;   -2.121;   77.219
552.909;  565.001;  181.884;   73.209
553.189;  406.479;  -49.132;   33.237
553.469;  379.845; -703.119; -514.786
553.749;  383.958; -469.127; -357.772
554.029;  281.015;   33.883;  -24.790
554.308;  264.264; -154.115;  -37.794
554.588;  163.273; -196.128; -204.770
554.868;  155.148; -366.121;  -47.782
555.147;  270.236; -114.115;  -46.793
555.427;  949.529; -260.116; -250.792
555.707; 6240.608; -284.115; -200.793
555.986; 7809.579; -719.111; -538.800
556.266; 3937.319;   23.884;   72.210
556.546;  254.820; -888.121; -675.782
556.825;  459.770; -657.114; -556.794
557.105; 2928.820; -125.128;   17.230
557.384; 3471.974;  122.884;  187.209
557.664; 1323.628; -717.116; -508.792
557.943;  233.147; -557.121; -411.782
558.222;  338.306; -345.118; -344.788
558.502;  407.138; -116.115;  -76.793
558.781;  729.582;  194.885;  499.208
559.061;  682.831; -232.118; -227.788
559.340;  473.237;  302.883;  353.211
559.619; 1190.544;   93.884;  148.210
559.899; 1725.264; -239.117; -266.789
560.178; 1536.662; -778.115; -593.793
560.457; 4869.466; -623.117; -562.790
560.736; 6973.255; -472.111; -482.800
561.015; 4521.393; -500.128; -502.769
561.295;  555.493;  180.893;  215.193
561.574;  447.634;  119.885;  116.207
561.853;  730.649;  274.891;  303.197
562.132;  791.315;  -45.114;  182.206
562.411;  690.515;  396.879;  553.219
562.690;  288.582; -592.115; -458.792
562.969;  197.036;  472.888;  630.203
563.248;  537.962; 2966.878; 2487.219
563.527;  474.879; -290.111; -408.800
563.806;  670.054; -650.127; -521.771
564.085;  692.337; -297.105; -206.810
564.364;  446.593; -594.117; -405.790
564.643;  830.415; -276.121; -223.781
564.922; 3001.291;  221.890;  397.198
565.201; 3153.121; -640.109; -700.803
565.479; 1307.180; -297.115; -219.792
565.758;  609.321; -810.128; -712.770
566.037;  781.047; -155.109; -100.803
566.316;  378.875; -286.116;  -28.791
566.595;   81.584;  -17.115;  -12.793
566.873;  120.557; -166.111;  -79.801
567.152;  -15.789; -490.113; -590.797
567.431;   48.395; -113.116;    6.210
567.709;   64.118; -344.107; -212.807
567.988;  489.594; -810.114; -769.794
568.266;  874.909; -160.115;  -68.793
568.545;  678.794; -644.100; -514.819
568.824;  951.604;  160.885;  356.208
569.102;  976.644; -351.114; -235.794
569.381;  433.903; -492.116; -407.792
569.659;    3.006; -553.113; -553.796
569.938;  131.410; -743.122; -465.780
570.216;  210.300; -225.109; -225.804
570.494;   33.548; -632.114; -572.795
570.773;   51.720;  202.879;  114.218
571.051;   59.022; -373.123; -357.778
571.330;  132.553; -221.113; -174.796
571.608;   98.291; -181.098; -173.823
571.886;  -37.803; -671.111; -581.799
572.164;  -22.327; -739.121; -621.782
572.443;    6.191; -562.105; -512.811
572.721;   -1.834; -399.117; -289.790
572.999;    1.784; -280.117; -168.788
573.277;  117.408;  379.894;  620.191
573.555;  466.461;   94.894;   37.190
573.834; 2263.558;  -86.117; -114.788
574.112; 2543.221;  880.893;  811.193
574.390;  766.856; -143.111;  -96.801
574.668;   46.762;  -91.112;  -61.797
574.946;   15.786; -165.106; -187.810
575.224;   31.571;   71.891;  -16.803
575.502;    7.472; -200.116; -204.791
575.780;  -56.561; -767.112; -829.798
576.058;  231.305; 1589.889; 1004.200
576.336;   -1.138; -210.110; -129.801
576.614;  -33.711; -511.112; -340.798
576.891;  165.989; -711.115; -823.794
577.169;  847.160; -158.108; -285.805
577.447;  932.520;  169.893;  202.193
577.725;  379.219;  629.888;  854.201
578.003;   51.367;  -71.112; -371.798
578.280;  144.627; -208.104; -242.812
578.558;  109.413; -450.115; -422.793
578.836;  165.748; -210.114; -145.795
579.114;  117.387; -630.112; -670.797
579.391;   83.360;   -6.117;  -18.789
579.669;  -37.885; -595.114; -704.794
579.947;  282.716; -326.107; -127.806
580.224;  607.091; -692.107; -524.806
580.502;  509.996;  127.893;   76.193
580.779;   43.967;  -42.117;   75.210
581.057;  -50.124; -584.109; -470.804
581.334;  -65.680; -726.102; -695.815
581.612;   32.312;   54.895;  511.190
581.889;   -6.488;  -83.101; -129.818
582.167;  -19.821; -298.099; -190.821
582.444;  -81.445; -845.102; -814.817
582.721;  105.956;  657.899;  715.183
582.999;  108.276; -326.100; -167.821
583.276;  934.652; -812.123; -713.779
583.553; 1240.349; -364.102; -294.816
583.831;  443.723; -607.104; -631.812
584.108;   85.358;  349.892;  174.195
584.385;   49.170; -122.102;  -98.815
584.662;  -23.443; -651.111; -828.801
584.940;   45.256;  204.889;  204.199
585.217;   -1.044;  -73.113; -303.796
585.494;   50.042;   71.890;  118.198
585.771;  357.327; -250.109; -354.804
586.048;  797.456; -196.113;  -76.796
586.325;  545.760; -721.110; -773.801
586.602;  154.478;  230.896;  213.188
586.879;   44.497; -499.100; -580.820
587.156;  105.263; -156.105; -331.810
587.433;   22.152; -701.102; -667.817
587.710;  113.715;  152.888;  234.202
587.987;  473.544; -264.105; -236.811
588.264; 1196.066;  315.888;  387.202
588.541; 1972.806;  -61.104;   26.187
588.818; 4101.379;   72.892;  171.196
589.095; 3502.950; -163.104; -174.812
589.371;  609.099; -459.109; -414.804
589.648;   56.621; -581.107; -437.807
589.925;  103.174; -517.114; -621.795
590.202;  114.014; -741.112; -607.798
590.478;  164.246; -166.105;  -73.811
590.755;  419.412; -241.108; -132.806
591.032; 3850.938; -741.110; -699.802
591.308; 5527.815; -732.094; -790.831
591.585; 2795.138; -573.110; -560.802
591.862;  331.829;-1056.102; -950.817
592.138;  154.984; -475.108; -474.805
592.415;  273.329; -486.104; -495.813
592.691; 2165.626;  460.896;  518.188
592.968; 2972.168; -208.098; -123.824
593.244; 1429.145; -695.116; -595.790
593.521;  130.030; -105.102;  -42.817
593.797;   45.182; -810.122; -720.780
594.074;  564.859; -611.096; -588.826
594.350;  970.248;  828.905;  729.172
594.626;  479.083; -303.111; -283.801
594.903;  246.480; -643.101; -645.817
595.179;  285.008;  243.896;  418.187
595.455;   38.398; -136.107; -150.807
595.731;   19.735;  -19.103;  -38.814
596.008;  -17.374; -464.111; -434.800
596.284;   89.949; -187.100; -242.820
596.560;  148.348; -501.093; -493.833
596.836;  358.515; -173.105;  -70.810
597.112;  620.735; -582.108; -437.805
597.388;  479.081;  -49.097;  -48.826
597.665;  146.934;  437.887;  530.203
597.941;  -27.791; -572.089; -658.839
598.217;   66.442; -323.110; -293.802
598.493;  413.279;   61.891; -204.804
598.769;  830.942; -175.100;  -50.819
599.045;  544.988; -490.108; -562.806
599.321;  138.373; -193.100; -261.820
599.597;  268.928; -355.109; -476.804
599.872;  749.905;  409.896;  429.187
600.148;  610.683;  -61.097; -172.826
600.424;  462.044;   91.893;  202.193
600.700;  417.847; -170.107; -280.807
600.976;  234.326; -442.097; -464.825
601.252;  442.999; -226.109; -272.803
601.527;  417.957; -833.104; -840.813
601.803;  279.322; -453.105; -404.812
602.079;  310.317; -124.100; -118.819
602.354;  906.460; -620.092; -531.835
602.630; 1339.081; -140.113; -482.796
602.906; 3483.012; -910.101; -863.818
603.181;10590.995; -627.119; -534.786
603.457; 8944.605;   98.903; -278.826
603.733; 1338.450; -605.120; -626.783
604.008; 1447.412; -245.106; -164.810
604.284; 4845.757; -636.101; -580.817
604.559; 4120.969;   -3.112;  -42.799
604.835;  768.065; -163.105; -225.810
605.110;  731.530; -732.099; -892.821
605.385; 1076.752;  224.907;  267.167
605.661; 1073.576; -625.095; -729.829
605.936; 2007.914; -664.108; -737.806
606.211; 1599.843;  -17.103; -170.815
606.487;  362.668; -329.114; -376.794
606.762;  101.521; -791.119; -745.786
607.037;   23.565; -501.105; -433.810
607.313;  -10.982; -589.096; -574.828
607.588;   34.436; -375.106; -137.810
607.863;   89.561;  -28.101; -143.818
608.138;  250.390;  513.890;  516.198
608.413;  126.034; -576.099; -592.822
608.688;  107.534; -203.108; -267.805
608.964;  355.429; -509.106; -218.809
609.239;  427.687; -107.105; -212.810
609.514;  374.647;  281.895;  240.188
609.789; 1087.877; -187.104; -716.812
610.064; 1402.916; -435.096; -609.827
610.339; 1447.174; -855.109; -799.804
610.614; 1992.224; -131.100; -315.820
610.889; 1092.522;  215.895;  107.188
611.163;  116.798; -407.104; -591.812
611.438;  171.394;   81.886; -167.794
611.713;   59.132; -467.101; -499.817
611.988;  118.885; -144.101; -328.818
612.263;   75.470; -771.102; -717.815
612.538;  308.280;  385.887;  251.204
612.812;  369.725; -832.100; -911.820
613.087;  305.141; -358.098; -338.823
613.362;   -4.028; -497.107; -557.807
613.637;   53.913;  261.897;  138.186
613.911;   16.436; -256.092; -345.835
614.186;  227.770; -249.107; -292.807
614.460; 1174.626; -842.081; -758.854
614.735; 1300.913;  -55.087;  -17.843
615.010;  275.075;   43.912;  -82.841
615.284;  361.758;  360.892;  246.195
615.559;  659.860; -792.092; -955.835
615.833;  490.107;  -76.099;  -87.822
616.108;   53.774; -225.090; -390.837
616.382;  204.990;  274.913;  402.156
616.656;  283.050; -241.090; -232.837
616.931;  827.533; -785.099; -700.822
617.205; 1717.282; -973.104; -979.813
617.480; 1572.177;  -91.125;    6.225
617.754;  310.549; -396.125; -128.774
618.028;   80.913; -369.129; -382.768
618.302;  114.057;   73.892;  -25.805
618.577;   -5.035; -371.103; -518.815
618.851;  -30.380; -399.109; -600.803
619.125;  -37.867; -335.134; -378.759
619.399;  -23.717; -244.104; -374.813
619.673;  -27.370; -330.115; -515.792
619.947;  -17.577; -333.114; -448.795
620.222;   13.109; -198.110; -204.801
620.496;   14.397;  -47.121;  -96.782
620.770;   50.962; -187.122;  -93.781
621.044;  302.788;  323.895;  346.190
621.318; 1177.726; -653.120; -614.783
621.592; 1076.573; -430.121; -409.783
621.866;  660.745; -476.112; -572.799
622.140;   74.047; -207.116; -356.791
622.413;   94.375;  138.889;  112.200
622.687;  -15.018; -746.101; -492.817
622.961;   42.132; -130.108; -143.805
623.235;  -18.849; -633.111; -661.800
623.509;  -79.429; -816.105; -848.811
623.783;   33.117;  -12.107;   48.193
624.056;   10.252; -254.120; -280.783
624.330;   85.662;   63.888;   -3.797
624.604;  112.668; -271.116; -355.790
624.877;  119.989;  180.890;   26.198
625.151;  104.766; -249.114; -238.794
625.425;  -29.815; -150.103; -283.814
625.698;  -28.211; -367.119; -374.785
625.972;  -67.333; -799.110; -765.802
626.245;   99.395;  685.884;  484.210
626.519;  -29.343; -426.120; -340.784
626.792;  -24.628; -192.107; -380.807
627.066;  -67.472; -485.122; -662.779
627.339;  -78.563; -736.110; -663.802
627.613;   50.430;  351.880;  148.216
627.886;   83.144;  187.891; -612.803
628.160;   17.500;  312.880; -161.783
628.433;  -80.795; -695.125; -703.775
628.706;  -61.343; -517.120; -615.784
628.979;   51.313;  296.876;  117.223
629.253;  -52.981; -785.119; -833.786
629.526;  628.511; -334.126; -253.772
629.799;  634.272; -641.123; -479.778
630.072;  303.915; -497.128; -516.769
630.346;    2.495;-1115.116;-1080.790
630.619;  737.648; -467.107; -545.808
630.892;  957.802;  709.889;  593.200
631.165;  462.657;  790.896;  679.187
631.438;  -10.858;-1092.112;-1055.798
631.711;   61.476;  453.877;  257.221
631.984;  -32.436; -523.117; -624.789
632.257;  -29.115; -636.117; -681.789
632.530;  -30.936; -412.119; -433.785
632.803;   36.889; -109.115;    7.207
633.076;  -45.207; -360.123; -422.777
633.349;   32.695;  173.872;  121.231
633.622;  -26.463; -187.119; -240.785
633.895; -107.673; -903.120; -823.783
634.167;  -50.261; -496.126; -525.773
634.440;    4.928;  -19.116; -137.792
634.713;   24.318;  -22.119; -120.786
634.986;   93.107;  593.871;  453.233
635.258;  -37.164; -507.115; -597.793
635.531;  100.455;  742.882; -343.788
635.804;  -20.587; -303.117; -318.789
636.077;  -74.802; -830.116; -852.791
636.349;   48.459; -586.115; -474.793
636.622;  447.185; 1695.874; 1392.228
636.894;  416.232; -474.120; -909.784
637.167;  331.353; -836.127; -789.771
637.439;   61.099; -278.128; -213.770
637.712;  -37.562; -312.126; -293.772
637.984;  -56.076; -635.116; -707.791
638.257;  512.769;  515.877;  488.222
638.529;  932.182; -881.125; -924.776
638.802;  415.364; -508.128; -449.769
639.074;  -79.364; -927.122; -952.781
639.346; -107.827; -942.135; -930.757
639.619;   21.443;  -79.142; -319.744
639.891;   -2.422;  -83.122; -168.779
640.163;  -65.519; -689.122; -756.780
640.435;   55.333;  273.878;  103.220
640.708;    6.685;  -72.122; -132.780
640.980;  -21.463; -366.122; -362.781
641.252;  240.565;  -25.121;  -71.781
641.524; 2504.667;  580.879;  573.219
641.796; 2708.894;-1094.121; -907.782
642.068;  487.371; -191.121; -300.782
642.340;  -33.601; -486.121; -566.783
642.613;   49.376;  294.880;  323.217
642.885;  -62.347; -787.120; -878.783
643.157;    5.180; -810.120; -658.784
643.428;   73.658;  170.880;  218.216
643.700;  -55.915; -498.120; -425.784
643.972;  -21.963;  -16.119; -133.785
644.244;  -79.111; -474.119; -559.785
644.516;  -42.933; -250.119; -114.786
644.788;   64.894;  662.881;  548.214
645.060;  -17.654;  -12.119; -124.786
645.332;  -86.277; -525.118; -535.787
645.603;   39.476;  479.882;  342.213
645.875;  -74.822; -334.118; -369.787
646.147;  173.330; 1487.882; 1242.212
646.418;   -4.543; -931.117; -918.788
646.690;  323.910; -714.117; -715.789
646.962;  113.687; -413.117; -451.789
647.233;   -9.111;   15.883;   11.211
647.505;  -92.684; -595.117; -475.790
647.776;   31.818;  328.884;  229.210
648.048;   34.846; -248.116; -418.790
648.320;  -43.052; -752.116; -679.791
648.591; -150.725;-1055.116; -958.791
648.862;  -87.798; -505.116; -577.792
649.134;   22.930;  115.885;  198.208
649.405;    2.707; -661.115; -618.792
649.677;  -31.316; -475.115; -598.793
649.948;   35.536; -181.115; -296.793
650.219;   13.289;  -37.115; -147.793
650.491;  -77.834; -431.114; -520.794
650.762; -110.132; -705.114; -731.794
651.033;  -60.005; -437.114; -424.795
651.304;  -61.927; -743.114; -728.795
651.576;  -25.375; -680.114; -645.795
651.847;  -27.998; -250.113; -140.796
652.118;  -30.696;  -32.113; -189.796
652.389;  -98.793; -639.113; -722.796
652.660;  -30.366; -147.113;  -89.797
652.931; -117.864; -897.112; -871.797
653.202;  -79.762; -382.112; -541.798
653.473;  -45.159; -633.112; -533.798
653.744;  284.243; -595.112; -590.798
654.015;  267.195; -356.112; -303.799
654.286;  -27.653; -642.111; -663.799
654.557;  -23.400; -586.111; -521.799
654.828; -136.273;-1114.111;-1088.800
655.099;  -68.521; -404.111; -291.800
655.370;  -88.194; -427.111; -543.801
655.641; -113.866; -656.110; -714.801
655.911; -101.564; -618.110; -638.801
656.182;   43.238;  437.890;  387.198
656.453;   87.865;  830.890;  746.198
656.724;  -69.357; -466.110; -426.802
656.994;  -60.605; -553.109; -568.803
657.265;  -79.278; -862.109; -873.803
657.536;  -79.351; -500.109; -377.804
657.806;  -97.523; -561.109; -593.804
658.077; -138.321; -866.109; -950.804
658.347;  -80.694; -523.108; -598.805
658.618; -113.767; -646.108; -694.805
658.888;  -26.190;  -41.108;  112.195
659.159;  -61.162; -432.108; -548.806
659.429;   -2.910; -292.108; -349.806
659.700;   67.117; -435.107; -390.807
659.970;   29.094; -370.107; -359.807
660.241;  104.822; -754.107; -921.807
660.511;  817.299; -147.107; -174.808
660.781;  221.701; -793.106; -748.808
661.052;  -30.422; -222.106; -381.808
661.322;  -11.619;   21.894;   -9.809
661.592;   13.508;  257.894;  148.191
661.862;  -64.415; -369.106; -382.810
662.133;  -73.113; -551.105; -502.810
662.403; -100.085; -770.105; -676.810
662.673;  -62.583; -256.105; -213.811
662.943;  -93.956; -612.105; -551.811
663.213;   14.721;  -85.105;  -81.811
663.483;  -67.601; -593.104; -568.812
663.753;  -42.149; -194.104; -152.812
664.023;  -16.847;   68.896;  -32.813
664.293;  -54.720; -319.104; -126.813
664.563;  -90.692; -694.104; -648.813
664.833; -107.990; -743.103; -608.814
665.103; -115.263; -730.103; -793.814
665.373; -103.611; -766.103; -806.814
665.643;  -28.183; -863.103; -918.815
665.913;  109.144; -534.103; -714.815
666.182;  275.896; -685.102; -719.816
666.452;  444.873;  -22.102;  -89.816
666.722;   41.326; -724.102; -784.816
666.992; -108.797; -948.102; -921.817
667.261;  -55.895; -824.102; -808.817
667.531;  289.357;  134.899;   45.183
667.801;  893.185; -440.101; -412.818
668.070;  330.912;  714.899;  697.182
668.340;  -63.161; -883.101; -840.819
668.609;  125.941;  588.900;  301.181
668.879;  -64.756; -490.100; -558.819
669.149;  -54.529; -539.100; -516.820
669.418;  -82.877; -698.100; -726.820
669.688;    6.075; -482.100; -666.820
669.957;  173.377; -423.099; -546.821
670.226;    3.305; -268.099; -331.821
670.496;  -73.943; -431.099; -635.822
670.765;  -75.416; -418.099; -501.822
671.034; -109.489; -872.099; -828.822
671.304;   -8.536;   55.902; -111.823
671.573; -125.884;-1085.098; -957.823
671.842;  156.993; -380.098; -294.823
672.112;  119.870; -692.098; -586.824
672.381;   39.298; -239.098; -214.824
672.650;  -99.450;-1005.097;-1021.825
672.919;  -68.548; -631.097; -507.825
673.188;  -87.796; -681.097; -878.825
673.457; -120.568;-1101.097;-1143.826
673.726;  -55.191; -579.096; -646.826
673.995;  -15.389; -533.096; -479.826
674.265;   21.663; -263.096; -333.827
674.534;   41.066; -183.096; -235.827
674.802;   67.018; -618.096; -703.828
675.071; 1430.595; -886.095; -801.828
675.340; 6216.522; -464.095; -339.828
675.609; 2064.600;  103.905;   82.171
675.878;  202.102; -949.095; -893.829
676.147;   78.954;  -26.095;   -8.829
676.416;  149.431; -210.094; -294.830
676.685; 1057.384; 1000.906; -622.830
676.953;  254.261; -603.094; -452.831
677.222;    3.438; -193.094; -273.831
677.491;  -10.860;  -24.094; -127.831
677.759;   -6.782;   11.907;  172.168
678.028;   14.520; -279.093; -222.832
678.297;    4.672;   71.907;  197.168
678.565; -108.576; -898.093; -944.833
678.834;  -61.173; -311.093; -268.833
679.102;  -72.071; -411.092; -391.834
679.371; -126.469; -898.092; -727.834
679.639; -111.517; -797.092; -786.834
679.908; -109.939; -794.092; -724.835
680.176; -141.137; -895.091; -941.835
680.445;  -58.135; -346.091; -352.835
680.713;   -8.408;  -58.091;  -23.836
680.982;  -87.456; -523.091; -525.836
681.250; -104.953; -578.091; -507.837
681.518;  -91.751; -534.090; -751.837
681.787;   10.251; -204.090; -167.837
682.055;  -42.847; -490.090; -422.838
682.323; -129.819; -993.090; -992.838
682.591;   69.908; -216.090; -538.838
682.859;  164.860;    9.911;  -35.839
683.128;   28.787;  232.911;  497.161
683.396; -145.985;-1102.089;-1122.840
683.664;  -41.308; -241.089;   21.160
683.932;   -1.456;  144.911;  -76.840
684.200;  -63.529; -576.088; -320.841
684.468;   -1.876;  -73.088; -124.841
684.736;  -26.299; -214.088; -175.841
685.004;  -95.122;-1024.088; -982.842
685.272;    5.555; -880.088; -774.842
685.540;  -21.017; -499.087; -557.843
685.808;  -62.965; -651.087; -682.843
686.076;  -81.688; -894.087; -969.843
686.343;  -15.361; -601.087; -815.844
686.611;   81.717; -195.087; -224.844
686.879;  622.194; -530.086; -553.844
687.147; 5038.821; -483.086; -480.845
687.414; 1458.273;  -12.086; -169.845
687.682;   70.601; -658.086; -757.846
687.950;  459.228;  259.915;  263.154
688.217;  114.280; -792.085; -760.846
688.485;   38.432; -632.085; -636.847
688.753;  862.560;  -11.085; -102.847
689.020;  385.787; -820.085; -851.847
689.288;  -76.886; -853.084; -787.848
689.555;  -12.034; -195.084; -148.848
689.823;  -49.331; -241.084; -345.849
690.090;  -59.904; -546.084; -651.849
690.358; -143.552; -877.084; -897.849
690.625;   12.650;  120.917;   45.150
690.892;  -49.573; -403.083; -369.850
691.160;   -1.970;   72.917;  -35.850
691.427;    6.107;  141.917;  130.149
691.694; -110.091; -855.083; -929.851
691.962; -112.064;-1177.082;-1060.852
692.229;   22.114;  127.918;   56.148
692.496;  118.916;  130.918;  -49.852
692.763;   37.093; -164.082; -201.853
693.031;  -34.730; -739.082; -716.853
693.298;   -5.677; -509.081; -368.853
693.565;  439.350; -155.081; -163.854
693.832; 2006.327;   -5.081;   -9.854
694.099;  308.354; -643.081; -642.855
694.366;   -8.993; -882.081; -896.855
694.633;  -12.416; -920.080; -633.855
694.900;  742.136; 4367.920; -114.856
695.167;  650.238; -214.080; -380.856
695.434;  184.591; -646.080; -623.856
695.701;  251.943;  121.921;  -61.857
695.968;  694.070; -365.079; -361.857
696.234; 1177.647; -415.079; -646.858
696.501;12373.925; -776.079; -614.858
696.768; 6942.602; -554.079; -617.858
697.035;  442.929; -632.078; -667.859
697.302;   73.681; -448.078; -552.859
697.568;   51.084; -458.078; -497.859
697.835;  -10.314; -683.078; -624.860
698.102;  -10.887; -498.078; -407.860
698.368;   83.890;  384.923;  396.139
698.635;  -20.882;  -47.077; -424.861
698.901;   13.695; -240.077; -348.861
699.168;  149.472; -534.077; -456.862
699.435;  140.199;  -72.077;  -13.862
699.701;  -92.373; -868.076; -764.862
699.968;   23.179;  144.924; -441.863
700.234;  -82.669; -783.076; -822.863
700.500;  -40.692; -448.076; -539.864
700.767;   11.011;   -1.075;   26.136
701.033; -104.412;-1015.075; -963.864
701.299;  -29.660; -450.075; -483.865
701.566;  120.317;  950.925;  763.135
701.832;   45.419;  -31.075;  -76.865
702.098;  -63.378;-1054.074;-1034.866
702.365;  -37.976;-1098.074;-1030.866
702.631;   28.501;-1038.074;-1063.867
702.897; 1793.428; -765.074; -676.867
703.163; 3376.231;  348.926;  254.133
703.429;  260.033; -256.073; -273.868
703.695;   17.735; -796.073; -792.868
703.961;   52.187; -214.073; -210.868
704.227;  -20.610; -630.073; -725.869
704.493;  154.192;  613.927;  510.131
704.759;   13.519; -565.072; -540.870
705.025;   70.846; -203.072; -194.870
705.291;   26.124; -666.072; -562.870
705.557;  211.901;  719.928;   34.129
705.823;   94.353; -742.072; -694.871
706.089;  216.155; -307.071; -326.871
706.355;  440.333; -315.071; -244.872
706.620; 6338.610; -776.071; -729.872
706.886;10474.862; -309.071; -362.873
707.152; 1119.864; -818.070; -973.873
707.418;   48.317;-1153.070;-1186.873
707.683;   41.669; -550.070; -530.874
707.949;  -19.754; -547.070; -578.874
708.215;   24.948; -129.070; -207.874
708.480;    1.401; -520.069; -420.875
708.746;  160.153;   68.931;   28.125
709.011;  -25.220; -578.069; -612.876
709.277;  -67.368; -538.069; -543.876
709.542;  -23.615; -428.069; -387.876
709.808;   19.912;  -59.068;   89.123
710.073;  -59.111; -577.068; -695.877
710.339;  -13.084; -242.068; -228.877
710.604;  135.069; -780.068; -845.878
710.869;  525.171; -277.068; -366.878
711.135;  -34.777; -715.067; -628.879
711.400;  -65.300; -507.067; -608.879
711.665;  -39.647; -404.067; -479.879
711.931;  -78.295; -661.067; -677.880
712.196; -102.368; -876.067; -954.880
712.461;  192.584; -402.066; -490.880
712.726;  310.411; -727.066; -771.881
712.991;  -54.386; -647.066; -664.881
713.256;  -31.434; -350.066; -332.882
713.521;  -35.507; -417.065; -381.882
713.787;  -40.305; -454.065; -472.882
714.052;   -5.327; -214.065; -400.883
714.317;  -57.300;-1045.065; -981.883
714.581; 1280.502; -374.065; -268.883
714.846; 2122.154; -822.064; -888.884
715.111;  184.832;  261.936;  257.116
715.376;   -6.841;  -86.064; -223.885
715.641;   10.186; -365.064; -367.885
715.906;  500.788;   15.936; -551.885
716.171;  211.691;  221.937;  209.114
716.436;   79.543;  -78.063; -104.886
716.700;  -75.255; -818.063; -692.886
716.965;  -99.053; -794.063; -807.887
717.230;  -53.600; -339.063; -392.887
717.494;  -19.523;  -40.062; -134.888
717.759;  -74.946; -784.062; -640.888
718.024;   22.631;  269.938;  250.112
718.288;   84.309;  685.938;  395.111
718.553; -131.289; -803.062; -977.889
718.817; -124.487; -883.061; -899.889
719.082;  -26.310; -115.061; -125.890
719.346; -120.682;-1000.061; -947.890
719.611;  -31.055; -300.061; -255.891
719.875;  -85.703; -568.060; -537.891
720.140;  -40.176; -453.060; -603.891
720.404;   78.252; -136.060; -249.892
720.668; 1290.004; -475.060; -411.892
720.933;  550.981;  146.940;  137.108
721.197;  -63.817; -667.059; -600.893
721.461; -113.514; -851.059; -826.893
721.725;   -6.712;  -21.059; -250.894
721.990;  -44.810; -284.059; -204.894
722.254;  -17.858;  -26.059; -108.894
722.518;  -60.580; -286.058; -442.895
722.782;  -74.503; -743.058; -594.895
723.046;  157.974;  614.942;  570.105
723.310;   21.826;  374.942;  210.104
723.574;  -74.072; -654.058; -614.896
723.838;  -86.019; -576.057; -642.897
724.102;  -26.492; -226.057; -239.897
724.366; -113.540;-1032.057; -978.897
724.630;  -72.238; -749.057; -571.898
724.894;  -63.560; -722.057; -514.898
725.158;  -13.458;   38.944; -295.898
725.422;  -38.206; -394.056; -327.899
725.685;  -50.354; -441.056; -349.899
725.949;  -47.826; -566.056; -519.900
726.213;  -34.049; -732.056; -811.900
726.477;  338.728;-1020.055; -933.900
726.740;  275.955; -274.055; -104.901
727.004;  456.158; -384.055; -510.901
727.268; 4404.385; -442.055; -400.901
727.531; 1523.937; -961.055; -775.902
727.795;   -0.686; -713.054; -673.902
728.059;  -23.908; -552.054; -557.903
728.322;  -39.206; -841.054; -669.903
728.586;  111.796; -692.054; -701.903
728.849;  -53.902; -695.053; -756.904
729.112;  -88.699; -812.053; -912.904
729.376;  -91.597; -959.053; -905.904
729.639;  -54.145; -536.053; -536.905
729.903;  -85.543; -733.053; -699.905
730.166;  -36.815; -437.052; -399.906
730.429;   -8.688; -317.052; -468.906
730.693;  -51.111; -355.052; -894.906
730.956;  225.366;  810.948;  651.093
731.219; 1076.444; -310.052; -103.907
731.482;  239.096;-1003.051; -894.907
731.745;  262.398; -794.051; -935.908
732.009;   35.000;  -30.051;   50.092
732.272;  -81.747; -904.051; -771.909
732.535;  -23.570; -300.051; -310.909
732.798; -129.418;-1083.050;-1166.909
733.061;  -32.791; -430.050; -456.910
733.324;   17.661;   31.950; -180.910
733.587;   73.414;  290.950;  365.090
733.850;  -42.409; -973.049;-1050.911
734.113;   50.718;   33.951;   32.089
734.376;   37.370; -328.049; -447.912
734.639;  258.973; 1188.951; 1011.088
734.901;  140.350; -180.049; -402.912
735.164;  722.627; -883.048; -837.913
735.427; 2077.704; -166.048; -355.913
735.690;  218.832; -205.048; -234.913
735.952;   23.784; -923.048; -925.914
736.215;   51.036;-1113.048;-1009.914
736.478;  122.438; -771.047; -774.915
736.740;  311.166;   33.953;  129.085
737.003;  877.743; -658.047; -672.915
737.266; 6128.745;  -94.047;   46.084
737.528;  742.197; -682.047; -660.916
737.791;  463.850; -316.046; -327.916
738.053; 1005.227;  465.954;  649.083
738.316;13334.929; -162.046; -136.917
738.578;11490.156; -770.046; -736.918
738.841;  703.509; -382.046; -446.918
739.103;  302.761; -875.045; -777.918
739.365;  774.138;   79.955;  -69.919
739.628;   92.065; -884.045; -805.919
739.890;    7.818; -758.045; -710.919
740.152;   -8.855; -692.044; -754.920
740.414;   27.647; -408.044; -359.920
740.677;  -14.876; -785.044; -634.921
740.939;   -7.873; -587.044; -487.921
741.201;  436.279; -432.044; -572.921
741.463;  144.306; -689.043; -745.922
741.725;   40.658;  -21.043; -199.922
741.987;   82.811;  220.957;  116.078
742.249;   89.863; -751.043; -859.923
742.511;  390.815; -703.043; -794.923
742.773;  106.267; -546.042; -546.924
743.035;  159.545;  796.958;  533.076
743.297;    5.897; -963.042;-1013.924
743.559; 1064.549; -278.042; -262.925
743.821;  191.001; -735.042; -744.925
744.083;   45.528;  -44.041; -149.925
744.345;  -42.369; -869.041; -892.926
744.607;   53.583;   75.959;  122.074
744.868;  -20.390; -490.041; -554.927
745.130;  -73.513; -994.041;-1008.927
745.392;   74.140;   -1.040;  -44.927
745.653;   28.967; -411.040; -378.928
745.915;  180.444;  896.960;  631.072
746.177;  103.046;   35.960;  -43.928
746.438;   57.249; -428.040; -543.929
746.700;   11.301; -947.039; -988.929
746.961;   72.128; -659.039; -740.930
747.223;  230.555; -190.039;  -74.930
747.484;  169.983; -391.039; -471.930
747.746;  245.610;  -23.038; -106.931
748.007;  237.962; -647.038; -689.931
748.269;  458.789; -468.038; -440.931
748.530;  822.467; -852.038; -638.932
748.791;  420.769; -354.038; -420.932
749.053;  626.496;  286.963;  163.067
749.314;  706.773; -236.037; -169.933
749.575;  819.876; -945.037; -905.933
749.836; 1243.228; -217.037;   86.066
750.098; 3125.855;  -60.037;  -21.934
750.359;50059.182;  414.964;  555.066
750.620;16068.660; -121.036; -220.935
750.881; 1574.712; -585.036; -513.935
751.142; 1971.239; -950.036; -938.936
751.403;21177.966; -789.036; -705.936
751.664;11938.994;-1034.035; -999.936
751.925;  756.821; -175.035; -262.937
752.186;  445.723; -298.035; -278.937
752.447;  262.275; -590.035; -445.937
752.708;  134.778; -532.035; -648.938
752.969;   82.330; -566.034; -576.938
753.230;   53.882; -777.034; -672.939
753.491;   59.559; -650.034; -631.939
753.751;  120.812;  109.966;   19.061
754.012;  133.039;  258.967;  181.060
754.273;  119.116; -174.033;  -71.940
754.534;   60.343; -487.033; -580.940
754.794;  -54.480; -926.033; -911.941
755.055;  167.798; 1051.967;  881.059
755.316;    2.625; -700.032; -566.942
755.576;   19.627; -606.032; -576.942
755.837;  -13.096; -527.032; -695.942
756.097;    3.207; -530.032; -564.943
756.358;  -39.391; -725.032; -770.943
756.618;   -3.339; -705.031; -641.943
756.879;   38.288; -254.031; -349.944
757.139;  -72.834;-1098.031;-1116.944
757.400;  -20.682; -538.031; -553.945
757.660;    3.745; -365.031; -401.945
757.920;   53.247; -266.030; -228.945
758.181;    9.700; -468.030; -351.946
758.441;  -64.248; -870.030; -809.946
758.701;   -3.671; -308.030; -215.946
758.961;   -6.144; -220.030; -278.947
759.222;  -24.591; -574.029; -502.947
759.482;  -60.114; -683.029; -723.948
759.742;  -61.912; -706.029; -547.948
760.002;   33.065;  -83.029; -143.948
760.262;   29.118;   50.972;  182.051
760.522;  -12.405; -498.028; -574.949
760.782;  -35.428; -738.028; -612.949
761.042;  -13.251; -618.028; -573.950
761.302;   72.752;   55.972;  -18.950
761.562;   75.279; -164.027; -154.951
761.822;  142.681; -710.027; -551.951
762.082;   -5.042;-1104.027;-1093.951
762.342;   81.761; -328.027; -403.952
762.601;  106.413; -567.027; -506.952
762.861;  440.565; -281.026; -207.952
763.121;  414.392; -406.026; -411.953
763.381; 6474.470; -499.026; -485.953
763.640; 9251.572; -139.026; -307.954
763.900;  388.799; -242.026; -203.954
764.160;   99.401; -458.025; -491.954
764.419;    5.904; -726.025; -782.955
764.679;  -60.894; -795.025; -726.955
764.939;   -1.067; -124.025; -210.955
765.198;  -55.640; -608.025; -563.956
765.458;  -72.238; -710.024; -612.956
765.717;  -71.035; -454.024; -590.957
765.976;  -47.883; -428.024; -411.957
766.236;  -64.331; -475.024; -610.957
766.495;   14.496;  260.977;   73.042
766.755;  -37.751;-1090.023; -987.958
767.014;   66.551; -594.023; -665.958
767.273;  -37.822; -373.023; -397.959
767.533;  -36.970; -228.023; -307.959
767.792;  -20.767; -151.022; -188.960
768.051;  -42.665; -228.022; -276.960
768.310;  -60.388; -546.022; -650.960
768.569;    0.114; -161.022;    4.039
768.828;  -10.333; -285.022; -363.961
769.088;  -76.981;-1050.021; -942.961
769.347;  -72.454; -755.021; -599.962
769.606;  -79.427; -876.021; -857.962
769.865;  -96.274;-1016.021;-1033.963
770.124;   27.353; -411.021; -336.963
770.383;  -19.845; -778.020; -910.963
770.641;   26.857; -398.020; -400.964
770.900;  -43.840; -953.020; -846.964
771.159;  -20.613; -851.020; -951.964
771.418;   16.839; -917.020; -779.965
771.677;  184.691; -224.019; -293.965
771.936;  181.469; -794.019; -865.966
772.194; 1994.971; -465.019; -437.966
772.453;13375.648; -213.019; -391.966
772.712; 1043.225;  416.982;  329.033
772.970;  152.953;   32.982;   63.033
773.229;  117.330;  -22.018;  102.033
773.488;  -74.993; -814.018; -770.968
773.746;   55.509;  296.982;  335.032
774.005;    4.662;  190.983;  -22.969
774.263;   21.889;  243.983;  177.031
774.522;  -39.734; -422.017; -548.969
774.780;  -64.782; -484.017; -417.970
775.039;  -86.830; -551.017; -531.970
775.297;  -22.377; -135.016; -351.970
775.555; -101.100; -489.016; -612.971
775.814; -118.523; -618.016; -570.971
776.072; -112.721; -749.016; -740.971
776.330;  -92.343; -630.016; -520.972
776.589; -114.291; -703.015; -721.972
776.847; -106.139; -645.015; -624.973
777.105; -152.362;-1016.015;-1032.973
777.363;  -84.984; -459.015; -454.973
777.621; -128.807; -660.015; -717.974
777.879;  -26.980;  -42.014;   32.026
778.138;  -85.078; -554.014; -717.974
778.396;  -96.250; -585.014; -526.975
778.654; -160.998;-1015.014; -970.975
778.912;  -52.621; -269.014; -371.976
779.170; -121.144; -880.013; -803.976
779.427; -136.091; -922.013; -897.976
779.685; -115.539; -880.013; -832.977
779.943;  -40.462; -654.013; -593.977
780.201; -134.560; -964.012; -883.978
780.459;  -93.882; -651.012; -610.978
780.717;  -70.580; -440.012; -390.978
780.974; -103.428; -449.012; -490.979
781.232;  -64.676; -358.012; -338.979
781.490;  -55.373; -551.011; -472.979
781.747; -100.346; -555.011; -476.980
782.005;   25.381;  462.989;  254.020
782.263; -145.617; -542.011;-1004.981
782.520;  -62.739; -326.011; -501.981
782.778; -152.562;-1013.010;-1051.981
783.035; -162.860; -962.010; -938.982
783.293;  -38.708; -248.010; -206.982
783.550;  -56.530; -134.010; -198.982
783.808; -125.378; -764.010; -776.983
784.065; -134.101; -745.009; -874.983
784.322;  -40.599;   25.991;  -86.984
784.580; -133.346; -915.009; -771.984
784.837;  -86.319; -392.009; -466.984
785.094; -129.192; -783.009; -762.985
785.352;  -51.490; -304.008; -404.985
785.609;  -56.563; -934.008; -839.985
785.866;  -67.185; -345.008; -401.986
786.123;  -36.783; -639.008; -583.986
786.380;  -74.131; -665.008; -604.987
786.637;  -40.904; -225.007; -380.987
786.895;   37.399; -456.007; -543.987
787.152;  -39.374; -135.007; -267.988
787.409;  -39.922; -123.007; -225.988
787.666;  -86.820; -299.006; -378.988
787.923;  -97.392; -616.006; -695.989
788.179;  -98.115; -551.006; -584.989
788.436;  -93.338; -585.006; -585.990
788.693;  -25.061;  -92.006;  -87.990
788.950;  198.142; -125.005; -112.990
789.207;  426.569; -381.005; -372.991
789.464;  -47.154; -161.005; -301.991
789.720;   -7.002;  150.995;  110.009
789.977; -151.399;-1003.005; -671.992
790.234;  -20.022;   44.996;  -66.992
790.490; -139.145; -884.004;-1031.993
790.747;   -2.993;  -85.004;   22.007
791.004;    7.585; -426.004; -348.993
791.260;  -62.938; -430.004; -560.994
791.517;  -89.561; -843.003; -788.994
791.773;  -30.334; -379.003; -342.994
792.030;  -92.281; -596.003; -660.995
792.286;  -79.704; -686.003; -636.995
792.543;  -20.077;  -74.002; -159.995
792.799;  -51.025; -584.002; -382.996
793.055; -134.922;-1179.002;-1210.996
793.312;  -90.895; -827.002; -816.997
793.568;  -56.268; -746.002; -599.997
793.824;   25.884; -226.001; -284.997
794.081;   45.587; -447.001; -508.998
794.337;   80.814; -664.001; -561.998
794.593; 1053.916; -319.001; -271.999
794.849; 7449.843; -746.001; -772.999
795.105;  494.721; -270.000; -261.999
795.361;   52.498; -490.000; -457.000
795.617;  -37.250; -875.000; -945.000
795.873;  -20.775; -360.000; -407.000
796.129;  -21.125; -368.000; -306.000
796.385;  -14.600; -124.000; -156.000
796.641;   70.975;  412.000;  550.000
796.897;  -72.200; -666.000; -635.000
797.153;   71.050;  453.000;  357.000
797.409;  -75.775; -785.000; -868.000
797.665;  -51.775; -625.000; -732.000
797.921;  -48.850; -775.000; -762.000
798.176;  -21.575; -744.000; -747.000
798.432;  -16.450; -824.000; -596.000
798.688;  -35.450;-1174.000;-1078.000
798.943;  105.875; -165.000; -147.000
799.199;   58.225;-1005.000; -959.000
799.455;  272.800;  369.000;  316.000
799.710;  199.600; -813.000; -380.000
799.966;  411.725; -162.000; -160.000
800.221;  598.150; -638.000; -721.000
800.477;11421.600; -743.000; -710.000
800.732;13979.575; -773.000; -800.000
800.988;  816.375;  205.000;  -19.000
801.243; 1492.125; -454.000; -344.000
801.498; 8451.950; -814.000; -739.000
801.754;  638.900; -289.000; -163.000
802.009;  124.200; -257.000; -335.000
802.264;  -20.975; -967.000;-1033.000
802.520;   57.125;  222.000;   -3.000
802.775;  -29.375; -524.000; -359.000
803.030;   65.450;  395.000;  356.000
803.285;  -90.500; -840.000; -903.000
803.540;  -38.050; -686.000; -699.000
803.795;    7.275; -648.000; -583.000
804.051;  -28.625; -279.000; -346.000
804.306;   56.025;  168.000;  128.000
804.561;  197.450;  451.000;  362.000
804.816;  157.400;  714.000;  861.000
805.071;   24.100; -185.000; -280.000
805.325;  363.350; -257.000; -427.000
805.580;  -59.050; -841.000; -877.000
805.835;    8.875; -204.000; -297.000
806.090;  -56.200; -760.000; -676.000
806.345;    3.475; -344.000; -264.000
806.600;  -13.325; -549.000; -632.000
806.854;   -1.600; -408.000; -538.000
807.109;   -3.625; -493.000; -577.000
807.364;   21.450; -407.000; -328.000
807.618;   28.725; -415.000; -381.000
807.873;   99.850; -470.000; -494.000
808.128;  153.075; -257.000; -518.000
808.382;  156.200; -224.000; -332.000
808.637;  110.025; -440.000; -511.000
808.891;  215.850; -257.000; -180.000
809.146;  156.525; -902.000; -794.000
809.400;  353.550; -848.000; -923.000
809.654;  439.075; -779.000; -551.000
809.909;  606.900; -841.000; -927.000
810.163; 6591.675; -813.000; -651.000
810.418;23877.600; -940.000; -861.000
810.672; 1507.475; -685.000; -690.000
810.926;  786.075; -993.000; -973.000
811.180; 1290.200; -439.000; -372.000
811.434;27386.350;  240.000;  135.000
811.689;15600.000; -231.000; -365.000
811.943;  804.000; -936.000; -953.000
812.197;  365.350; -893.000; -671.000
812.451;  158.275; -379.000; -514.000
812.705;   -0.150; -809.000; -619.000
812.959;   19.550; -263.000; -388.000
813.213;   -2.425; -283.000; -209.000
813.467;   61.550;  470.000;  253.000
813.721;  -87.025; -764.000; -792.000
813.975; -108.650; -826.000; -877.000
814.229;   47.925;  430.000;  353.000
814.482;  -41.650; -517.000; -566.000
814.736; -106.575; -766.000; -744.000
814.990; -114.150; -779.000; -872.000
815.244;  -33.275; -228.000; -285.000
815.497;  -83.250; -636.000; -601.000
815.751;   -6.475; -141.000;   82.000
816.005;  -84.600; -470.000; -586.000
816.258;  -69.525; -510.000; -363.000
816.512; -100.175; -693.000; -610.000
816.766;    7.800;  121.000;  157.000
817.019;   27.750;  148.000;  149.000
817.273;  -64.225;-1000.000; -802.000
817.526;  -11.275; -206.000; -173.000
817.779;    6.750;-1049.000; -960.000
818.033;   -3.200; -693.000; -807.000
818.286; -119.800; -725.000; -792.000
818.540;  -79.975; -403.000; -403.000
818.793;  -64.800; -402.000; -489.000
819.046; -100.825; -582.000; -520.000
819.299;  -40.125; -157.000; -166.000
819.553; -115.050; -552.000; -592.000
819.806; -147.925;-1016.000; -838.000
820.059;  -69.600; -334.000; -354.000
820.312;   17.325;  152.000;  185.000
820.565;   -9.700;  110.000;  -27.000
820.818;  -53.075;  -59.000; -173.000
821.071; -133.700;-1041.000; -957.000
821.324;  -98.725; -536.000; -540.000
821.577;  -97.650; -457.000; -483.000
821.830;  -48.825; -270.000; -172.000
822.083; -106.725; -733.000; -288.000
822.336;  -48.150; -261.000; -167.000
822.589; -129.250; -805.000; -688.000
822.842; -123.500; -875.000; -770.000
823.094; -163.250;-1076.000;-1114.000
823.347; -118.950; -925.000; -729.000
823.600;   29.350;  402.000;  187.000
823.853;  -46.425; -311.000; -267.000
824.105;  -42.150; -331.000; -575.000
824.358;  -90.050; -617.000; -716.000
824.611;   45.250;  234.000;   40.000
824.863;  -19.400; -612.000; -591.000
825.116;   75.275;  -33.000;   27.000
825.368;  138.000; -366.000; -372.000
825.621;  256.450; -186.000; -240.000
825.873;  165.675; -704.000; -737.000
826.126;  671.050; -669.000; -641.000
826.378;14140.175; -389.000; -505.000
826.630; 5201.250; -890.000; -898.000
826.883;  156.975; -754.000; -693.000
827.135;  112.700; -279.000; -270.000
827.387;  -66.575; -893.000; -839.000
827.639;  -10.575;  -86.000;   32.000
827.892; -107.950; -742.000; -582.000
828.144; -128.850; -848.000; -804.000
828.396;  -37.725;  104.000;  -80.000
828.648;  -95.225; -440.000; -333.000
828.900; -141.100; -702.000; -795.000
829.152; -101.275; -684.000; -683.000
829.404;  -64.175; -215.000; -267.000
829.656;  -13.075;  321.000;  214.000
829.908;   -1.500;  393.000;  229.000
830.160; -158.750;-1064.000;-1047.000
830.412;  -79.700; -481.000; -430.000
830.664; -117.650; -557.000; -665.000
830.916;  -67.100; -268.000; -206.000
831.167; -163.075;-1073.000; -951.000
831.419;  -99.750; -623.000; -566.000
831.671; -130.625; -764.000; -809.000
831.923;  -88.725; -311.000; -447.000
832.174;  -62.950; -273.000; -331.000
832.426; -106.525; -493.000; -582.000
832.678; -161.150;-1043.000;-1091.000
832.929; -150.625; -947.000; -935.000
833.181;  -29.025; -575.000; -677.000
833.432;  -31.500;  -59.000; -186.000
833.684;   -2.250;  112.000;  -27.000
833.935;  -98.550; -610.000; -566.000
834.187; -123.650; -829.000; -823.000
834.438;  -38.550;  -58.000;  -25.000
834.689;  -64.325; -255.000; -123.000
834.941;  -38.300; -343.000; -244.000
835.192;  -85.100; -590.000; -533.000
835.443;  -75.375; -419.000; -506.000
835.695;   -7.000;  138.000;  -16.000
835.946;  -74.275; -608.000; -378.000
836.197; -100.925; -599.000; -622.000
836.448;  -72.900; -528.000; -395.000
836.699;  -45.500; -253.000; -341.000
836.950;   13.950;   72.000;    7.000
837.201; -118.800;-1003.000; -987.000
837.452;  -27.100; -356.000; -170.000
837.703;  -93.575; -791.000; -737.000
837.954;  -13.400; -205.000; -365.000
838.205;  -50.650;-1029.000;-1008.000
838.456;  279.325; -196.000; -282.000
838.707;   65.425; -423.000; -519.000
838.958;   58.050; -634.000; -647.000
839.209;  423.250;   18.000;   40.000
839.460;  193.375; -439.000; -201.000
839.710;  240.075; -135.000; -297.000
839.961;  520.900;  730.000;  612.000
840.212;  472.950; -382.000; -497.000
840.462; 1304.750; -328.000; -277.000
840.713;20524.275; -571.000; -536.000
840.964;11819.100;  -62.000; -143.000
841.214;  745.175; -384.000; -624.000
841.465;  750.125; -214.000; -141.000
841.715;  692.175; -417.000; -380.000
841.966;  861.100; -746.000; -685.000
842.216; 8651.350; -330.000; -431.000
842.466;45186.475; -169.000; -313.000
842.717; 3798.425; -964.000; -952.000
842.967;  433.200; -635.000; -641.000
843.217;  392.500;   20.000;   28.000
843.468;  125.100; -104.000; -132.000
843.718;    2.725; -718.000; -726.000
843.968;  -60.000; -837.000; -765.000
844.218;   66.750; -315.000; -262.000
844.469;    8.900; -577.000; -561.000
844.719;  -88.200; -537.000; -682.000
844.969;  -87.250; -550.000; -580.000
845.219; -113.650; -814.000; -862.000
845.469;  -67.100; -392.000; -342.000
845.719; -125.600; -792.000; -884.000
845.969;   -3.175;  119.000;  174.000
846.219; -109.350; -738.000; -720.000
846.469;   26.350;  464.000;  432.000
846.718;  -41.200; -115.000;   31.000
846.968; -128.100; -827.000; -827.000
847.218;  -48.500; -224.000; -371.000
847.468;   -3.225; -586.000; -555.000
847.718; -121.650; -827.000; -798.000
847.967; -123.500; -826.000; -915.000
848.217;  -68.400; -449.000; -569.000
848.467;  -42.350; -405.000; -376.000
848.716;  -90.600; -708.000; -725.000
848.966;   36.675; -372.000; -358.000
849.215;  -40.200; -428.000; -419.000
849.465;  -63.100; -785.000; -615.000
849.714;  -97.525;-1132.000;-1150.000
849.964;  -39.925; -551.000; -613.000
850.213;   14.875; -393.000; -355.000
850.463;   93.550;  137.000;  340.000
850.712;   42.575; -542.000; -567.000
850.961;   89.200; -739.000; -678.000
851.211;  190.625; -513.000; -504.000
851.460;  282.925; -635.000; -650.000
851.709;  717.325;  -25.000;   18.000
851.958;11444.300; -912.000; -750.000
852.208;20047.100; -859.000; -879.000
852.457;  870.550; -181.000;  -13.000
852.706;  160.425; -791.000; -823.000
852.955;   96.725; -507.000; -528.000
853.204;  -42.475; -521.000; -461.000
853.453;  -63.200; -418.000; -458.000
853.702; -107.550; -660.000; -750.000
853.951;  -97.000; -532.000; -520.000
854.200; -106.525; -613.000; -562.000
854.449; -115.225; -695.000; -661.000
854.698;  -85.725; -340.000; -279.000
854.946;  -64.950; -181.000; -284.000
855.195; -147.825; -843.000; -868.000
855.444;  -83.625; -395.000; -420.000
855.693; -120.100; -345.000; -432.000
855.941; -103.375; -387.000; -516.000
856.190;  -32.125; -256.000; -382.000
856.439; -127.925; -652.000; -703.000
856.687;  -55.750;  -99.000;  -72.000
856.936; -108.700; -621.000; -323.000
857.184; -175.750;-1067.000;-1020.000
857.433; -106.575; -423.000; -512.000
857.681; -143.300; -989.000; -953.000
857.930;  -56.825; -282.000; -433.000
858.178; -148.850; -856.000; -929.000
858.427; -144.625; -802.000; -781.000
858.675; -118.450; -377.000; -544.000
858.923;  -98.925; -527.000; -819.000
859.172; -167.900;-1094.000;-1070.000
859.420;  -85.175; -339.000; -239.000
859.668; -125.300; -624.000; -628.000
859.916;  -20.675;  109.000;  115.000
860.164; -105.600; -699.000; -603.000
860.413;  416.375; -878.000; -696.000
860.661;  529.775; -709.000; -577.000
860.909;  -65.800; -339.000; -325.000
861.157;  -82.275; -277.000; -444.000
861.405;  -98.600; -534.000; -670.000
861.653;   24.175;  310.000;  310.000
861.901;  289.625; -543.000; -613.000
862.149;  139.550; -801.000; -824.000
862.396;  -78.525; -297.000; -187.000
862.644;  -93.400; -368.000; -347.000
862.892;  -36.775;   98.000;  138.000
863.140; -103.725; -549.000; -530.000
863.388; -161.925; -815.000; -759.000
863.635; -127.150; -642.000; -601.000
863.883;  -12.775;  231.000;  190.000
864.131;  -91.150; -288.000; -357.000
864.378; -142.875; -675.000; -540.000
864.626; -102.550; -347.000; -415.000
864.873; -115.975; -556.000; -505.000
865.121; -130.050; -714.000; -799.000
865.368;  -33.225; -173.000;   75.000
865.616;  -47.150;  -33.000;  -40.000
865.863;  -68.175; -462.000; -506.000
866.111;  -85.125; -795.000; -824.000
866.358;   45.500; -426.000; -420.000
866.605; 2266.375;  -64.000; -804.000
866.853; 3337.775; -621.000; -537.000
867.100;   31.850; -728.000; -775.000
867.347;  -80.200; -672.000; -611.000
867.594;  -71.975; -740.000; -714.000
867.841;  154.350;   97.000;   17.000
868.089; -135.400; -746.000; -698.000
868.336;  -96.675; -477.000; -420.000
868.583; -141.375; -637.000; -741.000
868.830;  -52.425; -131.000; -170.000
869.077; -153.450; -859.000; -787.000
869.324; -133.100; -502.000; -458.000
869.571; -112.150; -398.000; -430.000
869.818; -117.975; -485.000; -439.000
870.065;  -91.900; -439.000; -513.000
870.311; -108.875; -456.000; -542.000
870.558; -101.200; -332.000; -311.000
870.805;  -78.175; -320.000; -384.000
871.052; -110.400; -494.000; -369.000
871.298;  -43.625; -204.000; -131.000
871.545;  -63.225; -151.000; -185.000
871.792;  -80.500; -173.000; -222.000
872.038;  -58.875;   43.000; -126.000
872.285; -126.950; -496.000; -387.000
872.532;  -98.975; -357.000; -387.000
872.778;    2.875;  556.000;  403.000
873.025;  -91.625; -384.000; -359.000
873.271;   13.800;  501.000;  578.000
873.517;   -7.975; -133.000; -209.000
873.764;    9.750; -193.000;  -80.000
874.010;  -53.050; -143.000; -230.000
874.257;  -44.625;  123.000;   90.000
874.503; -130.300; -579.000; -479.000
874.749;  -76.125;   31.000;  275.000
874.995;  -61.700;  -80.000;  -20.000
875.242; -119.875; -540.000; -478.000
875.488; -106.275; -414.000; -439.000
875.734;  -51.325; -106.000; -234.000
875.980;  280.450; -872.000;-1032.000
876.226;  738.875; -157.000; -255.000
876.472;   38.050;  343.000;  237.000
876.718;  -35.175;  184.000;  158.000
876.964;  -44.625;   56.000;   55.000
877.210; -135.800; -547.000; -677.000
877.456; -138.325; -630.000; -557.000
877.702; -154.475; -821.000; -832.000
877.948; -106.750; -377.000; -497.000
878.193;  -10.500;  361.000;  255.000
878.439;  -68.250; -487.000; -472.000
878.685;  -94.825; -272.000; -343.000
878.931; -126.675; -618.000; -676.000
879.176;  -91.425; -201.000; -201.000
879.422; -171.225; -933.000; -820.000
879.668;   44.150;   10.000;   79.000
879.913;  268.775;   53.000;  137.000
880.159;  -51.175; -112.000;  -17.000
880.404;  -65.500; -152.000; -162.000
880.650;  -40.425;   91.000;  141.000
880.895; -142.625; -670.000; -710.000
881.141; -129.925; -454.000; -428.000
881.386; -147.350; -503.000; -658.000
881.631;  -83.150; -311.000; -166.000
881.877;  -36.900;  112.000;  -13.000
882.122; -142.575; -684.000; -600.000
882.367;  -86.625; -136.000; -186.000
882.612;  -84.800;  -80.000; -176.000
882.858; -170.525; -877.000; -823.000
883.103; -106.700; -297.000; -267.000
883.348; -149.225; -759.000; -852.000
883.593; -142.325; -677.000; -602.000
883.838;  -49.300; -311.000;  -24.000
884.083;   44.075;  353.000;  288.000
884.328;  -79.200; -564.000; -545.000
884.573;  -50.875; -196.000; -143.000
884.818;  279.775; -694.000; -531.000
885.063;  412.025; -348.000; -315.000
885.308;  -80.125; -475.000; -398.000
885.553;  -12.350;  245.000;  325.000
885.797; -125.825; -545.000; -615.000
886.042;  -58.900;    8.000;   58.000
886.287;  -96.275; -253.000; -211.000
886.532;  -58.075;   26.000;  204.000
886.776; -105.200; -407.000; -525.000
887.021; -136.675; -621.000; -574.000
887.265; -143.300; -685.000; -689.000
887.510; -127.875; -557.000; -496.000
887.755;  -89.450; -194.000; -164.000
887.999; -136.500; -552.000; -575.000
888.244;  -53.775;  -58.000;  161.000
888.488;   -9.575;  371.000;  393.000
888.732; -127.250; -368.000; -520.000
888.977; -143.100; -622.000; -567.000
889.221; -133.775; -683.000; -659.000
889.465; -122.100; -422.000; -566.000
889.710;  -74.400;  -56.000; -299.000
889.954;   -4.325;  579.000;  467.000
890.198; -142.825; -584.000; -707.000
890.442; -149.775; -716.000; -712.000
890.687; -158.775; -800.000; -753.000
890.931;  -97.775; -273.000; -210.000
891.175; -120.475; -502.000; -500.000
891.419;  -84.075; -105.000; -110.000
891.663; -111.000; -239.000; -112.000
891.907; -165.750; -801.000; -545.000
892.151; -165.175; -920.000; -815.000
892.395; -102.400; -274.000; -387.000
892.638;  -32.900;  408.000;  291.000
892.882; -185.875; -780.000; -867.000
893.126;   -0.050;  758.000;  558.000
893.370; -100.400; -167.000; -168.000
893.614; -135.675; -714.000; -715.000
893.857; -109.625; -183.000; -197.000
894.101; -149.125; -527.000; -631.000
894.345;  -58.825;  300.000;  150.000
894.588;   -8.575;  569.000;  380.000
894.832;  -90.600; -178.000;  -84.000
895.075;  -92.525;   15.000;  -92.000
895.319; -118.250; -552.000; -420.000
895.563; -111.000; -413.000; -353.000
895.806; -144.325; -628.000; -741.000
896.049;  -43.875; -576.000; -368.000
896.293;  151.400;  527.000;  405.000
896.536;  -18.525; -465.000; -468.000
896.779;  -47.350; -149.000;   -1.000
897.023; -127.200; -751.000; -714.000
897.266;  -30.325;  325.000;  269.000
897.509; -166.675; -900.000; -901.000
897.752;  -58.350;  149.000;  171.000
897.996; -168.275; -972.000; -864.000
898.239;  -45.750;  168.000;  102.000
898.482; -124.675; -431.000; -453.000
898.725;  -17.600;  101.000;   53.000
898.968; -133.025; -609.000; -744.000
899.211;  -97.475; -513.000; -361.000
899.454; -100.100; -633.000; -539.000
899.697;  -53.600;   90.000;  -43.000
899.940; -165.875; -761.000; -757.000
900.182;  -98.825; -335.000; -405.000
900.425; -101.075; -150.000; -298.000
900.668;  -19.475;  491.000;  350.000
900.911; -104.125; -292.000; -345.000
901.154;  -60.750;  141.000;   -3.000
901.396; -124.300; -407.000; -412.000
901.639; -141.700; -430.000; -496.000
901.882; -164.325; -790.000; -809.000
902.124;  -87.725;  -29.000; -143.000
902.367; -118.025; -315.000; -361.000
902.609; -134.300; -476.000; -453.000
902.852;  -89.050; -108.000; -260.000
903.094; -122.400; -458.000; -337.000
903.337;  -41.425;  -26.000;   53.000
903.579; -100.275; -228.000; -441.000
903.821; -155.750; -597.000; -744.000
904.064;  -61.125;   85.000;  127.000
904.306;  -90.950; -126.000; -166.000
904.548; -107.500; -152.000; -366.000
904.790;  -98.075; -195.000; -340.000
905.033; -133.575; -625.000; -577.000
905.275; -127.175; -513.000; -524.000
905.517;   70.225;  468.000;  256.000
905.759;   -4.200; -667.000; -761.000
906.001;  -88.650; -322.000; -369.000
906.243;  -40.475; -162.000; -224.000
906.485;  172.875; -265.000; -207.000
906.727;  290.550; -499.000; -542.000
906.969;    1.075;  -30.000; -135.000
907.211;  198.050; -316.000; -382.000
907.453;  479.975; -188.000; -237.000
907.695;  112.700; -158.000; -385.000
907.936;   46.875;  818.000;  706.000
908.178;  -53.000;   92.000; -135.000
908.420;  -67.625; -111.000; -162.000
908.662; -130.000; -633.000; -682.000
908.903;  -68.075; -208.000; -123.000
909.145;  -66.575; -240.000; -305.000
909.386;   10.150;  315.000;  280.000
909.628;   19.100;  363.000;  397.000
909.870;    0.200;   29.000;  264.000
910.111;  -76.825; -809.000; -949.000
910.353;   24.525; -123.000; -161.000
910.594;   10.000; -574.000; -606.000
910.835;   94.600; -265.000; -326.000
911.077;  195.900; -503.000; -604.000
911.318;  289.275; -505.000; -471.000
911.559;  469.325; -577.000; -880.000
911.801; 1248.825; -284.000; -280.000
912.042; 8905.475;  -50.000; -159.000
912.283;28906.000;  404.000;  371.000
912.524; 6174.700; -396.000; -457.000
912.765;  633.475; -193.000;   79.000
913.006;  269.250; -307.000; -338.000
913.247;   97.775; -270.000; -290.000
913.488;   24.450;  -43.000;   30.000
913.729;  -71.625; -373.000; -373.000
913.970;  -52.650;  -96.000; -292.000
914.211;  -59.075; -160.000; -198.000
914.452;  -58.525; -118.000;  -11.000
914.693;   15.500;  510.000;  592.000
914.934;   25.200;  510.000;  440.000
915.175;  -59.775;   53.000;  -95.000
915.415;  -61.650; -137.000;   27.000
915.656;  -54.025;  -28.000;  192.000
915.897;  -86.825; -252.000;  -82.000
916.137;  -64.175;   74.000;   -9.000
916.378; -120.300; -573.000; -517.000
916.619;  -89.575; -159.000;  -63.000
916.859;  -17.800;  303.000;  330.000
917.100;  129.575; 1655.000; 1070.000
917.340;   54.375;  930.000;  728.000
917.581;   46.325;  965.000;  789.000
917.821;    6.750; -171.000;  143.000
918.061;   74.850; -199.000;  -72.000
918.302;  -26.025; -152.000; -211.000
918.542;   12.825;  -22.000;    3.000
918.782;   59.350;  369.000;  377.000
919.023;  183.475;  360.000;  427.000
919.263; 1878.600; 8131.000;  202.000
919.503; 1812.275; -137.000;  -54.000
919.743;  966.675;  390.000;  266.000
919.983;  526.700; -134.000;  -26.000
920.223;  147.850;  135.000;   14.000
920.463;  187.450;  631.000;  554.000
920.703;  179.725;   84.000;   39.000
920.943;  244.925; -110.000;   90.000
921.183;  349.025; -414.000; -405.000
921.423;  635.275;  307.000;  546.000
921.663;  933.450; -174.000; -257.000
921.903; 1896.550;  237.000;  173.000
922.143; 9670.700;  372.000;  389.000
922.383;41167.225;  158.000;  115.000
922.622;19222.275; -120.000;  -15.000
922.862; 1966.625;  796.000;  785.000
923.102;  679.700;  -51.000;   33.000
923.341;  318.975;   59.000;   74.000
923.581;  139.475;  450.000;  360.000
923.821;   51.525;  301.000;  398.000
924.060;   20.525;  351.000;  193.000
924.300;  -40.100;  -16.000; -128.000
924.539;    8.600;  584.000;  473.000
924.779;   14.025;  812.000;  597.000
925.018;  -57.575;  247.000;  353.000
925.257;   -2.400;  595.000;  666.000
925.497;  -26.850;  447.000;  412.000
925.736;  -64.975;  -35.000;  102.000
925.975;    7.050;  687.000;  669.000
926.214;   26.375;  907.000;  850.000
926.454;   24.250;  706.000;  757.000
926.693;  -31.200;  419.000;  543.000
926.932;   43.400; 1021.000;  825.000
927.171;   57.275; 1107.000; 1044.000
927.410;   57.750; 1144.000;  967.000
927.649;   28.975;  924.000;  742.000
927.888;   -7.250;  590.000;  564.000
928.127;    9.125;  680.000;  678.000
928.366;   48.950;  842.000;  826.000
928.605;   32.150;  831.000;  737.000
928.844;  274.875; 1451.000; 1393.000
929.083;  813.125;  770.000;  613.000
929.321;  519.025; 1335.000; 1359.000
929.560;   91.425; 1158.000; 1122.000
929.799;  -21.350;  574.000;  475.000
930.038;   82.850; 1025.000; 1394.000
930.276;  -39.900;  334.000;  397.000
930.515;    4.050;  827.000;  681.000
930.753;  -19.650;  614.000;  589.000
930.992;   -1.750;  664.000;  717.000
931.230;   10.075;  847.000;  847.000
931.469;  168.675; 2162.000;  892.000
931.707;   57.350;  840.000;  751.000
931.946;   62.550; 1278.000; 1344.000
932.184;   44.600; 1437.000; 1175.000
932.423;   58.275; 1265.000;  963.000
932.661;  111.675; 1296.000; 1428.000
932.899;   42.875;  987.000;  821.000
933.137;   18.950;  754.000;  564.000
933.376;  173.625; 1664.000; 1335.000
933.614;  194.350; 1759.000; 1196.000
933.852;   64.350; 1357.000; 1171.000
934.090;  142.425; 1722.000; 1747.000
934.328;  104.675; 1252.000; 1457.000
934.566;  120.500; 1431.000; 1110.000
934.804;  160.800; 1263.000; 1309.000
935.042;  552.350; 1861.000; 1850.000
935.280; 2059.225; 2088.000; 2063.000
935.518; 2530.000; 2113.000; 2007.000
935.756;  528.800; 2481.000; 2316.000
935.994;  197.375; 1808.000; 1751.000
936.231;  408.750; 2890.000; 2950.000
936.469;  228.600; 2367.000; 2378.000
936.707;  183.825; 2220.000; 2167.000
936.945;  240.375; 2825.000; 2882.000
937.182;  208.725; 2679.000; 2741.000
937.420;  293.650; 3602.000; 3031.000
937.657;  441.625; 3365.000; 3478.000
937.895;  412.050; 3331.000; 3488.000
938.133;  314.125; 3540.000; 3528.000
938.370;  330.400; 3896.000; 4191.000
938.607;  384.900; 4488.000; 4205.000
938.845;  538.500; 5587.000; 5549.000
939.082;  470.550; 5387.000; 5177.000
939.320;  537.475; 5799.000; 5728.000
939.557;  614.775; 6549.000; 6491.000
939.794;  721.225; 7285.000; 7097.000
940.031;  924.425; 8421.000; 8368.000
940.269; 1160.050; 9552.000; 9107.000
940.506; 1153.525;10901.000;10507.000

