
Integration time [ms]: 200.000
Averaging Nr. [scans]: 10
Smoothing Nr. [pixels]: 0
Data measured with spectrometer [name]: 2101013U2
Wave   ;Sample   ;Dark     ;Reference
[nm]   ;[counts] ;[counts] ;[counts] 

394.013;   60.584; -450.257; -315.536
394.305;  300.881; -461.258; -419.536
394.596; 1585.834; -676.269; -527.514
394.887; 3767.157; -796.268; -654.518
395.178; 1504.201;  145.736;   11.476
395.470;  106.517; -210.263; -356.526
395.761;  317.979;  305.734;  394.479
396.052;  515.855; -545.284; -306.489
396.343;  489.255; -557.276; -454.503
396.634;  149.910; -200.279; -290.497
396.926;   70.054; -618.268; -565.517
397.217;  181.861;   11.725;  -17.504
397.508;   29.884; -366.273; -154.507
397.799;   36.610; -555.279; -571.497
398.090;  -93.298; -973.280; -902.495
398.381;  166.148;   11.708;  -11.473
398.672;  -82.750; -585.292; -742.473
398.963;   59.019; -348.279; -373.498
399.254;  108.563;   54.709; -209.475
399.545; -104.126;-1017.266; -883.520
399.836;   56.239; -407.277; -343.501
400.127;   82.314; -205.295; -209.468
400.418;   31.176; -423.274; -392.506
400.709;   46.384; -359.281; -333.493
401.000;   31.568; -268.291; -309.476
401.290;  178.824;  225.698;  115.545
401.581;   73.030; -166.286; -228.485
401.872;   11.574; -542.298; -486.462
402.163;   51.903; -313.296; -252.467
402.454;  162.364; -123.291; -163.475
402.744;  -12.609; -844.297; -813.465
403.035;  518.936; -226.293;  -86.471
403.326;  654.554; -366.292; -384.474
403.617;  566.166;  204.701;  165.539
403.907;  314.363; -593.283; -679.490
404.198; 3388.958; -545.307; -599.446
404.489; 8780.970; -618.283; -588.491
404.779; 3029.029; -618.302; -660.456
405.070;  339.998;  -67.304; -174.451
405.360;  477.738; -259.293; -238.472
405.651;  493.045;  125.699;   98.542
405.942;  266.824;  209.714;  127.516
406.232;  275.844; -432.285; -413.487
406.523;  683.428;  641.706;  758.530
406.813;   72.427; -579.286; -644.484
407.104;  470.046;  261.708;  144.527
407.394;  127.868; -604.299; -591.462
407.685;  241.743;  336.715;  222.513
407.975;   38.768; -400.283; -382.490
408.265;  172.584; -134.289; -190.478
408.556;   34.559; -472.291; -459.475
408.846;  316.629;  474.706;  429.530
409.137;  122.796;   -1.288; -216.480
409.427;   57.944; -193.285; -271.487
409.717;  -27.812; -776.273; -692.508
410.007;  203.535;    4.715; -170.486
410.298;   87.018; -360.295; -342.469
410.588;   39.940; -495.285; -510.486
410.878;  -58.788; -792.287; -873.482
411.168;  120.478; -481.298; -478.463
411.459;  136.060; -295.283; -242.489
411.749;   20.557; -609.292; -507.474
412.039;   16.794; -755.289; -386.480
412.329;  326.829;   40.722;  132.501
412.619;  238.627;  -62.286; -148.485
412.909;  625.188;  639.711;  594.521
413.199;  417.102; -130.280; -251.495
413.490;  622.175;  521.710;  352.523
413.780;   95.808;-1013.279; -913.496
414.070;  511.756;  -46.276;  235.497
414.360;  444.523; -729.278; -666.498
414.650;  549.706; -726.288; -688.482
414.940;  704.207; -538.280; -441.496
415.230; 1280.702;   50.712;   74.519
415.520; 8853.432;  155.730;   66.486
415.809;33654.683; -305.281; -125.493
416.099;26805.042; -388.277; -229.501
416.389; 7469.173;  435.726;  236.494
416.679; 4466.722;   91.738;   85.473
416.969;  775.618; -527.287; -503.483
417.259;  841.411;  341.721;  171.503
417.549; 1039.281;  522.718;  318.508
417.838; 2372.957; -205.268; -147.518
418.128; 7688.482;  650.710;  492.522
418.418; 6575.997; -491.272; -579.509
418.708; 4508.773;    9.726;  -48.506
418.997;16450.567; -474.275; -480.505
419.287;17367.883; -733.273; -790.507
419.577;16845.359; -160.283; -123.489
419.866;52967.439; -588.277; -498.501
420.156;54013.927; -242.270;  -55.513
420.446;10389.011; -112.263;  -26.526
420.735; 1179.418; -376.271; -446.512
421.025; 1412.022; 1830.722;  315.502
421.314;  963.915; -203.271; -226.512
421.604; 1826.646;   89.732;  233.484
421.893; 1019.310; -705.271; -602.511
422.183;  313.512; -487.263; -461.526
422.472;  555.612;  -36.271; -107.511
422.762;  624.382; -416.266; -379.521
423.051;  265.157; -916.276; -916.503
423.341;  409.385; -491.273; -439.507
423.630;  512.591; -121.265;   15.477
423.919;  558.066;   58.725;   49.495
424.209;  526.619;  -31.263;   56.473
424.498;  716.553;   68.732;  161.483
424.787; 1538.262; -535.267; -601.518
425.077; 4633.889;   34.735;   29.478
425.366; 6218.227; -734.262; -744.528
425.655;14366.186;  639.727;  259.493
425.945;30655.811; -313.247; -268.554
426.234;17707.560;  117.741;  300.467
426.523; 7073.567;  -86.259; -350.534
426.812; 9934.976;  107.734;  159.480
427.101;14720.341; -127.269; -323.515
427.390;18199.532;  -55.270;  -86.514
427.680; 3973.795; -624.257; -411.538
427.969;  678.511; -330.255; -301.540
428.258;  364.583; -385.257; -477.536
428.547;  813.003;  449.728;  397.490
428.836; 1556.634; -421.253; -398.543
429.125; 2257.070; -199.259;  -72.534
429.414; 1078.066; -330.251; -294.548
429.703; 4592.966; -231.251; -213.548
429.992;13023.271; -938.250; -828.549
430.281; 8863.301; -397.264; -331.524
430.570;  857.152;  -21.252;   32.454
430.859;  780.466;  279.741;  352.466
431.148;  689.405;  636.752;  631.446
431.437;  508.452;  391.748;  367.454
431.725;  203.785; -544.257; -481.536
432.014;  110.744; -845.253; -756.545
432.303;  508.313; -149.239; -105.569
432.592;  787.711; -460.263; -178.525
432.881; 1351.107; -601.248; -437.554
433.169; 9062.712; -343.255;  -61.540
433.458;17694.362;  445.765;  540.424
433.747; 7590.735; -397.261; -289.529
434.036; 1184.079; -275.242; -280.564
434.324; 2977.389; -395.249; -379.551
434.613; 5084.270;   40.757;  159.437
434.902; 1804.299;  333.760;  439.433
435.190;  717.512;   75.761;  295.431
435.479;  410.744;  -52.245;   83.441
435.767;  100.755; -411.244; -427.561
436.056;  275.373; -340.242; -294.563
436.345;  445.703; -372.240; -223.568
436.633;  613.182;   60.750;  383.450
436.922;  425.406;  208.760;  414.432
437.210;  697.647; -194.236;    1.426
437.499; 2110.559; -583.235; -432.576
437.787; 2394.447; -339.236;  -10.574
438.075;  690.120;   56.761;  162.430
438.364;  898.323;  -44.238;  250.429
438.652;  535.672; -286.226; -138.592
438.941;  183.821;    3.770;  269.415
439.229;  -47.052; -665.252; -466.545
439.517;   47.171; -160.234;  -85.577
439.806;  -68.905; -501.225; -290.595
440.094;  296.582;  377.766;  650.421
440.382;  145.887; -653.233; -302.580
440.670;  234.958; -361.235; -285.576
440.959;   -4.280; -347.223; -170.599
441.247;   83.037; -151.229; -109.587
441.535;  120.868; -266.235;   31.423
441.823;   34.878; -497.234; -305.578
442.111;  247.244;  173.771;  327.412
442.400;  599.943; -628.245; -335.559
442.688; 1687.381; -111.234; -620.579
442.976; 1115.145; -786.213; -450.617
443.264;   54.604; -324.224; -364.597
443.552;  138.974; -258.226;   51.408
443.840;  310.266;  602.765;  876.423
444.128;  222.586;  265.767;  269.420
444.416;  -73.953; -694.228; -312.588
444.704;   27.762; -465.219;  -92.605
444.992;   83.678;   -0.226;  240.407
445.280;   76.822; -517.230;  -94.585
445.568;   -1.850; -694.212; -396.618
445.856;  433.139; -174.221;  357.398
446.143;  838.057;  -54.220;   -7.604
446.431;  773.852;  -25.228;  625.411
446.719;  374.589;  489.783;  675.391
447.007;  329.014;  481.769;  705.416
447.295;  276.015;  597.777;  871.402
447.583;   80.734; -464.229;  -34.587
447.870;  163.135; -434.221; -202.601
448.158;  556.520; -104.230;  129.415
448.446;  331.858; -800.219; -338.604
448.733;  230.906;   13.776;  269.403
449.021;  329.049;   60.788;  341.382
449.309;  258.971; -296.210;  208.379
449.596;  261.084;  128.783;   59.392
449.884;  178.025; -571.222; -325.600
450.172;  157.160; -756.227; -406.590
450.459;  739.721;  645.786;  780.387
450.747; 3587.782; -411.218; -147.608
451.034;10943.754;  493.772;  889.411
451.322; 9203.725; -413.214; -170.614
451.609;  886.508;  292.777;  508.403
451.897;  854.560; -550.203; -183.634
452.184; 2507.716; -622.223; -400.598
452.472; 2389.501;   97.792;  269.375
452.759;  577.859;  512.781;  864.395
453.047;  134.946; -407.212; -125.617
453.334;   84.470; -732.219; -216.606
453.621;   93.828; -438.214; -161.615
453.909;  194.449;   13.796;  384.368
454.196;  178.513; -299.199; -123.641
454.483;  353.379;  317.798;  540.364
454.771;  159.205; -215.208;  196.374
455.058;   89.310; -316.207;  102.374
455.345;  198.292;   71.807;  344.347
455.632;  139.715; -128.207;  235.373
455.919;   99.046;  -82.196;  182.354
456.207; -110.680; -774.198; -450.642
456.494;  -55.704; -475.200;  -66.639
456.781;    4.773; -399.202; -198.635
457.068;   69.124; -253.206;  -29.628
457.355;  -22.274; -698.206; -401.629
457.642;  -29.167; -552.205; -290.630
457.929;  -23.321; -778.194; -417.651
458.216;   37.246; -575.212; -354.617
458.503;  377.386; -173.193;  -19.652
458.790;  273.602; -864.208; -630.625
459.077;  395.680;  -77.202;  110.364
459.364; 1186.869; -350.195; -210.649
459.651; 2409.221;  -46.206;  220.372
459.938; 1085.889; -864.209; -665.623
460.225;  238.584;  132.799;  276.363
460.512; -149.258; -836.197; -688.645
460.799;  153.780;  -32.218;  320.392
461.086;   59.902; -370.200; -251.640
461.372;   27.920; -509.198; -279.642
461.659;  141.147; -165.196;  108.354
461.946;   83.184; -445.193;  -54.651
462.233;  403.899;  842.800;  888.361
462.519;  442.095; -814.201; -464.639
462.806; 1311.042; -768.197; -497.645
463.093; 1256.113; -445.191;  -66.656
463.380; -118.628; -920.186; -824.664
463.666;   58.145; -259.197;  -18.646
463.953;  117.862; -406.195; -243.648
464.239;  287.662; -173.195;  -77.648
464.526;  559.577;  413.806;  743.350
464.813;  417.730; -565.190; -304.658
465.099;  529.685;  606.807;  607.348
465.386;  547.591;  903.807;  921.348
465.672;  -34.958; -694.197; -522.645
465.959;   14.955; -598.188; -520.662
466.245;  -44.109; -468.193; -359.652
466.532;  155.059; -109.195;   63.352
466.818;   58.872; -357.186; -216.664
467.104;   -3.771; -488.182; -415.672
467.391;  -80.467; -628.189; -459.658
467.677;   61.777; -289.186;    9.335
467.964;  -48.658; -682.189; -471.660
468.250;  102.781; -331.186; -160.665
468.536;   91.434;   90.811;  180.341
468.822;  -70.202; -821.184; -574.668
469.109;  249.744;  351.827;  471.311
469.395;  385.605;  729.808;  787.346
469.681;  267.939;   46.811;  156.341
469.967; 1850.245; -699.188; -382.660
470.254; 3781.057; -494.188; -306.662
470.540; 2524.845; -601.196; -476.646
470.826;  359.745; -488.181; -397.675
471.112;  519.203;  288.816;  113.331
471.398;  130.309; -253.183;  -58.670
471.684;   76.485; -626.177; -447.680
471.970;  -58.450; -918.180; -981.675
472.256;   55.303; -521.192; -441.654
472.542;   -6.040; -499.171; -434.691
472.828;    6.023; -743.182; -607.672
473.114;    9.622; -380.166; -283.700
473.400;  -11.291; -504.175; -293.684
473.686;   13.530; -452.166; -400.701
473.972;  100.229; -230.174; -131.687
474.258; -124.156; -925.173; -843.689
474.544;  356.473; -183.178;   -2.679
474.830;  441.311;  -65.175;   45.316
475.116;  822.132; -123.190; -196.658
475.401;  970.353; -558.180; -467.676
475.687;  299.852; -725.180; -718.676
475.973;  -45.265; -673.181; -770.673
476.259;  412.814;  736.825;  764.315
476.544;  504.796; -539.176; -437.682
476.830; 1283.154; -398.172; -322.690
477.116; 1099.595; -430.177; -336.682
477.401;  262.553;  346.820;  358.324
477.687;  -45.491; -289.175; -405.684
477.973;  116.940;   21.819;   28.326
478.258;  -17.340; -448.163; -348.706
478.544;   82.088;   21.815;   61.334
478.829; -161.133; -818.171; -738.692
479.115;  -76.947; -749.172; -651.690
479.401;  -61.777; -444.174; -449.686
479.686;   60.451; -253.180;  -74.676
479.972;  -74.319; -886.178; -776.680
480.257;   52.124; -258.166;  -65.700
480.542;  -45.627; -614.170; -469.693
480.828;  479.806; 1288.824; 1392.317
481.113;  -84.697; -464.176; -426.683
481.399;    5.793; -236.161; -202.711
481.684;  -79.377; -620.166; -462.700
481.969;   45.913; -158.159;  -73.713
482.255;  -32.012; -439.169; -285.695
482.540;   22.881; -569.178; -441.680
482.825;   -3.835; -395.187; -404.663
483.110;  183.093;  -85.169; -105.696
483.396;  276.443; -840.157; -652.718
483.681;  826.130;  543.826;  730.313
483.966;  244.204; -696.160; -700.712
484.251;   14.928; -404.174; -310.687
484.536;  -16.362; -356.165; -378.703
484.822;   30.632; -205.173; -218.687
485.107;  -69.702; -599.152; -502.726
485.392;  296.146;  662.836;  541.296
485.677;  156.707;  354.832;  163.302
485.962;  236.240;  160.843;  270.283
486.247;  147.071;  -14.162;   -8.707
486.532;   83.225; -178.166; -325.701
486.817;  274.385;  381.839;  431.291
487.102;  181.473; -453.154; -514.722
487.387;  993.946; -637.156; -652.718
487.672; 1785.553; -154.164;  -38.705
487.957; 1122.696; -394.160; -286.711
488.241;  313.821; -290.150; -314.729
488.526; 1170.600; -280.152; -148.726
488.811; 1756.484; -881.177; -818.680
489.096; 1295.877; -666.154; -702.723
489.381;  767.694;    3.847;  162.275
489.666;  548.293; -428.161; -510.710
489.950;  368.982;  558.846;  627.277
490.235;  -71.686; -480.151; -458.728
490.520; -111.808; -756.161; -723.710
490.804; -134.151; -827.156; -736.719
491.089;   16.644; -469.149; -299.732
491.374;   41.252; -132.164;  -75.704
491.658;  -67.040; -817.147; -717.735
491.943;  191.106; -657.152; -609.727
492.227;  341.367; -178.155;  -38.721
492.512;   23.139; -294.157; -341.717
492.797; -143.065; -713.149; -716.731
493.081; -130.636; -588.147; -598.735
493.366;  -78.606; -751.161; -635.711
493.650;  414.240;  831.859;  917.254
493.935;   35.259; -648.147; -447.734
494.219;  -86.479; -778.142; -687.743
494.503;  -66.572; -585.150; -487.730
494.788;   57.127;   46.842;   74.285
495.072;  207.823;  184.850;  434.271
495.356;  223.848; -463.148; -343.733
495.641;  645.973; -812.146; -736.736
495.925;  546.656; -976.156; -903.719
496.209;   60.543; -599.149; -451.732
496.494; -129.178; -763.142; -544.744
496.778;    7.274; -364.154; -360.722
497.062; -135.245; -819.156; -627.719
497.346;  -75.602; -869.160; -640.711
497.631;  269.653;  580.852;  560.266
497.915;  142.288;  -64.145;  175.261
498.199;   83.343; -341.157; -277.718
498.483;   66.997; -562.152; -508.725
498.767;  319.225;  301.850;  300.271
499.051;  295.440; -126.149; -100.732
499.335;   -1.763; -693.149; -739.731
499.619;  -41.816; -381.129; -423.767
499.903;   12.266; -272.155;  -65.721
500.187;   33.884; -588.153; -316.724
500.471;  -59.595; -796.152; -595.727
500.755;  202.592;   62.839;  -96.710
501.039;    4.066; -270.155; -357.721
501.323;  122.742;  -21.141;  264.254
501.607;    5.760; -447.163; -503.706
501.891;  -38.955; -607.156; -512.718
502.174; -102.496; -726.144; -585.741
502.458;  141.310;   89.849;  370.273
502.742;   65.876; -180.138; -191.751
503.026;  168.859; -412.147; -254.734
503.310;  251.511; -437.159; -375.713
503.593;  170.661; -464.147; -325.735
503.877;  157.233; -232.133; -156.760
504.161;  257.787;    2.847;  -50.724
504.444;  145.530; -841.158; -710.716
504.728;  666.450; -487.164; -522.704
505.012; 1030.520; -257.150;  -76.729
505.295;  837.894; -417.161; -212.711
505.579;  788.655; -256.156; -496.719
505.862; 1202.383; -555.145; -333.738
506.146; 1115.114; -681.159; -758.714
506.429;  674.015;  568.841;  461.286
506.713;   57.216; -732.151; -667.728
506.996;  525.973;   90.846;  295.278
507.280;  467.543; -633.165; -474.703
507.563;  387.164; -469.155; -261.721
507.847;  133.885; -423.153; -112.724
508.130;  160.495; -665.161; -456.711
508.413;  140.117; -758.167; -577.700
508.697;  429.418; -151.167;   12.300
508.980;  199.487; -422.153; -312.724
509.263;    1.758; -466.155; -450.720
509.547;   36.020; -124.150;   82.271
509.830;   97.398; -172.160;  140.289
510.113;  144.455;  128.844;  298.281
510.396;   44.595; -530.152; -300.725
510.680;  126.985; -818.145; -812.738
510.963;  795.779;  184.846;  180.277
511.246;  583.431; -493.150; -357.730
511.529;  390.092; -482.145;  -83.739
511.812;  542.829; -250.134;   10.241
512.095;  385.812; -740.151; -396.728
512.378;   68.167; -317.147; -245.736
512.661;   46.587; -703.137; -623.753
512.944;    8.724; -750.142; -637.744
513.227;  108.183; -170.137; -171.752
513.510;    2.604; -479.144; -671.741
513.793;  -25.052; -485.140; -435.747
514.076;  191.113;  -43.127;  -39.771
514.359;  165.144; -294.149; -135.732
514.642;  121.529; -442.142; -567.744
514.925; 1293.046;  581.860;  561.253
515.208; 1430.023; -498.134; -443.758
515.491; 1032.343; -276.133; -182.761
515.773;  598.609; -410.143; -337.742
516.056; 3396.996;  249.864;  409.246
516.339; 4086.802; -754.136; -652.755
516.622; 2729.828; -518.150; -488.730
516.904; 1717.419;  882.857;  975.257
517.187;  717.281; -730.138; -523.752
517.470;  557.418; -568.143; -510.743
517.752;  646.106; -624.136; -470.756
518.035;  466.663; -708.139; -725.749
518.318;  578.802; -799.136; -744.755
518.600; 3822.248; -300.132; -325.762
518.883; 4913.128;  310.858;   88.256
519.165; 2494.471; -585.138; -426.751
519.448;  578.548;  -61.132;  -19.762
519.730;  246.924; -573.126; -415.773
520.013;  533.638;  588.867;  664.240
520.295; 1086.731;  -94.134;  -15.759
520.578; 2247.066; -335.131; -305.764
520.860; 2538.748; -254.132;   56.238
521.143; 1424.709; -763.135; -584.756
521.425;  694.142; -251.125; -279.775
521.707; 1073.014; -622.127; -380.771
521.990; 2812.814; -199.127;  167.229
522.272; 3087.151; -116.140;   -4.748
522.554; 1441.510; -237.143; -157.742
522.836;  539.528;  -24.134;   99.241
523.119;  249.657; -496.148; -189.734
523.401;  243.576; -448.130; -314.766
523.683;   94.588; -865.137; -693.753
523.965;  510.178;  408.862;  260.248
524.247;  429.472;   54.878;  170.220
524.529;  305.331; -451.134; -367.759
524.812;  574.079;   -3.130;  191.234
525.094; 1372.277; -773.138; -631.751
525.376; 2070.755; -143.124;   78.223
525.658; 1273.898; -441.136; -339.754
525.940;   22.361; -805.131; -671.764
526.222;   31.703; -188.136;  -88.755
526.504;  149.758; -190.131;   32.237
526.786;  168.034; -960.133; -647.760
527.068;  347.163; -124.123;  -67.778
527.349;  112.193; -865.137; -774.754
527.631;  187.747; -137.132;   22.238
527.913;  182.513; -664.127; -450.771
528.195;  206.832; -761.125; -639.774
528.477;  447.424;  -93.134;  -30.758
528.759;  197.078; -648.130; -522.766
529.040;  111.161; -569.123; -293.778
529.322;   71.436; -235.125;  -10.774
529.604;  230.782;  -47.130;   93.233
529.886;  136.123; -546.126; -302.773
530.167;  187.470;  232.870;  192.235
530.449;   65.966;    1.853;   63.265
530.731;   17.071; -572.122; -459.779
531.012;   79.501; -513.120; -216.784
531.294;  144.856; -118.116;  -43.792
531.575;  266.342;  290.875;  538.225
531.857;  121.716; -548.135; -266.757
532.138;  228.040; -113.141;   40.254
532.420;  303.311;  294.865;  403.244
532.701;  211.738; -722.133; -751.760
532.983;  498.142;  232.867;  182.239
533.264;  174.321; -243.126;  175.228
533.546;  -74.098; -491.136; -508.755
533.827;   62.233;  173.867;   -1.759
534.109;   51.016; -352.135;  -80.757
534.390;   63.453; -725.132; -582.762
534.671;  415.111; -270.135;  -82.756
534.953;  159.265; -751.123; -611.779
535.234;   42.335; -426.117; -255.789
535.515; -183.587; -891.119; -735.785
535.796;  -31.393; -431.128; -193.770
536.078; -242.745;-1050.124; -904.777
536.359;   35.066;  -22.123;    3.221
536.640;  -57.166; -480.125; -197.774
536.921;  305.589;  225.871;  143.232
537.202;  531.573;  -87.138;  -16.751
537.483;  724.365;  251.869;  377.236
537.764;  321.270;   17.870;   98.235
538.045;  -50.578; -543.134; -371.758
538.326;  -74.708; -596.129; -447.768
538.607;   10.815; -686.127; -476.771
538.888;  297.688;   98.879;    5.218
539.169;  281.380; -704.122; -535.781
539.450;  532.888;  236.871;   16.233
539.731;  326.594; -361.121; -182.783
540.012;  241.001;  199.880;  412.216
540.293;  169.147;   82.876;  158.224
540.574;  -56.114; -895.113; -717.796
540.855;  760.691;  435.879;  377.218
541.136;  760.976;   47.878;  139.220
541.416;  455.379; -161.130; -220.766
541.697;  313.859; -274.131; -170.763
541.978; 1656.414; -270.135; -315.757
542.259; 1920.415; -211.127; -236.771
542.539; 1003.148; -191.116; -186.790
542.820;  343.642;  461.875;  480.225
543.101;  177.687;  -52.145;  -77.738
543.381;  -37.086; -638.127; -591.771
543.662;  476.711;  159.873; -254.771
543.942;  793.908; -751.127; -830.770
544.223; 1602.779;  193.878;  161.219
544.504; 1000.754; -275.124; -182.777
544.784;  925.623; -592.126; -408.773
545.065; 2454.853;  104.884; -254.791
545.345; 2910.413;  227.881;   14.215
545.626; 1952.285;  -14.113; -108.796
545.906; 1318.569;   77.869;   98.235
546.186;  544.830;   92.874;  -95.773
546.467;  332.158;   99.877;  -95.778
546.747;  540.747;  264.884;  327.210
547.027;  660.452;   91.876;  111.223
547.308;  470.607; -376.127; -530.770
547.588;  632.393;  299.871;  371.232
547.868;  372.671;  458.870;  588.235
548.149;  396.863;  609.885;  593.207
548.429;  225.012; -347.127; -299.771
548.709;  290.900; -645.120; -461.784
548.989;  767.226;   84.882;   88.213
549.269; 3485.345;   10.868;  139.239
549.550; 7259.764;  215.877;  117.222
549.830; 6465.810; -758.111; -556.799
550.110; 1384.421; -468.110; -320.801
550.390; 1300.372; -128.122;  -56.779
550.670; 1614.979; -868.114; -783.795
550.950; 1225.491; -509.121; -471.782
551.230;  359.086;  549.879;  460.218
551.510;   -4.811; -381.121; -326.782
551.790;   43.732; -173.109; -127.803
552.070;  527.058;  940.877; 1181.223
552.350;  638.418; -492.119; -377.786
552.630;  880.382;   -2.121;   77.219
552.909;  586.554;  181.884;   73.209
553.189;  423.255;  -49.132;   33.237
553.469;  292.218; -703.119; -514.786
553.749;  297.117; -469.127; -357.772
554.029;  292.841;   33.883;  -24.790
554.308;  230.169; -154.115;  -37.794
554.588;   82.405; -196.128; -204.770
554.868;   89.092; -366.121;  -47.782
555.147;  219.565; -114.115;  -46.793
555.427; 1042.657; -260.116; -250.792
555.707; 6157.262; -284.115; -200.793
555.986; 6848.415; -719.111; -538.800
556.266; 3925.545;   23.884;   72.210
556.546;  178.189; -888.121; -675.782
556.825;  408.176; -657.114; -556.794
557.105; 2852.502; -125.128;   17.230
557.384; 3133.052;  122.884;  187.209
557.664; 1272.956; -717.116; -508.792
557.943;  139.191; -557.121; -411.782
558.222;  247.231; -345.118; -344.788
558.502;  467.567; -116.115;  -76.793
558.781;  780.661;  194.885;  499.208
559.061;  628.730; -232.118; -227.788
559.340;  534.837;  302.883;  353.211
559.619; 1240.745;   93.884;  148.210
559.899; 1619.740; -239.117; -266.789
560.178; 1460.367; -778.115; -593.793
560.457; 5116.742; -623.117; -562.790
560.736; 6425.917; -472.111; -482.800
561.015; 4582.799; -500.128; -502.769
561.295;  624.460;  180.893;  215.193
561.574;  554.963;  119.885;  116.207
561.853;  789.538;  274.891;  303.197
562.132;  788.270;  -45.114;  182.206
562.411;  687.183;  396.879;  553.219
562.690;  228.661; -592.115; -458.792
562.969;  260.395;  472.888;  630.203
563.248; 1002.480; 2966.878; 2487.219
563.527;  416.016; -290.111; -408.800
563.806;  598.512; -650.127; -521.771
564.085;  669.482; -297.105; -206.810
564.364;  368.445; -594.117; -405.790
564.643;  803.283; -276.121; -223.781
564.922; 2958.729;  221.890;  397.198
565.201; 2734.935; -640.109; -700.803
565.479; 1304.759; -297.115; -219.792
565.758;  489.503; -810.128; -712.770
566.037;  725.936; -155.109; -100.803
566.316;  319.052; -286.116;  -28.791
566.595;   96.263;  -17.115;  -12.793
566.873;  216.518; -166.111;  -79.801
567.152;  -72.706; -490.113; -590.797
567.431;   42.747; -113.116;    6.210
567.709;   28.261; -344.107; -212.807
567.988;  374.875; -810.114; -769.794
568.266;  791.163; -160.115;  -68.793
568.545;  594.449; -644.100; -514.819
568.824; 1055.258;  160.885;  356.208
569.102;  847.675; -351.114; -235.794
569.381;  383.157; -492.116; -407.792
569.659;  -81.511; -553.113; -553.796
569.938;   68.677; -743.122; -465.780
570.216;  118.440; -225.109; -225.804
570.494;  -58.821; -632.114; -572.795
570.773;   50.589;  202.879;  114.218
571.051;    8.862; -373.123; -357.778
571.330;   55.786; -221.113; -174.796
571.608;   94.474; -181.098; -173.823
571.886; -147.793; -671.111; -581.799
572.164; -125.608; -739.121; -621.782
572.443;  -89.813; -562.105; -512.811
572.721;  -15.557; -399.117; -289.790
572.999;  -78.666; -280.117; -168.788
573.277;  223.178;  379.894;  620.191
573.555;  507.981;   94.894;   37.190
573.834; 2123.133;  -86.117; -114.788
574.112; 2476.264;  880.893;  811.193
574.390;  810.117; -143.111;  -96.801
574.668;   -7.304;  -91.112;  -61.797
574.946;  -21.619; -165.106; -187.810
575.224;   45.734;   71.891;  -16.803
575.502;  -30.251; -200.116; -204.791
575.780; -156.203; -767.112; -829.798
576.058;  308.016; 1589.889; 1004.200
576.336;  -25.576; -210.110; -129.801
576.614; -105.002; -511.112; -340.798
576.891;   67.069; -711.115; -823.794
577.169;  745.151; -158.108; -285.805
577.447;  870.663;  169.893;  202.193
577.725;  487.504;  629.888;  854.201
578.003;   13.201;  -71.112; -371.798
578.280;  184.300; -208.104; -242.812
578.558;   55.967; -450.115; -422.793
578.836;  210.979; -210.114; -145.795
579.114;   40.895; -630.112; -670.797
579.391;  118.236;   -6.117;  -18.789
579.669; -146.430; -595.114; -704.794
579.947;  328.958; -326.107; -127.806
580.224;  457.958; -692.107; -524.806
580.502;  512.364;  127.893;   76.193
580.779;   42.244;  -42.117;   75.210
581.057; -138.160; -584.109; -470.804
581.334; -187.479; -726.102; -695.815
581.612;  113.482;   54.895;  511.190
581.889;  -45.560;  -83.101; -129.818
582.167;  -49.240; -298.099; -190.821
582.444; -209.668; -845.102; -814.817
582.721;  274.633;  657.899;  715.183
582.999;   96.856; -326.100; -167.821
583.276;  801.468; -812.123; -713.779
583.553; 1026.525; -364.102; -294.816
583.831;  364.595; -607.104; -631.812
584.108;  121.348;  349.892;  174.195
584.385;   49.420; -122.102;  -98.815
584.662; -170.481; -651.111; -828.801
584.940;   88.318;  204.889;  204.199
585.217;  -53.312;  -73.113; -303.796
585.494;  104.431;   71.890;  118.198
585.771;  316.641; -250.109; -354.804
586.048;  764.888; -196.113;  -76.796
586.325;  446.023; -721.110; -773.801
586.602;  170.900;  230.896;  213.188
586.879;  -56.649; -499.100; -580.820
587.156;   78.883; -156.105; -331.810
587.433;  -99.971; -701.102; -667.817
587.710;  162.198;  152.888;  234.202
587.987;  456.191; -264.105; -236.811
588.264; 1214.301;  315.888;  387.202
588.541; 2142.104;  -61.104;   26.187
588.818; 3927.145;   72.892;  171.196
589.095; 3413.397; -163.104; -174.812
589.371;  544.939; -459.109; -414.804
589.648;    2.364; -581.107; -437.807
589.925;   36.480; -517.114; -621.795
590.202;  -11.502; -741.112; -607.798
590.478;  148.293; -166.105;  -73.811
590.755;  474.253; -241.108; -132.806
591.032; 3984.326; -741.110; -699.802
591.308; 4969.231; -732.094; -790.831
591.585; 2741.825; -573.110; -560.802
591.862;  156.031;-1056.102; -950.817
592.138;  106.550; -475.108; -474.805
592.415;  206.101; -486.104; -495.813
592.691; 2383.998;  460.896;  518.188
592.968; 2661.677; -208.098; -123.824
593.244; 1311.447; -695.116; -595.790
593.521;  105.632; -105.102;  -42.817
593.797;  -68.027; -810.122; -720.780
594.074;  458.295; -611.096; -588.826
594.350; 1070.110;  828.905;  729.172
594.626;  439.819; -303.111; -283.801
594.903;  169.233; -643.101; -645.817
595.179;  324.107;  243.896;  418.187
595.455;   63.066; -136.107; -150.807
595.731;   23.109;  -19.103;  -38.814
596.008;  -70.889; -464.111; -434.800
596.284;   62.155; -187.100; -242.820
596.560;   90.440; -501.093; -493.833
596.836;  294.386; -173.105;  -70.810
597.112;  528.951; -582.108; -437.805
597.388;  387.192;  -49.097;  -48.826
597.665;  216.892;  437.887;  530.203
597.941; -125.718; -572.089; -658.839
598.217;   33.030; -323.110; -293.802
598.493;  395.244;   61.891; -204.804
598.769;  754.846; -175.100;  -50.819
599.045;  391.855; -490.108; -562.806
599.321;  112.153; -193.100; -261.820
599.597;  229.443; -355.109; -476.804
599.872;  789.204;  409.896;  429.187
600.148;  545.794;  -61.097; -172.826
600.424;  503.362;   91.893;  202.193
600.700;  356.965; -170.107; -280.807
600.976;  179.086; -442.097; -464.825
601.252;  382.338; -226.109; -272.803
601.527;  250.405; -833.104; -840.813
601.803;  238.594; -453.105; -404.812
602.079;  310.346; -124.100; -118.819
602.354;  836.254; -620.092; -531.835
602.630; 1226.688; -140.113; -482.796
602.906; 3870.340; -910.101; -863.818
603.181; 9880.718; -627.119; -534.786
603.457; 8496.990;   98.903; -278.826
603.733; 1292.995; -605.120; -626.783
604.008; 1627.782; -245.106; -164.810
604.284; 4414.435; -636.101; -580.817
604.559; 3968.904;   -3.112;  -42.799
604.835;  764.086; -163.105; -225.810
605.110;  613.161; -732.099; -892.821
605.385; 1103.944;  224.907;  267.167
605.661; 1069.114; -625.095; -729.829
605.936; 1701.455; -664.108; -737.806
606.211; 1475.518;  -17.103; -170.815
606.487;  298.373; -329.114; -376.794
606.762;   -4.882; -791.119; -745.786
607.037;  -14.514; -501.105; -433.810
607.313;  -65.795; -589.096; -574.828
607.588;   14.381; -375.106; -137.810
607.863;   98.339;  -28.101; -143.818
608.138;  355.828;  513.890;  516.198
608.413;   14.466; -576.099; -592.822
608.688;   77.150; -203.108; -267.805
608.964;  265.473; -509.106; -218.809
609.239;  401.382; -107.105; -212.810
609.514;  438.194;  281.895;  240.188
609.789;  982.500; -187.104; -716.812
610.064; 1249.503; -435.096; -609.827
610.339; 1388.239; -855.109; -799.804
610.614; 1702.754; -131.100; -315.820
610.889; 1036.294;  215.895;  107.188
611.163;   22.795; -407.104; -591.812
611.438;  152.475;   81.886; -167.794
611.713;   -7.165; -467.101; -499.817
611.988;  138.438; -144.101; -328.818
612.263;  -56.979; -771.102; -717.815
612.538;  384.187;  385.887;  251.204
612.812;  216.156; -832.100; -911.820
613.087;  207.473; -358.098; -338.823
613.362;  -93.535; -497.107; -557.807
613.637;  116.313;  261.897;  138.186
613.911;  -38.945; -256.092; -345.835
614.186;  249.563; -249.107; -292.807
614.460;  994.788; -842.081; -758.854
614.735; 1161.515;  -55.087;  -17.843
615.010;  264.501;   43.912;  -82.841
615.284;  459.549;  360.892;  246.195
615.559;  457.853; -792.092; -955.835
615.833;  453.663;  -76.099;  -87.822
616.108;    4.270; -225.090; -390.837
616.382;  284.117;  274.913;  402.156
616.656;  269.471; -241.090; -232.837
616.931;  773.364; -785.099; -700.822
617.205; 1501.006; -973.104; -979.813
617.480; 1440.439;  -91.125;    6.225
617.754;  235.536; -396.125; -128.774
618.028;   25.894; -369.129; -382.768
618.302;  118.647;   73.892;  -25.805
618.577;  -66.485; -371.103; -518.815
618.851; -119.466; -399.109; -600.803
619.125;  -27.169; -335.134; -378.759
619.399;  -45.894; -244.104; -374.813
619.673;  -57.142; -330.115; -515.792
619.947;  -72.121; -333.114; -448.795
620.222;  -15.179; -198.110; -204.801
620.496;   -1.308;  -47.121;  -96.782
620.770;   56.980; -187.122;  -93.781
621.044;  357.583;  323.895;  346.190
621.318; 1099.296; -653.120; -614.783
621.592;  984.293; -430.121; -409.783
621.866;  538.205; -476.112; -572.799
622.140;   20.449; -207.116; -356.791
622.413;  134.911;  138.889;  112.200
622.687;  -73.565; -746.101; -492.817
622.961;   49.147; -130.108; -143.805
623.235; -116.488; -633.111; -661.800
623.509; -187.207; -816.105; -848.811
623.783;   36.760;  -12.107;   48.193
624.056;  -19.003; -254.120; -280.783
624.330;  122.396;   63.888;   -3.797
624.604;   96.745; -271.116; -355.790
624.877;  121.627;  180.890;   26.198
625.151;   60.371; -249.114; -238.794
625.425;  -41.291; -150.103; -283.814
625.698;  -63.590; -367.119; -374.785
625.972; -198.570; -799.110; -765.802
626.245;  191.047;  685.884;  484.210
626.519; -103.797; -426.120; -340.784
626.792;  -29.835; -192.107; -380.807
627.066; -178.230; -485.122; -662.779
627.339; -164.475; -736.110; -663.802
627.613;  114.601;  351.880;  148.216
627.886;  123.833;  187.891; -612.803
628.160;  -34.005;  312.880; -161.783
628.433; -136.957; -695.125; -703.775
628.706; -149.397; -517.120; -615.784
628.979;  105.752;  296.876;  117.223
629.253; -162.483; -785.119; -833.786
629.526;  613.721; -334.126; -253.772
629.799;  428.062; -641.123; -479.778
630.072;  214.296; -497.128; -516.769
630.346; -127.553;-1115.116;-1080.790
630.619;  724.266; -467.107; -545.808
630.892;  983.113;  709.889;  593.200
631.165;  603.206;  790.896;  679.187
631.438; -205.999;-1092.112;-1055.798
631.711;  145.667;  453.877;  257.221
631.984; -130.260; -523.117; -624.789
632.257;  -85.864; -636.117; -681.789
632.530;  -76.489; -412.119; -433.785
632.803;  100.568; -109.115;    7.207
633.076; -122.142; -360.123; -422.777
633.349;   72.902;  173.872;  121.231
633.622;  -47.691; -187.119; -240.785
633.895; -189.703; -903.120; -823.783
634.167; -110.776; -496.126; -525.773
634.440;   15.956;  -19.116; -137.792
634.713;   26.016;  -22.119; -120.786
634.986;  197.287;  593.871;  453.233
635.258; -153.434; -507.115; -597.793
635.531;  223.030;  742.882; -343.788
635.804;  -42.761; -303.117; -318.789
636.077; -162.649; -830.116; -852.791
636.349;  -60.036; -586.115; -474.793
636.622;  765.120; 1695.874; 1392.228
636.894;  365.703; -474.120; -909.784
637.167;  191.912; -836.127; -789.771
637.439;   45.206; -278.128; -213.770
637.712;  -50.378; -312.126; -293.772
637.984; -139.548; -635.116; -707.791
638.257;  715.758;  515.877;  488.222
638.529;  713.044; -881.125; -924.776
638.802;  390.496; -508.128; -449.769
639.074; -235.521; -927.122; -952.781
639.346; -242.481; -942.135; -930.757
639.619;   20.026;  -79.142; -319.744
639.891;   17.970;  -83.122; -168.779
640.163; -160.428; -689.122; -756.780
640.435;   82.175;  273.878;  103.220
640.708;    6.778;  -72.122; -132.780
640.980;  -54.520; -366.122; -362.781
641.252;  328.083;  -25.121;  -71.781
641.524; 2816.785;  580.879;  573.219
641.796; 2473.688;-1094.121; -907.782
642.068;  482.391; -191.121; -300.782
642.340;  -98.407; -486.121; -566.783
642.613;  120.196;  294.880;  323.217
642.885; -188.502; -787.120; -878.783
643.157; -114.099; -810.120; -658.784
643.428;  145.804;  170.880;  218.216
643.700; -114.794; -498.120; -425.784
643.972;  -24.091;  -16.119; -133.785
644.244; -140.689; -474.119; -559.785
644.516;  -83.086; -250.119; -114.786
644.788;  142.617;  662.881;  548.214
645.060;  -18.581;  -12.119; -124.786
645.332; -151.378; -525.118; -535.787
645.603;   80.224;  479.882;  342.213
645.875; -122.073; -334.118; -369.787
646.147;  360.830; 1487.882; 1242.212
646.418;  -89.068; -931.117; -918.788
646.690;  162.335; -714.117; -715.789
646.962;   62.337; -413.117; -451.789
647.233;   -4.960;   15.883;   11.211
647.505; -117.158; -595.117; -475.790
647.776;   79.145;  328.884;  229.210
648.048;   32.548; -248.116; -418.790
648.320; -162.450; -752.116; -679.791
648.591; -260.447;-1055.116; -958.791
648.862; -146.545; -505.116; -577.792
649.134;   87.758;  115.885;  198.208
649.405; -119.839; -661.115; -618.792
649.677; -127.237; -475.115; -598.793
649.948;  -48.234; -181.115; -296.793
650.219;   16.768;  -37.115; -147.793
650.491; -146.529; -431.114; -520.794
650.762; -168.226; -705.114; -731.794
651.033; -144.924; -437.114; -424.795
651.304; -172.221; -743.114; -728.795
651.576; -110.619; -680.114; -645.795
651.847;  -31.616; -250.113; -140.796
652.118;  -32.013;  -32.113; -189.796
652.389; -166.811; -639.113; -722.796
652.660;  -64.008; -147.113;  -89.797
652.931; -235.806; -897.112; -871.797
653.202; -137.503; -382.112; -541.798
653.473; -107.000; -633.112; -533.798
653.744;  176.002; -595.112; -590.798
654.015;  208.005; -356.112; -303.799
654.286; -137.493; -642.111; -663.799
654.557;  -96.090; -586.111; -521.799
654.828; -295.887;-1114.111;-1088.800
655.099; -108.085; -404.111; -291.800
655.370; -181.982; -427.111; -543.801
655.641; -237.380; -656.110; -714.801
655.911; -186.777; -618.110; -638.801
656.182;  140.326;  437.890;  387.198
656.453;  229.928;  830.890;  746.198
656.724;  -88.069; -466.110; -426.802
656.994; -151.867; -553.109; -568.803
657.265; -213.364; -862.109; -873.803
657.536; -150.361; -500.109; -377.804
657.806; -121.959; -561.109; -593.804
658.077; -250.756; -866.109; -950.804
658.347; -136.254; -523.108; -598.805
658.618; -228.151; -646.108; -694.805
658.888;   24.752;  -41.108;  112.195
659.159; -140.046; -432.108; -548.806
659.429;   -1.643; -292.108; -349.806
659.700;    0.059; -435.107; -390.807
659.970;   -5.538; -370.107; -359.807
660.241;  -15.035; -754.107; -921.807
660.511;  756.667; -147.107; -174.808
660.781;   68.170; -793.106; -748.808
661.052;  -32.828; -222.106; -381.808
661.322;  -33.625;   21.894;   -9.809
661.592;   95.278;  257.894;  148.191
661.862; -134.220; -369.106; -382.810
662.133; -149.317; -551.105; -502.810
662.403; -218.815; -770.105; -676.810
662.673;  -61.312; -256.105; -213.811
662.943; -186.309; -612.105; -551.811
663.213;   22.693;  -85.105;  -81.811
663.483; -160.604; -593.104; -568.812
663.753;  -33.702; -194.104; -152.812
664.023;  -17.699;   68.896;  -32.813
664.293;  -54.096; -319.104; -126.813
664.563; -201.294; -694.104; -648.813
664.833; -204.691; -743.103; -608.814
665.103; -239.489; -730.103; -793.814
665.373; -173.486; -766.103; -806.814
665.643; -204.983; -863.103; -918.815
665.913;   34.319; -534.103; -714.815
666.182;  176.722; -685.102; -719.816
666.452;  389.024;  -22.102;  -89.816
666.722;  -94.573; -724.102; -784.816
666.992; -218.570; -948.102; -921.817
667.261; -181.768; -824.102; -808.817
667.531;  347.935;  134.899;   45.183
667.801;  684.937; -440.101; -412.818
668.070;  441.940;  714.899;  697.182
668.340; -209.357; -883.101; -840.819
668.609;  243.145;  588.900;  301.181
668.879; -166.852; -490.100; -558.819
669.149; -106.450; -539.100; -516.820
669.418; -218.747; -698.100; -726.820
669.688;  -27.544; -482.100; -666.820
669.957;   49.158; -423.099; -546.821
670.226;   -7.439; -268.099; -331.821
670.496; -182.637; -431.099; -635.822
670.765;  -97.534; -418.099; -501.822
671.034; -222.631; -872.099; -828.822
671.304;   42.271;   55.902; -111.823
671.573; -286.126;-1085.098; -957.823
671.842;  149.676; -380.098; -294.823
672.112;    5.979; -692.098; -586.824
672.381;   34.282; -239.098; -214.824
672.650; -272.916;-1005.097;-1021.825
672.919; -136.413; -631.097; -507.825
673.188; -175.411; -681.097; -878.825
673.457; -271.208;-1101.097;-1143.826
673.726; -125.705; -579.096; -646.826
673.995;  -47.803; -533.096; -479.826
674.265;  -24.100; -263.096; -333.827
674.534;   31.702; -183.096; -235.827
674.802;  -17.395; -618.096; -703.828
675.071; 1632.807; -886.095; -801.828
675.340; 5556.110; -464.095; -339.828
675.609; 1978.013;  103.905;   82.171
675.878;   52.015; -949.095; -893.829
676.147;   90.618;  -26.095;   -8.829
676.416;  169.120; -210.094; -294.830
676.685; 1232.223; 1000.906; -622.830
676.953;  153.426; -603.094; -452.831
677.222;  -21.572; -193.094; -273.831
677.491;   -5.769;  -24.094; -127.831
677.759;   29.633;   11.907;  172.168
678.028;    5.136; -279.093; -222.832
678.297;   56.339;   71.907;  197.168
678.565; -245.759; -898.093; -944.833
678.834;  -62.256; -311.093; -268.833
679.102; -133.254; -411.092; -391.834
679.371; -244.751; -898.092; -727.834
679.639; -248.448; -797.092; -786.834
679.908; -195.046; -794.092; -724.835
680.176; -280.643; -895.091; -941.835
680.445;  -83.641; -346.091; -352.835
680.713;   28.462;  -58.091;  -23.836
680.982; -116.935; -523.091; -525.836
681.250; -187.733; -578.091; -507.837
681.518; -136.830; -534.090; -751.837
681.787;  -48.328; -204.090; -167.837
682.055;  -91.925; -490.090; -422.838
682.323; -282.622; -993.090; -992.838
682.591;   96.180; -216.090; -538.838
682.859;  135.083;    9.911;  -35.839
683.128;   91.085;  232.911;  497.161
683.396; -293.912;-1102.089;-1122.840
683.664;  -28.609; -241.089;   21.160
683.932;   30.193;  144.911;  -76.840
684.200; -104.504; -576.088; -320.841
684.468;  -35.102;  -73.088; -124.841
684.736;  -15.399; -214.088; -175.841
685.004; -229.496;-1024.088; -982.842
685.272;  -96.994; -880.088; -774.842
685.540; -130.291; -499.087; -557.843
685.808; -135.389; -651.087; -682.843
686.076; -201.186; -894.087; -969.843
686.343;  -79.383; -601.087; -815.844
686.611;   53.619; -195.087; -224.844
686.879;  834.722; -530.086; -553.844
687.147; 4808.224; -483.086; -480.845
687.414; 1394.327;  -12.086; -169.845
687.682;   -9.070; -658.086; -757.846
687.950;  559.232;  259.915;  263.154
688.217;  -21.265; -792.085; -760.846
688.485;   29.137; -632.085; -636.847
688.753;  778.740;  -11.085; -102.847
689.020;  210.543; -820.085; -851.847
689.288; -202.755; -853.084; -787.848
689.555;  -29.252; -195.084; -148.848
689.823;  -67.150; -241.084; -345.849
690.090; -121.347; -546.084; -651.849
690.358; -281.544; -877.084; -897.849
690.625;   65.858;  120.917;   45.150
690.892; -115.839; -403.083; -369.850
691.160;   22.163;   72.917;  -35.850
691.427;   57.866;  141.917;  130.149
691.694; -215.831; -855.083; -929.851
691.962; -272.829;-1177.082;-1060.852
692.229;  100.774;  127.918;   56.148
692.496;  149.776;  130.918;  -49.852
692.763;   51.779; -164.082; -201.853
693.031; -120.618; -739.082; -716.853
693.298;  -59.616; -509.081; -368.853
693.565;  503.587; -155.081; -163.854
693.832; 1860.689;   -5.081;   -9.854
694.099;  228.192; -643.081; -642.855
694.366; -127.505; -882.081; -896.855
694.633; -135.303; -920.080; -633.855
694.900; 1524.900; 4367.920; -114.856
695.167;  646.302; -214.080; -380.856
695.434;  152.705; -646.080; -623.856
695.701;  321.708;  121.921;  -61.857
695.968;  706.110; -365.079; -361.857
696.234; 1607.313; -415.079; -646.858
696.501;15170.715; -776.079; -614.858
696.768; 7254.718; -554.079; -617.858
697.035;  442.821; -632.078; -667.859
697.302;   53.623; -448.078; -552.859
697.568;   46.326; -458.078; -497.859
697.835;  -73.572; -683.078; -624.860
698.102;  -21.969; -498.078; -407.860
698.368;  177.834;  384.923;  396.139
698.635;  -14.464;  -47.077; -424.861
698.901;  -17.161; -240.077; -348.861
699.168;  110.941; -534.077; -456.862
699.435;  128.644;  -72.077;  -13.862
699.701; -196.353; -868.076; -764.862
699.968;  -50.551;  144.924; -441.863
700.234; -165.348; -783.076; -822.863
700.500;  -94.146; -448.076; -539.864
700.767;   38.257;   -1.075;   26.136
701.033; -252.140;-1015.075; -963.864
701.299;  -56.438; -450.075; -483.865
701.566;  263.465;  950.925;  763.135
701.832;  107.167;  -31.075;  -76.865
702.098; -193.130;-1054.074;-1034.866
702.365; -184.628;-1098.074;-1030.866
702.631;  -97.725;-1038.074;-1063.867
702.897; 2075.878; -765.074; -676.867
703.163; 3083.380;  348.926;  254.133
703.429;  257.583; -256.073; -273.868
703.695;  -84.515; -796.073; -792.868
703.961;   74.388; -214.073; -210.868
704.227; -113.009; -630.073; -725.869
704.493;  292.893;  613.927;  510.131
704.759;  -23.304; -565.072; -540.870
705.025;   89.498; -203.072; -194.870
705.291;  -16.599; -666.072; -562.870
705.557;  400.804;  719.928;   34.129
705.823;   -4.394; -742.072; -694.871
706.089;  237.609; -307.071; -326.871
706.355;  582.111; -315.071; -244.872
706.620; 8195.814; -776.071; -729.872
706.886;10760.517; -309.071; -362.873
707.152; 1069.919; -818.070; -973.873
707.418;  -89.478;-1153.070;-1186.873
707.683;   44.124; -550.070; -530.874
707.949;  -85.173; -547.070; -578.874
708.215;   33.930; -129.070; -207.874
708.480;  -28.568; -520.069; -420.875
708.746;  204.435;   68.931;   28.125
709.011; -115.863; -578.069; -612.876
709.277; -106.860; -538.069; -543.876
709.542;  -58.657; -428.069; -387.876
709.808;   53.845;  -59.068;   89.123
710.073; -103.652; -577.068; -695.877
710.339;  -20.350; -242.068; -228.877
710.604;   70.253; -780.068; -845.878
710.869;  459.556; -277.068; -366.878
711.135; -151.342; -715.067; -628.879
711.400;  -90.239; -507.067; -608.879
711.665;  -63.737; -404.067; -479.879
711.931; -137.934; -661.067; -677.880
712.196; -223.331; -876.067; -954.880
712.461;  148.271; -402.066; -490.880
712.726;  175.074; -727.066; -771.881
712.991; -143.924; -647.066; -664.881
713.256;  -69.121; -350.066; -332.882
713.521;  -73.118; -417.065; -381.882
713.787;  -92.116; -454.065; -472.882
714.052;  -25.713; -214.065; -400.883
714.317; -162.911;-1045.065; -981.883
714.581; 1492.692; -374.065; -268.883
714.846; 1782.995; -822.064; -888.884
715.111;  253.997;  261.936;  257.116
715.376;  -24.900;  -86.064; -223.885
715.641;    3.002; -365.064; -367.885
715.906;  403.805;   15.936; -551.885
716.171;  276.408;  221.937;  209.114
716.436;   91.810;  -78.063; -104.886
716.700; -152.287; -818.063; -692.886
716.965; -199.785; -794.063; -807.887
717.230;  -64.582; -339.063; -392.887
717.494;  -13.079;  -40.062; -134.888
717.759; -135.077; -784.062; -640.888
718.024;   47.926;  269.938;  250.112
718.288;  189.128;  685.938;  395.111
718.553; -268.369; -803.062; -977.889
718.817; -251.666; -883.061; -899.889
719.082;  -32.964; -115.061; -125.890
719.346; -229.861;-1000.061; -947.890
719.611;  -36.359; -300.061; -255.891
719.875; -141.456; -568.060; -537.891
720.140; -115.153; -453.060; -603.891
720.404;  114.349; -136.060; -249.892
720.668; 1221.952; -475.060; -411.892
720.933;  499.454;  146.940;  137.108
721.197; -159.943; -667.059; -600.893
721.461; -229.840; -851.059; -826.893
721.725;   38.462;  -21.059; -250.894
721.990;  -59.335; -284.059; -204.894
722.254;  -32.333;  -26.059; -108.894
722.518;  -84.530; -286.058; -442.895
722.782; -135.527; -743.058; -594.895
723.046;  296.575;  614.942;  570.105
723.310;   97.878;  374.942;  210.104
723.574; -139.720; -654.058; -614.896
723.838; -171.817; -576.057; -642.897
724.102;  -26.014; -226.057; -239.897
724.366; -247.012;-1032.057; -978.897
724.630; -106.409; -749.057; -571.898
724.894; -126.807; -722.057; -514.898
725.158;   29.096;   38.944; -295.898
725.422;  -64.001; -394.056; -327.899
725.685;  -79.499; -441.056; -349.899
725.949; -152.996; -566.056; -519.900
726.213; -125.494; -732.056; -811.900
726.477;  197.309;-1020.055; -933.900
726.740;  240.612; -274.055; -104.901
727.004;  526.614; -384.055; -510.901
727.268; 4611.817; -442.055; -400.901
727.531; 1100.119; -961.055; -775.902
727.795;  -67.578; -713.054; -673.902
728.059;  -90.375; -552.054; -557.903
728.322; -134.773; -841.054; -669.903
728.586;   29.330; -692.054; -701.903
728.849;  -93.868; -695.053; -756.904
729.112; -212.665; -812.053; -912.904
729.376; -220.363; -959.053; -905.904
729.639;  -99.060; -536.053; -536.905
729.903; -167.857; -733.053; -699.905
730.166;  -60.755; -437.052; -399.906
730.429;  -13.752; -317.052; -468.906
730.693; -129.250; -355.052; -894.906
730.956;  446.953;  810.948;  651.093
731.219; 1009.956; -310.052; -103.907
731.482;  210.558;-1003.051; -894.907
731.745;   88.861; -794.051; -935.908
732.009;   86.963;  -30.051;   50.092
732.272; -182.234; -904.051; -771.909
732.535;  -35.731; -300.051; -310.909
732.798; -278.129;-1083.050;-1166.909
733.061;  -82.026; -430.050; -456.910
733.324;   35.876;   31.950; -180.910
733.587;  160.479;  290.950;  365.090
733.850; -122.018; -973.049;-1050.911
734.113;  108.384;   33.951;   32.089
734.376;    6.287; -328.049; -447.912
734.639;  464.189; 1188.951; 1011.088
734.901;  131.892; -180.049; -402.912
735.164;  802.395; -883.048; -837.913
735.427; 1832.997; -166.048; -355.913
735.690;  248.300; -205.048; -234.913
735.952;  -96.798; -923.048; -925.914
736.215;  -62.795;-1113.048;-1009.914
736.478;   36.208; -771.047; -774.915
736.740;  362.010;   33.953;  129.085
737.003; 1196.713; -658.047; -672.915
737.266; 5880.115;  -94.047;   46.084
737.528;  590.518; -682.047; -660.916
737.791;  494.521; -316.046; -327.916
738.053; 1306.223;  465.954;  649.083
738.316;16192.126; -162.046; -136.917
738.578;10131.928; -770.046; -736.918
738.841;  679.731; -382.046; -446.918
739.103;  254.434; -875.045; -777.918
739.365;  759.936;   79.955;  -69.919
739.628;  -23.361; -884.045; -805.919
739.890;  -35.759; -758.045; -710.919
740.152;  -80.756; -692.044; -754.920
740.414;   47.147; -408.044; -359.920
740.677;  -73.651; -785.044; -634.921
740.939;  -51.748; -587.044; -487.921
741.201;  369.454; -432.044; -572.921
741.463;   85.157; -689.043; -745.922
741.725;   31.860;  -21.043; -199.922
741.987;  156.162;  220.957;  116.078
742.249;  -32.435; -751.043; -859.923
742.511;  303.767; -703.043; -794.923
742.773;   21.570; -546.042; -546.924
743.035;  260.473;  796.958;  533.076
743.297;  -78.025; -963.042;-1013.924
743.559; 1097.378; -278.042; -262.925
743.821;   60.180; -735.042; -744.925
744.083;   67.983;  -44.041; -149.925
744.345; -154.314; -869.041; -892.926
744.607;  129.688;   75.959;  122.074
744.868;  -91.009; -490.041; -554.927
745.130; -208.807; -994.041;-1008.927
745.392;  114.996;   -1.040;  -44.927
745.653;   22.199; -411.040; -378.928
745.915;  342.601;  896.960;  631.072
746.177;  134.104;   35.960;  -43.928
746.438;   -0.394; -428.040; -543.929
746.700;  -94.391; -947.039; -988.929
746.961;  -32.388; -659.039; -740.930
747.223;  223.614; -190.039;  -74.930
747.484;  152.717; -391.039; -471.930
747.746;  280.719;  -23.038; -106.931
748.007;  140.322; -647.038; -689.931
748.269;  486.525; -468.038; -440.931
748.530;  687.327; -852.038; -638.932
748.791;  451.930; -354.038; -420.932
749.053;  759.532;  286.963;  163.067
749.314;  764.835; -236.037; -169.933
749.575;  706.838; -945.037; -905.933
749.836; 1323.240; -217.037;   86.066
750.098; 4327.043;  -60.037;  -21.934
750.359;53046.945;  414.964;  555.066
750.620;12547.748; -121.036; -220.935
750.881; 1641.951; -585.036; -513.935
751.142; 2098.853; -950.036; -938.936
751.403;25326.656; -789.036; -705.936
751.664; 9927.358;-1034.035; -999.936
751.925;  804.961; -175.035; -262.937
752.186;  462.164; -298.035; -278.937
752.447;  224.266; -590.035; -445.937
752.708;   91.469; -532.035; -648.938
752.969;   62.871; -566.034; -576.938
753.230;  -19.326; -777.034; -672.939
753.491;    9.177; -650.034; -631.939
753.751;  144.079;  109.966;   19.061
754.012;  214.482;  258.967;  181.060
754.273;  104.784; -174.033;  -71.940
754.534;   48.087; -487.033; -580.940
754.794; -158.210; -926.033; -911.941
755.055;  336.392; 1051.967;  881.059
755.316;  -74.905; -700.032; -566.942
755.576;  -24.803; -606.032; -576.942
755.837;  -80.600; -527.032; -695.942
756.097;  -29.998; -530.032; -564.943
756.358; -130.895; -725.032; -770.943
756.618;  -29.792; -705.031; -641.943
756.879;   28.310; -254.031; -349.944
757.139; -189.787;-1098.031;-1116.944
757.400; -100.585; -538.031; -553.945
757.660;   11.818; -365.031; -401.945
757.920;   55.921; -266.030; -228.945
758.181;   32.623; -468.030; -351.946
758.441; -171.874; -870.030; -809.946
758.701;    5.828; -308.030; -215.946
758.961;  -20.369; -220.030; -278.947
759.222;  -71.566; -574.029; -502.947
759.482; -109.764; -683.029; -723.948
759.742; -103.661; -706.029; -547.948
760.002;   87.041;  -83.029; -143.948
760.262;  105.144;   50.972;  182.051
760.522;  -58.453; -498.028; -574.949
760.782;  -78.051; -738.028; -612.949
761.042;  -71.348; -618.028; -573.950
761.302;  131.554;   55.972;  -18.950
761.562;  136.457; -164.027; -154.951
761.822;  153.060; -710.027; -551.951
762.082;  -74.638;-1104.027;-1093.951
762.342;  144.165; -328.027; -403.952
762.601;  139.167; -567.027; -506.952
762.861;  664.670; -281.026; -207.952
763.121;  722.673; -406.026; -411.953
763.381;12806.075; -499.026; -485.953
763.640;12025.978; -139.026; -307.954
763.900;  624.580; -242.026; -203.954
764.160;  166.983; -458.025; -491.954
764.419;   -6.714; -726.025; -782.955
764.679; -133.912; -795.025; -726.955
764.939;   24.091; -124.025; -210.955
765.198; -126.907; -608.025; -563.956
765.458; -125.104; -710.024; -612.956
765.717; -140.901; -454.024; -590.957
765.976;  -51.899; -428.024; -411.957
766.236; -105.896; -475.024; -610.957
766.495;  110.706;  260.977;   73.042
766.755; -192.591;-1090.023; -987.958
767.014;   30.212; -594.023; -665.958
767.273;  -57.386; -373.023; -397.959
767.533;  -27.383; -228.023; -307.959
767.792;  -25.681; -151.022; -188.960
768.051;  -39.878; -228.022; -276.960
768.310; -118.975; -546.022; -650.960
768.569;   19.527; -161.022;    4.039
768.828;  -52.970; -285.022; -363.961
769.088; -176.068;-1050.021; -942.961
769.347; -116.565; -755.021; -599.962
769.606; -139.462; -876.021; -857.962
769.865; -235.960;-1016.021;-1033.963
770.124;   19.943; -411.021; -336.963
770.383;  -88.755; -778.020; -910.963
770.641;    8.548; -398.020; -400.964
770.900; -146.049; -953.020; -846.964
771.159;  -77.147; -851.020; -951.964
771.418;  -81.844; -917.020; -779.965
771.677;  234.058; -224.019; -293.965
771.936;  142.761; -794.019; -865.966
772.194; 3800.464; -465.019; -437.966
772.453;15423.266; -213.019; -391.966
772.712; 1279.169;  416.982;  329.033
772.970;  228.871;   32.982;   63.033
773.229;  191.274;  -22.018;  102.033
773.488; -136.923; -814.018; -770.968
773.746;  124.179;  296.982;  335.032
774.005;   64.582;  190.983;  -22.969
774.263;   69.284;  243.983;  177.031
774.522; -154.913; -422.017; -548.969
774.780; -101.410; -484.017; -417.970
775.039; -135.308; -551.017; -531.970
775.297;    8.795; -135.016; -351.970
775.555; -157.503; -489.016; -612.971
775.814; -193.400; -618.016; -570.971
776.072; -230.297; -749.016; -740.971
776.330; -126.195; -630.016; -520.972
776.589; -209.192; -703.015; -721.972
776.847; -222.490; -645.015; -624.973
777.105; -300.587;-1016.015;-1032.973
777.363; -100.784; -459.015; -454.973
777.621; -218.682; -660.015; -717.974
777.879;   31.221;  -42.014;   32.026
778.138; -142.977; -554.014; -717.974
778.396; -148.674; -585.014; -526.975
778.654; -303.571;-1015.014; -970.975
778.912;  -65.869; -269.014; -371.976
779.170; -242.666; -880.013; -803.976
779.427; -210.764; -922.013; -897.976
779.685; -230.261; -880.013; -832.977
779.943; -137.858; -654.013; -593.977
780.201; -264.056; -964.012; -883.978
780.459; -167.453; -651.012; -610.978
780.717; -126.151; -440.012; -390.978
780.974; -114.548; -449.012; -490.979
781.232;  -71.445; -358.012; -338.979
781.490; -119.743; -551.011; -472.979
781.747; -171.240; -555.011; -476.980
782.005;  117.662;  462.989;  254.020
782.263; -298.135; -542.011;-1004.981
782.520;  -90.033; -326.011; -501.981
782.778; -294.330;-1013.010;-1051.981
783.035; -283.827; -962.010; -938.982
783.293;  -63.125; -248.010; -206.982
783.550;  -28.822; -134.010; -198.982
783.808; -232.120; -764.010; -776.983
784.065; -271.817; -745.009; -874.983
784.322;  -55.314;   25.991;  -86.984
784.580; -220.112; -915.009; -771.984
784.837; -168.509; -392.009; -466.984
785.094; -204.407; -783.009; -762.985
785.352;  -98.304; -304.008; -404.985
785.609; -164.001; -934.008; -839.985
785.866; -102.999; -345.008; -401.986
786.123;  -80.396; -639.008; -583.986
786.380; -183.194; -665.008; -604.987
786.637;    1.909; -225.007; -380.987
786.895;  -62.288; -456.007; -543.987
787.152;  -32.786; -135.007; -267.988
787.409;  -23.383; -123.007; -225.988
787.666;  -84.081; -299.006; -378.988
787.923; -166.478; -616.006; -695.989
788.179; -136.775; -551.006; -584.989
788.436; -164.073; -585.006; -585.990
788.693;    5.730;  -92.006;  -87.990
788.950;  311.632; -125.005; -112.990
789.207;  293.135; -381.005; -372.991
789.464;  -73.362; -161.005; -301.991
789.720;   38.740;  150.995;  110.009
789.977; -292.557;-1003.005; -671.992
790.234;   26.445;   44.996;  -66.992
790.490; -251.152; -884.004;-1031.993
790.747;   14.151;  -85.004;   22.007
791.004;  -50.047; -426.004; -348.993
791.260;  -88.244; -430.004; -560.994
791.517; -169.242; -843.003; -788.994
791.773;  -64.439; -379.003; -342.994
792.030; -181.636; -596.003; -660.995
792.286; -131.834; -686.003; -636.995
792.543;   11.269;  -74.002; -159.995
792.799;  -41.329; -584.002; -382.996
793.055; -275.526;-1179.002;-1210.996
793.312; -130.723; -827.002; -816.997
793.568; -106.921; -746.002; -599.997
793.824;   70.282; -226.001; -284.997
794.081;   27.984; -447.001; -508.998
794.337;  177.087; -664.001; -561.998
794.593; 2691.790; -319.001; -271.999
794.849;10081.292; -746.001; -772.999
795.105;  517.095; -270.000; -261.999
795.361;   61.597; -490.000; -457.000
795.617; -125.300; -875.000; -945.000
795.873;  -29.500; -360.000; -407.000
796.129;  -23.100; -368.000; -306.000
796.385;   53.400; -124.000; -156.000
796.641;  180.300;  412.000;  550.000
796.897;  -66.800; -666.000; -635.000
797.153;  195.600;  453.000;  357.000
797.409; -156.100; -785.000; -868.000
797.665; -131.200; -625.000; -732.000
797.921;  -88.300; -775.000; -762.000
798.176; -122.700; -744.000; -747.000
798.432;  -86.000; -824.000; -596.000
798.688; -173.700;-1174.000;-1078.000
798.943;  160.500; -165.000; -147.000
799.199;  -39.000;-1005.000; -959.000
799.455;  429.300;  369.000;  316.000
799.710;  139.700; -813.000; -380.000
799.966;  450.900; -162.000; -160.000
800.221;  742.500; -638.000; -721.000
800.477;15978.400; -743.000; -710.000
800.732;11644.400; -773.000; -800.000
800.988;  974.900;  205.000;  -19.000
801.243; 3199.200; -454.000; -344.000
801.498;11105.500; -814.000; -739.000
801.754;  644.700; -289.000; -163.000
802.009;  176.200; -257.000; -335.000
802.264; -106.200; -967.000;-1033.000
802.520;  105.000;  222.000;   -3.000
802.775;  -62.600; -524.000; -359.000
803.030;  168.500;  395.000;  356.000
803.285; -220.800; -840.000; -903.000
803.540;  -64.000; -686.000; -699.000
803.795; -103.400; -648.000; -583.000
804.051;  -19.500; -279.000; -346.000
804.306;   92.600;  168.000;  128.000
804.561;  326.700;  451.000;  362.000
804.816;  303.800;  714.000;  861.000
805.071;   65.500; -185.000; -280.000
805.325;  306.600; -257.000; -427.000
805.580; -148.000; -841.000; -877.000
805.835;  -30.200; -204.000; -297.000
806.090;  -93.000; -760.000; -676.000
806.345;  -28.500; -344.000; -264.000
806.600;   -7.700; -549.000; -632.000
806.854;  -43.600; -408.000; -538.000
807.109;   44.400; -493.000; -577.000
807.364;   17.400; -407.000; -328.000
807.618;   58.500; -415.000; -381.000
807.873;   87.700; -470.000; -494.000
808.128;  201.200; -257.000; -518.000
808.382;  161.000; -224.000; -332.000
808.637;  152.000; -440.000; -511.000
808.891;  307.400; -257.000; -180.000
809.146;  164.500; -902.000; -794.000
809.400;  422.300; -848.000; -923.000
809.654;  535.000; -779.000; -551.000
809.909;  771.600; -841.000; -927.000
810.163;12085.600; -813.000; -651.000
810.418;24758.700; -940.000; -861.000
810.672; 1569.600; -685.000; -690.000
810.926; 1105.500; -993.000; -973.000
811.180; 2444.700; -439.000; -372.000
811.434;50556.900;  240.000;  135.000
811.689;16680.100; -231.000; -365.000
811.943;  907.100; -936.000; -953.000
812.197;  508.200; -893.000; -671.000
812.451;  225.600; -379.000; -514.000
812.705;  -45.600; -809.000; -619.000
812.959;   -0.500; -263.000; -388.000
813.213;   39.600; -283.000; -209.000
813.467;  174.500;  470.000;  253.000
813.721; -152.300; -764.000; -792.000
813.975; -210.100; -826.000; -877.000
814.229;  147.400;  430.000;  353.000
814.482; -112.200; -517.000; -566.000
814.736; -169.000; -766.000; -744.000
814.990; -218.900; -779.000; -872.000
815.244;  -43.900; -228.000; -285.000
815.497; -116.300; -636.000; -601.000
815.751;   52.000; -141.000;   82.000
816.005; -131.900; -470.000; -586.000
816.258;  -41.700; -510.000; -363.000
816.512; -184.900; -693.000; -610.000
816.766;   67.700;  121.000;  157.000
817.019;  106.500;  148.000;  149.000
817.273; -174.100;-1000.000; -802.000
817.526;  -61.400; -206.000; -173.000
817.779;  -53.600;-1049.000; -960.000
818.033; -142.900; -693.000; -807.000
818.286; -173.600; -725.000; -792.000
818.540; -132.300; -403.000; -403.000
818.793;  -90.100; -402.000; -489.000
819.046; -138.900; -582.000; -520.000
819.299;   15.900; -157.000; -166.000
819.553; -151.700; -552.000; -592.000
819.806; -213.600;-1016.000; -838.000
820.059;  -50.900; -334.000; -354.000
820.312;   84.000;  152.000;  185.000
820.565;   36.300;  110.000;  -27.000
820.818;  -10.400;  -59.000; -173.000
821.071; -272.100;-1041.000; -957.000
821.324; -149.000; -536.000; -540.000
821.577; -138.600; -457.000; -483.000
821.830;  -61.300; -270.000; -172.000
822.083; -224.900; -733.000; -288.000
822.336;  -24.700; -261.000; -167.000
822.589; -234.400; -805.000; -688.000
822.842; -232.100; -875.000; -770.000
823.094; -322.700;-1076.000;-1114.000
823.347; -183.600; -925.000; -729.000
823.600;   43.800;  402.000;  187.000
823.853;  -44.300; -311.000; -267.000
824.105; -100.300; -331.000; -575.000
824.358; -157.500; -617.000; -716.000
824.611;   99.500;  234.000;   40.000
824.863;  -45.700; -612.000; -591.000
825.116;   84.400;  -33.000;   27.000
825.368;  172.200; -366.000; -372.000
825.621;  252.400; -186.000; -240.000
825.873;  115.800; -704.000; -737.000
826.126;  997.700; -669.000; -641.000
826.378;17755.400; -389.000; -505.000
826.630; 3340.700; -890.000; -898.000
826.883;   52.800; -754.000; -693.000
827.135;   84.200; -279.000; -270.000
827.387; -155.900; -893.000; -839.000
827.639;  -38.300;  -86.000;   32.000
827.892; -190.000; -742.000; -582.000
828.144; -246.100; -848.000; -804.000
828.396;  -15.300;  104.000;  -80.000
828.648; -167.200; -440.000; -333.000
828.900; -225.100; -702.000; -795.000
829.152; -172.100; -684.000; -683.000
829.404;  -58.900; -215.000; -267.000
829.656;   55.900;  321.000;  214.000
829.908;   61.200;  393.000;  229.000
830.160; -278.000;-1064.000;-1047.000
830.412; -123.100; -481.000; -430.000
830.664; -216.700; -557.000; -665.000
830.916;  -71.600; -268.000; -206.000
831.167; -305.100;-1073.000; -951.000
831.419; -136.700; -623.000; -566.000
831.671; -256.300; -764.000; -809.000
831.923; -106.900; -311.000; -447.000
832.174;  -92.300; -273.000; -331.000
832.426; -150.800; -493.000; -582.000
832.678; -322.600;-1043.000;-1091.000
832.929; -263.100; -947.000; -935.000
833.181; -125.300; -575.000; -677.000
833.432;  -34.500;  -59.000; -186.000
833.684;   -1.000;  112.000;  -27.000
833.935; -139.900; -610.000; -566.000
834.187; -187.400; -829.000; -823.000
834.438;  -26.900;  -58.000;  -25.000
834.689;  -64.000; -255.000; -123.000
834.941;  -29.200; -343.000; -244.000
835.192; -156.600; -590.000; -533.000
835.443; -125.400; -419.000; -506.000
835.695;   65.700;  138.000;  -16.000
835.946; -140.300; -608.000; -378.000
836.197; -171.100; -599.000; -622.000
836.448; -108.500; -528.000; -395.000
836.699; -114.400; -253.000; -341.000
836.950;   46.300;   72.000;    7.000
837.201; -270.900;-1003.000; -987.000
837.452;  -37.500; -356.000; -170.000
837.703; -192.400; -791.000; -737.000
837.954;  -38.600; -205.000; -365.000
838.205; -154.900;-1029.000;-1008.000
838.456;  328.900; -196.000; -282.000
838.707;   22.300; -423.000; -519.000
838.958;   35.600; -634.000; -647.000
839.209;  466.700;   18.000;   40.000
839.460;  232.500; -439.000; -201.000
839.710;  321.500; -135.000; -297.000
839.961;  766.800;  730.000;  612.000
840.212;  539.300; -382.000; -497.000
840.462; 1911.100; -328.000; -277.000
840.713;28566.700; -571.000; -536.000
840.964; 9181.300;  -62.000; -143.000
841.214;  757.300; -384.000; -624.000
841.465;  939.800; -214.000; -141.000
841.715;  838.700; -417.000; -380.000
841.966; 1061.300; -746.000; -685.000
842.216;17418.900; -330.000; -431.000
842.466;51690.500; -169.000; -313.000
842.717; 2191.200; -964.000; -952.000
842.967;  618.800; -635.000; -641.000
843.217;  466.300;   20.000;   28.000
843.468;  189.000; -104.000; -132.000
843.718;  -52.000; -718.000; -726.000
843.968; -141.000; -837.000; -765.000
844.218;   53.500; -315.000; -262.000
844.469;  -70.000; -577.000; -561.000
844.719; -170.600; -537.000; -682.000
844.969; -105.700; -550.000; -580.000
845.219; -255.300; -814.000; -862.000
845.469;  -92.200; -392.000; -342.000
845.719; -229.000; -792.000; -884.000
845.969;   82.900;  119.000;  174.000
846.219; -178.300; -738.000; -720.000
846.469;  123.500;  464.000;  432.000
846.718;  -49.800; -115.000;   31.000
846.968; -201.000; -827.000; -827.000
847.218;  -53.800; -224.000; -371.000
847.468; -141.500; -586.000; -555.000
847.718; -236.500; -827.000; -798.000
847.967; -226.500; -826.000; -915.000
848.217; -120.900; -449.000; -569.000
848.467;  -64.200; -405.000; -376.000
848.716; -155.200; -708.000; -725.000
848.966;   59.900; -372.000; -358.000
849.215; -103.800; -428.000; -419.000
849.465; -124.000; -785.000; -615.000
849.714; -271.500;-1132.000;-1150.000
849.964;  -67.900; -551.000; -613.000
850.213;   -5.000; -393.000; -355.000
850.463;  192.700;  137.000;  340.000
850.712;    0.500; -542.000; -567.000
850.961;   17.300; -739.000; -678.000
851.211;  160.700; -513.000; -504.000
851.460;  250.900; -635.000; -650.000
851.709;  847.500;  -25.000;   18.000
851.958;16887.200; -912.000; -750.000
852.208;16542.300; -859.000; -879.000
852.457;  730.400; -181.000;  -13.000
852.706;   96.500; -791.000; -823.000
852.955;   -1.800; -507.000; -528.000
853.204; -107.300; -521.000; -461.000
853.453;  -83.200; -418.000; -458.000
853.702; -232.000; -660.000; -750.000
853.951; -148.400; -532.000; -520.000
854.200; -176.700; -613.000; -562.000
854.449; -196.500; -695.000; -661.000
854.698; -141.800; -340.000; -279.000
854.946;  -97.100; -181.000; -284.000
855.195; -259.600; -843.000; -868.000
855.444; -109.800; -395.000; -420.000
855.693; -194.800; -345.000; -432.000
855.941; -161.900; -387.000; -516.000
856.190;  -75.800; -256.000; -382.000
856.439; -192.600; -652.000; -703.000
856.687;  -60.000;  -99.000;  -72.000
856.936; -145.500; -621.000; -323.000
857.184; -322.000;-1067.000;-1020.000
857.433; -126.600; -423.000; -512.000
857.681; -291.000; -989.000; -953.000
857.930;  -88.000; -282.000; -433.000
858.178; -286.300; -856.000; -929.000
858.427; -241.200; -802.000; -781.000
858.675; -197.500; -377.000; -544.000
858.923; -151.000; -527.000; -819.000
859.172; -313.800;-1094.000;-1070.000
859.420;  -97.200; -339.000; -239.000
859.668; -230.300; -624.000; -628.000
859.916;   20.000;  109.000;  115.000
860.164; -195.000; -699.000; -603.000
860.413;  488.100; -878.000; -696.000
860.661;  250.300; -709.000; -577.000
860.909; -107.700; -339.000; -325.000
861.157; -112.500; -277.000; -444.000
861.405; -202.600; -534.000; -670.000
861.653;   71.000;  310.000;  310.000
861.901;  341.500; -543.000; -613.000
862.149;  -92.900; -801.000; -824.000
862.396;  -81.600; -297.000; -187.000
862.644; -124.200; -368.000; -347.000
862.892;  -10.900;   98.000;  138.000
863.140; -186.100; -549.000; -530.000
863.388; -251.900; -815.000; -759.000
863.635; -198.900; -642.000; -601.000
863.883;   61.900;  231.000;  190.000
864.131; -137.700; -288.000; -357.000
864.378; -188.400; -675.000; -540.000
864.626; -164.800; -347.000; -415.000
864.873; -166.400; -556.000; -505.000
865.121; -240.100; -714.000; -799.000
865.368;  -34.700; -173.000;   75.000
865.616;  -41.800;  -33.000;  -40.000
865.863;  -98.700; -462.000; -506.000
866.111; -212.300; -795.000; -824.000
866.358;   44.200; -426.000; -420.000
866.605; 3632.800;  -64.000; -804.000
866.853; 2879.000; -621.000; -537.000
867.100; -112.900; -728.000; -775.000
867.347; -145.700; -672.000; -611.000
867.594; -126.700; -740.000; -714.000
867.841;  199.100;   97.000;   17.000
868.089; -275.500; -746.000; -698.000
868.336; -123.700; -477.000; -420.000
868.583; -243.500; -637.000; -741.000
868.830;  -34.200; -131.000; -170.000
869.077; -270.800; -859.000; -787.000
869.324; -166.500; -502.000; -458.000
869.571; -221.000; -398.000; -430.000
869.818; -147.200; -485.000; -439.000
870.065; -194.700; -439.000; -513.000
870.311; -138.800; -456.000; -542.000
870.558; -132.500; -332.000; -311.000
870.805;  -81.400; -320.000; -384.000
871.052; -176.000; -494.000; -369.000
871.298;  -32.700; -204.000; -131.000
871.545; -100.400; -151.000; -185.000
871.792; -103.100; -173.000; -222.000
872.038;  -89.300;   43.000; -126.000
872.285; -188.000; -496.000; -387.000
872.532; -133.900; -357.000; -387.000
872.778;   95.200;  556.000;  403.000
873.025; -101.700; -384.000; -359.000
873.271;  117.700;  501.000;  578.000
873.517;   -6.000; -133.000; -209.000
873.764;  -22.900; -193.000;  -80.000
874.010;  -92.200; -143.000; -230.000
874.257;    1.200;  123.000;   90.000
874.503; -188.500; -579.000; -479.000
874.749;  -70.700;   31.000;  275.000
874.995;  -85.800;  -80.000;  -20.000
875.242; -142.700; -540.000; -478.000
875.488; -164.800; -414.000; -439.000
875.734;  -36.900; -106.000; -234.000
875.980;  321.500; -872.000;-1032.000
876.226;  565.600; -157.000; -255.000
876.472;   66.200;  343.000;  237.000
876.718;    9.700;  184.000;  158.000
876.964;  -38.400;   56.000;   55.000
877.210; -201.200; -547.000; -677.000
877.456; -236.200; -630.000; -557.000
877.702; -266.500; -821.000; -832.000
877.948; -171.200; -377.000; -497.000
878.193;   56.800;  361.000;  255.000
878.439; -143.100; -487.000; -472.000
878.685; -109.500; -272.000; -343.000
878.931; -210.400; -618.000; -676.000
879.176; -102.100; -201.000; -201.000
879.422; -331.900; -933.000; -820.000
879.668;  124.100;   10.000;   79.000
879.913;  219.600;   53.000;  137.000
880.159;  -57.800; -112.000;  -17.000
880.404;  -44.000; -152.000; -162.000
880.650;  -25.300;   91.000;  141.000
880.895; -250.100; -670.000; -710.000
881.141; -164.800; -454.000; -428.000
881.386; -242.200; -503.000; -658.000
881.631;  -96.100; -311.000; -166.000
881.877;    2.900;  112.000;  -13.000
882.122; -198.900; -684.000; -600.000
882.367; -109.600; -136.000; -186.000
882.612;  -71.500;  -80.000; -176.000
882.858; -295.500; -877.000; -823.000
883.103; -134.400; -297.000; -267.000
883.348; -282.600; -759.000; -852.000
883.593; -207.900; -677.000; -602.000
883.838;  -69.400; -311.000;  -24.000
884.083;  115.000;  353.000;  288.000
884.328; -122.800; -564.000; -545.000
884.573;  -18.100; -196.000; -143.000
884.818;  357.800; -694.000; -531.000
885.063;  258.200; -348.000; -315.000
885.308; -170.700; -475.000; -398.000
885.553;   67.600;  245.000;  325.000
885.797; -182.900; -545.000; -615.000
886.042;   -8.400;    8.000;   58.000
886.287;  -87.500; -253.000; -211.000
886.532;   10.700;   26.000;  204.000
886.776; -144.100; -407.000; -525.000
887.021; -194.300; -621.000; -574.000
887.265; -260.100; -685.000; -689.000
887.510; -192.000; -557.000; -496.000
887.755; -111.500; -194.000; -164.000
887.999; -211.100; -552.000; -575.000
888.244;  -46.800;  -58.000;  161.000
888.488;   73.300;  371.000;  393.000
888.732; -183.500; -368.000; -520.000
888.977; -146.700; -622.000; -567.000
889.221; -238.000; -683.000; -659.000
889.465; -161.500; -422.000; -566.000
889.710; -109.500;  -56.000; -299.000
889.954;   85.200;  579.000;  467.000
890.198; -246.200; -584.000; -707.000
890.442; -243.900; -716.000; -712.000
890.687; -287.400; -800.000; -753.000
890.931;  -88.100; -273.000; -210.000
891.175; -211.300; -502.000; -500.000
891.419;  -50.600; -105.000; -110.000
891.663; -113.900; -239.000; -112.000
891.907; -260.300; -801.000; -545.000
892.151; -295.300; -920.000; -815.000
892.395; -153.100; -274.000; -387.000
892.638;   19.000;  408.000;  291.000
892.882; -290.000; -780.000; -867.000
893.126;  136.400;  758.000;  558.000
893.370;  -83.700; -167.000; -168.000
893.614; -257.400; -714.000; -715.000
893.857; -103.700; -183.000; -197.000
894.101; -229.000; -527.000; -631.000
894.345;  -43.600;  300.000;  150.000
894.588;  105.100;  569.000;  380.000
894.832;  -72.900; -178.000;  -84.000
895.075;  -94.800;   15.000;  -92.000
895.319; -156.300; -552.000; -420.000
895.563; -166.100; -413.000; -353.000
895.806; -230.900; -628.000; -741.000
896.049;  -48.400; -576.000; -368.000
896.293;  242.400;  527.000;  405.000
896.536; -110.600; -465.000; -468.000
896.779;  -42.900; -149.000;   -1.000
897.023; -238.600; -751.000; -714.000
897.266;   20.300;  325.000;  269.000
897.509; -321.700; -900.000; -901.000
897.752;  -15.900;  149.000;  171.000
897.996; -314.300; -972.000; -864.000
898.239;   -4.600;  168.000;  102.000
898.482; -170.100; -431.000; -453.000
898.725;    3.600;  101.000;   53.000
898.968; -279.800; -609.000; -744.000
899.211; -180.800; -513.000; -361.000
899.454; -194.100; -633.000; -539.000
899.697;  -45.500;   90.000;  -43.000
899.940; -236.200; -761.000; -757.000
900.182; -142.400; -335.000; -405.000
900.425; -126.600; -150.000; -298.000
900.668;   64.300;  491.000;  350.000
900.911; -157.600; -292.000; -345.000
901.154;  -12.200;  141.000;   -3.000
901.396; -221.100; -407.000; -412.000
901.639; -168.400; -430.000; -496.000
901.882; -304.700; -790.000; -809.000
902.124;  -83.200;  -29.000; -143.000
902.367; -199.800; -315.000; -361.000
902.609; -175.200; -476.000; -453.000
902.852;  -91.800; -108.000; -260.000
903.094; -122.800; -458.000; -337.000
903.337;  -24.600;  -26.000;   53.000
903.579; -157.800; -228.000; -441.000
903.821; -283.800; -597.000; -744.000
904.064;  -53.000;   85.000;  127.000
904.306;  -98.400; -126.000; -166.000
904.548; -113.600; -152.000; -366.000
904.790; -175.100; -195.000; -340.000
905.033; -192.000; -625.000; -577.000
905.275; -204.000; -513.000; -524.000
905.517;  174.200;  468.000;  256.000
905.759; -136.700; -667.000; -761.000
906.001; -116.800; -322.000; -369.000
906.243;  -91.400; -162.000; -224.000
906.485;  299.700; -265.000; -207.000
906.727;  169.400; -499.000; -542.000
906.969;   -2.700;  -30.000; -135.000
907.211;  220.900; -316.000; -382.000
907.453;  503.200; -188.000; -237.000
907.695;   18.200; -158.000; -385.000
907.936;  135.400;  818.000;  706.000
908.178;  -57.000;   92.000; -135.000
908.420;  -90.900; -111.000; -162.000
908.662; -207.400; -633.000; -682.000
908.903; -107.300; -208.000; -123.000
909.145;  -88.800; -240.000; -305.000
909.386;   97.100;  315.000;  280.000
909.628;  137.800;  363.000;  397.000
909.870;   89.500;   29.000;  264.000
910.111; -179.300; -809.000; -949.000
910.353;  105.500; -123.000; -161.000
910.594;    9.400; -574.000; -606.000
910.835;  158.800; -265.000; -326.000
911.077;  263.100; -503.000; -604.000
911.318;  504.900; -505.000; -471.000
911.559;  735.200; -577.000; -880.000
911.801; 2498.300; -284.000; -280.000
912.042;21145.800;  -50.000; -159.000
912.283;45507.200;  404.000;  371.000
912.524; 5691.400; -396.000; -457.000
912.765;  915.500; -193.000;   79.000
913.006;  435.500; -307.000; -338.000
913.247;   94.600; -270.000; -290.000
913.488;   53.800;  -43.000;   30.000
913.729;  -72.200; -373.000; -373.000
913.970;  -30.800;  -96.000; -292.000
914.211;  -45.600; -160.000; -198.000
914.452;  -77.300; -118.000;  -11.000
914.693;  134.800;  510.000;  592.000
914.934;   71.500;  510.000;  440.000
915.175;  -56.600;   53.000;  -95.000
915.415;  -83.200; -137.000;   27.000
915.656;  -61.200;  -28.000;  192.000
915.897; -144.100; -252.000;  -82.000
916.137;  -71.800;   74.000;   -9.000
916.378; -208.000; -573.000; -517.000
916.619; -111.600; -159.000;  -63.000
916.859;  -18.400;  303.000;  330.000
917.100;  374.100; 1655.000; 1070.000
917.340;  187.100;  930.000;  728.000
917.581;  181.300;  965.000;  789.000
917.821;  -35.100; -171.000;  143.000
918.061;   51.600; -199.000;  -72.000
918.302;  -63.700; -152.000; -211.000
918.542;   44.100;  -22.000;    3.000
918.782;  104.700;  369.000;  377.000
919.023;  258.200;  360.000;  427.000
919.263; 3527.200; 8131.000;  202.000
919.503; 1711.700; -137.000;  -54.000
919.743; 1107.700;  390.000;  266.000
919.983;  415.700; -134.000;  -26.000
920.223;  140.700;  135.000;   14.000
920.463;  307.800;  631.000;  554.000
920.703;  209.000;   84.000;   39.000
920.943;  296.200; -110.000;   90.000
921.183;  310.300; -414.000; -405.000
921.423;  823.300;  307.000;  546.000
921.663; 1106.200; -174.000; -257.000
921.903; 2626.000;  237.000;  173.000
922.143;15443.800;  372.000;  389.000
922.383;53407.600;  158.000;  115.000
922.622;14493.700; -120.000;  -15.000
922.862; 1831.800;  796.000;  785.000
923.102;  694.800;  -51.000;   33.000
923.341;  319.200;   59.000;   74.000
923.581;  187.600;  450.000;  360.000
923.821;   69.500;  301.000;  398.000
924.060;   64.100;  351.000;  193.000
924.300;  -49.200;  -16.000; -128.000
924.539;   62.900;  584.000;  473.000
924.779;  109.500;  812.000;  597.000
925.018;  -21.100;  247.000;  353.000
925.257;   99.000;  595.000;  666.000
925.497;  -18.400;  447.000;  412.000
925.736;  -38.400;  -35.000;  102.000
925.975;   95.100;  687.000;  669.000
926.214;  155.000;  907.000;  850.000
926.454;  113.500;  706.000;  757.000
926.693;   -4.200;  419.000;  543.000
926.932;  167.600; 1021.000;  825.000
927.171;  222.600; 1107.000; 1044.000
927.410;  178.500; 1144.000;  967.000
927.649;  129.700;  924.000;  742.000
927.888;   60.700;  590.000;  564.000
928.127;   46.300;  680.000;  678.000
928.366;  105.200;  842.000;  826.000
928.605;  154.600;  831.000;  737.000
928.844;  545.400; 1451.000; 1393.000
929.083; 1069.000;  770.000;  613.000
929.321;  579.900; 1335.000; 1359.000
929.560;  291.100; 1158.000; 1122.000
929.799;   14.600;  574.000;  475.000
930.038;  213.900; 1025.000; 1394.000
930.276;  -57.300;  334.000;  397.000
930.515;   69.400;  827.000;  681.000
930.753;   37.300;  614.000;  589.000
930.992;   31.600;  664.000;  717.000
931.230;   87.900;  847.000;  847.000
931.469;  443.300; 2162.000;  892.000
931.707;  225.500;  840.000;  751.000
931.946;  233.600; 1278.000; 1344.000
932.184;  174.800; 1437.000; 1175.000
932.423;  170.200; 1265.000;  963.000
932.661;  234.500; 1296.000; 1428.000
932.899;  111.800;  987.000;  821.000
933.137;   63.300;  754.000;  564.000
933.376;  374.900; 1664.000; 1335.000
933.614;  387.900; 1759.000; 1196.000
933.852;  198.200; 1357.000; 1171.000
934.090;  335.900; 1722.000; 1747.000
934.328;  275.300; 1252.000; 1457.000
934.566;  220.900; 1431.000; 1110.000
934.804;  303.000; 1263.000; 1309.000
935.042;  830.600; 1861.000; 1850.000
935.280; 3087.700; 2088.000; 2063.000
935.518; 2482.800; 2113.000; 2007.000
935.756;  651.300; 2481.000; 2316.000
935.994;  341.200; 1808.000; 1751.000
936.231;  794.800; 2890.000; 2950.000
936.469;  423.700; 2367.000; 2378.000
936.707;  420.300; 2220.000; 2167.000
936.945;  543.700; 2825.000; 2882.000
937.182;  498.400; 2679.000; 2741.000
937.420;  707.100; 3602.000; 3031.000
937.657;  936.800; 3365.000; 3478.000
937.895;  796.300; 3331.000; 3488.000
938.133;  688.900; 3540.000; 3528.000
938.370;  755.700; 3896.000; 4191.000
938.607;  875.700; 4488.000; 4205.000
938.845; 1207.700; 5587.000; 5549.000
939.082; 1086.200; 5387.000; 5177.000
939.320; 1149.600; 5799.000; 5728.000
939.557; 1392.500; 6549.000; 6491.000
939.794; 1556.900; 7285.000; 7097.000
940.031; 1943.200; 8421.000; 8368.000
940.269; 2213.300; 9552.000; 9107.000
940.506; 2374.700;10901.000;10507.000

