
Integration time [ms]: 100.000
Averaging Nr. [scans]: 40
Smoothing Nr. [pixels]: 0
Data measured with spectrometer [name]: 2101013U2
Wave   ;Sample   ;Dark     ;Reference
[nm]   ;[counts] ;[counts] ;[counts] 

394.013;   38.334; -450.257; -315.536
394.305;  190.757; -461.258; -419.536
394.596; 1106.205; -676.269; -527.514
394.887; 2700.471; -796.268; -654.518
395.178; 1039.152;  145.736;   11.476
395.470;   78.138; -210.263; -356.526
395.761;  182.436;  305.734;  394.479
396.052;  259.655; -545.284; -306.489
396.343;  269.525; -557.276; -454.503
396.634;   88.569; -200.279; -290.497
396.926;  105.794; -618.268; -565.517
397.217;   89.879;   11.725;  -17.504
397.508;   55.870; -366.273; -154.507
397.799;   44.769; -555.279; -571.497
398.090;  -10.987; -973.280; -902.495
398.381;  106.906;   11.708;  -11.473
398.672;   -4.618; -585.292; -742.473
398.963;   35.375; -348.279; -373.498
399.254;  115.141;   54.709; -209.475
399.545;  -32.892;-1017.266; -883.520
399.836;   44.914; -407.277; -343.501
400.127;   48.882; -205.295; -209.468
400.418;   59.140; -423.274; -392.506
400.709;   53.425; -359.281; -333.493
401.000;   47.170; -268.291; -309.476
401.290;   99.219;  225.698;  115.545
401.581;   67.538; -166.286; -228.485
401.872;   17.155; -542.298; -486.462
402.163;   55.050; -313.296; -252.467
402.454;   72.917; -123.291; -163.475
402.744;   81.191; -844.297; -813.465
403.035;  419.672; -226.293;  -86.471
403.326;  560.185; -366.292; -384.474
403.617;  377.124;  204.701;  165.539
403.907;  245.761; -593.283; -679.490
404.198; 2399.524; -545.307; -599.446
404.489; 6272.941; -618.283; -588.491
404.779; 2076.648; -618.302; -660.456
405.070;  227.301;  -67.304; -174.451
405.360;  329.974; -259.293; -238.472
405.651;  377.234;  125.699;   98.542
405.942;  174.084;  209.714;  127.516
406.232;  267.823; -432.285; -413.487
406.523;  459.892;  641.706;  758.530
406.813;   94.486; -579.286; -644.484
407.104;  324.480;  261.708;  144.527
407.394;  177.825; -604.299; -591.462
407.685;  143.472;  336.715;  222.513
407.975;   73.265; -400.283; -382.490
408.265;  117.306; -134.289; -190.478
408.556;   68.264; -472.291; -459.475
408.846;  152.793;  474.706;  429.530
409.137;   83.689;   -1.288; -216.480
409.427;   48.098; -193.285; -271.487
409.717;   41.823; -776.273; -692.508
410.007;  132.591;    4.715; -170.486
410.298;  104.310; -360.295; -342.469
410.588;   53.320; -495.285; -510.486
410.878;   14.450; -792.287; -873.482
411.168;  109.632; -481.298; -478.463
411.459;  116.909; -295.283; -242.489
411.749;   59.162; -609.292; -507.474
412.039;   58.238; -755.289; -386.480
412.329;  192.432;   40.722;  132.501
412.619;  186.511;  -62.286; -148.485
412.909;  354.309;  639.711;  594.521
413.199;  327.238; -130.280; -251.495
413.490;  390.824;  521.710;  352.523
413.780;  145.367;-1013.279; -913.496
414.070;  322.801;  -46.276;  235.497
414.360;  367.653; -729.278; -666.498
414.650;  415.521; -726.288; -688.482
414.940;  533.642; -538.280; -441.496
415.230;  914.343;   50.712;   74.519
415.520; 6114.454;  155.730;   66.486
415.809;23944.250; -305.281; -125.493
416.099;18536.566; -388.277; -229.501
416.389; 5213.612;  435.726;  236.494
416.679; 3055.341;   91.738;   85.473
416.969;  511.880; -527.287; -503.483
417.259;  473.419;  341.721;  171.503
417.549;  694.074;  522.718;  318.508
417.838; 1668.521; -205.268; -147.518
418.128; 5483.655;  650.710;  492.522
418.418; 4584.130; -491.272; -579.509
418.708; 3069.763;    9.726;  -48.506
418.997;11601.833; -474.275; -480.505
419.287;12060.119; -733.273; -790.507
419.577;11405.684; -160.283; -123.489
419.866;37888.214; -588.277; -498.501
420.156;38752.250; -242.270;  -55.513
420.446; 6991.759; -112.263;  -26.526
420.735;  872.244; -376.271; -446.512
421.025;  832.327; 1830.722;  315.502
421.314;  677.942; -203.271; -226.512
421.604; 1372.814;   89.732;  233.484
421.893;  809.339; -705.271; -602.511
422.183;  214.809; -487.263; -461.526
422.472;  362.540;  -36.271; -107.511
422.762;  436.314; -416.266; -379.521
423.051;  244.801; -916.276; -916.503
423.341;  303.296; -491.273; -439.507
423.630;  404.520; -121.265;   15.477
423.919;  383.433;   58.725;   49.495
424.209;  376.365;  -31.263;   56.473
424.498;  496.368;   68.732;  161.483
424.787; 1094.725; -535.267; -601.518
425.077; 3308.768;   34.735;   29.478
425.366; 4707.695; -734.262; -744.528
425.655; 9836.247;  639.727;  259.493
425.945;21546.223; -313.247; -268.554
426.234;11922.868;  117.741;  300.467
426.523; 5024.673;  -86.259; -350.534
426.812; 6933.710;  107.734;  159.480
427.101;10245.610; -127.269; -323.515
427.390;12810.829;  -55.270;  -86.514
427.680; 2873.892; -624.257; -411.538
427.969;  475.353; -330.255; -301.540
428.258;  313.484; -385.257; -477.536
428.547;  511.359;  449.728;  397.490
428.836; 1224.419; -421.253; -398.543
429.125; 1747.900; -199.259;  -72.534
429.414;  822.992; -330.251; -294.548
429.703; 3155.217; -231.251; -213.548
429.992; 9350.495; -938.250; -828.549
430.281; 6124.452; -397.264; -331.524
430.570;  599.057;  -21.252;   32.454
430.859;  549.397;  279.741;  352.466
431.148;  438.194;  636.752;  631.446
431.437;  297.557;  391.748;  367.454
431.725;  160.411; -544.257; -481.536
432.014;  122.701; -845.253; -756.545
432.303;  381.994; -149.239; -105.569
432.592;  584.584; -460.263; -178.525
432.881; 1056.420; -601.248; -437.554
433.169; 6157.754; -343.255;  -61.540
433.458;12629.453;  445.765;  540.424
433.747; 5296.251; -397.261; -289.529
434.036;  878.370; -275.242; -280.564
434.324; 2071.933; -395.249; -379.551
434.613; 3599.864;   40.757;  159.437
434.902; 1217.235;  333.760;  439.433
435.190;  555.843;   75.761;  295.431
435.479;  290.871;  -52.245;   83.441
435.767;  108.604; -411.244; -427.561
436.056;  199.991; -340.242; -294.563
436.345;  365.512; -372.240; -223.568
436.633;  386.078;   60.750;  383.450
436.922;  255.289;  208.760;  414.432
437.210;  564.593; -194.236;    1.426
437.499; 1816.776; -583.235; -432.576
437.787; 2027.668; -339.236;  -10.574
438.075;  523.099;   56.761;  162.430
438.364;  691.301;  -44.238;  250.429
438.652;  414.030; -286.226; -138.592
438.941;  143.145;    3.770;  269.415
439.229;   11.904; -665.252; -466.545
439.517;   30.684; -160.234;  -85.577
439.806;  -10.154; -501.225; -290.595
440.094;  174.742;  377.766;  650.421
440.382;  175.846; -653.233; -302.580
440.670;  185.426; -361.235; -285.576
440.959;   37.538; -347.223; -170.599
441.247;   62.381; -151.229; -109.587
441.535;   88.708; -266.235;   31.423
441.823;   41.564; -497.234; -305.578
442.111;  191.135;  173.771;  327.412
442.400;  506.470; -628.245; -335.559
442.688; 1351.992; -111.234; -620.579
442.976;  954.700; -786.213; -450.617
443.264;  113.802; -324.224; -364.597
443.552;   76.056; -258.226;   51.408
443.840;  157.006;  602.765;  876.423
444.128;  100.095;  265.767;  269.420
444.416;    4.613; -694.228; -312.588
444.704;   18.868; -465.219;  -92.605
444.992;   72.184;   -0.226;  240.407
445.280;   26.795; -517.230;  -94.585
445.568;   39.904; -694.212; -396.618
445.856;  322.727; -174.221;  357.398
446.143;  727.814;  -54.220;   -7.604
446.431;  606.616;  -25.228;  625.411
446.719;  243.887;  489.783;  675.391
447.007;  167.690;  481.769;  705.416
447.295;  179.435;  597.777;  871.402
447.583;   99.079; -464.229;  -34.587
447.870;  144.024; -434.221; -202.601
448.158;  387.244; -104.230;  129.415
448.446;  312.765; -800.219; -338.604
448.733;  169.829;   13.776;  269.403
449.021;  247.003;   60.788;  341.382
449.309;  170.868; -296.210;  208.379
449.596;  206.633;  128.783;   59.392
449.884;  146.692; -571.222; -325.600
450.172;  148.647; -756.227; -406.590
450.459;  431.234;  645.786;  780.387
450.747; 2385.206; -411.218; -147.608
451.034; 7598.467;  493.772;  889.411
451.322; 6274.787; -413.214; -170.614
451.609;  524.430;  292.777;  508.403
451.897;  585.681; -550.203; -183.634
452.184; 1777.635; -622.223; -400.598
452.472; 1687.489;   97.792;  269.375
452.759;  337.715;  512.781;  864.395
453.047;   97.001; -407.212; -125.617
453.334;   55.148; -732.219; -216.606
453.621;   76.439; -438.214; -161.615
453.909;  110.948;   13.796;  384.368
454.196;   99.393; -299.199; -123.641
454.483;  191.644;  317.798;  540.364
454.771;  133.367; -215.208;  196.374
455.058;   44.396; -316.207;  102.374
455.345;  114.648;   71.807;  344.347
455.632;   83.299; -128.207;  235.373
455.919;   44.915;  -82.196;  182.354
456.207;  -59.478; -774.198; -450.642
456.494;  -16.544; -475.200;  -66.639
456.781;    7.789; -399.202; -198.635
457.068;   53.005; -253.206;  -29.628
457.355;  -21.243; -698.206; -401.629
457.642;  -15.763; -552.205; -290.630
457.929;   -2.886; -778.194; -417.651
458.216;   54.226; -575.212; -354.617
458.503;  224.768; -173.193;  -19.652
458.790;  238.590; -864.208; -630.625
459.077;  248.444;  -77.202;  110.364
459.364;  774.907; -350.195; -210.649
459.651; 1695.278;  -46.206;  220.372
459.938;  795.331; -864.209; -665.623
460.225;  133.997;  132.799;  276.363
460.512;  -44.113; -836.197; -688.645
460.799;   89.380;  -32.218;  320.392
461.086;   60.435; -370.200; -251.640
461.372;   31.073; -509.198; -279.642
461.659;  115.141; -165.196;  108.354
461.946;   50.417; -445.193;  -54.651
462.233;  237.258;  842.800;  888.361
462.519;  330.305; -814.201; -464.639
462.806; 1003.013; -768.197; -497.645
463.093;  893.087; -445.191;  -66.656
463.380;  -28.947; -920.186; -824.664
463.666;   34.415; -259.197;  -18.646
463.953;  100.002; -406.195; -243.648
464.239;  178.926; -173.195;  -77.648
464.526;  385.812;  413.806;  743.350
464.813;  341.349; -565.190; -304.658
465.099;  327.393;  606.807;  607.348
465.386;  312.222;  903.807;  921.348
465.672;   29.763; -694.197; -522.645
465.959;   20.967; -598.188; -520.662
466.245;    7.297; -468.193; -359.652
466.532;   75.974; -109.195;   63.352
466.818;   67.978; -357.186; -216.664
467.104;  -18.682; -488.182; -415.672
467.391;  -32.949; -628.189; -459.658
467.677;   25.207; -289.186;    9.335
467.964;   -0.593; -682.189; -471.660
468.250;   50.734; -331.186; -160.665
468.536;   80.027;   90.811;  180.341
468.822;  -39.029; -821.184; -574.668
469.109;  138.448;  351.827;  471.311
469.395;  186.906;  729.808;  787.346
469.681;  194.855;   46.811;  156.341
469.967; 1235.435; -699.188; -382.660
470.254; 2696.292; -494.188; -306.662
470.540; 1710.515; -601.196; -476.646
470.826;  238.329; -488.181; -397.675
471.112;  304.425;  288.816;  113.331
471.398;   91.029; -253.183;  -58.670
471.684;   34.682; -626.177; -447.680
471.970;   -4.717; -918.180; -981.675
472.256;    6.680; -521.192; -441.654
472.542;   24.609; -499.171; -434.691
472.828;    6.839; -743.182; -607.672
473.114;   17.427; -380.166; -283.700
473.400;    2.523; -504.175; -293.684
473.686;   37.958; -452.166; -400.701
473.972;   48.838; -230.174; -131.687
474.258;  -39.227; -925.173; -843.689
474.544;  195.524; -183.178;   -2.679
474.830;  318.800;  -65.175;   45.316
475.116;  478.750; -123.190; -196.658
475.401;  647.460; -558.180; -467.676
475.687;  190.259; -725.180; -718.676
475.973;    5.122; -673.181; -770.673
476.259;  230.877;  736.825;  764.315
476.544;  369.590; -539.176; -437.682
476.830;  823.355; -398.172; -322.690
477.116;  710.614; -430.177; -336.682
477.401;  149.359;  346.820;  358.324
477.687;   -9.601; -289.175; -405.684
477.973;   20.375;   21.819;   28.326
478.258;  -22.721; -448.163; -348.706
478.544;   30.890;   21.815;   61.334
478.829;  -48.436; -818.171; -738.692
479.115;  -49.445; -749.172; -651.690
479.401;  -18.517; -444.174; -449.686
479.686;   11.608; -253.180;  -74.676
479.972;  -38.796; -886.178; -776.680
480.257;   31.203; -258.166;  -65.700
480.542;  -19.532; -614.170; -469.693
480.828;  221.322; 1288.824; 1392.317
481.113;  -24.730; -464.176; -426.683
481.399;   -7.648; -236.161; -202.711
481.684;  -58.422; -620.166; -462.700
481.969;   21.840; -158.159;  -73.713
482.255;    0.604; -439.169; -285.695
482.540;  -16.596; -569.178; -441.680
482.825;   -7.552; -395.187; -404.663
483.110;   77.957;  -85.169; -105.696
483.396;  174.512; -840.157; -652.718
483.681;  476.713;  543.826;  730.313
483.966;  145.410; -696.160; -700.712
484.251;   -4.038; -404.174; -310.687
484.536;    8.064; -356.165; -378.703
484.822;    4.940; -205.173; -218.687
485.107;  -20.900; -599.152; -502.726
485.392;  105.394;  662.836;  541.296
485.677;   76.267;  354.832;  163.302
485.962;  101.984;  160.843;  270.283
486.247;  108.411;  -14.162;   -8.707
486.532;   30.880; -178.166; -325.701
486.817;  157.347;  381.839;  431.291
487.102;  101.583; -453.154; -514.722
487.387;  675.614; -637.156; -652.718
487.672; 1175.149; -154.164;  -38.705
487.957;  745.754; -394.160; -286.711
488.241;  189.941; -290.150; -314.729
488.526;  737.626; -280.152; -148.726
488.811; 1166.956; -881.177; -818.680
489.096;  896.186; -666.154; -702.723
489.381;  497.147;    3.847;  162.275
489.666;  363.952; -428.161; -510.710
489.950;  183.189;  558.846;  627.277
490.235;  -26.664; -480.151; -458.728
490.520;  -55.874; -756.161; -723.710
490.804;  -56.959; -827.156; -736.719
491.089;  -17.518; -469.149; -299.732
491.374;   36.848; -132.164;  -75.704
491.658;  -19.082; -817.147; -717.735
491.943;  151.980; -657.152; -609.727
492.227;  240.504; -178.155;  -38.721
492.512;   49.359; -294.157; -341.717
492.797;  -73.324; -713.149; -716.731
493.081;  -51.254; -588.147; -598.735
493.366;  -49.573; -751.161; -635.711
493.650;  210.949;  831.859;  917.254
493.935;   24.768; -648.147; -447.734
494.219;  -51.889; -778.142; -687.743
494.503;  -46.854; -585.150; -487.730
494.788;   51.976;   46.842;   74.285
495.072;  100.518;  184.850;  434.271
495.356;  160.860; -463.148; -343.733
495.641;  460.827; -812.146; -736.736
495.925;  429.221; -976.156; -903.719
496.209;   21.381; -599.149; -451.732
496.494;  -51.988; -763.142; -544.744
496.778;   11.308; -364.154; -360.722
497.062;  -56.055; -819.156; -627.719
497.346;  -29.095; -869.160; -640.711
497.631;  163.039;  580.852;  560.266
497.915;   64.013;  -64.145;  175.261
498.199;   49.137; -341.157; -277.718
498.483;   30.874; -562.152; -508.725
498.767;  189.344;  301.850;  300.271
499.051;  175.954; -126.149; -100.732
499.335;   25.952; -693.149; -739.731
499.619;  -53.501; -381.129; -423.767
499.903;   13.377; -272.155;  -65.721
500.187;   14.065; -588.153; -316.724
500.471;   11.430; -796.152; -595.727
500.755;  108.651;   62.839;  -96.710
501.039;   16.928; -270.155; -357.721
501.323;   82.575;  -21.141;  264.254
501.607;   28.754; -447.163; -503.706
501.891;  -12.587; -607.156; -512.718
502.174;  -33.876; -726.144; -585.741
502.458;   58.684;   89.849;  370.273
502.742;   36.224; -180.138; -191.751
503.026;  107.267; -412.147; -254.734
503.310;  179.914; -437.159; -375.713
503.593;   94.694; -464.147; -325.735
503.877;  126.389; -232.133; -156.760
504.161;  158.417;    2.847;  -50.724
504.444;  135.003; -841.158; -710.716
504.728;  441.572; -487.164; -522.704
505.012;  704.641; -257.150;  -76.729
505.295;  527.777; -417.161; -212.711
505.579;  527.470; -256.156; -496.719
505.862;  722.584; -555.145; -333.738
506.146;  728.317; -681.159; -758.714
506.429;  398.642;  568.841;  461.286
506.713;   52.638; -732.151; -667.728
506.996;  304.657;   90.846;  295.278
507.280;  324.717; -633.165; -474.703
507.563;  221.326; -469.155; -261.721
507.847;  103.116; -423.153; -112.724
508.130;   83.628; -665.161; -456.711
508.413;  109.949; -758.167; -577.700
508.697;  244.499; -151.167;   12.300
508.980;  145.842; -422.153; -312.724
509.263;  -15.553; -466.155; -450.720
509.547;   43.115; -124.150;   82.271
509.830;   37.380; -172.160;  140.289
510.113;   82.020;  128.844;  298.281
510.396;   27.098; -530.152; -300.725
510.680;  153.261; -818.145; -812.738
510.963;  601.837;  184.846;  180.277
511.246;  526.523; -493.150; -357.730
511.529;  267.816; -482.145;  -83.739
511.812;  365.786; -250.134;   10.241
512.095;  256.160; -740.151; -396.728
512.378;   69.873; -317.147; -245.736
512.661;   20.032; -703.137; -623.753
512.944;   32.338; -750.142; -637.744
513.227;   58.379; -170.137; -171.752
513.510;   24.099; -479.144; -671.741
513.793;   22.230; -485.140; -435.747
514.076;  128.170;  -43.127;  -39.771
514.359;  102.457; -294.149; -135.732
514.642;   76.616; -442.142; -567.744
514.925;  735.003;  581.860;  561.253
515.208; 1005.057; -498.134; -443.758
515.491;  649.721; -276.133; -182.761
515.773;  374.453; -410.143; -337.742
516.056; 2068.688;  249.864;  409.246
516.339; 2812.517; -754.136; -652.755
516.622; 1904.421; -518.150; -488.730
516.904; 1231.635;  882.857;  975.257
517.187;  553.578; -730.138; -523.752
517.470;  395.333; -568.143; -510.743
517.752;  436.495; -624.136; -470.756
518.035;  334.890; -708.139; -725.749
518.318;  383.242; -799.136; -744.755
518.600; 2395.799; -300.132; -325.762
518.883; 3328.865;  310.858;   88.256
519.165; 1589.120; -585.138; -426.751
519.448;  371.199;  -61.132;  -19.762
519.730;  196.852; -573.126; -415.773
520.013;  283.392;  588.867;  664.240
520.295;  812.462;  -94.134;  -15.759
520.578; 1812.537; -335.131; -305.764
520.860; 2079.474; -254.132;   56.238
521.143; 1072.997; -763.135; -584.756
521.425;  463.615; -251.125; -279.775
521.707;  657.645; -622.127; -380.771
521.990; 1766.645; -199.127;  167.229
522.272; 2025.106; -116.140;   -4.748
522.554;  904.053; -237.143; -157.742
522.836;  342.985;  -24.134;   99.241
523.119;  209.191; -496.148; -189.734
523.401;  150.069; -448.130; -314.766
523.683;   83.482; -865.137; -693.753
523.965;  277.526;  408.862;  260.248
524.247;  279.486;   54.878;  170.220
524.529;  195.262; -451.134; -367.759
524.812;  352.020;   -3.130;  191.234
525.094;  847.275; -773.138; -631.751
525.376; 1373.849; -143.124;   78.223
525.658;  826.089; -441.136; -339.754
525.940;   24.384; -805.131; -671.764
526.222;   39.018; -188.136;  -88.755
526.504;   97.806; -190.131;   32.237
526.786;  163.790; -960.133; -647.760
527.068;  294.279; -124.123;  -67.778
527.349;  107.686; -865.137; -774.754
527.631;  139.599; -137.132;   22.238
527.913;  129.794; -664.127; -450.771
528.195;  168.458; -761.125; -639.774
528.477;  247.632;  -93.134;  -30.758
528.759;  126.445; -648.130; -522.766
529.040;   52.503; -569.123; -293.778
529.322;   53.486; -235.125;  -10.774
529.604;  135.148;  -47.130;   93.233
529.886;  114.852; -546.126; -302.773
530.167;  114.389;  232.870;  192.235
530.449;   36.997;    1.853;   63.265
530.731;   11.010; -572.122; -459.779
531.012;   66.306; -513.120; -216.784
531.294;   62.494; -118.116;  -43.792
531.575;  144.740;  290.875;  538.225
531.857;   43.277; -548.135; -266.757
532.138;   94.199; -113.141;   40.254
532.420;  171.123;  294.865;  403.244
532.701;  208.892; -722.133; -751.760
532.983;  321.895;  232.867;  182.239
533.264;  122.875; -243.126;  175.228
533.546;  -42.033; -491.136; -508.755
533.827;   33.814;  173.867;   -1.759
534.109;   33.702; -352.135;  -80.757
534.390;   92.353; -725.132; -582.762
534.671;  243.748; -270.135;  -82.756
534.953;  129.881; -751.123; -611.779
535.234;   25.129; -426.117; -255.789
535.515;  -71.986; -891.119; -735.785
535.796;  -27.385; -431.128; -193.770
536.078; -120.227;-1050.124; -904.777
536.359;   10.256;  -22.123;    3.221
536.640;  -24.916; -480.125; -197.774
536.921;  152.178;  225.871;  143.232
537.202;  382.247;  -87.138;  -16.751
537.483;  455.811;  251.869;  377.236
537.764;  163.289;   17.870;   98.235
538.045;  -44.194; -543.134; -371.758
538.326;  -37.870; -596.129; -447.768
538.607;   13.846; -686.127; -476.771
538.888;  166.322;   98.879;    5.218
539.169;  169.741; -704.122; -535.781
539.450;  341.877;  236.871;   16.233
539.731;  216.026; -361.121; -182.783
540.012;  144.006;  199.880;  412.216
540.293;   82.993;   82.876;  158.224
540.574;   13.690; -895.113; -717.796
540.855;  443.324;  435.879;  377.218
541.136;  521.189;   47.878;  139.220
541.416;  264.946; -161.130; -220.766
541.697;  196.357; -274.131; -170.763
541.978; 1030.925; -270.135; -315.757
542.259; 1328.721; -211.127; -236.771
542.539;  627.788; -191.116; -186.790
542.820;  173.889;  461.875;  480.225
543.101;  119.362;  -52.145;  -77.738
543.381;   47.245; -638.127; -591.771
543.662;  261.593;  159.873; -254.771
543.942;  575.841; -751.127; -830.770
544.223; 1049.090;  193.878;  161.219
544.504;  691.448; -275.124; -182.777
544.784;  584.802; -592.126; -408.773
545.065; 1624.767;  104.884; -254.791
545.345; 1933.439;  227.881;   14.215
545.626; 1269.339;  -14.113; -108.796
545.906;  878.939;   77.869;   98.235
546.186;  371.931;   92.874;  -95.773
546.467;  189.676;   99.877;  -95.778
546.747;  328.313;  264.884;  327.210
547.027;  370.022;   91.876;  111.223
547.308;  334.740; -376.127; -530.770
547.588;  382.305;  299.871;  371.232
547.868;  185.615;  458.870;  588.235
548.149;  201.124;  609.885;  593.207
548.429;  119.919; -347.127; -299.771
548.709;  157.030; -645.120; -461.784
548.989;  471.823;   84.882;   88.213
549.269; 2124.322;   10.868;  139.239
549.550; 4803.105;  215.877;  117.222
549.830; 4318.332; -758.111; -556.799
550.110;  839.689; -468.110; -320.801
550.390;  818.010; -128.122;  -56.779
550.670; 1127.460; -868.114; -783.795
550.950;  813.174; -509.121; -471.782
551.230;  192.395;  549.879;  460.218
551.510;  -22.277; -381.121; -326.782
551.790;   14.847; -173.109; -127.803
552.070;  259.551;  940.877; 1181.223
552.350;  399.693; -492.119; -377.786
552.630;  586.543;   -2.121;   77.219
552.909;  360.067;  181.884;   73.209
553.189;  234.254;  -49.132;   33.237
553.469;  185.943; -703.119; -514.786
553.749;  176.722; -469.127; -357.772
554.029;  166.159;   33.883;  -24.790
554.308;  147.103; -154.115;  -37.794
554.588;   65.414; -196.128; -204.770
554.868;   49.749; -366.121;  -47.782
555.147;  144.101; -114.115;  -46.793
555.427;  583.220; -260.116; -250.792
555.707; 3887.074; -284.115; -200.793
555.986; 4693.610; -719.111; -538.800
556.266; 2464.287;   23.884;   72.210
556.546;  106.773; -888.121; -675.782
556.825;  249.733; -657.114; -556.794
557.105; 1788.637; -125.128;   17.230
557.384; 2092.991;  122.884;  187.209
557.664;  798.794; -717.116; -508.792
557.943;  118.799; -557.121; -411.782
558.222;  163.827; -345.118; -344.788
558.502;  272.877; -116.115;  -76.793
558.781;  493.372;  194.885;  499.208
559.061;  389.451; -232.118; -227.788
559.340;  275.781;  302.883;  353.211
559.619;  696.887;   93.884;  148.210
559.899; 1012.358; -239.117; -266.789
560.178;  932.401; -778.115; -593.793
560.457; 3143.935; -623.117; -562.790
560.736; 4381.161; -472.111; -482.800
561.015; 2910.685; -500.128; -502.769
561.295;  386.942;  180.893;  215.193
561.574;  325.524;  119.885;  116.207
561.853;  492.001;  274.891;  303.197
562.132;  483.404;  -45.114;  182.206
562.411;  442.193;  396.879;  553.219
562.690;  124.872; -592.115; -458.792
562.969;  144.596;  472.888;  630.203
563.248;  493.966; 2966.878; 2487.219
563.527;  253.786; -290.111; -408.800
563.806;  382.244; -650.127; -521.771
564.085;  412.257; -297.105; -206.810
564.364;  236.361; -594.117; -405.790
564.643;  488.144; -276.121; -223.781
564.922; 1876.345;  221.890;  397.198
565.201; 1880.199; -640.109; -700.803
565.479;  808.896; -297.115; -219.792
565.758;  331.437; -810.128; -712.770
566.037;  471.375; -155.109; -100.803
566.316;  224.467; -286.116;  -28.791
566.595;   49.574;  -17.115;  -12.793
566.873;  100.063; -166.111;  -79.801
567.152;  -65.004; -490.113; -590.797
567.431;    0.888; -113.116;    6.210
567.709;   -5.108; -344.107; -212.807
567.988;  257.832; -810.114; -769.794
568.266;  537.349; -160.115;  -68.793
568.545;  388.278; -644.100; -514.819
568.824;  575.445;  160.885;  356.208
569.102;  537.007; -351.114; -235.794
569.381;  218.845; -492.116; -407.792
569.659;  -50.433; -553.113; -553.796
569.938;   23.589; -743.122; -465.780
570.216;  101.877; -225.109; -225.804
570.494;  -36.290; -632.114; -572.795
570.773;   42.772;  202.879;  114.218
571.051;   -4.571; -373.123; -357.778
571.330;   48.865; -221.113; -174.796
571.608;   38.521; -181.098; -173.823
571.886;  -69.995; -671.111; -581.799
572.164;  -76.351; -739.121; -621.782
572.443;  -49.315; -562.105; -512.811
572.721;  -41.665; -399.117; -289.790
572.999;  -16.197; -280.117; -168.788
573.277;   98.254;  379.894;  620.191
573.555;  281.731;   94.894;   37.190
573.834; 1345.753;  -86.117; -114.788
574.112; 1539.994;  880.893;  811.193
574.390;  475.312; -143.111;  -96.801
574.668;    4.322;  -91.112;  -61.797
574.946;  -20.319; -165.106; -187.810
575.224;   12.674;   71.891;  -16.803
575.502;  -33.636; -200.116; -204.791
575.780;  -94.102; -767.112; -829.798
576.058;  196.561; 1589.889; 1004.200
576.336;  -33.109; -210.110; -129.801
576.614;  -65.802; -511.112; -340.798
576.891;   69.103; -711.115; -823.794
577.169;  485.460; -158.108; -285.805
577.447;  566.744;  169.893;  202.193
577.725;  267.202;  629.888;  854.201
578.003;   10.075;  -71.112; -371.798
578.280;   87.869; -208.104; -242.812
578.558;   61.102; -450.115; -422.793
578.836;  130.310; -210.114; -145.795
579.114;   36.571; -630.112; -670.797
579.391;   45.030;   -6.117;  -18.789
579.669;  -68.921; -595.114; -704.794
579.947;  161.190; -326.107; -127.806
580.224;  318.490; -692.107; -524.806
580.502;  299.969;  127.893;   76.193
580.779;   24.836;  -42.117;   75.210
581.057;  -81.247; -584.109; -470.804
581.334; -101.166; -726.102; -695.815
581.612;   47.882;   54.895;  511.190
581.889;  -28.278;  -83.101; -129.818
582.167;  -44.389; -298.099; -190.821
582.444; -105.033; -845.102; -814.817
582.721;   85.642;  657.899;  715.183
582.999;   40.584; -326.100; -167.821
583.276;  516.758; -812.123; -713.779
583.553;  699.287; -364.102; -294.816
583.831;  216.291; -607.104; -631.812
584.108;   48.033;  349.892;  174.195
584.385;   -2.617; -122.102;  -98.815
584.662;  -54.112; -651.111; -828.801
584.940;   16.612;  204.889;  204.199
585.217;  -23.183;  -73.113; -303.796
585.494;   37.521;   71.890;  118.198
585.771;  195.554; -250.109; -354.804
586.048;  493.516; -196.113;  -76.796
586.325;  317.190; -721.110; -773.801
586.602;   84.595;  230.896;  213.188
586.879;  -19.820; -499.100; -580.820
587.156;   38.533; -156.105; -331.810
587.433;  -40.085; -701.102; -667.817
587.710;   68.999;  152.888;  234.202
587.987;  297.963; -264.105; -236.811
588.264;  787.600;  315.888;  387.202
588.541; 1344.222;  -61.104;   26.187
588.818; 2645.606;   72.892;  171.196
589.095; 2280.143; -163.104; -174.812
589.371;  368.552; -459.109; -414.804
589.648;   15.844; -581.107; -437.807
589.925;    9.036; -517.114; -621.795
590.202;    7.798; -741.112; -607.798
590.478;   86.115; -166.105;  -73.811
590.755;  256.487; -241.108; -132.806
591.032; 2489.868; -741.110; -699.802
591.308; 3419.386; -732.094; -790.831
591.585; 1777.042; -573.110; -560.802
591.862;  140.166;-1056.102; -950.817
592.138;   42.634; -475.108; -474.805
592.415;  167.745; -486.104; -495.813
592.691; 1466.218;  460.896;  518.188
592.968; 1869.673; -208.098; -123.824
593.244;  866.063; -695.116; -595.790
593.521;   66.292; -105.102;  -42.817
593.797;  -19.113; -810.122; -720.780
594.074;  307.910; -611.096; -588.826
594.350;  643.621;  828.905;  729.172
594.626;  306.063; -303.111; -283.801
594.903;  107.717; -643.101; -645.817
595.179;  185.349;  243.896;  418.187
595.455;   -2.230; -136.107; -150.807
595.731;   -1.149;  -19.103;  -38.814
596.008;  -46.118; -464.111; -434.800
596.284;   28.082; -187.100; -242.820
596.560;   43.317; -501.093; -493.833
596.836;  190.960; -173.105;  -70.810
597.112;  324.385; -582.108; -437.805
597.388;  283.208;  -49.097;  -48.826
597.665;  107.919;  437.887;  530.203
597.941;  -75.079; -572.089; -658.839
598.217;    7.596; -323.110; -293.802
598.493;  246.280;   61.891; -204.804
598.769;  501.877; -175.100;  -50.819
599.045;  289.588; -490.108; -562.806
599.321;   38.881; -193.100; -261.820
599.597;  136.979; -355.109; -476.804
599.872;  459.747;  409.896;  429.187
600.148;  346.560;  -61.097; -172.826
600.424;  258.768;   91.893;  202.193
600.700;  231.370; -170.107; -280.807
600.976;  120.729; -442.097; -464.825
601.252;  236.976; -226.109; -272.803
601.527;  208.798; -833.104; -840.813
601.803;  141.465; -453.105; -404.812
602.079;  194.702; -124.100; -118.819
602.354;  565.177; -620.092; -531.835
602.630;  820.717; -140.113; -482.796
602.906; 2310.572; -910.101; -863.818
603.181; 6615.368; -627.119; -534.786
603.457; 5641.207;   98.903; -278.826
603.733;  799.201; -605.120; -626.783
604.008;  974.382; -245.106; -164.810
604.284; 3033.143; -636.101; -580.817
604.559; 2642.127;   -3.112;  -42.799
604.835;  464.160; -163.105; -225.810
605.110;  399.787; -732.099; -892.821
605.385;  663.695;  224.907;  267.167
605.661;  630.624; -625.095; -729.829
605.936; 1134.813; -664.108; -737.806
606.211;  967.682;  -17.103; -170.815
606.487;  197.956; -329.114; -376.794
606.762;   12.043; -791.119; -745.786
607.037;  -38.165; -501.105; -433.810
607.313;  -48.483; -589.096; -574.828
607.588;  -13.544; -375.106; -137.810
607.863;   31.397;  -28.101; -143.818
608.138;  174.869;  513.890;  516.198
608.413;   19.090; -576.099; -592.822
608.688;   54.610; -203.108; -267.805
608.964;  198.676; -509.106; -218.809
609.239;  240.932; -107.105; -212.810
609.514;  256.015;  281.895;  240.188
609.789;  640.769; -187.104; -716.812
610.064;  870.891; -435.096; -609.827
610.339;  879.002; -855.109; -799.804
610.614; 1171.757; -131.100; -315.820
610.889;  645.090;  215.895;  107.188
611.163;   31.641; -407.104; -591.812
611.438;   77.582;   81.886; -167.794
611.713;   -3.882; -467.101; -499.817
611.988;   41.396; -144.101; -328.818
612.263;  -37.591; -771.102; -717.815
612.538;  196.141;  385.887;  251.204
612.812;  151.933; -832.100; -911.820
613.087;  129.896; -358.098; -338.823
613.362;  -60.755; -497.107; -557.807
613.637;   37.478;  261.897;  138.186
613.911;  -16.698; -256.092; -345.835
614.186;  103.119; -249.107; -292.807
614.460;  644.195; -842.081; -758.854
614.735;  773.944;  -55.087;  -17.843
615.010;  175.434;   43.912;  -82.841
615.284;  242.334;  360.892;  246.195
615.559;  355.701; -792.092; -955.835
615.833;  280.689;  -76.099;  -87.822
616.108;  -14.087; -225.090; -390.837
616.382;  140.546;  274.913;  402.156
616.656;  152.688; -241.090; -232.837
616.931;  483.139; -785.099; -700.822
617.205; 1022.973; -973.104; -979.813
617.480;  935.988;  -91.125;    6.225
617.754;  166.785; -396.125; -128.774
618.028;  -10.019; -369.129; -382.768
618.302;   50.558;   73.892;  -25.805
618.577;  -60.845; -371.103; -518.815
618.851;  -67.202; -399.109; -600.803
619.125;  -60.238; -335.134; -378.759
619.399;  -47.976; -244.104; -374.813
619.673;  -46.904; -330.115; -515.792
619.947;  -53.865; -333.114; -448.795
620.222;  -22.561; -198.110; -204.801
620.496;   -7.601;  -47.121;  -96.782
620.770;    7.416; -187.122;  -93.781
621.044;  202.858;  323.895;  346.190
621.318;  711.552; -653.120; -614.783
621.592;  650.275; -430.121; -409.783
621.866;  362.053; -476.112; -572.799
622.140;   16.689; -207.116; -356.791
622.413;   56.507;  138.889;  112.200
622.687;  -43.781; -746.101; -492.817
622.961;    7.983; -130.108; -143.805
623.235;  -66.117; -633.111; -661.800
623.509; -108.785; -816.105; -848.811
623.783;    3.566;  -12.107;   48.193
624.056;  -25.997; -254.120; -280.783
624.330;   47.172;   63.888;   -3.797
624.604;   50.086; -271.116; -355.790
624.877;   69.968;  180.890;   26.198
625.151;   25.905; -249.114; -238.794
625.425;  -46.450; -150.103; -283.814
625.698;  -71.063; -367.119; -374.785
625.972; -103.879; -799.110; -765.802
626.245;   62.488;  685.884;  484.210
626.519;  -57.218; -426.120; -340.784
626.792;  -34.005; -192.107; -380.807
627.066;  -95.866; -485.122; -662.779
627.339; -111.233; -736.110; -663.802
627.613;   29.281;  351.880;  148.216
627.886;   44.423;  187.891; -612.803
628.160;  -22.223;  312.880; -161.783
628.433; -110.460; -695.125; -703.775
628.706;  -73.743; -517.120; -615.784
628.979;   25.622;  296.876;  117.223
629.253;  -90.383; -785.119; -833.786
629.526;  343.600; -334.126; -253.772
629.799;  338.329; -641.123; -479.778
630.072;  157.107; -497.128; -516.769
630.346;  -67.512;-1115.116;-1080.790
630.619;  449.646; -467.107; -545.808
630.892;  625.534;  709.889;  593.200
631.165;  338.874;  790.896;  679.187
631.438;  -88.300;-1092.112;-1055.798
631.711;   28.457;  453.877;  257.221
631.984;  -65.467; -523.117; -624.789
632.257;  -84.145; -636.117; -681.789
632.530;  -65.762; -412.119; -433.785
632.803;   22.178; -109.115;    7.207
633.076;  -69.699; -360.123; -422.777
633.349;   18.061;  173.872;  121.231
633.622;  -32.314; -187.119; -240.785
633.895; -139.547; -903.120; -823.783
634.167;  -65.023; -496.126; -525.773
634.440;  -19.031;  -19.116; -137.792
634.713;  -12.234;  -22.119; -120.786
634.986;   76.976;  593.871;  453.233
635.258;  -69.049; -507.115; -597.793
635.531;   91.051;  742.882; -343.788
635.804;  -29.393; -303.117; -318.789
636.077;  -92.760; -830.116; -852.791
636.349;   -5.426; -586.115; -474.793
636.622;  379.449; 1695.874; 1392.228
636.894;  230.657; -474.120; -909.784
637.167;  124.093; -836.127; -789.771
637.439;   25.165; -278.128; -213.770
637.712;  -64.549; -312.126; -293.772
637.984;  -84.909; -635.116; -707.791
638.257;  360.451;  515.877;  488.222
638.529;  542.791; -881.125; -924.776
638.802;  236.432; -508.128; -449.769
639.074; -123.635; -927.122; -952.781
639.346; -132.146; -942.135; -930.757
639.619;    6.939;  -79.142; -319.744
639.891;  -21.866;  -83.122; -168.779
640.163;  -77.139; -689.122; -756.780
640.435;   25.063;  273.878;  103.220
640.708;   -2.836;  -72.122; -132.780
640.980;  -30.659; -366.122; -362.781
641.252;  188.243;  -25.121;  -71.781
641.524; 1747.595;  580.879;  573.219
641.796; 1793.997;-1094.121; -907.782
642.068;  325.323; -191.121; -300.782
642.340;  -56.025; -486.121; -566.783
642.613;   33.802;  294.880;  323.217
642.885; -126.221; -787.120; -878.783
643.157;  -59.094; -810.120; -658.784
643.428;   54.907;  170.880;  218.216
643.700;  -79.416; -498.120; -425.784
643.972;  -30.114;  -16.119; -133.785
644.244;  -87.962; -474.119; -559.785
644.516;  -54.685; -250.119; -114.786
644.788;   51.942;  662.881;  548.214
645.060;  -33.557;  -12.119; -124.786
645.332; -108.755; -525.118; -535.787
645.603;   37.172;  479.882;  342.213
645.875;  -78.476; -334.118; -369.787
646.147;  150.601; 1487.882; 1242.212
646.418;  -81.448; -931.117; -918.788
646.690;  145.529; -714.117; -715.789
646.962;   18.131; -413.117; -451.789
647.233;  -16.367;   15.883;   11.211
647.505; -110.915; -595.117; -475.790
647.776;   30.761;  328.884;  229.210
648.048;  -13.612; -248.116; -418.790
648.320;  -84.560; -752.116; -679.791
648.591; -155.433;-1055.116; -958.791
648.862;  -86.581; -505.116; -577.792
649.134;    6.096;  115.885;  198.208
649.405;  -48.478; -661.115; -618.792
649.677;  -57.826; -475.115; -598.793
649.948;  -18.199; -181.115; -296.793
650.219;  -13.447;  -37.115; -147.793
650.491;  -97.845; -431.114; -520.794
650.762; -132.369; -705.114; -731.794
651.033;  -94.967; -437.114; -424.795
651.304;  -92.240; -743.114; -728.795
651.576;  -77.338; -680.114; -645.795
651.847;  -51.986; -250.113; -140.796
652.118;  -38.660;  -32.113; -189.796
652.389; -121.333; -639.113; -722.796
652.660;  -41.956; -147.113;  -89.797
652.931; -138.079; -897.112; -871.797
653.202;  -95.227; -382.112; -541.798
653.473;  -64.101; -633.112; -533.798
653.744;  148.926; -595.112; -590.798
654.015;  138.053; -356.112; -303.799
654.286;  -82.095; -642.111; -663.799
654.557;  -64.343; -586.111; -521.799
654.828; -173.616;-1114.111;-1088.800
655.099;  -91.640; -404.111; -291.800
655.370; -101.788; -427.111; -543.801
655.641; -132.486; -656.110; -714.801
655.911; -115.634; -618.110; -638.801
656.182;   31.143;  437.890;  387.198
656.453;   90.894;  830.890;  746.198
656.724;  -74.404; -466.110; -426.802
656.994;  -83.302; -553.109; -568.803
657.265; -117.925; -862.109; -873.803
657.536;  -84.848; -500.109; -377.804
657.806; -116.047; -561.109; -593.804
658.077; -148.345; -866.109; -950.804
658.347; -103.668; -523.108; -598.805
658.618; -118.991; -646.108; -694.805
658.888;  -40.089;  -41.108;  112.195
659.159;  -87.063; -432.108; -548.806
659.429;  -18.811; -292.108; -349.806
659.700;    4.491; -435.107; -390.807
659.970;  -20.132; -370.107; -359.807
660.241;   10.595; -754.107; -921.807
660.511;  491.672; -147.107; -174.808
660.781;   91.923; -793.106; -748.808
661.052;  -73.100; -222.106; -381.808
661.322;  -28.798;   21.894;   -9.809
661.592;   -8.721;  257.894;  148.191
661.862;  -73.544; -369.106; -382.810
662.133; -105.868; -551.105; -502.810
662.403; -124.316; -770.105; -676.810
662.673;  -61.864; -256.105; -213.811
662.943; -104.287; -612.105; -551.811
663.213;   -7.010;  -85.105;  -81.811
663.483;  -83.734; -593.104; -568.812
663.753;  -56.732; -194.104; -152.812
664.023;  -24.205;   68.896;  -32.813
664.293;  -72.003; -319.104; -126.813
664.563; -108.976; -694.104; -648.813
664.833; -126.075; -743.103; -608.814
665.103; -137.723; -730.103; -793.814
665.373; -127.346; -766.103; -806.814
665.643;  -97.994; -863.103; -918.815
665.913;    7.858; -534.103; -714.815
666.182;  127.685; -685.102; -719.816
666.452;  252.411;  -22.102;  -89.816
666.722;  -39.312; -724.102; -784.816
666.992; -127.360; -948.102; -921.817
667.261;  -96.183; -824.102; -808.817
667.531;  193.494;  134.899;   45.183
667.801;  521.445; -440.101; -412.818
668.070;  217.822;  714.899;  697.182
668.340; -104.701; -883.101; -840.819
668.609;   80.026;  588.900;  301.181
668.879;  -85.622; -490.100; -558.819
669.149;  -63.546; -539.100; -516.820
669.418; -110.969; -698.100; -726.820
669.688;  -42.892; -482.100; -666.820
669.957;   57.960; -423.099; -546.821
670.226;  -34.963; -268.099; -331.821
670.496;  -91.737; -431.099; -635.822
670.765;  -99.860; -418.099; -501.822
671.034; -137.158; -872.099; -828.822
671.304;  -28.906;   55.902; -111.823
671.573; -152.504;-1085.098; -957.823
671.842;   59.798; -380.098; -294.823
672.112;   23.749; -692.098; -586.824
672.381;  -16.674; -239.098; -214.824
672.650; -136.597;-1005.097;-1021.825
672.919;  -90.620; -631.097; -507.825
673.188; -102.418; -681.097; -878.825
673.457; -169.867;-1101.097;-1143.826
673.726;  -96.715; -579.096; -646.826
673.995;  -48.463; -533.096; -479.826
674.265;  -12.211; -263.096; -333.827
674.534;    3.766; -183.096; -235.827
674.802;   -4.508; -618.096; -703.828
675.071;  985.894; -886.095; -801.828
675.340; 3830.146; -464.095; -339.828
675.609; 1289.073;  103.905;   82.171
675.878;   71.300; -949.095; -893.829
676.147;   28.301;  -26.095;   -8.829
676.416;   75.353; -210.094; -294.830
676.685;  724.280; 1000.906; -622.830
676.953;   94.407; -603.094; -452.831
677.222;  -36.416; -193.094; -273.831
677.491;  -30.389;  -24.094; -127.831
677.759;  -23.488;   11.907;  172.168
678.028;  -14.536; -279.093; -222.832
678.297;  -16.209;   71.907;  197.168
678.565; -150.382; -898.093; -944.833
678.834;  -72.205; -311.093; -268.833
679.102;  -88.979; -411.092; -391.834
679.371; -159.802; -898.092; -727.834
679.639; -137.925; -797.092; -786.834
679.908; -126.673; -794.092; -724.835
680.176; -157.971; -895.091; -941.835
680.445;  -86.845; -346.091; -352.835
680.713;  -25.768;  -58.091;  -23.836
680.982;  -95.116; -523.091; -525.836
681.250; -106.439; -578.091; -507.837
681.518; -112.937; -534.090; -751.837
681.787;  -34.510; -204.090; -167.837
682.055;  -75.009; -490.090; -422.838
682.323; -151.432; -993.090; -992.838
682.591;   27.120; -216.090; -538.838
682.859;   83.497;    9.911;  -35.839
683.128;   14.524;  232.911;  497.161
683.396; -171.075;-1102.089;-1122.840
683.664;  -59.198; -241.089;   21.160
683.932;    1.879;  144.911;  -76.840
684.200;  -91.419; -576.088; -320.841
684.468;  -43.592;  -73.088; -124.841
684.736;  -47.816; -214.088; -175.841
685.004; -130.914;-1024.088; -982.842
685.272;  -66.312; -880.088; -774.842
685.540;  -62.610; -499.087; -557.843
685.808;  -75.733; -651.087; -682.843
686.076; -115.057; -894.087; -969.843
686.343;  -57.205; -601.087; -815.844
686.611;   34.272; -195.087; -224.844
686.879;  460.124; -530.086; -553.844
687.147; 3273.426; -483.086; -480.845
687.414;  915.253;  -12.086; -169.845
687.682;   -4.121; -658.086; -757.846
687.950;  300.906;  259.915;  263.154
688.217;   -9.517; -792.085; -760.846
688.485;   -1.840; -632.085; -636.847
688.753;  528.237;  -11.085; -102.847
689.020;  153.238; -820.085; -851.847
689.288;  -94.110; -853.084; -787.848
689.555;  -36.908; -195.084; -148.848
689.823;  -63.556; -241.084; -345.849
690.090; -105.204; -546.084; -651.849
690.358; -141.003; -877.084; -897.849
690.625;  -16.551;  120.917;   45.150
690.892;  -83.699; -403.083; -369.850
691.160;  -22.072;   72.917;  -35.850
691.427;   -3.745;  141.917;  130.149
691.694; -146.319; -855.083; -929.851
691.962; -141.692;-1177.082;-1060.852
692.229;   -4.040;  127.918;   56.148
692.496;   72.012;  130.918;  -49.852
692.763;    5.489; -164.082; -201.853
693.031;  -70.059; -739.082; -716.853
693.298;  -52.558; -509.081; -368.853
693.565;  297.319; -155.081; -163.854
693.832; 1258.596;   -5.081;   -9.854
694.099;  132.648; -643.081; -642.855
694.366;  -64.600; -882.081; -896.855
694.633;  -55.899; -920.080; -633.855
694.900;  751.228; 4367.920; -114.856
695.167;  426.955; -214.080; -380.856
695.434;  100.782; -646.080; -623.856
695.701;  196.684;  121.921;  -61.857
695.968;  456.785; -365.079; -361.857
696.234; 1014.187; -415.079; -646.858
696.501;10296.389; -776.079; -614.858
696.768; 5198.591; -554.079; -617.858
697.035;  311.918; -632.078; -667.859
697.302;   29.594; -448.078; -552.859
697.568;    5.121; -458.078; -497.859
697.835;  -39.877; -683.078; -624.860
698.102;  -29.000; -498.078; -407.860
698.368;   74.277;  384.923;  396.139
698.635;  -35.821;  -47.077; -424.861
698.901;  -25.320; -240.077; -348.861
699.168;   43.882; -534.077; -456.862
699.435;   52.034;  -72.077;  -13.862
699.701; -113.539; -868.076; -764.862
699.968;   15.963;  144.924; -441.863
700.234; -116.411; -783.076; -822.863
700.500;  -61.984; -448.076; -539.864
700.767;  -13.757;   -1.075;   26.136
701.033; -136.330;-1015.075; -963.864
701.299;  -70.303; -450.075; -483.865
701.566;   97.723;  950.925;  763.135
701.832;   13.200;  -31.075;  -76.865
702.098;  -97.023;-1054.074;-1034.866
702.365;  -95.421;-1098.074;-1030.866
702.631;  -37.219;-1038.074;-1063.867
702.897; 1325.307; -765.074; -676.867
703.163; 2225.934;  348.926;  254.133
703.429;  158.261; -256.073; -273.868
703.695;  -39.712; -796.073; -792.868
703.961;    6.090; -214.073; -210.868
704.227;  -59.958; -630.073; -725.869
704.493;  119.643;  613.927;  510.131
704.759;  -30.880; -565.072; -540.870
705.025;   34.247; -203.072; -194.870
705.291;   -9.601; -666.072; -562.870
705.557;  188.226;  719.928;   34.129
705.823;   22.427; -742.072; -694.871
706.089;  116.154; -307.071; -326.871
706.355;  341.656; -315.071; -244.872
706.620; 5568.133; -776.071; -729.872
706.886; 7775.735; -309.071; -362.873
707.152;  718.586; -818.070; -973.873
707.418;  -25.062;-1153.070;-1186.873
707.683;  -13.460; -550.070; -530.874
707.949;  -37.658; -547.070; -578.874
708.215;   -7.531; -129.070; -207.874
708.480;  -18.005; -520.069; -420.875
708.746;   85.297;   68.931;   28.125
709.011;  -68.726; -578.069; -612.876
709.277;  -85.549; -538.069; -543.876
709.542;  -51.747; -428.069; -387.876
709.808;  -10.020;  -59.068;   89.123
710.073;  -90.544; -577.068; -695.877
710.339;  -47.017; -242.068; -228.877
710.604;   68.810; -780.068; -845.878
710.869;  305.537; -277.068; -366.878
711.135;  -89.261; -715.067; -628.879
711.400;  -96.610; -507.067; -608.879
711.665;  -67.333; -404.067; -479.879
711.931; -109.706; -661.067; -677.880
712.196; -134.779; -876.067; -954.880
712.461;  102.048; -402.066; -490.880
712.726;  127.874; -727.066; -771.881
712.991;  -98.174; -647.066; -664.881
713.256;  -55.597; -350.066; -332.882
713.521;  -69.495; -417.065; -381.882
713.787;  -56.093; -454.065; -472.882
714.052;  -38.816; -214.065; -400.883
714.317;  -93.940;-1045.065; -981.883
714.581; 1019.012; -374.065; -268.883
714.846; 1376.764; -822.064; -888.884
715.111;  125.266;  261.936;  257.116
715.376;  -26.332;  -86.064; -223.885
715.641;  -20.681; -365.064; -367.885
715.906;  288.771;   15.936; -551.885
716.171;  117.848;  221.937;  209.114
716.436;   20.450;  -78.063; -104.886
716.700; -124.798; -818.063; -692.886
716.965; -132.622; -794.063; -807.887
717.230;  -82.445; -339.063; -392.887
717.494;  -22.843;  -40.062; -134.888
717.759;  -95.316; -784.062; -640.888
718.024;    3.761;  269.938;  250.112
718.288;   62.712;  685.938;  395.111
718.553; -145.436; -803.062; -977.889
718.817; -149.759; -883.061; -899.889
719.082;  -31.407; -115.061; -125.890
719.346; -150.130;-1000.061; -947.890
719.611;  -49.578; -300.061; -255.891
719.875; -104.227; -568.060; -537.891
720.140;  -71.500; -453.060; -603.891
720.404;   33.702; -136.060; -249.892
720.668;  847.479; -475.060; -411.892
720.933;  289.806;  146.940;  137.108
721.197;  -93.543; -667.059; -600.893
721.461; -143.841; -851.059; -826.893
721.725;  -15.239;  -21.059; -250.894
721.990;  -67.362; -284.059; -204.894
722.254;  -42.310;  -26.059; -108.894
722.518;  -74.709; -286.058; -442.895
722.782; -102.407; -743.058; -594.895
723.046;  120.570;  614.942;  570.105
723.310;   25.572;  374.942;  210.104
723.574; -111.076; -654.058; -614.896
723.838; -107.825; -576.057; -642.897
724.102;  -56.573; -226.057; -239.897
724.366; -132.996;-1032.057; -978.897
724.630; -113.744; -749.057; -571.898
724.894;  -85.392; -722.057; -514.898
725.158;  -27.765;   38.944; -295.898
725.422;  -47.189; -394.056; -327.899
725.685;  -71.037; -441.056; -349.899
725.949;  -79.485; -566.056; -519.900
726.213;  -77.933; -732.056; -811.900
726.477;  170.794;-1020.055; -933.900
726.740;  133.695; -274.055; -104.901
727.004;  330.447; -384.055; -510.901
727.268; 3307.674; -442.055; -400.901
727.531;  895.751; -961.055; -775.902
727.795;  -47.972; -713.054; -673.902
728.059;  -74.371; -552.054; -557.903
728.322;  -85.969; -841.054; -669.903
728.586;   13.908; -692.054; -701.903
728.849; -104.615; -695.053; -756.904
729.112; -116.613; -812.053; -912.904
729.376; -133.412; -959.053; -905.904
729.639;  -83.235; -536.053; -536.905
729.903; -118.683; -733.053; -699.905
730.166;  -70.056; -437.052; -399.906
730.429;  -41.304; -317.052; -468.906
730.693;  -58.852; -355.052; -894.906
730.956;  193.699;  810.948;  651.093
731.219;  683.876; -310.052; -103.907
731.482;  107.928;-1003.051; -894.907
731.745;   91.455; -794.051; -935.908
732.009;    1.032;  -30.051;   50.092
732.272; -101.592; -904.051; -771.909
732.535;  -50.940; -300.051; -310.909
732.798; -158.738;-1083.050;-1166.909
733.061;  -64.936; -430.050; -456.910
733.324;   -1.959;   31.950; -180.910
733.587;   46.467;  290.950;  365.090
733.850;  -60.306; -973.049;-1050.911
734.113;   17.571;   33.951;   32.089
734.376;   -9.927; -328.049; -447.912
734.639;  217.800; 1188.951; 1011.088
734.901;   55.101; -180.049; -402.912
735.164;  491.978; -883.048; -837.913
735.427; 1285.480; -166.048; -355.913
735.690;  121.682; -205.048; -234.913
735.952;  -35.491; -923.048; -925.914
736.215;  -38.664;-1113.048;-1009.914
736.478;   26.337; -771.047; -774.915
736.740;  221.364;   33.953;  129.085
737.003;  687.641; -658.047; -672.915
737.266; 3994.293;  -94.047;   46.084
737.528;  427.770; -682.047; -660.916
737.791;  292.921; -316.046; -327.916
738.053;  810.198;  465.954;  649.083
738.316;10903.275; -162.046; -136.917
738.578; 7509.852; -770.046; -736.918
738.841;  430.479; -382.046; -446.918
739.103;  165.955; -875.045; -777.918
739.365;  482.932;   79.955;  -69.919
739.628;  -19.341; -884.045; -805.919
739.890;  -29.739; -758.045; -710.919
740.152;  -47.462; -692.044; -754.920
740.414;  -22.061; -408.044; -359.920
740.677;  -53.084; -785.044; -634.921
740.939;  -56.907; -587.044; -487.921
741.201;  244.370; -432.044; -572.921
741.463;   20.022; -689.043; -745.922
741.725;   22.974;  -21.043; -199.922
741.987;   35.900;  220.957;  116.078
742.249;   -5.298; -751.043; -859.923
742.511;  218.554; -703.043; -794.923
742.773;    5.556; -546.042; -546.924
743.035;  115.208;  796.958;  533.076
743.297;  -54.491; -963.042;-1013.924
743.559;  744.336; -278.042; -262.925
743.821;   41.463; -735.042; -744.925
744.083;    3.065;  -44.041; -149.925
744.345;  -98.808; -869.041; -892.926
744.607;   28.243;   75.959;  122.074
744.868;  -59.255; -490.041; -554.927
745.130; -129.603; -994.041;-1008.927
745.392;   29.399;   -1.040;  -44.927
745.653;  -19.624; -411.040; -378.928
745.915;  149.877;  896.960;  631.072
746.177;   54.854;   35.960;  -43.928
746.438;   -5.019; -428.040; -543.929
746.700;  -60.367; -947.039; -988.929
746.961;   -2.290; -659.039; -740.930
747.223;  120.387; -190.039;  -74.930
747.484;   73.013; -391.039; -471.930
747.746;  151.715;  -23.038; -106.931
748.007;   87.417; -647.038; -689.931
748.269;  287.219; -468.038; -440.931
748.530;  474.696; -852.038; -638.932
748.791;  247.447; -354.038; -420.932
749.053;  434.499;  286.963;  163.067
749.314;  455.576; -236.037; -169.933
749.575;  490.353; -945.037; -905.933
749.836;  834.655; -217.037;   86.066
750.098; 2454.706;  -60.037;  -21.934
750.359;36795.033;  414.964;  555.066
750.620; 9144.985; -121.036; -220.935
750.881;  995.862; -585.036; -513.935
751.142; 1345.264; -950.036; -938.936
751.403;16914.291; -789.036; -705.936
751.664; 7241.192;-1034.035; -999.936
751.925;  471.769; -175.035; -262.937
752.186;  259.371; -298.035; -278.937
752.447;  120.923; -590.035; -445.937
752.708;   36.725; -532.035; -648.938
752.969;   -5.024; -566.034; -576.938
753.230;   -1.797; -777.034; -672.939
753.491;   -6.120; -650.034; -631.939
753.751;   50.757;  109.966;   19.061
754.012;   84.234;  258.967;  181.060
754.273;   54.910; -174.033;  -71.940
754.534;    8.412; -487.033; -580.940
754.794;  -95.236; -926.033; -911.941
755.055;  147.566; 1051.967;  881.059
755.316;  -56.657; -700.032; -566.942
755.576;  -45.506; -606.032; -576.942
755.837;  -47.479; -527.032; -695.942
756.097;  -44.127; -530.032; -564.943
756.358;  -74.625; -725.032; -770.943
756.618;  -63.748; -705.031; -641.943
756.879;    5.379; -254.031; -349.944
757.139; -134.295;-1098.031;-1116.944
757.400;  -51.318; -538.031; -553.945
757.660;  -29.291; -365.031; -401.945
757.920;   -4.514; -266.030; -228.945
758.181;  -22.262; -468.030; -351.946
758.441;  -90.336; -870.030; -809.946
758.701;  -41.534; -308.030; -215.946
758.961;  -20.807; -220.030; -278.947
759.222;  -63.280; -574.029; -502.947
759.482;  -83.053; -683.029; -723.948
759.742;  -93.052; -706.029; -547.948
760.002;    1.800;  -83.029; -143.948
760.262;    9.577;   50.972;  182.051
760.522;  -57.246; -498.028; -574.949
760.782;  -63.069; -738.028; -612.949
761.042;  -52.593; -618.028; -573.950
761.302;   55.609;   55.972;  -18.950
761.562;   54.186; -164.027; -154.951
761.822;   75.913; -710.027; -551.951
762.082;  -35.985;-1104.027;-1093.951
762.342;   44.417; -328.027; -403.952
762.601;   68.943; -567.027; -506.952
762.861;  372.870; -281.026; -207.952
763.121;  406.322; -406.026; -411.953
763.381; 7524.074; -499.026; -485.953
763.640; 8108.626; -139.026; -307.954
763.900;  338.352; -242.026; -203.954
764.160;   77.604; -458.025; -491.954
764.419;  -16.619; -726.025; -782.955
764.679;  -70.642; -795.025; -726.955
764.939;  -21.840; -124.025; -210.955
765.198;  -75.664; -608.025; -563.956
765.458;  -82.787; -710.024; -612.956
765.717;  -79.710; -454.024; -590.957
765.976;  -51.858; -428.024; -411.957
766.236;  -78.531; -475.024; -610.957
766.495;   13.095;  260.977;   73.042
766.755;  -99.003;-1090.023; -987.958
767.014;    3.974; -594.023; -665.958
767.273;  -61.624; -373.023; -397.959
767.533;  -64.922; -228.023; -307.959
767.792;  -31.370; -151.022; -188.960
768.051;  -53.094; -228.022; -276.960
768.310; -110.142; -546.022; -650.960
768.569;  -20.265; -161.022;    4.039
768.828;  -44.963; -285.022; -363.961
769.088; -135.036;-1050.021; -942.961
769.347;  -97.160; -755.021; -599.962
769.606; -110.683; -876.021; -857.962
769.865; -114.631;-1016.021;-1033.963
770.124;  -16.754; -411.021; -336.963
770.383;  -60.152; -778.020; -910.963
770.641;   -0.051; -398.020; -400.964
770.900;  -83.699; -953.020; -846.964
771.159;  -51.147; -851.020; -951.964
771.418;  -20.370; -917.020; -779.965
771.677;  110.107; -224.019; -293.965
771.936;  135.208; -794.019; -865.966
772.194; 2211.360; -465.019; -437.966
772.453;10947.362; -213.019; -391.966
772.712;  735.514;  416.982;  329.033
772.970;  125.991;   32.982;   63.033
773.229;   77.943;  -22.018;  102.033
773.488;  -87.831; -814.018; -770.968
773.746;   40.346;  296.982;  335.032
774.005;  -15.452;  190.983;  -22.969
774.263;    9.825;  243.983;  177.031
774.522;  -38.998; -422.017; -548.969
774.780;  -83.772; -484.017; -417.970
775.039; -102.170; -551.017; -531.970
775.297;  -43.843; -135.016; -351.970
775.555; -112.916; -489.016; -612.971
775.814; -124.864; -618.016; -570.971
776.072; -120.838; -749.016; -740.971
776.330; -104.286; -630.016; -520.972
776.589; -132.759; -703.015; -721.972
776.847; -127.157; -645.015; -624.973
777.105; -171.980;-1016.015;-1032.973
777.363;  -87.854; -459.015; -454.973
777.621; -147.952; -660.015; -717.974
777.879;  -25.075;  -42.014;   32.026
778.138; -101.648; -554.014; -717.974
778.396; -110.246; -585.014; -526.975
778.654; -169.069;-1015.014; -970.975
778.912;  -69.918; -269.014; -371.976
779.170; -135.391; -880.013; -803.976
779.427; -154.639; -922.013; -897.976
779.685; -138.637; -880.013; -832.977
779.943;  -90.135; -654.013; -593.977
780.201; -170.934; -964.012; -883.978
780.459; -129.657; -651.012; -610.978
780.717;  -73.430; -440.012; -390.978
780.974; -109.678; -449.012; -490.979
781.232;  -79.076; -358.012; -338.979
781.490;  -82.625; -551.011; -472.979
781.747;  -96.873; -555.011; -476.980
782.005;    8.604;  462.989;  254.020
782.263; -168.019; -542.011;-1004.981
782.520;  -90.192; -326.011; -501.981
782.778; -164.665;-1013.010;-1051.981
783.035; -178.364; -962.010; -938.982
783.293;  -66.462; -248.010; -206.982
783.550;  -63.710; -134.010; -198.982
783.808; -143.508; -764.010; -776.983
784.065; -161.256; -745.009; -874.983
784.322;  -55.255;   25.991;  -86.984
784.580; -151.528; -915.009; -771.984
784.837; -100.551; -392.009; -466.984
785.094; -149.174; -783.009; -762.985
785.352;  -70.222; -304.008; -404.985
785.609; -111.246; -934.008; -839.985
785.866;  -76.794; -345.008; -401.986
786.123;  -80.617; -639.008; -583.986
786.380; -106.640; -665.008; -604.987
786.637;  -58.588; -225.007; -380.987
786.895;  -31.162; -456.007; -543.987
787.152;  -56.385; -135.007; -267.988
787.409;  -52.133; -123.007; -225.988
787.666;  -92.156; -299.006; -378.988
787.923; -116.979; -616.006; -695.989
788.179; -109.452; -551.006; -584.989
788.436; -123.751; -585.006; -585.990
788.693;  -49.074;  -92.006;  -87.990
788.950;  134.903; -125.005; -112.990
789.207;  217.680; -381.005; -372.991
789.464;  -45.068; -161.005; -301.991
789.720;  -28.567;  150.995;  110.009
789.977; -174.815;-1003.005; -671.992
790.234;  -48.688;   44.996;  -66.992
790.490; -159.661; -884.004;-1031.993
790.747;  -29.284;  -85.004;   22.007
791.004;  -27.908; -426.004; -348.993
791.260;  -88.306; -430.004; -560.994
791.517; -105.629; -843.003; -788.994
791.773;  -53.102; -379.003; -342.994
792.030; -113.600; -596.003; -660.995
792.286; -116.699; -686.003; -636.995
792.543;   -6.697;  -74.002; -159.995
792.799;  -65.695; -584.002; -382.996
793.055; -178.043;-1179.002;-1210.996
793.312; -111.941; -827.002; -816.997
793.568;  -59.339; -746.002; -599.997
793.824;    7.987; -226.001; -284.997
794.081;   13.464; -447.001; -508.998
794.337;   43.966; -664.001; -561.998
794.593; 1337.818; -319.001; -271.999
794.849; 6522.245; -746.001; -772.999
795.105;  308.571; -270.000; -261.999
795.361;   -7.552; -490.000; -457.000
795.617;  -74.825; -875.000; -945.000
795.873;  -68.150; -360.000; -407.000
796.129;  -37.875; -368.000; -306.000
796.385;  -31.950; -124.000; -156.000
796.641;   55.100;  412.000;  550.000
796.897; -110.175; -666.000; -635.000
797.153;   47.225;  453.000;  357.000
797.409; -103.175; -785.000; -868.000
797.665;  -91.725; -625.000; -732.000
797.921;  -93.400; -775.000; -762.000
798.176;  -55.275; -744.000; -747.000
798.432;  -61.825; -824.000; -596.000
798.688;  -81.725;-1174.000;-1078.000
798.943;   79.025; -165.000; -147.000
799.199;  -14.025;-1005.000; -959.000
799.455;  226.500;  369.000;  316.000
799.710;  120.975; -813.000; -380.000
799.966;  295.875; -162.000; -160.000
800.221;  454.900; -638.000; -721.000
800.477;10574.350; -743.000; -710.000
800.732; 9183.175; -773.000; -800.000
800.988;  626.200;  205.000;  -19.000
801.243; 1807.950; -454.000; -344.000
801.498; 7654.250; -814.000; -739.000
801.754;  413.250; -289.000; -163.000
802.009;   79.650; -257.000; -335.000
802.264;  -63.375; -967.000;-1033.000
802.520;   12.825;  222.000;   -3.000
802.775;  -66.600; -524.000; -359.000
803.030;   47.000;  395.000;  356.000
803.285; -125.375; -840.000; -903.000
803.540;  -66.150; -686.000; -699.000
803.795;  -56.175; -648.000; -583.000
804.051;  -56.425; -279.000; -346.000
804.306;   14.850;  168.000;  128.000
804.561;  137.475;  451.000;  362.000
804.816;  124.825;  714.000;  861.000
805.071;   -7.850; -185.000; -280.000
805.325;  200.675; -257.000; -427.000
805.580; -108.275; -841.000; -877.000
805.835;  -18.125; -204.000; -297.000
806.090;  -95.350; -760.000; -676.000
806.345;  -33.725; -344.000; -264.000
806.600;  -53.625; -549.000; -632.000
806.854;  -19.925; -408.000; -538.000
807.109;  -28.900; -493.000; -577.000
807.364;   -6.275; -407.000; -328.000
807.618;  -10.375; -415.000; -381.000
807.873;   38.750; -470.000; -494.000
808.128;   89.700; -257.000; -518.000
808.382;   93.675; -224.000; -332.000
808.637;   71.300; -440.000; -511.000
808.891;  181.325; -257.000; -180.000
809.146;   83.225; -902.000; -794.000
809.400;  258.950; -848.000; -923.000
809.654;  311.225; -779.000; -551.000
809.909;  494.925; -841.000; -927.000
810.163; 6763.925; -813.000; -651.000
810.418;17019.375; -940.000; -861.000
810.672; 1018.075; -685.000; -690.000
810.926;  708.775; -993.000; -973.000
811.180; 1419.425; -439.000; -372.000
811.434;32014.300;  240.000;  135.000
811.689;12583.350; -231.000; -365.000
811.943;  631.175; -936.000; -953.000
812.197;  298.075; -893.000; -671.000
812.451;  136.900; -379.000; -514.000
812.705;  -35.250; -809.000; -619.000
812.959;   -4.375; -263.000; -388.000
813.213;   -7.425; -283.000; -209.000
813.467;   58.025;  470.000;  253.000
813.721; -115.450; -764.000; -792.000
813.975; -132.875; -826.000; -877.000
814.229;   21.025;  430.000;  353.000
814.482;  -82.100; -517.000; -566.000
814.736; -119.125; -766.000; -744.000
814.990; -124.575; -779.000; -872.000
815.244;  -58.225; -228.000; -285.000
815.497;  -96.775; -636.000; -601.000
815.751;  -16.950; -141.000;   82.000
816.005;  -99.325; -470.000; -586.000
816.258;  -72.675; -510.000; -363.000
816.512; -110.175; -693.000; -610.000
816.766;  -22.675;  121.000;  157.000
817.019;   16.050;  148.000;  149.000
817.273; -129.650;-1000.000; -802.000
817.526;  -33.025; -206.000; -173.000
817.779;  -62.500;-1049.000; -960.000
818.033;  -71.075; -693.000; -807.000
818.286; -138.750; -725.000; -792.000
818.540;  -86.175; -403.000; -403.000
818.793;  -80.950; -402.000; -489.000
819.046; -116.000; -582.000; -520.000
819.299;  -47.250; -157.000; -166.000
819.553; -111.175; -552.000; -592.000
819.806; -174.375;-1016.000; -838.000
820.059;  -63.125; -334.000; -354.000
820.312;   -0.025;  152.000;  185.000
820.565;  -17.725;  110.000;  -27.000
820.818;  -39.750;  -59.000; -173.000
821.071; -163.625;-1041.000; -957.000
821.324; -113.150; -536.000; -540.000
821.577; -103.175; -457.000; -483.000
821.830;  -66.725; -270.000; -172.000
822.083; -132.950; -733.000; -288.000
822.336;  -68.925; -261.000; -167.000
822.589; -148.550; -805.000; -688.000
822.842; -157.150; -875.000; -770.000
823.094; -186.975;-1076.000;-1114.000
823.347; -148.575; -925.000; -729.000
823.600;   -2.700;  402.000;  187.000
823.853;  -72.700; -311.000; -267.000
824.105;  -73.150; -331.000; -575.000
824.358; -121.400; -617.000; -716.000
824.611;   16.075;  234.000;   40.000
824.863;  -72.750; -612.000; -591.000
825.116;   37.450;  -33.000;   27.000
825.368;   70.950; -366.000; -372.000
825.621;  150.300; -186.000; -240.000
825.873;   70.625; -704.000; -737.000
826.126;  588.525; -669.000; -641.000
826.378;11602.600; -389.000; -505.000
826.630; 2778.975; -890.000; -898.000
826.883;   32.000; -754.000; -693.000
827.135;   48.250; -279.000; -270.000
827.387; -132.125; -893.000; -839.000
827.639;  -39.775;  -86.000;   32.000
827.892; -145.225; -742.000; -582.000
828.144; -143.350; -848.000; -804.000
828.396;  -44.575;  104.000;  -80.000
828.648;  -99.325; -440.000; -333.000
828.900; -151.450; -702.000; -795.000
829.152; -123.875; -684.000; -683.000
829.404;  -90.400; -215.000; -267.000
829.656;  -38.900;  321.000;  214.000
829.908;  -31.775;  393.000;  229.000
830.160; -163.450;-1064.000;-1047.000
830.412; -108.525; -481.000; -430.000
830.664; -122.325; -557.000; -665.000
830.916;  -83.050; -268.000; -206.000
831.167; -178.875;-1073.000; -951.000
831.419; -123.700; -623.000; -566.000
831.671; -148.250; -764.000; -809.000
831.923;  -89.825; -311.000; -447.000
832.174;  -81.125; -273.000; -331.000
832.426; -125.400; -493.000; -582.000
832.678; -182.525;-1043.000;-1091.000
832.929; -171.975; -947.000; -935.000
833.181;  -63.000; -575.000; -677.000
833.432;  -63.700;  -59.000; -186.000
833.684;  -17.300;  112.000;  -27.000
833.935; -123.625; -610.000; -566.000
834.187; -121.975; -829.000; -823.000
834.438;  -66.975;  -58.000;  -25.000
834.689;  -74.525; -255.000; -123.000
834.941;  -68.050; -343.000; -244.000
835.192; -103.975; -590.000; -533.000
835.443;  -99.875; -419.000; -506.000
835.695;  -25.225;  138.000;  -16.000
835.946;  -83.300; -608.000; -378.000
836.197; -106.325; -599.000; -622.000
836.448;  -94.825; -528.000; -395.000
836.699;  -66.625; -253.000; -341.000
836.950;  -15.600;   72.000;    7.000
837.201; -161.275;-1003.000; -987.000
837.452;  -54.375; -356.000; -170.000
837.703; -117.600; -791.000; -737.000
837.954;  -46.025; -205.000; -365.000
838.205;  -88.625;-1029.000;-1008.000
838.456;  148.275; -196.000; -282.000
838.707;   -5.325; -423.000; -519.000
838.958;   -6.500; -634.000; -647.000
839.209;  276.550;   18.000;   40.000
839.460;  108.050; -439.000; -201.000
839.710;  161.600; -135.000; -297.000
839.961;  419.400;  730.000;  612.000
840.212;  335.075; -382.000; -497.000
840.462; 1125.800; -328.000; -277.000
840.713;18045.575; -571.000; -536.000
840.964; 7115.925;  -62.000; -143.000
841.214;  508.750; -384.000; -624.000
841.465;  556.150; -214.000; -141.000
841.715;  486.275; -417.000; -380.000
841.966;  661.625; -746.000; -685.000
842.216; 9166.400; -330.000; -431.000
842.466;34460.200; -169.000; -313.000
842.717; 1834.275; -964.000; -952.000
842.967;  309.425; -635.000; -641.000
843.217;  247.975;   20.000;   28.000
843.468;   54.625; -104.000; -132.000
843.718;  -40.125; -718.000; -726.000
843.968; -109.500; -837.000; -765.000
844.218;    9.325; -315.000; -262.000
844.469;  -51.700; -577.000; -561.000
844.719; -120.800; -537.000; -682.000
844.969;  -99.900; -550.000; -580.000
845.219; -147.625; -814.000; -862.000
845.469;  -87.225; -392.000; -342.000
845.719; -141.800; -792.000; -884.000
845.969;  -28.025;  119.000;  174.000
846.219; -146.250; -738.000; -720.000
846.469;    5.225;  464.000;  432.000
846.718;  -38.225; -115.000;   31.000
846.968; -143.250; -827.000; -827.000
847.218;  -60.725; -224.000; -371.000
847.468;  -10.150; -586.000; -555.000
847.718; -144.125; -827.000; -798.000
847.967; -151.800; -826.000; -915.000
848.217;  -98.975; -449.000; -569.000
848.467;  -68.550; -405.000; -376.000
848.716; -128.750; -708.000; -725.000
848.966;   -9.825; -372.000; -358.000
849.215;  -67.325; -428.000; -419.000
849.465; -101.300; -785.000; -615.000
849.714; -143.575;-1132.000;-1150.000
849.964;  -77.300; -551.000; -613.000
850.213;  -19.225; -393.000; -355.000
850.463;   66.600;  137.000;  340.000
850.712;    4.600; -542.000; -567.000
850.961;   16.200; -739.000; -678.000
851.211;   84.125; -513.000; -504.000
851.460;  147.775; -635.000; -650.000
851.709;  577.050;  -25.000;   18.000
851.958;10458.050; -912.000; -750.000
852.208;12532.475; -859.000; -879.000
852.457;  445.425; -181.000;  -13.000
852.706;   55.725; -791.000; -823.000
852.955;   -9.150; -507.000; -528.000
853.204;  -82.800; -521.000; -461.000
853.453;  -93.400; -418.000; -458.000
853.702; -134.450; -660.000; -750.000
853.951; -110.950; -532.000; -520.000
854.200; -113.525; -613.000; -562.000
854.449; -143.525; -695.000; -661.000
854.698;  -95.400; -340.000; -279.000
854.946;  -83.725; -181.000; -284.000
855.195; -163.875; -843.000; -868.000
855.444; -119.600; -395.000; -420.000
855.693; -123.750; -345.000; -432.000
855.941; -122.000; -387.000; -516.000
856.190;  -73.375; -256.000; -382.000
856.439; -135.700; -652.000; -703.000
856.687;  -67.150;  -99.000;  -72.000
856.936; -140.600; -621.000; -323.000
857.184; -186.475;-1067.000;-1020.000
857.433; -129.850; -423.000; -512.000
857.681; -174.275; -989.000; -953.000
857.930;  -89.950; -282.000; -433.000
858.178; -172.100; -856.000; -929.000
858.427; -173.350; -802.000; -781.000
858.675; -128.900; -377.000; -544.000
858.923; -117.450; -527.000; -819.000
859.172; -175.875;-1094.000;-1070.000
859.420; -102.225; -339.000; -239.000
859.668; -146.150; -624.000; -628.000
859.916;  -36.350;  109.000;  115.000
860.164; -122.975; -699.000; -603.000
860.413;  278.425; -878.000; -696.000
860.661;  203.775; -709.000; -577.000
860.909;  -91.425; -339.000; -325.000
861.157;  -93.900; -277.000; -444.000
861.405; -138.050; -534.000; -670.000
861.653;   -3.300;  310.000;  310.000
861.901;  159.075; -543.000; -613.000
862.149;  -23.025; -801.000; -824.000
862.396;  -86.150; -297.000; -187.000
862.644; -101.050; -368.000; -347.000
862.892;  -46.275;   98.000;  138.000
863.140; -119.800; -549.000; -530.000
863.388; -169.000; -815.000; -759.000
863.635; -135.075; -642.000; -601.000
863.883;  -27.050;  231.000;  190.000
864.131; -102.125; -288.000; -357.000
864.378; -145.975; -675.000; -540.000
864.626; -122.100; -347.000; -415.000
864.873; -131.200; -556.000; -505.000
865.121; -155.225; -714.000; -799.000
865.368;  -68.350; -173.000;   75.000
865.616;  -42.675;  -33.000;  -40.000
865.863;  -91.050; -462.000; -506.000
866.111; -117.150; -795.000; -824.000
866.358;   20.725; -426.000; -420.000
866.605; 2275.900;  -64.000; -804.000
866.853; 2263.800; -621.000; -537.000
867.100;  -46.550; -728.000; -775.000
867.347; -112.200; -672.000; -611.000
867.594;  -91.500; -740.000; -714.000
867.841;   85.575;   97.000;   17.000
868.089; -153.050; -746.000; -698.000
868.336; -111.275; -477.000; -420.000
868.583; -155.425; -637.000; -741.000
868.830;  -52.825; -131.000; -170.000
869.077; -168.825; -859.000; -787.000
869.324; -144.525; -502.000; -458.000
869.571; -133.850; -398.000; -430.000
869.818; -139.775; -485.000; -439.000
870.065; -120.425; -439.000; -513.000
870.311; -129.850; -456.000; -542.000
870.558; -123.725; -332.000; -311.000
870.805;  -98.475; -320.000; -384.000
871.052; -116.050; -494.000; -369.000
871.298;  -67.100; -204.000; -131.000
871.545;  -74.925; -151.000; -185.000
871.792;  -98.025; -173.000; -222.000
872.038;  -80.775;   43.000; -126.000
872.285; -147.425; -496.000; -387.000
872.532; -102.100; -357.000; -387.000
872.778;   -7.775;  556.000;  403.000
873.025; -108.625; -384.000; -359.000
873.271;   -0.550;  501.000;  578.000
873.517;  -40.375; -133.000; -209.000
873.764;  -41.300; -193.000;  -80.000
874.010;  -80.225; -143.000; -230.000
874.257;  -67.000;  123.000;   90.000
874.503; -152.775; -579.000; -479.000
874.749;  -82.725;   31.000;  275.000
874.995;  -95.500;  -80.000;  -20.000
875.242; -142.575; -540.000; -478.000
875.488; -107.425; -414.000; -439.000
875.734;  -65.725; -106.000; -234.000
875.980;  181.075; -872.000;-1032.000
876.226;  357.075; -157.000; -255.000
876.472;   -6.075;  343.000;  237.000
876.718;  -28.800;  184.000;  158.000
876.964;  -51.625;   56.000;   55.000
877.210; -148.600; -547.000; -677.000
877.456; -152.200; -630.000; -557.000
877.702; -182.025; -821.000; -832.000
877.948; -119.350; -377.000; -497.000
878.193;   -1.525;  361.000;  255.000
878.439; -104.675; -487.000; -472.000
878.685; -109.275; -272.000; -343.000
878.931; -144.725; -618.000; -676.000
879.176;  -94.300; -201.000; -201.000
879.422; -179.000; -933.000; -820.000
879.668;   42.650;   10.000;   79.000
879.913;  128.900;   53.000;  137.000
880.159;  -74.375; -112.000;  -17.000
880.404;  -74.075; -152.000; -162.000
880.650;  -46.075;   91.000;  141.000
880.895; -160.075; -670.000; -710.000
881.141; -126.250; -454.000; -428.000
881.386; -165.325; -503.000; -658.000
881.631; -101.275; -311.000; -166.000
881.877;  -56.025;  112.000;  -13.000
882.122; -147.000; -684.000; -600.000
882.367;  -87.175; -136.000; -186.000
882.612;  -89.850;  -80.000; -176.000
882.858; -177.825; -877.000; -823.000
883.103; -114.125; -297.000; -267.000
883.348; -170.675; -759.000; -852.000
883.593; -164.100; -677.000; -602.000
883.838;  -68.475; -311.000;  -24.000
884.083;   11.400;  353.000;  288.000
884.328; -109.575; -564.000; -545.000
884.573;  -65.450; -196.000; -143.000
884.818;  183.850; -694.000; -531.000
885.063;  147.550; -348.000; -315.000
885.308; -112.625; -475.000; -398.000
885.553;  -40.650;  245.000;  325.000
885.797; -136.650; -545.000; -615.000
886.042;  -67.250;    8.000;   58.000
886.287;  -85.675; -253.000; -211.000
886.532;  -50.800;   26.000;  204.000
886.776; -105.025; -407.000; -525.000
887.021; -155.475; -621.000; -574.000
887.265; -164.650; -685.000; -689.000
887.510; -152.800; -557.000; -496.000
887.755;  -92.475; -194.000; -164.000
887.999; -151.600; -552.000; -575.000
888.244;  -75.200;  -58.000;  161.000
888.488;  -18.175;  371.000;  393.000
888.732; -142.750; -368.000; -520.000
888.977; -146.500; -622.000; -567.000
889.221; -165.775; -683.000; -659.000
889.465; -131.150; -422.000; -566.000
889.710;  -87.950;  -56.000; -299.000
889.954;   -2.200;  579.000;  467.000
890.198; -146.525; -584.000; -707.000
890.442; -158.800; -716.000; -712.000
890.687; -172.250; -800.000; -753.000
890.931; -100.375; -273.000; -210.000
891.175; -155.625; -502.000; -500.000
891.419;  -99.450; -105.000; -110.000
891.663;  -93.950; -239.000; -112.000
891.907; -180.025; -801.000; -545.000
892.151; -192.700; -920.000; -815.000
892.395; -124.275; -274.000; -387.000
892.638;  -31.525;  408.000;  291.000
892.882; -189.950; -780.000; -867.000
893.126;   -1.125;  758.000;  558.000
893.370; -110.725; -167.000; -168.000
893.614; -159.375; -714.000; -715.000
893.857; -125.625; -183.000; -197.000
894.101; -143.125; -527.000; -631.000
894.345;  -77.325;  300.000;  150.000
894.588;   15.325;  569.000;  380.000
894.832;  -90.425; -178.000;  -84.000
895.075;  -82.725;   15.000;  -92.000
895.319; -145.800; -552.000; -420.000
895.563; -126.300; -413.000; -353.000
895.806; -153.575; -628.000; -741.000
896.049;  -86.325; -576.000; -368.000
896.293;   71.825;  527.000;  405.000
896.536;  -86.200; -465.000; -468.000
896.779;  -85.475; -149.000;   -1.000
897.023; -147.250; -751.000; -714.000
897.266;  -41.475;  325.000;  269.000
897.509; -189.575; -900.000; -901.000
897.752;  -61.100;  149.000;  171.000
897.996; -194.475; -972.000; -864.000
898.239;  -65.275;  168.000;  102.000
898.482; -130.325; -431.000; -453.000
898.725;  -46.925;  101.000;   53.000
898.968; -171.250; -609.000; -744.000
899.211; -120.625; -513.000; -361.000
899.454; -134.625; -633.000; -539.000
899.697;  -83.725;   90.000;  -43.000
899.940; -189.275; -761.000; -757.000
900.182; -116.625; -335.000; -405.000
900.425; -107.575; -150.000; -298.000
900.668;  -45.150;  491.000;  350.000
900.911; -105.050; -292.000; -345.000
901.154;  -58.025;  141.000;   -3.000
901.396; -142.000; -407.000; -412.000
901.639; -149.950; -430.000; -496.000
901.882; -193.150; -790.000; -809.000
902.124;  -96.775;  -29.000; -143.000
902.367; -122.600; -315.000; -361.000
902.609; -152.550; -476.000; -453.000
902.852; -106.525; -108.000; -260.000
903.094; -123.525; -458.000; -337.000
903.337;  -76.975;  -26.000;   53.000
903.579; -128.875; -228.000; -441.000
903.821; -160.150; -597.000; -744.000
904.064;  -68.525;   85.000;  127.000
904.306;  -86.950; -126.000; -166.000
904.548; -113.325; -152.000; -366.000
904.790; -113.525; -195.000; -340.000
905.033; -150.050; -625.000; -577.000
905.275; -135.075; -513.000; -524.000
905.517;   31.075;  468.000;  256.000
905.759;  -80.025; -667.000; -761.000
906.001; -109.350; -322.000; -369.000
906.243;  -68.250; -162.000; -224.000
906.485;   96.525; -265.000; -207.000
906.727;  106.175; -499.000; -542.000
906.969;  -52.275;  -30.000; -135.000
907.211;  111.250; -316.000; -382.000
907.453;  254.600; -188.000; -237.000
907.695;  -11.125; -158.000; -385.000
907.936;   26.325;  818.000;  706.000
908.178;  -76.575;   92.000; -135.000
908.420;  -94.600; -111.000; -162.000
908.662; -143.150; -633.000; -682.000
908.903; -101.275; -208.000; -123.000
909.145;  -61.550; -240.000; -305.000
909.386;   -7.275;  315.000;  280.000
909.628;   45.850;  363.000;  397.000
909.870;  -14.100;   29.000;  264.000
910.111;  -92.075; -809.000; -949.000
910.353;    5.325; -123.000; -161.000
910.594;  -12.475; -574.000; -606.000
910.835;   70.875; -265.000; -326.000
911.077;  140.350; -503.000; -604.000
911.318;  274.600; -505.000; -471.000
911.559;  463.500; -577.000; -880.000
911.801; 1334.075; -284.000; -280.000
912.042;10594.050;  -50.000; -159.000
912.283;26871.850;  404.000;  371.000
912.524; 4017.500; -396.000; -457.000
912.765;  476.850; -193.000;   79.000
913.006;  232.375; -307.000; -338.000
913.247;   44.950; -270.000; -290.000
913.488;  -21.450;  -43.000;   30.000
913.729;  -93.800; -373.000; -373.000
913.970;  -68.600;  -96.000; -292.000
914.211;  -82.975; -160.000; -198.000
914.452;  -61.125; -118.000;  -11.000
914.693;  -13.150;  510.000;  592.000
914.934;  -12.700;  510.000;  440.000
915.175;  -78.625;   53.000;  -95.000
915.415;  -93.075; -137.000;   27.000
915.656;  -77.900;  -28.000;  192.000
915.897; -101.250; -252.000;  -82.000
916.137;  -67.825;   74.000;   -9.000
916.378; -128.750; -573.000; -517.000
916.619;  -95.050; -159.000;  -63.000
916.859;  -33.500;  303.000;  330.000
917.100;  123.000; 1655.000; 1070.000
917.340;   41.375;  930.000;  728.000
917.581;   41.425;  965.000;  789.000
917.821;  -51.700; -171.000;  143.000
918.061;   -7.525; -199.000;  -72.000
918.302;  -64.000; -152.000; -211.000
918.542;  -38.425;  -22.000;    3.000
918.782;   20.125;  369.000;  377.000
919.023;  116.850;  360.000;  427.000
919.263; 1760.825; 8131.000;  202.000
919.503; 1090.300; -137.000;  -54.000
919.743;  618.650;  390.000;  266.000
919.983;  260.525; -134.000;  -26.000
920.223;   61.950;  135.000;   14.000
920.463;  133.525;  631.000;  554.000
920.703;  124.350;   84.000;   39.000
920.943;  145.375; -110.000;   90.000
921.183;  224.650; -414.000; -405.000
921.423;  513.775;  307.000;  546.000
921.663;  721.075; -174.000; -257.000
921.903; 1558.825;  237.000;  173.000
922.143; 8795.950;  372.000;  389.000
922.383;33666.575;  158.000;  115.000
922.622;11094.550; -120.000;  -15.000
922.862; 1183.700;  796.000;  785.000
923.102;  439.925;  -51.000;   33.000
923.341;  170.575;   59.000;   74.000
923.581;   77.050;  450.000;  360.000
923.821;    1.000;  301.000;  398.000
924.060;  -11.075;  351.000;  193.000
924.300;  -68.525;  -16.000; -128.000
924.539;  -21.275;  584.000;  473.000
924.779;    2.650;  812.000;  597.000
925.018;  -45.575;  247.000;  353.000
925.257;  -19.925;  595.000;  666.000
925.497;  -60.975;  447.000;  412.000
925.736;  -92.050;  -35.000;  102.000
925.975;    4.650;  687.000;  669.000
926.214;   28.100;  907.000;  850.000
926.454;   13.250;  706.000;  757.000
926.693;  -43.050;  419.000;  543.000
926.932;   23.975; 1021.000;  825.000
927.171;   67.100; 1107.000; 1044.000
927.410;   49.300; 1144.000;  967.000
927.649;    8.275;  924.000;  742.000
927.888;  -11.050;  590.000;  564.000
928.127;  -18.375;  680.000;  678.000
928.366;    6.825;  842.000;  826.000
928.605;   31.350;  831.000;  737.000
928.844;  226.175; 1451.000; 1393.000
929.083;  586.050;  770.000;  613.000
929.321;  323.725; 1335.000; 1359.000
929.560;   66.850; 1158.000; 1122.000
929.799;  -40.750;  574.000;  475.000
930.038;   58.250; 1025.000; 1394.000
930.276;  -53.925;  334.000;  397.000
930.515;   -8.675;  827.000;  681.000
930.753;  -31.450;  614.000;  589.000
930.992;  -32.950;  664.000;  717.000
931.230;   -1.750;  847.000;  847.000
931.469;  174.400; 2162.000;  892.000
931.707;   82.325;  840.000;  751.000
931.946;   43.275; 1278.000; 1344.000
932.184;   52.850; 1437.000; 1175.000
932.423;   35.075; 1265.000;  963.000
932.661;   80.075; 1296.000; 1428.000
932.899;    5.925;  987.000;  821.000
933.137;    0.525;  754.000;  564.000
933.376;  147.300; 1664.000; 1335.000
933.614;  142.625; 1759.000; 1196.000
933.852;   44.275; 1357.000; 1171.000
934.090;  123.125; 1722.000; 1747.000
934.328;   94.600; 1252.000; 1457.000
934.566;   84.750; 1431.000; 1110.000
934.804;  119.200; 1263.000; 1309.000
935.042;  459.425; 1861.000; 1850.000
935.280; 1772.050; 2088.000; 2063.000
935.518; 1679.700; 2113.000; 2007.000
935.756;  342.850; 2481.000; 2316.000
935.994;  165.675; 1808.000; 1751.000
936.231;  332.650; 2890.000; 2950.000
936.469;  167.700; 2367.000; 2378.000
936.707;  173.675; 2220.000; 2167.000
936.945;  234.300; 2825.000; 2882.000
937.182;  192.250; 2679.000; 2741.000
937.420;  294.075; 3602.000; 3031.000
937.657;  407.525; 3365.000; 3478.000
937.895;  334.425; 3331.000; 3488.000
938.133;  304.100; 3540.000; 3528.000
938.370;  321.775; 3896.000; 4191.000
938.607;  393.150; 4488.000; 4205.000
938.845;  537.175; 5587.000; 5549.000
939.082;  471.375; 5387.000; 5177.000
939.320;  550.200; 5799.000; 5728.000
939.557;  630.900; 6549.000; 6491.000
939.794;  718.000; 7285.000; 7097.000
940.031;  892.200; 8421.000; 8368.000
940.269; 1104.650; 9552.000; 9107.000
940.506; 1133.475;10901.000;10507.000

