
Integration time [ms]: 100.000
Averaging Nr. [scans]: 40
Smoothing Nr. [pixels]: 0
Data measured with spectrometer [name]: 2101013U2
Wave   ;Sample   ;Dark     ;Reference
[nm]   ;[counts] ;[counts] ;[counts] 

394.013;   70.429; -450.257; -315.536
394.305;  239.977; -461.258; -419.536
394.596; 1201.618; -676.269; -527.514
394.887; 2908.536; -796.268; -654.518
395.178; 1077.618;  145.736;   11.476
395.470;   79.280; -210.263; -356.526
395.761;  214.177;  305.734;  394.479
396.052;  346.287; -545.284; -306.489
396.343;  344.710; -557.276; -454.503
396.634;  105.302; -200.279; -290.497
396.926;  114.883; -618.268; -565.517
397.217;  109.665;   11.725;  -17.504
397.508;   43.457; -366.273; -154.507
397.799;   44.377; -555.279; -571.497
398.090;   12.971; -973.280; -902.495
398.381;  126.383;   11.708;  -11.473
398.672;   -0.316; -585.292; -742.473
398.963;   53.084; -348.279; -373.498
399.254;  110.719;   54.709; -209.475
399.545;  -25.177;-1017.266; -883.520
399.836;   65.424; -407.277; -343.501
400.127;   55.908; -205.295; -209.468
400.418;   56.426; -423.274; -392.506
400.709;   75.683; -359.281; -333.493
401.000;   56.148; -268.291; -309.476
401.290;  108.366;  225.698;  115.545
401.581;   72.969; -166.286; -228.485
401.872;   32.904; -542.298; -486.462
402.163;   63.250; -313.296; -252.467
402.454;   99.269; -123.291; -163.475
402.744;   77.616; -844.297; -813.465
403.035;  397.099; -226.293;  -86.471
403.326;  515.962; -366.292; -384.474
403.617;  355.848;  204.701;  165.539
403.907;  261.343; -593.283; -679.490
404.198; 2541.868; -545.307; -599.446
404.489; 6626.948; -618.283; -588.491
404.779; 2110.470; -618.302; -660.456
405.070;  235.022;  -67.304; -174.451
405.360;  361.551; -259.293; -238.472
405.651;  381.157;  125.699;   98.542
405.942;  184.314;  209.714;  127.516
406.232;  263.554; -432.285; -413.487
406.523;  453.418;  641.706;  758.530
406.813;  112.041; -579.286; -644.484
407.104;  335.757;  261.708;  144.527
407.394;  176.099; -604.299; -591.462
407.685;  160.178;  336.715;  222.513
407.975;   72.971; -400.283; -382.490
408.265;  124.159; -134.289; -190.478
408.556;   74.141; -472.291; -459.475
408.846;  170.144;  474.706;  429.530
409.137;   88.843;   -1.288; -216.480
409.427;   66.104; -193.285; -271.487
409.717;   46.385; -776.273; -692.508
410.007;  153.772;    4.715; -170.486
410.298;   91.786; -360.295; -342.469
410.588;   84.376; -495.285; -510.486
410.878;   49.505; -792.287; -873.482
411.168;  131.856; -481.298; -478.463
411.459;  124.116; -295.283; -242.489
411.749;   72.915; -609.292; -507.474
412.039;   72.317; -755.289; -386.480
412.329;  198.566;   40.722;  132.501
412.619;  220.241;  -62.286; -148.485
412.909;  350.338;  639.711;  594.521
413.199;  330.597; -130.280; -251.495
413.490;  402.002;  521.710;  352.523
413.780;  174.101;-1013.279; -913.496
414.070;  343.086;  -46.276;  235.497
414.360;  380.662; -729.278; -666.498
414.650;  447.626; -726.288; -688.482
414.940;  549.100; -538.280; -441.496
415.230;  978.173;   50.712;   74.519
415.520; 6367.493;  155.730;   66.486
415.809;25428.407; -305.281; -125.493
416.099;19207.751; -388.277; -229.501
416.389; 5454.774;  435.726;  236.494
416.679; 3155.709;   91.738;   85.473
416.969;  557.610; -527.287; -503.483
417.259;  508.878;  341.721;  171.503
417.549;  724.506;  522.718;  318.508
417.838; 1744.310; -205.268; -147.518
418.128; 5835.183;  650.710;  492.522
418.418; 4780.767; -491.272; -579.509
418.708; 3247.624;    9.726;  -48.506
418.997;12429.394; -474.275; -480.505
419.287;12574.406; -733.273; -790.507
419.577;12129.190; -160.283; -123.489
419.866;40351.149; -588.277; -498.501
420.156;40797.838; -242.270;  -55.513
420.446; 7078.526; -112.263;  -26.526
420.735;  861.007; -376.271; -446.512
421.025;  812.436; 1830.722;  315.502
421.314;  670.905; -203.271; -226.512
421.604; 1300.078;   89.732;  233.484
421.893;  759.551; -705.271; -602.511
422.183;  243.551; -487.263; -461.526
422.472;  405.778;  -36.271; -107.511
422.762;  468.679; -416.266; -379.521
423.051;  259.987; -916.276; -916.503
423.341;  329.383; -491.273; -439.507
423.630;  405.911; -121.265;   15.477
423.919;  407.244;   58.725;   49.495
424.209;  398.607;  -31.263;   56.473
424.498;  522.733;   68.732;  161.483
424.787; 1122.414; -535.267; -601.518
425.077; 3488.934;   34.735;   29.478
425.366; 4737.913; -734.262; -744.528
425.655;10297.333;  639.727;  259.493
425.945;23084.273; -313.247; -268.554
426.234;12470.836;  117.741;  300.467
426.523; 5367.367;  -86.259; -350.534
426.812; 7237.750;  107.734;  159.480
427.101;10811.874; -127.269; -323.515
427.390;13320.142;  -55.270;  -86.514
427.680; 2824.788; -624.257; -411.538
427.969;  476.799; -330.255; -301.540
428.258;  329.479; -385.257; -477.536
428.547;  538.971;  449.728;  397.490
428.836; 1196.941; -421.253; -398.543
429.125; 1713.094; -199.259;  -72.534
429.414;  816.790; -330.251; -294.548
429.703; 3303.415; -231.251; -213.548
429.992; 9958.768; -938.250; -828.549
430.281; 6334.168; -397.264; -331.524
430.570;  582.355;  -21.252;   32.454
430.859;  564.266;  279.741;  352.466
431.148;  446.019;  636.752;  631.446
431.437;  298.579;  391.748;  367.454
431.725;  165.555; -544.257; -481.536
432.014;  137.199; -845.253; -756.545
432.303;  407.623; -149.239; -105.569
432.592;  626.025; -460.263; -178.525
432.881; 1096.070; -601.248; -437.554
433.169; 6540.050; -343.255;  -61.540
433.458;13266.009;  445.765;  540.424
433.747; 5378.718; -397.261; -289.529
434.036;  875.673; -275.242; -280.564
434.324; 2203.507; -395.249; -379.551
434.613; 3808.591;   40.757;  159.437
434.902; 1203.463;  333.760;  439.433
435.190;  533.822;   75.761;  295.431
435.479;  284.522;  -52.245;   83.441
435.767;  108.331; -411.244; -427.561
436.056;  216.219; -340.242; -294.563
436.345;  383.590; -372.240; -223.568
436.633;  402.852;   60.750;  383.450
436.922;  264.593;  208.760;  414.432
437.210;  515.548; -194.236;    1.426
437.499; 1645.432; -583.235; -432.576
437.787; 1757.698; -339.236;  -10.574
438.075;  478.528;   56.761;  162.430
438.364;  661.431;  -44.238;  250.429
438.652;  419.891; -286.226; -138.592
438.941;  125.953;    3.770;  269.415
439.229;   10.452; -665.252; -466.545
439.517;   42.766; -160.234;  -85.577
439.806;    8.807; -501.225; -290.595
440.094;  182.224;  377.766;  650.421
440.382;  162.603; -653.233; -302.580
440.670;  184.856; -361.235; -285.576
440.959;   39.650; -347.223; -170.599
441.247;   79.965; -151.229; -109.587
441.535;  111.914; -266.235;   31.423
441.823;   33.746; -497.234; -305.578
442.111;  169.944;  173.771;  327.412
442.400;  482.721; -628.245; -335.559
442.688; 1234.723; -111.234; -620.579
442.976;  858.168; -786.213; -450.617
443.264;   88.639; -324.224; -364.597
443.552;  110.442; -258.226;   51.408
443.840;  173.688;  602.765;  876.423
444.128;  110.427;  265.767;  269.420
444.416;   10.897; -694.228; -312.588
444.704;   28.507; -465.219;  -92.605
444.992;   78.520;   -0.226;  240.407
445.280;   48.979; -517.230;  -94.585
445.568;   50.446; -694.212; -396.618
445.856;  313.915; -174.221;  357.398
446.143;  702.078;  -54.220;   -7.604
446.431;  556.551;  -25.228;  625.411
446.719;  234.377;  489.783;  675.391
447.007;  185.473;  481.769;  705.416
447.295;  173.572;  597.777;  871.402
447.583;  103.012; -464.229;  -34.587
447.870;  171.312; -434.221; -202.601
448.158;  383.177; -104.230;  129.415
448.446;  298.254; -800.219; -338.604
448.733;  165.341;   13.776;  269.403
449.021;  251.671;   60.788;  341.382
449.309;  186.337; -296.210;  208.379
449.596;  208.373;  128.783;   59.392
449.884;  161.705; -571.222; -325.600
450.172;  165.782; -756.227; -406.590
450.459;  468.050;  645.786;  780.387
450.747; 2509.321; -411.218; -147.608
451.034; 8179.177;  493.772;  889.411
451.322; 6534.953; -413.214; -170.614
451.609;  543.342;  292.777;  508.403
451.897;  626.003; -550.203; -183.634
452.184; 1931.498; -622.223; -400.598
452.472; 1763.984;   97.792;  269.375
452.759;  329.329;  512.781;  864.395
453.047;  131.968; -407.212; -125.617
453.334;   76.788; -732.219; -216.606
453.621;   90.556; -438.214; -161.615
453.909;  116.469;   13.796;  384.368
454.196;   95.617; -299.199; -123.641
454.483;  221.417;  317.798;  540.364
454.771;  132.687; -215.208;  196.374
455.058;   52.291; -316.207;  102.374
455.345;  104.350;   71.807;  344.347
455.632;   98.994; -128.207;  235.373
455.919;   62.366;  -82.196;  182.354
456.207;  -43.003; -774.198; -450.642
456.494;   -5.246; -475.200;  -66.639
456.781;   19.087; -399.202; -198.635
457.068;   56.676; -253.206;  -29.628
457.355;   -6.598; -698.206; -401.629
457.642;   10.208; -552.205; -290.630
457.929;   12.091; -778.194; -417.651
458.216;   70.694; -575.212; -354.617
458.503;  256.496; -173.193;  -19.652
458.790;  246.135; -864.208; -630.625
459.077;  285.967;  -77.202;  110.364
459.364;  849.883; -350.195; -210.649
459.651; 1790.799;  -46.206;  220.372
459.938;  812.200; -864.209; -665.623
460.225;  147.720;  132.799;  276.363
460.512;  -34.012; -836.197; -688.645
460.799;  103.295;  -32.218;  320.392
461.086;   78.859; -370.200; -251.640
461.372;   52.722; -509.198; -279.642
461.659;  106.392; -165.196;  108.354
461.946;   60.119; -445.193;  -54.651
462.233;  231.281;  842.800;  888.361
462.519;  364.303; -814.201; -464.639
462.806; 1054.588; -768.197; -497.645
463.093;  919.016; -445.191;  -66.656
463.380;  -19.616; -920.186; -824.664
463.666;   56.640; -259.197;  -18.646
463.953;  102.003; -406.195; -243.648
464.239;  196.003; -173.195;  -77.648
464.526;  374.914;  413.806;  743.350
464.813;  323.078; -565.190; -304.658
465.099;  353.745;  606.807;  607.348
465.386;  321.949;  903.807;  921.348
465.672;   37.338; -694.197; -522.645
465.959;   40.572; -598.188; -520.662
466.245;   19.374; -468.193; -359.652
466.532;   92.450; -109.195;   63.352
466.818;   74.434; -357.186; -216.664
467.104;    9.201; -488.182; -415.672
467.391;   -7.670; -628.189; -459.658
467.677;   38.538; -289.186;    9.335
467.964;   23.162; -682.189; -471.660
468.250;   69.190; -331.186; -160.665
468.536;   83.681;   90.811;  180.341
468.822;   -6.647; -821.184; -574.668
469.109;  149.661;  351.827;  471.311
469.395;  187.634;  729.808;  787.346
469.681;  213.209;   46.811;  156.341
469.967; 1303.614; -699.188; -382.660
470.254; 2899.548; -494.188; -306.662
470.540; 1798.391; -601.196; -476.646
470.826;  271.938; -488.181; -397.675
471.112;  325.232;  288.816;  113.331
471.398;   94.286; -253.183;  -58.670
471.684;   51.642; -626.177; -447.680
471.970;    9.117; -918.180; -981.675
472.256;   37.308; -521.192; -441.654
472.542;   23.597; -499.171; -434.691
472.828;   18.872; -743.182; -607.672
473.114;   31.518; -380.166; -283.700
473.400;   28.760; -504.175; -293.684
473.686;   38.799; -452.166; -400.701
473.972;   56.750; -230.174; -131.687
474.258;  -31.014; -925.173; -843.689
474.544;  206.684; -183.178;   -2.679
474.830;  329.561;  -65.175;   45.316
475.116;  497.454; -123.190; -196.658
475.401;  702.344; -558.180; -467.676
475.687;  203.168; -725.180; -718.676
475.973;   -0.020; -673.181; -770.673
476.259;  261.389;  736.825;  764.315
476.544;  402.551; -539.176; -437.682
476.830;  876.168; -398.172; -322.690
477.116;  770.074; -430.177; -336.682
477.401;  125.293;  346.820;  358.324
477.687;  -13.740; -289.175; -405.684
477.973;   31.759;   21.819;   28.326
478.258;   -1.454; -448.163; -348.706
478.544;   56.096;   21.815;   61.334
478.829;  -41.272; -818.171; -738.692
479.115;  -30.607; -749.172; -651.690
479.401;   -5.530; -444.174; -449.686
479.686;   38.442; -253.180;  -74.676
479.972;  -17.361; -886.178; -776.680
480.257;   48.119; -258.166;  -65.700
480.542;    3.932; -614.170; -469.693
480.828;  226.333; 1288.824; 1392.317
481.113;  -23.944; -464.176; -426.683
481.399;   -9.704; -236.161; -202.711
481.684;  -41.006; -620.166; -462.700
481.969;   27.885; -158.159;  -73.713
482.255;   14.043; -439.169; -285.695
482.540;   21.664; -569.178; -441.680
482.825;   -0.221; -395.187; -404.663
483.110;   98.297;  -85.169; -105.696
483.396;  216.158; -840.157; -652.718
483.681;  512.725;  543.826;  730.313
483.966;  189.004; -696.160; -700.712
484.251;   11.624; -404.174; -310.687
484.536;    5.230; -356.165; -378.703
484.822;   31.977; -205.173; -218.687
485.107;  -16.877; -599.152; -502.726
485.392;  132.961;  662.836;  541.296
485.677;   82.682;  354.832;  163.302
485.962;  104.905;  160.843;  270.283
486.247;   95.704;  -14.162;   -8.707
486.532;   53.196; -178.166; -325.701
486.817;  172.115;  381.839;  431.291
487.102;  131.805; -453.154; -514.722
487.387;  693.235; -637.156; -652.718
487.672; 1254.016; -154.164;  -38.705
487.957;  780.397; -394.160; -286.711
488.241;  212.340; -290.150; -314.729
488.526;  777.874; -280.152; -148.726
488.811; 1279.141; -881.177; -818.680
489.096;  948.833; -666.154; -702.723
489.381;  531.345;    3.847;  162.275
489.666;  414.821; -428.161; -510.710
489.950;  183.661;  558.846;  627.277
490.235;  -18.715; -480.151; -458.728
490.520;  -35.505; -756.161; -723.710
490.804;  -44.813; -827.156; -736.719
491.089;    3.732; -469.149; -299.732
491.374;   23.690; -132.164;  -75.704
491.658;   -3.131; -817.147; -717.735
491.943;  167.104; -657.152; -609.727
492.227;  259.250; -178.155;  -38.721
492.512;   49.780; -294.157; -341.717
492.797;  -57.325; -713.149; -716.731
493.081;  -31.303; -588.147; -598.735
493.366;  -42.404; -751.161; -635.711
493.650;  214.102;  831.859;  917.254
493.935;   43.518; -648.147; -447.734
494.219;  -22.461; -778.142; -687.743
494.503;  -17.130; -585.150; -487.730
494.788;   53.246;   46.842;   74.285
495.072;  100.566;  184.850;  434.271
495.356;  182.110; -463.148; -343.733
495.641;  461.478; -812.146; -736.736
495.925;  449.542; -976.156; -903.719
496.209;   34.056; -599.149; -451.732
496.494;  -39.835; -763.142; -544.744
496.778;   20.855; -364.154; -360.722
497.062;  -36.734; -819.156; -627.719
497.346;  -15.201; -869.160; -640.711
497.631;  136.964;  580.852;  560.266
497.915;   67.965;  -64.145;  175.261
498.199;   52.008; -341.157; -277.718
498.483;   59.322; -562.152; -508.725
498.767;  181.868;  301.850;  300.271
499.051;  189.629; -126.149; -100.732
499.335;   55.252; -693.149; -739.731
499.619;  -15.942; -381.129; -423.767
499.903;   35.024; -272.155;  -65.721
500.187;   44.862; -588.153; -316.724
500.471;   34.178; -796.152; -595.727
500.755;  125.070;   62.839;  -96.710
501.039;   31.700; -270.155; -357.721
501.323;   88.804;  -21.141;  264.254
501.607;   29.571; -447.163; -503.706
501.891;    5.384; -607.156; -512.718
502.174;  -23.249; -726.144; -585.741
502.458;   81.707;   89.849;  370.273
502.742;   42.829; -180.138; -191.751
503.026;  121.893; -412.147; -254.734
503.310;  197.659; -437.159; -375.713
503.593;  130.594; -464.147; -325.735
503.877;  121.571; -232.133; -156.760
504.161;  181.690;    2.847;  -50.724
504.444;  134.473; -841.158; -710.716
504.728;  496.089; -487.164; -522.704
505.012;  757.614; -257.150;  -76.729
505.295;  536.471; -417.161; -212.711
505.579;  564.066; -256.156; -496.719
505.862;  819.661; -555.145; -333.738
506.146;  802.686; -681.159; -758.714
506.429;  417.137;  568.841;  461.286
506.713;   75.636; -732.151; -667.728
506.996;  339.379;   90.846;  295.278
507.280;  366.184; -633.165; -474.703
507.563;  254.448; -469.155; -261.721
507.847;  104.963; -423.153; -112.724
508.130;  104.272; -665.161; -456.711
508.413;  133.790; -758.167; -577.700
508.697;  267.390; -151.167;   12.300
508.980;  163.715; -422.153; -312.724
509.263;   -7.906; -466.155; -450.720
509.547;   43.189; -124.150;   82.271
509.830;   47.424; -172.160;  140.289
510.113;   87.316;  128.844;  298.281
510.396;   44.521; -530.152; -300.725
510.680;  133.087; -818.145; -812.738
510.963;  547.584;  184.846;  180.277
511.246;  451.572; -493.150; -357.730
511.529;  285.442; -482.145;  -83.739
511.812;  402.018; -250.134;   10.241
512.095;  293.208; -740.151; -396.728
512.378;   78.499; -317.147; -245.736
512.661;   36.837; -703.137; -623.753
512.944;   39.066; -750.142; -637.744
513.227;   79.484; -170.137; -171.752
513.510;   39.376; -479.144; -671.741
513.793;   28.059; -485.140; -435.747
514.076;  149.455;  -43.127;  -39.771
514.359;  122.132; -294.149; -135.732
514.642;   93.544; -442.142; -567.744
514.925;  767.507;  581.860;  561.253
515.208; 1074.639; -498.134; -443.758
515.491;  723.129; -276.133; -182.761
515.773;  382.380; -410.143; -337.742
516.056; 2218.919;  249.864;  409.246
516.339; 2996.623; -754.136; -652.755
516.622; 1879.970; -518.150; -488.730
516.904; 1148.512;  882.857;  975.257
517.187;  522.633; -730.138; -523.752
517.470;  385.161; -568.143; -510.743
517.752;  450.351; -624.136; -470.756
518.035;  371.570; -708.139; -725.749
518.318;  394.398; -799.136; -744.755
518.600; 2531.407; -300.132; -325.762
518.883; 3563.344;  310.858;   88.256
519.165; 1698.750; -585.138; -426.751
519.448;  391.432;  -61.132;  -19.762
519.730;  197.338; -573.126; -415.773
520.013;  301.049;  588.867;  664.240
520.295;  780.695;  -94.134;  -15.759
520.578; 1728.346; -335.131; -305.764
520.860; 1952.382; -254.132;   56.238
521.143; 1042.478; -763.135; -584.756
521.425;  496.077; -251.125; -279.775
521.707;  704.381; -622.127; -380.771
521.990; 1901.531; -199.127;  167.229
522.272; 2143.411; -116.140;   -4.748
522.554;  940.706; -237.143; -157.742
522.836;  353.967;  -24.134;   99.241
523.119;  221.241; -496.148; -189.734
523.401;  159.778; -448.130; -314.766
523.683;  107.563; -865.137; -693.753
523.965;  296.356;  408.862;  260.248
524.247;  296.374;   54.878;  170.220
524.529;  199.094; -451.134; -367.759
524.812;  352.080;   -3.130;  191.234
525.094;  903.380; -773.138; -631.751
525.376; 1446.836; -143.124;   78.223
525.658;  878.820; -441.136; -339.754
525.940;   41.492; -805.131; -671.764
526.222;   56.849; -188.136;  -88.755
526.504;  116.265; -190.131;   32.237
526.786;  174.372; -960.133; -647.760
527.068;  276.292; -124.123;  -67.778
527.349;  113.292; -865.137; -774.754
527.631;  141.907; -137.132;   22.238
527.913;  145.630; -664.127; -450.771
528.195;  197.219; -761.125; -639.774
528.477;  256.289;  -93.134;  -30.758
528.759;  146.030; -648.130; -522.766
529.040;   77.766; -569.123; -293.778
529.322;   59.097; -235.125;  -10.774
529.604;  139.707;  -47.130;   93.233
529.886;  127.413; -546.126; -302.773
530.167;  118.173;  232.870;  192.235
530.449;   55.473;    1.853;   63.265
530.731;   44.673; -572.122; -459.779
531.012;   73.145; -513.120; -216.784
531.294;   95.186; -118.116;  -43.792
531.575;  148.402;  290.875;  538.225
531.857;   70.509; -548.135; -266.757
532.138;  109.153; -113.141;   40.254
532.420;  161.430;  294.865;  403.244
532.701;  218.925; -722.133; -751.760
532.983;  330.928;  232.867;  182.239
533.264;  126.861; -243.126;  175.228
533.546;  -21.076; -491.136; -508.755
533.827;   51.346;  173.867;   -1.759
534.109;   30.134; -352.135;  -80.757
534.390;  102.811; -725.132; -582.762
534.671;  275.955; -270.135;  -82.756
534.953;  147.294; -751.123; -611.779
535.234;   17.395; -426.117; -255.789
535.515;  -62.271; -891.119; -735.785
535.796;  -15.499; -431.128; -193.770
536.078; -106.164;-1050.124; -904.777
536.359;   20.394;  -22.123;    3.221
536.640;  -13.579; -480.125; -197.774
536.921;  153.138;  225.871;  143.232
537.202;  398.302;  -87.138;  -16.751
537.483;  480.220;  251.869;  377.236
537.764;  188.098;   17.870;   98.235
538.045;  -36.037; -543.134; -371.758
538.326;  -21.986; -596.129; -447.768
538.607;   34.307; -686.127; -476.771
538.888;  200.485;   98.879;    5.218
539.169;  207.930; -704.122; -535.781
539.450;  339.511;  236.871;   16.233
539.731;  220.965; -361.121; -182.783
540.012;  143.120;  199.880;  412.216
540.293;   91.305;   82.876;  158.224
540.574;   20.257; -895.113; -717.796
540.855;  450.113;  435.879;  377.218
541.136;  551.577;   47.878;  139.220
541.416;  285.105; -161.130; -220.766
541.697;  191.665; -274.131; -170.763
541.978; 1080.457; -270.135; -315.757
542.259; 1401.131; -211.127; -236.771
542.539;  660.529; -191.116; -186.790
542.820;  196.701;  461.875;  480.225
543.101;  140.364;  -52.145;  -77.738
543.381;   42.231; -638.127; -591.771
543.662;  285.429;  159.873; -254.771
543.942;  631.752; -751.127; -830.770
544.223; 1119.904;  193.878;  161.219
544.504;  703.286; -275.124; -182.777
544.784;  604.163; -592.126; -408.773
545.065; 1763.833;  104.884; -254.791
545.345; 2062.254;  227.881;   14.215
545.626; 1324.982;  -14.113; -108.796
545.906;  930.723;   77.869;   98.235
546.186;  379.068;   92.874;  -95.773
546.467;  210.163;   99.877;  -95.778
546.747;  343.004;  264.884;  327.210
547.027;  393.559;   91.876;  111.223
547.308;  364.926; -376.127; -530.770
547.588;  421.115;  299.871;  371.232
547.868;  202.649;  458.870;  588.235
548.149;  202.641;  609.885;  593.207
548.429;  138.630; -347.127; -299.771
548.709;  207.469; -645.120; -461.784
548.989;  512.364;   84.882;   88.213
549.269; 2170.180;   10.868;  139.239
549.550; 5110.268;  215.877;  117.222
549.830; 4582.275; -758.111; -556.799
550.110;  889.658; -468.110; -320.801
550.390;  873.948; -128.122;  -56.779
550.670; 1203.977; -868.114; -783.795
550.950;  839.888; -509.121; -471.782
551.230;  190.709;  549.879;  460.218
551.510;   -1.989; -381.121; -326.782
551.790;   42.592; -173.109; -127.803
552.070;  257.388;  940.877; 1181.223
552.350;  434.783; -492.119; -377.786
552.630;  619.506;   -2.121;   77.219
552.909;  374.284;  181.884;   73.209
553.189;  258.712;  -49.132;   33.237
553.469;  205.608; -703.119; -514.786
553.749;  202.358; -469.127; -357.772
554.029;  191.374;   33.883;  -24.790
554.308;  162.745; -154.115;  -37.794
554.588;   77.525; -196.128; -204.770
554.868;   75.713; -366.121;  -47.782
555.147;  166.942; -114.115;  -46.793
555.427;  617.486; -260.116; -250.792
555.707; 4096.065; -284.115; -200.793
555.986; 5050.129; -719.111; -538.800
556.266; 2581.753;   23.884;   72.210
556.546;  126.011; -888.121; -675.782
556.825;  280.625; -657.114; -556.794
557.105; 1915.747; -125.128;   17.230
557.384; 2237.233;  122.884;  187.209
557.664;  847.235; -717.116; -508.792
557.943;  124.988; -557.121; -411.782
558.222;  192.117; -345.118; -344.788
558.502;  293.294; -116.115;  -76.793
558.781;  533.464;  194.885;  499.208
559.061;  451.742; -232.118; -227.788
559.340;  315.272;  302.883;  353.211
559.619;  738.503;   93.884;  148.210
559.899; 1051.349; -239.117; -266.789
560.178;  977.318; -778.115; -593.793
560.457; 3322.826; -623.117; -562.790
560.736; 4709.255; -472.111; -482.800
561.015; 3118.795; -500.128; -502.769
561.295;  400.962;  180.893;  215.193
561.574;  336.841;  119.885;  116.207
561.853;  510.646;  274.891;  303.197
562.132;  508.346;  -45.114;  182.206
562.411;  471.057;  396.879;  553.219
562.690;  151.639; -592.115; -458.792
562.969;  152.039;  472.888;  630.203
563.248;  492.779; 2966.878; 2487.219
563.527;  300.555; -290.111; -408.800
563.806;  413.255; -650.127; -521.771
564.085;  450.903; -297.105; -206.810
564.364;  250.877; -594.117; -405.790
564.643;  525.832; -276.121; -223.781
564.922; 2001.065;  221.890;  397.198
565.201; 2063.168; -640.109; -700.803
565.479;  877.788; -297.115; -219.792
565.758;  359.123; -810.128; -712.770
566.037;  509.245; -155.109; -100.803
566.316;  247.258; -286.116;  -28.791
566.595;   62.565;  -17.115;  -12.793
566.873;   99.982; -166.111;  -79.801
567.152;  -52.186; -490.113; -590.797
567.431;   17.929; -113.116;    6.210
567.709;   32.138; -344.107; -212.807
567.988;  288.175; -810.114; -769.794
568.266;  595.940; -160.115;  -68.793
568.545;  410.552; -644.100; -514.819
568.824;  597.687;  160.885;  356.208
569.102;  603.024; -351.114; -235.794
569.381;  262.111; -492.116; -407.792
569.659;  -33.065; -553.113; -553.796
569.938;   45.027; -743.122; -465.780
570.216;  118.522; -225.109; -225.804
570.494;  -19.672; -632.114; -572.795
570.773;   47.761;  202.879;  114.218
571.051;   15.816; -373.123; -357.778
571.330;   65.032; -221.113; -174.796
571.608;   44.846; -181.098; -173.823
571.886;  -62.952; -671.111; -581.799
572.164;  -58.587; -739.121; -621.782
572.443;  -32.093; -562.105; -512.811
572.721;  -19.149; -399.117; -289.790
572.999;  -11.581; -280.117; -168.788
573.277;   90.800;  379.894;  620.191
573.555;  288.153;   94.894;   37.190
573.834; 1416.044;  -86.117; -114.788
574.112; 1673.040;  880.893;  811.193
574.390;  501.531; -143.111;  -96.801
574.668;   21.515;  -91.112;  -61.797
574.946;    0.653; -165.106; -187.810
575.224;   16.418;   71.891;  -16.803
575.502;  -11.969; -200.116; -204.791
575.780;  -83.859; -767.112; -829.798
576.058;  224.955; 1589.889; 1004.200
576.336;  -13.814; -210.110; -129.801
576.614;  -41.834; -511.112; -340.798
576.891;   82.570; -711.115; -823.794
577.169;  518.281; -158.108; -285.805
577.447;  616.564;  169.893;  202.193
577.725;  273.746;  629.888;  854.201
578.003;   26.294;  -71.112; -371.798
578.280;   89.591; -208.104; -242.812
578.558;   72.819; -450.115; -422.793
578.836;  125.053; -210.114; -145.795
579.114;   62.389; -630.112; -670.797
579.391;   68.470;   -6.117;  -18.789
579.669;  -42.054; -595.114; -704.794
579.947;  190.686; -326.107; -127.806
580.224;  351.011; -692.107; -524.806
580.502;  355.890;  127.893;   76.193
580.779;   24.152;  -42.117;   75.210
581.057;  -71.752; -584.109; -470.804
581.334;  -84.518; -726.102; -695.815
581.612;   37.379;   54.895;  511.190
581.889;  -29.829;  -83.101; -129.818
582.167;  -23.114; -298.099; -190.821
582.444;  -91.735; -845.102; -814.817
582.721;   97.791;  657.899;  715.183
582.999;   47.633; -326.100; -167.821
583.276;  562.746; -812.123; -713.779
583.553;  774.960; -364.102; -294.816
583.831;  253.038; -607.104; -631.812
584.108;   60.154;  349.892;  174.195
584.385;   12.806; -122.102;  -98.815
584.662;  -58.468; -651.111; -828.801
584.940;   29.806;  204.889;  204.199
585.217;   -4.866;  -73.113; -303.796
585.494;   30.616;   71.890;  118.198
585.771;  225.649; -250.109; -354.804
586.048;  536.709; -196.113;  -76.796
586.325;  329.635; -721.110; -773.801
586.602;   90.667;  230.896;  213.188
586.879;    2.029; -499.100; -580.820
587.156;   65.829; -156.105; -331.810
587.433;  -32.737; -701.102; -667.817
587.710;   84.092;  152.888;  234.202
587.987;  323.785; -264.105; -236.811
588.264;  843.443;  315.888;  387.202
588.541; 1384.194;  -61.104;   26.187
588.818; 2819.176;   72.892;  171.196
589.095; 2451.740; -163.104; -174.812
589.371;  383.171; -459.109; -414.804
589.648;   20.390; -581.107; -437.807
589.925;   42.404; -517.114; -621.795
590.202;   34.141; -741.112; -607.798
590.478;   96.037; -166.105;  -73.811
590.755;  270.907; -241.108; -132.806
591.032; 2599.262; -741.110; -699.802
591.308; 3680.313; -732.094; -790.831
591.585; 1845.211; -573.110; -560.802
591.862;  170.640;-1056.102; -950.817
592.138;   67.580; -475.108; -474.805
592.415;  152.218; -486.104; -495.813
592.691; 1508.115;  460.896;  518.188
592.968; 1975.498; -208.098; -123.824
593.244;  934.929; -695.116; -595.790
593.521;   70.540; -105.102;  -42.817
593.797;   -4.850; -810.122; -720.780
594.074;  365.261; -611.096; -588.826
594.350;  687.048;  828.905;  729.172
594.626;  320.657; -303.111; -283.801
594.903;  126.541; -643.101; -645.817
595.179;  198.322;  243.896;  418.187
595.455;    6.341; -136.107; -150.807
595.731;    4.998;  -19.103;  -38.814
596.008;  -27.224; -464.111; -434.800
596.284;   48.932; -187.100; -242.820
596.560;   88.220; -501.093; -493.833
596.836;  218.482; -173.105;  -70.810
597.112;  382.755; -582.108; -437.805
597.388;  302.884;  -49.097;  -48.826
597.665;  110.237;  437.887;  530.203
597.941;  -62.424; -572.089; -658.839
598.217;   17.990; -323.110; -293.802
598.493;  282.900;   61.891; -204.804
598.769;  542.876; -175.100;  -50.819
599.045;  322.633; -490.108; -562.806
599.321;   50.606; -193.100; -261.820
599.597;  146.449; -355.109; -476.804
599.872;  499.669;  409.896;  429.187
600.148;  401.411;  -61.097; -172.826
600.424;  307.514;   91.893;  202.193
600.700;  251.416; -170.107; -280.807
600.976;  140.930; -442.097; -464.825
601.252;  280.396; -226.109; -272.803
601.527;  234.695; -833.104; -840.813
601.803;  164.112; -453.105; -404.812
602.079;  191.551; -124.100; -118.819
602.354;  607.130; -620.092; -531.835
602.630;  853.184; -140.113; -482.796
602.906; 2362.571; -910.101; -863.818
603.181; 7100.358; -627.119; -534.786
603.457; 6088.108;   98.903; -278.826
603.733;  881.265; -605.120; -626.783
604.008;  976.278; -245.106; -164.810
604.284; 3200.442; -636.101; -580.817
604.559; 2774.496;   -3.112;  -42.799
604.835;  507.031; -163.105; -225.810
605.110;  445.361; -732.099; -892.821
605.385;  712.773;  224.907;  267.167
605.661;  688.176; -625.095; -729.829
605.936; 1267.209; -664.108; -737.806
606.211; 1046.330;  -17.103; -170.815
606.487;  234.098; -329.114; -376.794
606.762;   35.883; -791.119; -745.786
607.037;  -11.443; -501.105; -433.810
607.313;  -45.631; -589.096; -574.828
607.588;    2.928; -375.106; -137.810
607.863;   43.271;  -28.101; -143.818
608.138;  180.114;  513.890;  516.198
608.413;   37.965; -576.099; -592.822
608.688;   61.605; -203.108; -267.805
608.964;  223.997; -509.106; -218.809
609.239;  254.704; -107.105; -212.810
609.514;  244.112;  281.895;  240.188
609.789;  672.767; -187.104; -716.812
610.064;  914.518; -435.096; -609.827
610.339;  936.571; -855.109; -799.804
610.614; 1247.531; -131.100; -315.820
610.889;  701.737;  215.895;  107.188
611.163;   52.438; -407.104; -591.812
611.438;   92.299;   81.886; -167.794
611.713;    7.017; -467.101; -499.817
611.988;   77.694; -144.101; -328.818
612.263;   -4.593; -771.102; -717.815
612.538;  231.959;  385.887;  251.204
612.812;  205.058; -832.100; -911.820
613.087;  146.346; -358.098; -338.823
613.362;  -41.534; -497.107; -557.807
613.637;   45.826;  261.897;  138.186
613.911;   14.781; -256.092; -345.835
614.186;  139.889; -249.107; -292.807
614.460;  731.329; -842.081; -758.854
614.735;  834.350;  -55.087;  -17.843
615.010;  155.440;   43.912;  -82.841
615.284;  259.204;  360.892;  246.195
615.559;  403.630; -792.092; -955.835
615.833;  322.088;  -76.099;  -87.822
616.108;   15.492; -225.090; -390.837
616.382;  146.202;  274.913;  402.156
616.656;  187.642; -241.090; -232.837
616.931;  523.639; -785.099; -700.822
617.205; 1124.621; -973.104; -979.813
617.480; 1029.499;  -91.125;    6.225
617.754;  170.297; -396.125; -128.774
618.028;   31.191; -369.129; -382.768
618.302;   71.203;   73.892;  -25.805
618.577;  -39.497; -371.103; -518.815
618.851;  -55.357; -399.109; -600.803
619.125;  -43.431; -335.134; -378.759
619.399;  -31.504; -244.104; -374.813
619.673;  -24.963; -330.115; -515.792
619.947;  -41.323; -333.114; -448.795
620.222;  -15.742; -198.110; -204.801
620.496;   -9.612;  -47.121;  -96.782
620.770;   24.604; -187.122;  -93.781
621.044;  211.054;  323.895;  346.190
621.318;  782.116; -653.120; -614.783
621.592;  701.364; -430.121; -409.783
621.866;  405.122; -476.112; -572.799
622.140;   29.805; -207.116; -356.791
622.413;   69.751;  138.889;  112.200
622.687;  -34.758; -746.101; -492.817
622.961;   19.328; -130.108; -143.805
623.235;  -48.898; -633.111; -661.800
623.509; -106.688; -816.105; -848.811
623.783;   12.312;  -12.107;   48.193
624.056;  -12.008; -254.120; -280.783
624.330;   46.715;   63.888;   -3.797
624.604;   66.377; -271.116; -355.790
624.877;   80.513;  180.890;   26.198
625.151;   52.297; -249.114; -238.794
625.425;  -30.802; -150.103; -283.814
625.698;  -35.898; -367.119; -374.785
625.972;  -85.885; -799.110; -765.802
626.245;   58.004;  685.884;  484.210
626.519;  -48.104; -426.120; -340.784
626.792;  -19.834; -192.107; -380.807
627.066;  -78.878; -485.122; -662.779
627.339;  -82.139; -736.110; -663.802
627.613;   50.945;  351.880;  148.216
627.886;   70.317;  187.891; -612.803
628.160;  -21.609;  312.880; -161.783
628.433;  -95.598; -695.125; -703.775
628.706;  -54.079; -517.120; -615.784
628.979;   27.759;  296.876;  117.223
629.253;  -85.293; -785.119; -833.786
629.526;  380.486; -334.126; -253.772
629.799;  375.342; -641.123; -479.778
630.072;  192.492; -497.128; -516.769
630.346;  -56.496;-1115.116;-1080.790
630.619;  481.067; -467.107; -545.808
630.892;  642.503;  709.889;  593.200
631.165;  358.746;  790.896;  679.187
631.438;  -65.881;-1092.112;-1055.798
631.711;   49.195;  453.877;  257.221
631.984;  -52.651; -523.117; -624.789
632.257;  -56.355; -636.117; -681.789
632.530;  -28.548; -412.119; -433.785
632.803;   32.870; -109.115;    7.207
633.076;  -64.512; -360.123; -422.777
633.349;   13.947;  173.872;  121.231
633.622;  -45.799; -187.119; -240.785
633.895; -129.883; -903.120; -823.783
634.167;  -65.887; -496.126; -525.773
634.440;   -6.614;  -19.116; -137.792
634.713;    3.606;  -22.119; -120.786
634.986;   79.961;  593.871;  453.233
635.258;  -73.457; -507.115; -597.793
635.531;   87.491;  742.882; -343.788
635.804;  -32.252; -303.117; -318.789
636.077;  -72.793; -830.116; -852.791
636.349;   10.266; -586.115; -474.793
636.622;  384.760; 1695.874; 1392.228
636.894;  268.897; -474.120; -909.784
637.167;  185.704; -836.127; -789.771
637.439;   35.025; -278.128; -213.770
637.712;  -42.713; -312.126; -293.772
637.984;  -70.043; -635.116; -707.791
638.257;  385.339;  515.877;  488.222
638.529;  610.728; -881.125; -924.776
638.802;  256.167; -508.128; -449.769
639.074;  -96.672; -927.122; -952.781
639.346; -107.214; -942.135; -930.757
639.619;    7.317;  -79.142; -319.744
639.891;    7.122;  -83.122; -168.779
640.163;  -66.126; -689.122; -756.780
640.435;   31.576;  273.878;  103.220
640.708;   16.453;  -72.122; -132.780
640.980;  -16.645; -366.122; -362.781
641.252;  204.382;  -25.121;  -71.781
641.524; 1817.108;  580.879;  573.219
641.796; 1917.710;-1094.121; -907.782
642.068;  330.412; -191.121; -300.782
642.340;  -45.861; -486.121; -566.783
642.613;   30.741;  294.880;  323.217
642.885;  -86.232; -787.120; -878.783
643.157;  -49.705; -810.120; -658.784
643.428;   62.672;  170.880;  218.216
643.700;  -64.601; -498.120; -425.784
643.972;  -31.849;  -16.119; -133.785
644.244;  -89.222; -474.119; -559.785
644.516;  -50.070; -250.119; -114.786
644.788;   60.631;  662.881;  548.214
645.060;   -6.917;  -12.119; -124.786
645.332;  -86.040; -525.118; -535.787
645.603;   23.087;  479.882;  342.213
645.875;  -71.986; -334.118; -369.787
646.147;  152.391; 1487.882; 1242.212
646.418;  -43.057; -931.117; -918.788
646.690;  152.195; -714.117; -715.789
646.962;   39.247; -413.117; -451.789
647.233;  -11.576;   15.883;   11.211
647.505;  -96.424; -595.117; -475.790
647.776;   29.028;  328.884;  229.210
648.048;   -6.246; -248.116; -418.790
648.320;  -60.694; -752.116; -679.791
648.591; -142.142;-1055.116; -958.791
648.862;  -83.615; -505.116; -577.792
649.134;   11.987;  115.885;  198.208
649.405;  -39.786; -661.115; -618.792
649.677;  -56.384; -475.115; -598.793
649.948;    3.543; -181.115; -296.793
650.219;   -0.305;  -37.115; -147.793
650.491;  -71.278; -431.114; -520.794
650.762; -119.476; -705.114; -731.794
651.033;  -78.500; -437.114; -424.795
651.304;  -85.373; -743.114; -728.795
651.576;  -52.696; -680.114; -645.795
651.847;  -37.569; -250.113; -140.796
652.118;  -26.617;  -32.113; -189.796
652.389; -101.590; -639.113; -722.796
652.660;  -19.863; -147.113;  -89.797
652.931; -138.986; -897.112; -871.797
653.202;  -71.959; -382.112; -541.798
653.473;  -55.207; -633.112; -533.798
653.744;  168.795; -595.112; -590.798
654.015;  149.647; -356.112; -303.799
654.286;  -58.752; -642.111; -663.799
654.557;  -45.000; -586.111; -521.799
654.828; -144.798;-1114.111;-1088.800
655.099;  -72.496; -404.111; -291.800
655.370;  -82.469; -427.111; -543.801
655.641; -124.342; -656.110; -714.801
655.911; -116.965; -618.110; -638.801
656.182;   44.262;  437.890;  387.198
656.453;   84.689;  830.890;  746.198
656.724;  -70.634; -466.110; -426.802
656.994;  -80.207; -553.109; -568.803
657.265;  -95.305; -862.109; -873.803
657.536;  -80.579; -500.109; -377.804
657.806; -105.327; -561.109; -593.804
658.077; -133.150; -866.109; -950.804
658.347;  -78.648; -523.108; -598.805
658.618; -115.896; -646.108; -694.805
658.888;  -14.069;  -41.108;  112.195
659.159;  -73.667; -432.108; -548.806
659.429;  -20.190; -292.108; -349.806
659.700;   18.587; -435.107; -390.807
659.970;   -7.436; -370.107; -359.807
660.241;   16.716; -754.107; -921.807
660.511;  539.468; -147.107; -174.808
660.781;  113.769; -793.106; -748.808
661.052;  -37.729; -222.106; -381.808
661.322;   -8.202;   21.894;   -9.809
661.592;   16.625;  257.894;  148.191
661.862;  -78.798; -369.106; -382.810
662.133;  -98.146; -551.105; -502.810
662.403; -122.694; -770.105; -676.810
662.673;  -56.742; -256.105; -213.811
662.943;  -93.540; -612.105; -551.811
663.213;  -14.813;  -85.105;  -81.811
663.483;  -72.111; -593.104; -568.812
663.753;  -41.384; -194.104; -152.812
664.023;  -21.608;   68.896;  -32.813
664.293;  -63.981; -319.104; -126.813
664.563;  -98.179; -694.104; -648.813
664.833; -110.677; -743.103; -608.814
665.103; -111.825; -730.103; -793.814
665.373; -126.098; -766.103; -806.814
665.643;  -63.696; -863.103; -918.815
665.913;   60.731; -534.103; -714.815
666.182;  162.108; -685.102; -719.816
666.452;  273.485;  -22.102;  -89.816
666.722;   -2.088; -724.102; -784.816
666.992; -124.187; -948.102; -921.817
667.261;  -86.210; -824.102; -808.817
667.531;  185.367;  134.899;   45.183
667.801;  570.694; -440.101; -412.818
668.070;  245.771;  714.899;  697.182
668.340;  -93.102; -883.101; -840.819
668.609;  100.875;  588.900;  301.181
668.879;  -67.223; -490.100; -558.819
669.149;  -66.946; -539.100; -516.820
669.418;  -90.694; -698.100; -726.820
669.688;  -30.317; -482.100; -666.820
669.957;   85.035; -423.099; -546.821
670.226;  -22.539; -268.099; -331.821
670.496; -108.112; -431.099; -635.822
670.765;  -65.285; -418.099; -501.822
671.034; -121.408; -872.099; -828.822
671.304;  -11.181;   55.902; -111.823
671.573; -138.329;-1085.098; -957.823
671.842;   97.398; -380.098; -294.823
672.112;   45.950; -692.098; -586.824
672.381;   10.977; -239.098; -214.824
672.650; -122.671;-1005.097;-1021.825
672.919;  -87.294; -631.097; -507.825
673.188;  -79.342; -681.097; -878.825
673.457; -134.391;-1101.097;-1143.826
673.726;  -63.214; -579.096; -646.826
673.995;  -49.162; -533.096; -479.826
674.265;   -9.410; -263.096; -333.827
674.534;    1.142; -183.096; -235.827
674.802;   -1.031; -618.096; -703.828
675.071;  978.871; -886.095; -801.828
675.340; 4133.148; -464.095; -339.828
675.609; 1394.325;  103.905;   82.171
675.878;  100.352; -949.095; -893.829
676.147;   16.879;  -26.095;   -8.829
676.416;   84.731; -210.094; -294.830
676.685;  758.107; 1000.906; -622.830
676.953;  131.509; -603.094; -452.831
677.222;  -30.939; -193.094; -273.831
677.491;  -24.362;  -24.094; -127.831
677.759;   -7.310;   11.907;  172.168
678.028;  -12.733; -279.093; -222.832
678.297;   -2.356;   71.907;  197.168
678.565; -139.679; -898.093; -944.833
678.834;  -59.352; -311.093; -268.833
679.102;  -83.175; -411.092; -391.834
679.371; -126.273; -898.092; -727.834
679.639; -115.521; -797.092; -786.834
679.908; -108.520; -794.092; -724.835
680.176; -141.468; -895.091; -941.835
680.445;  -67.291; -346.091; -352.835
680.713;   -9.364;  -58.091;  -23.836
680.982;  -99.612; -523.091; -525.836
681.250;  -98.785; -578.091; -507.837
681.518;  -94.333; -534.090; -751.837
681.787;  -28.956; -204.090; -167.837
682.055;  -53.504; -490.090; -422.838
682.323; -148.877; -993.090; -992.838
682.591;   24.375; -216.090; -538.838
682.859;   98.951;    9.911;  -35.839
683.128;   12.003;  232.911;  497.161
683.396; -152.595;-1102.089;-1122.840
683.664;  -37.693; -241.089;   21.160
683.932;   10.784;  144.911;  -76.840
684.200;  -75.864; -576.088; -320.841
684.468;  -14.087;  -73.088; -124.841
684.736;  -36.585; -214.088; -175.841
685.004; -120.633;-1024.088; -982.842
685.272;  -41.856; -880.088; -774.842
685.540;  -65.729; -499.087; -557.843
685.808;  -71.402; -651.087; -682.843
686.076;  -82.351; -894.087; -969.843
686.343;  -51.674; -601.087; -815.844
686.611;   38.353; -195.087; -224.844
686.879;  431.305; -530.086; -553.844
687.147; 3457.457; -483.086; -480.845
687.414; 1018.334;  -12.086; -169.845
687.682;   14.911; -658.086; -757.846
687.950;  318.588;  259.915;  263.154
688.217;   29.965; -792.085; -760.846
688.485;   -9.808; -632.085; -636.847
688.753;  545.719;  -11.085; -102.847
689.020;  198.596; -820.085; -851.847
689.288;  -91.853; -853.084; -787.848
689.555;  -14.726; -195.084; -148.848
689.823;  -44.399; -241.084; -345.849
690.090;  -85.847; -546.084; -651.849
690.358; -134.570; -877.084; -897.849
690.625;    7.357;  120.917;   45.150
690.892;  -58.591; -403.083; -369.850
691.160;  -12.739;   72.917;  -35.850
691.427;    5.288;  141.917;  130.149
691.694; -119.735; -855.083; -929.851
691.962; -128.008;-1177.082;-1060.852
692.229;   17.544;  127.918;   56.148
692.496;   93.095;  130.918;  -49.852
692.763;   14.297; -164.082; -201.853
693.031;  -68.326; -739.082; -716.853
693.298;  -35.774; -509.081; -368.853
693.565;  313.903; -155.081; -163.854
693.832; 1348.880;   -5.081;   -9.854
694.099;  164.482; -643.081; -642.855
694.366;  -45.166; -882.081; -896.855
694.633;  -24.564; -920.080; -633.855
694.900;  717.688; 4367.920; -114.856
695.167;  468.565; -214.080; -380.856
695.434;  122.766; -646.080; -623.856
695.701;  193.668;  121.921;  -61.857
695.968;  489.120; -365.079; -361.857
696.234;  980.172; -415.079; -646.858
696.501;10569.074; -776.079; -614.858
696.768; 5758.276; -554.079; -617.858
697.035;  341.003; -632.078; -667.859
697.302;   50.405; -448.078; -552.859
697.568;   22.032; -458.078; -497.859
697.835;  -37.991; -683.078; -624.860
698.102;  -22.664; -498.078; -407.860
698.368;   72.763;  384.923;  396.139
698.635;  -18.461;  -47.077; -424.861
698.901;  -14.184; -240.077; -348.861
699.168;   80.918; -534.077; -456.862
699.435;   90.295;  -72.077;  -13.862
699.701; -100.553; -868.076; -764.862
699.968;   20.199;  144.924; -441.863
700.234; -100.624; -783.076; -822.863
700.500;  -53.247; -448.076; -539.864
700.767;   -5.895;   -1.075;   26.136
701.033; -131.468;-1015.075; -963.864
701.299;  -41.566; -450.075; -483.865
701.566;  117.736;  950.925;  763.135
701.832;   27.312;  -31.075;  -76.865
702.098;  -90.536;-1054.074;-1034.866
702.365;  -80.884;-1098.074;-1030.866
702.631;   -5.432;-1038.074;-1063.867
702.897; 1336.645; -765.074; -676.867
703.163; 2427.247;  348.926;  254.133
703.429;  182.474; -256.073; -273.868
703.695;  -14.824; -796.073; -792.868
703.961;   30.503; -214.073; -210.868
704.227;  -50.895; -630.073; -725.869
704.493;  127.607;  613.927;  510.131
704.759;  -19.891; -565.072; -540.870
705.025;   43.735; -203.072; -194.870
705.291;  -11.613; -666.072; -562.870
705.557;  182.214;  719.928;   34.129
705.823;   51.716; -742.072; -694.871
706.089;  163.618; -307.071; -326.871
706.355;  352.495; -315.071; -244.872
706.620; 5393.797; -776.071; -729.872
706.886; 8250.949; -309.071; -362.873
707.152;  818.026; -818.070; -973.873
707.418;    3.328;-1153.070;-1186.873
707.683;   14.030; -550.070; -530.874
707.949;  -28.118; -547.070; -578.874
708.215;    2.383; -129.070; -207.874
708.480;  -13.190; -520.069; -420.875
708.746;  105.637;   68.931;   28.125
709.011;  -49.611; -578.069; -612.876
709.277;  -78.634; -538.069; -543.876
709.542;  -43.857; -428.069; -387.876
709.808;    8.520;  -59.068;   89.123
710.073;  -72.903; -577.068; -695.877
710.339;  -21.901; -242.068; -228.877
710.604;   77.626; -780.068; -845.878
710.869;  361.603; -277.068; -366.878
711.135;  -63.146; -715.067; -628.879
711.400;  -73.969; -507.067; -608.879
711.665;  -53.342; -404.067; -479.879
711.931;  -86.040; -661.067; -677.880
712.196; -112.288; -876.067; -954.880
712.461;  119.464; -402.066; -490.880
712.726;  161.816; -727.066; -771.881
712.991;  -68.632; -647.066; -664.881
713.256;  -33.630; -350.066; -332.882
713.521;  -50.928; -417.065; -381.882
713.787;  -63.301; -454.065; -472.882
714.052;  -18.749; -214.065; -400.883
714.317;  -76.723;-1045.065; -981.883
714.581;  989.254; -374.065; -268.883
714.846; 1525.806; -822.064; -888.884
715.111;  142.358;  261.936;  257.116
715.376;  -21.190;  -86.064; -223.885
715.641;  -12.063; -365.064; -367.885
715.906;  329.389;   15.936; -551.885
716.171;  137.216;  221.937;  209.114
716.436;   36.218;  -78.063; -104.886
716.700; -109.630; -818.063; -692.886
716.965; -109.528; -794.063; -807.887
717.230;  -59.976; -339.063; -392.887
717.494;  -22.375;  -40.062; -134.888
717.759;  -95.423; -784.062; -640.888
718.024;   18.304;  269.938;  250.112
718.288;   68.281;  685.938;  395.111
718.553; -140.167; -803.062; -977.889
718.817; -130.015; -883.061; -899.889
719.082;  -29.463; -115.061; -125.890
719.346; -127.061;-1000.061; -947.890
719.611;  -43.984; -300.061; -255.891
719.875; -101.982; -568.060; -537.891
720.140;  -53.055; -453.060; -603.891
720.404;   32.897; -136.060; -249.892
720.668;  870.548; -475.060; -411.892
720.933;  372.825;  146.940;  137.108
721.197;  -72.198; -667.059; -600.893
721.461; -133.571; -851.059; -826.893
721.725;  -13.469;  -21.059; -250.894
721.990;  -47.642; -284.059; -204.894
722.254;  -21.815;  -26.059; -108.894
722.518;  -75.563; -286.058; -442.895
722.782;  -87.136; -743.058; -594.895
723.046;  138.216;  614.942;  570.105
723.310;   31.568;  374.942;  210.104
723.574;  -82.930; -654.058; -614.896
723.838;  -95.754; -576.057; -642.897
724.102;  -41.727; -226.057; -239.897
724.366; -124.125;-1032.057; -978.897
724.630;  -96.648; -749.057; -571.898
724.894;  -72.421; -722.057; -514.898
725.158;   -4.169;   38.944; -295.898
725.422;  -52.492; -394.056; -327.899
725.685;  -58.540; -441.056; -349.899
725.949;  -76.963; -566.056; -519.900
726.213;  -69.486; -732.056; -811.900
726.477;  192.066;-1020.055; -933.900
726.740;  168.967; -274.055; -104.901
727.004;  330.094; -384.055; -510.901
727.268; 3331.321; -442.055; -400.901
727.531; 1054.398; -961.055; -775.902
727.795;  -28.100; -713.054; -673.902
728.059;  -52.498; -552.054; -557.903
728.322;  -67.896; -841.054; -669.903
728.586;   40.656; -692.054; -701.903
728.849;  -66.317; -695.053; -756.904
729.112; -101.165; -812.053; -912.904
729.376; -111.488; -959.053; -905.904
729.639;  -67.861; -536.053; -536.905
729.903; -105.135; -733.053; -699.905
730.166;  -41.733; -437.052; -399.906
730.429;  -31.031; -317.052; -468.906
730.693;  -62.779; -355.052; -894.906
730.956;  180.773;  810.948;  651.093
731.219;  721.875; -310.052; -103.907
731.482;  114.302;-1003.051; -894.907
731.745;  121.129; -794.051; -935.908
732.009;   24.731;  -30.051;   50.092
732.272;  -84.817; -904.051; -771.909
732.535;  -48.790; -300.051; -310.909
732.798; -148.338;-1083.050;-1166.909
733.061;  -58.962; -430.050; -456.910
733.324;    5.265;   31.950; -180.910
733.587;   59.742;  290.950;  365.090
733.850;  -62.731; -973.049;-1050.911
734.113;   38.346;   33.951;   32.089
734.376;   19.748; -328.049; -447.912
734.639;  221.925; 1188.951; 1011.088
734.901;   58.677; -180.049; -402.912
735.164;  485.904; -883.048; -837.913
735.427; 1431.506; -166.048; -355.913
735.690;  119.383; -205.048; -234.913
735.952;  -17.390; -923.048; -925.914
736.215;  -19.314;-1113.048;-1009.914
736.478;   34.963; -771.047; -774.915
736.740;  229.815;   33.953;  129.085
737.003;  610.167; -658.047; -672.915
737.266; 4252.644;  -94.047;   46.084
737.528;  482.921; -682.047; -660.916
737.791;  334.123; -316.046; -327.916
738.053;  787.050;  465.954;  649.083
738.316;10517.852; -162.046; -136.917
738.578; 8500.904; -770.046; -736.918
738.841;  493.481; -382.046; -446.918
739.103;  212.482; -875.045; -777.918
739.365;  544.009;   79.955;  -69.919
739.628;   14.161; -884.045; -805.919
739.890;  -14.987; -758.045; -710.919
740.152;  -30.460; -692.044; -754.920
740.414;    1.342; -408.044; -359.920
740.677;  -38.181; -785.044; -634.921
740.939;  -29.904; -587.044; -487.921
741.201;  273.873; -432.044; -572.921
741.463;   64.000; -689.043; -745.922
741.725;   17.452;  -21.043; -199.922
741.987;   52.779;  220.957;  116.078
742.249;    6.430; -751.043; -859.923
742.511;  220.207; -703.043; -794.923
742.773;   29.834; -546.042; -546.924
743.035;  136.836;  796.958;  533.076
743.297;  -40.137; -963.042;-1013.924
743.559;  764.865; -278.042; -262.925
743.821;  102.117; -735.042; -744.925
744.083;   11.994;  -44.041; -149.925
744.345;  -77.304; -869.041; -892.926
744.607;   39.498;   75.959;  122.074
744.868;  -53.900; -490.041; -554.927
745.130;  -89.423; -994.041;-1008.927
745.392;   41.403;   -1.040;  -44.927
745.653;   -5.145; -411.040; -378.928
745.915;  161.657;  896.960;  631.072
746.177;   49.259;   35.960;  -43.928
746.438;   15.186; -428.040; -543.929
746.700;  -25.862; -947.039; -988.929
746.961;   10.065; -659.039; -740.930
747.223;  153.317; -190.039;  -74.930
747.484;  115.594; -391.039; -471.930
747.746;  151.896;  -23.038; -106.931
748.007;  121.723; -647.038; -689.931
748.269;  293.050; -468.038; -440.931
748.530;  536.301; -852.038; -638.932
748.791;  278.253; -354.038; -420.932
749.053;  443.455;  286.963;  163.067
749.314;  473.882; -236.037; -169.933
749.575;  554.234; -945.037; -905.933
749.836;  887.436; -217.037;   86.066
750.098; 2285.388;  -60.037;  -21.934
750.359;36682.340;  414.964;  555.066
750.620;10800.867; -121.036; -220.935
750.881; 1098.244; -585.036; -513.935
751.142; 1382.821; -950.036; -938.936
751.403;16367.073; -789.036; -705.936
751.664; 8414.249;-1034.035; -999.936
751.925;  527.576; -175.035; -262.937
752.186;  305.603; -298.035; -278.937
752.447;  126.005; -590.035; -445.937
752.708;   72.432; -532.035; -648.938
752.969;   23.259; -566.034; -576.938
753.230;   16.686; -777.034; -672.939
753.491;   10.963; -650.034; -631.939
753.751;   82.140;  109.966;   19.061
754.012;  101.942;  258.967;  181.060
754.273;   70.994; -174.033;  -71.940
754.534;   23.620; -487.033; -580.940
754.794;  -68.203; -926.033; -911.941
755.055;  151.224; 1051.967;  881.059
755.316;  -32.024; -700.032; -566.942
755.576;   -6.372; -606.032; -576.942
755.837;  -34.395; -527.032; -695.942
756.097;  -26.093; -530.032; -564.943
756.358;  -57.566; -725.032; -770.943
756.618;  -29.139; -705.031; -641.943
756.879;    2.988; -254.031; -349.944
757.139; -102.785;-1098.031;-1116.944
757.400;  -37.383; -538.031; -553.945
757.660;  -20.582; -365.031; -401.945
757.920;   35.745; -266.030; -228.945
758.181;  -16.478; -468.030; -351.946
758.441;  -80.826; -870.030; -809.946
758.701;  -21.024; -308.030; -215.946
758.961;  -22.797; -220.030; -278.947
759.222;  -40.395; -574.029; -502.947
759.482;  -69.293; -683.029; -723.948
759.742;  -77.816; -706.029; -547.948
760.002;   18.761;  -83.029; -143.948
760.262;   27.963;   50.972;  182.051
760.522;  -35.360; -498.028; -574.949
760.782;  -51.134; -738.028; -612.949
761.042;  -19.207; -618.028; -573.950
761.302;   57.220;   55.972;  -18.950
761.562;   66.522; -164.027; -154.951
761.822;   96.774; -710.027; -551.951
762.082;   -8.349;-1104.027;-1093.951
762.342;   82.703; -328.027; -403.952
762.601;  105.830; -567.027; -506.952
762.861;  374.432; -281.026; -207.952
763.121;  439.409; -406.026; -411.953
763.381; 7212.836; -499.026; -485.953
763.640; 9392.388; -139.026; -307.954
763.900;  408.114; -242.026; -203.954
764.160;  108.566; -458.025; -491.954
764.419;    8.293; -726.025; -782.955
764.679;  -61.255; -795.025; -726.955
764.939;   -9.753; -124.025; -210.955
765.198;  -57.001; -608.025; -563.956
765.458;  -70.299; -710.024; -612.956
765.717;  -68.822; -454.024; -590.957
765.976;  -48.020; -428.024; -411.957
766.236;  -75.218; -475.024; -610.957
766.495;   18.684;  260.977;   73.042
766.755;  -80.589;-1090.023; -987.958
767.014;    7.162; -594.023; -665.958
767.273;  -44.561; -373.023; -397.959
767.533;  -39.784; -228.023; -307.959
767.792;  -28.932; -151.022; -188.960
768.051;  -55.580; -228.022; -276.960
768.310;  -67.653; -546.022; -650.960
768.569;    8.224; -161.022;    4.039
768.828;  -24.299; -285.022; -363.961
769.088; -105.747;-1050.021; -942.961
769.347;  -81.545; -755.021; -599.962
769.606;  -88.443; -876.021; -857.962
769.865; -115.267;-1016.021;-1033.963
770.124;   -0.340; -411.021; -336.963
770.383;  -45.713; -778.020; -910.963
770.641;   18.839; -398.020; -400.964
770.900;  -54.284; -953.020; -846.964
771.159;  -42.432; -851.020; -951.964
771.418;    1.445; -917.020; -779.965
771.677;  138.397; -224.019; -293.965
771.936;  141.949; -794.019; -865.966
772.194; 1887.976; -465.019; -437.966
772.453;11764.753; -213.019; -391.966
772.712;  889.955;  416.982;  329.033
772.970;  127.481;   32.982;   63.033
773.229;   77.233;  -22.018;  102.033
773.488;  -68.815; -814.018; -770.968
773.746;   49.912;  296.982;  335.032
774.005;    2.464;  190.983;  -22.969
774.263;   20.591;  243.983;  177.031
774.522;  -42.582; -422.017; -548.969
774.780;  -85.355; -484.017; -417.970
775.039;  -80.978; -551.017; -531.970
775.297;  -36.201; -135.016; -351.970
775.555;  -83.274; -489.016; -612.971
775.814; -104.997; -618.016; -570.971
776.072; -121.221; -749.016; -740.971
776.330;  -94.444; -630.016; -520.972
776.589; -110.392; -703.015; -721.972
776.847; -117.515; -645.015; -624.973
777.105; -166.388;-1016.015;-1032.973
777.363;  -86.361; -459.015; -454.973
777.621; -127.559; -660.015; -717.974
777.879;   -3.457;  -42.014;   32.026
778.138;  -97.330; -554.014; -717.974
778.396;  -89.278; -585.014; -526.975
778.654; -160.476;-1015.014; -970.975
778.912;  -63.299; -269.014; -371.976
779.170; -123.548; -880.013; -803.976
779.427; -139.046; -922.013; -897.976
779.685; -122.194; -880.013; -832.977
779.943;  -85.617; -654.013; -593.977
780.201; -145.815; -964.012; -883.978
780.459; -112.738; -651.012; -610.978
780.717;  -85.136; -440.012; -390.978
780.974;  -96.284; -449.012; -490.979
781.232;  -82.082; -358.012; -338.979
781.490;  -71.980; -551.011; -472.979
781.747;  -93.528; -555.011; -476.980
782.005;   23.273;  462.989;  254.020
782.263; -147.250; -542.011;-1004.981
782.520;  -82.448; -326.011; -501.981
782.778; -163.296;-1013.010;-1051.981
783.035; -153.419; -962.010; -938.982
783.293;  -67.742; -248.010; -206.982
783.550;  -60.015; -134.010; -198.982
783.808; -123.113; -764.010; -776.983
784.065; -167.011; -745.009; -874.983
784.322;  -36.759;   25.991;  -86.984
784.580; -136.657; -915.009; -771.984
784.837;  -80.905; -392.009; -466.984
785.094; -106.504; -783.009; -762.985
785.352;  -63.877; -304.008; -404.985
785.609; -100.450; -934.008; -839.985
785.866;  -79.048; -345.008; -401.986
786.123;  -58.471; -639.008; -583.986
786.380;  -89.394; -665.008; -604.987
786.637;  -39.342; -225.007; -380.987
786.895;    2.535; -456.007; -543.987
787.152;  -40.663; -135.007; -267.988
787.409;  -33.261; -123.007; -225.988
787.666;  -76.959; -299.006; -378.988
787.923; -100.932; -616.006; -695.989
788.179; -101.881; -551.006; -584.989
788.436;  -95.379; -585.006; -585.990
788.693;  -38.477;  -92.006;  -87.990
788.950;  116.750; -125.005; -112.990
789.207;  250.377; -381.005; -372.991
789.464;  -42.446; -161.005; -301.991
789.720;   -0.719;  150.995;  110.009
789.977; -171.892;-1003.005; -671.992
790.234;  -20.540;   44.996;  -66.992
790.490; -144.388; -884.004;-1031.993
790.747;  -27.236;  -85.004;   22.007
791.004;  -20.759; -426.004; -348.993
791.260;  -61.233; -430.004; -560.994
791.517;  -98.731; -843.003; -788.994
791.773;  -39.029; -379.003; -342.994
792.030;  -93.977; -596.003; -660.995
792.286;  -87.575; -686.003; -636.995
792.543;  -14.623;  -74.002; -159.995
792.799;  -55.196; -584.002; -382.996
793.055; -148.344;-1179.002;-1210.996
793.312;  -77.167; -827.002; -816.997
793.568;  -39.040; -746.002; -599.997
793.824;    8.862; -226.001; -284.997
794.081;   42.614; -447.001; -508.998
794.337;   75.490; -664.001; -561.998
794.593; 1141.267; -319.001; -271.999
794.849; 7246.544; -746.001; -772.999
795.105;  434.871; -270.000; -261.999
795.361;   34.373; -490.000; -457.000
795.617;  -34.375; -875.000; -945.000
795.873;  -37.550; -360.000; -407.000
796.129;  -37.325; -368.000; -306.000
796.385;   -3.150; -124.000; -156.000
796.641;   64.325;  412.000;  550.000
796.897;  -77.150; -666.000; -635.000
797.153;   53.700;  453.000;  357.000
797.409;  -98.175; -785.000; -868.000
797.665;  -68.750; -625.000; -732.000
797.921;  -58.250; -775.000; -762.000
798.176;  -41.500; -744.000; -747.000
798.432;  -39.025; -824.000; -596.000
798.688;  -53.425;-1174.000;-1078.000
798.943;   94.250; -165.000; -147.000
799.199;   15.200;-1005.000; -959.000
799.455;  232.600;  369.000;  316.000
799.710;  149.125; -813.000; -380.000
799.966;  326.025; -162.000; -160.000
800.221;  481.650; -638.000; -721.000
800.477; 9740.825; -743.000; -710.000
800.732;10688.325; -773.000; -800.000
800.988;  657.550;  205.000;  -19.000
801.243; 1560.425; -454.000; -344.000
801.498; 8324.925; -814.000; -739.000
801.754;  539.750; -289.000; -163.000
802.009;   95.825; -257.000; -335.000
802.264;  -26.825; -967.000;-1033.000
802.520;   29.425;  222.000;   -3.000
802.775;  -44.050; -524.000; -359.000
803.030;   51.450;  395.000;  356.000
803.285;  -96.550; -840.000; -903.000
803.540;  -53.500; -686.000; -699.000
803.795;  -31.725; -648.000; -583.000
804.051;  -40.025; -279.000; -346.000
804.306;   31.325;  168.000;  128.000
804.561;  139.550;  451.000;  362.000
804.816;  131.125;  714.000;  861.000
805.071;   -2.975; -185.000; -280.000
805.325;  235.625; -257.000; -427.000
805.580;  -88.475; -841.000; -877.000
805.835;   -5.700; -204.000; -297.000
806.090;  -63.950; -760.000; -676.000
806.345;  -14.100; -344.000; -264.000
806.600;  -14.950; -549.000; -632.000
806.854;  -17.300; -408.000; -538.000
807.109;   -5.100; -493.000; -577.000
807.364;   11.150; -407.000; -328.000
807.618;   17.500; -415.000; -381.000
807.873;   58.350; -470.000; -494.000
808.128;  108.925; -257.000; -518.000
808.382;  129.725; -224.000; -332.000
808.637;   97.725; -440.000; -511.000
808.891;  210.525; -257.000; -180.000
809.146;  118.500; -902.000; -794.000
809.400;  291.725; -848.000; -923.000
809.654;  376.625; -779.000; -551.000
809.909;  527.875; -841.000; -927.000
810.163; 5859.975; -813.000; -651.000
810.418;19140.850; -940.000; -861.000
810.672; 1219.700; -685.000; -690.000
810.926;  788.125; -993.000; -973.000
811.180; 1409.100; -439.000; -372.000
811.434;31267.875;  240.000;  135.000
811.689;16064.825; -231.000; -365.000
811.943;  766.975; -936.000; -953.000
812.197;  399.600; -893.000; -671.000
812.451;  166.350; -379.000; -514.000
812.705;   -4.900; -809.000; -619.000
812.959;    2.450; -263.000; -388.000
813.213;   -3.300; -283.000; -209.000
813.467;   61.400;  470.000;  253.000
813.721;  -90.175; -764.000; -792.000
813.975; -104.625; -826.000; -877.000
814.229;   33.725;  430.000;  353.000
814.482;  -57.700; -517.000; -566.000
814.736;  -99.825; -766.000; -744.000
814.990; -125.400; -779.000; -872.000
815.244;  -33.550; -228.000; -285.000
815.497;  -73.875; -636.000; -601.000
815.751;  -26.550; -141.000;   82.000
816.005;  -81.475; -470.000; -586.000
816.258;  -68.075; -510.000; -363.000
816.512; -104.200; -693.000; -610.000
816.766;    3.850;  121.000;  157.000
817.019;   38.275;  148.000;  149.000
817.273; -108.200;-1000.000; -802.000
817.526;  -28.025; -206.000; -173.000
817.779;  -34.775;-1049.000; -960.000
818.033;  -51.775; -693.000; -807.000
818.286; -109.125; -725.000; -792.000
818.540;  -91.450; -403.000; -403.000
818.793;  -72.600; -402.000; -489.000
819.046;  -91.500; -582.000; -520.000
819.299;  -40.875; -157.000; -166.000
819.553; -100.625; -552.000; -592.000
819.806; -152.025;-1016.000; -838.000
820.059;  -63.525; -334.000; -354.000
820.312;   11.350;  152.000;  185.000
820.565;  -15.175;  110.000;  -27.000
820.818;  -35.200;  -59.000; -173.000
821.071; -153.250;-1041.000; -957.000
821.324; -102.000; -536.000; -540.000
821.577;  -91.325; -457.000; -483.000
821.830;  -50.900; -270.000; -172.000
822.083; -121.250; -733.000; -288.000
822.336;  -45.575; -261.000; -167.000
822.589; -128.550; -805.000; -688.000
822.842; -130.550; -875.000; -770.000
823.094; -173.275;-1076.000;-1114.000
823.347; -132.000; -925.000; -729.000
823.600;   14.025;  402.000;  187.000
823.853;  -60.800; -311.000; -267.000
824.105;  -55.075; -331.000; -575.000
824.358;  -98.675; -617.000; -716.000
824.611;   21.675;  234.000;   40.000
824.863;  -36.175; -612.000; -591.000
825.116;   40.275;  -33.000;   27.000
825.368;   87.225; -366.000; -372.000
825.621;  155.650; -186.000; -240.000
825.873;  102.475; -704.000; -737.000
826.126;  517.200; -669.000; -641.000
826.378;11270.925; -389.000; -505.000
826.630; 3644.850; -890.000; -898.000
826.883;   92.475; -754.000; -693.000
827.135;   41.925; -279.000; -270.000
827.387; -101.850; -893.000; -839.000
827.639;  -26.350;  -86.000;   32.000
827.892; -120.700; -742.000; -582.000
828.144; -127.050; -848.000; -804.000
828.396;  -30.150;  104.000;  -80.000
828.648;  -96.450; -440.000; -333.000
828.900; -146.400; -702.000; -795.000
829.152; -105.775; -684.000; -683.000
829.404;  -61.125; -215.000; -267.000
829.656;   -6.525;  321.000;  214.000
829.908;   -7.600;  393.000;  229.000
830.160; -153.125;-1064.000;-1047.000
830.412;  -96.500; -481.000; -430.000
830.664; -118.650; -557.000; -665.000
830.916;  -68.550; -268.000; -206.000
831.167; -154.375;-1073.000; -951.000
831.419; -116.000; -623.000; -566.000
831.671; -145.275; -764.000; -809.000
831.923;  -78.975; -311.000; -447.000
832.174;  -71.075; -273.000; -331.000
832.426; -113.675; -493.000; -582.000
832.678; -176.350;-1043.000;-1091.000
832.929; -163.650; -947.000; -935.000
833.181;  -61.975; -575.000; -677.000
833.432;  -48.825;  -59.000; -186.000
833.684;  -30.000;  112.000;  -27.000
833.935; -120.700; -610.000; -566.000
834.187; -121.350; -829.000; -823.000
834.438;  -45.450;  -58.000;  -25.000
834.689;  -57.175; -255.000; -123.000
834.941;  -45.425; -343.000; -244.000
835.192;  -99.475; -590.000; -533.000
835.443;  -90.025; -419.000; -506.000
835.695;   -6.250;  138.000;  -16.000
835.946;  -83.575; -608.000; -378.000
836.197; -100.900; -599.000; -622.000
836.448;  -89.475; -528.000; -395.000
836.699;  -51.775; -253.000; -341.000
836.950;  -11.550;   72.000;    7.000
837.201; -134.375;-1003.000; -987.000
837.452;  -52.100; -356.000; -170.000
837.703; -101.125; -791.000; -737.000
837.954;  -34.350; -205.000; -365.000
838.205;  -78.425;-1029.000;-1008.000
838.456;  188.975; -196.000; -282.000
838.707;   32.150; -423.000; -519.000
838.958;   15.975; -634.000; -647.000
839.209;  308.100;   18.000;   40.000
839.460;  133.275; -439.000; -201.000
839.710;  184.925; -135.000; -297.000
839.961;  434.750;  730.000;  612.000
840.212;  363.575; -382.000; -497.000
840.462; 1073.975; -328.000; -277.000
840.713;17154.025; -571.000; -536.000
840.964; 8868.650;  -62.000; -143.000
841.214;  571.075; -384.000; -624.000
841.465;  624.500; -214.000; -141.000
841.715;  540.625; -417.000; -380.000
841.966;  697.325; -746.000; -685.000
842.216; 7922.750; -330.000; -431.000
842.466;37826.500; -169.000; -313.000
842.717; 2781.300; -964.000; -952.000
842.967;  329.925; -635.000; -641.000
843.217;  308.075;   20.000;   28.000
843.468;   95.225; -104.000; -132.000
843.718;  -26.275; -718.000; -726.000
843.968;  -86.200; -837.000; -765.000
844.218;   25.000; -315.000; -262.000
844.469;  -37.050; -577.000; -561.000
844.719;  -94.175; -537.000; -682.000
844.969;  -90.975; -550.000; -580.000
845.219; -137.250; -814.000; -862.000
845.469;  -78.600; -392.000; -342.000
845.719; -130.800; -792.000; -884.000
845.969;   -7.800;  119.000;  174.000
846.219; -112.225; -738.000; -720.000
846.469;   13.025;  464.000;  432.000
846.718;  -45.300; -115.000;   31.000
846.968; -128.125; -827.000; -827.000
847.218;  -46.325; -224.000; -371.000
847.468;   11.200; -586.000; -555.000
847.718; -145.600; -827.000; -798.000
847.967; -119.325; -826.000; -915.000
848.217;  -93.925; -449.000; -569.000
848.467;  -61.925; -405.000; -376.000
848.716;  -97.225; -708.000; -725.000
848.966;    9.625; -372.000; -358.000
849.215;  -49.200; -428.000; -419.000
849.465;  -83.675; -785.000; -615.000
849.714; -122.575;-1132.000;-1150.000
849.964;  -45.275; -551.000; -613.000
850.213;  -29.475; -393.000; -355.000
850.463;   79.925;  137.000;  340.000
850.712;   17.600; -542.000; -567.000
850.961;   26.425; -739.000; -678.000
851.211;  112.575; -513.000; -504.000
851.460;  168.000; -635.000; -650.000
851.709;  556.075;  -25.000;   18.000
851.958; 9388.175; -912.000; -750.000
852.208;14714.950; -859.000; -879.000
852.457;  599.700; -181.000;  -13.000
852.706;   87.550; -791.000; -823.000
852.955;   46.750; -507.000; -528.000
853.204;  -63.175; -521.000; -461.000
853.453;  -77.100; -418.000; -458.000
853.702; -119.025; -660.000; -750.000
853.951; -105.125; -532.000; -520.000
854.200; -102.350; -613.000; -562.000
854.449; -125.600; -695.000; -661.000
854.698; -107.125; -340.000; -279.000
854.946;  -58.700; -181.000; -284.000
855.195; -149.950; -843.000; -868.000
855.444;  -85.525; -395.000; -420.000
855.693; -108.450; -345.000; -432.000
855.941;  -97.850; -387.000; -516.000
856.190;  -49.925; -256.000; -382.000
856.439; -128.250; -652.000; -703.000
856.687;  -67.350;  -99.000;  -72.000
856.936; -127.650; -621.000; -323.000
857.184; -164.600;-1067.000;-1020.000
857.433; -109.000; -423.000; -512.000
857.681; -145.000; -989.000; -953.000
857.930;  -78.775; -282.000; -433.000
858.178; -157.775; -856.000; -929.000
858.427; -154.650; -802.000; -781.000
858.675; -119.175; -377.000; -544.000
858.923; -100.450; -527.000; -819.000
859.172; -179.975;-1094.000;-1070.000
859.420;  -80.150; -339.000; -239.000
859.668; -114.200; -624.000; -628.000
859.916;  -26.275;  109.000;  115.000
860.164; -104.800; -699.000; -603.000
860.413;  251.850; -878.000; -696.000
860.661;  301.750; -709.000; -577.000
860.909;  -81.300; -339.000; -325.000
861.157;  -84.300; -277.000; -444.000
861.405; -110.450; -534.000; -670.000
861.653;    6.450;  310.000;  310.000
861.901;  173.000; -543.000; -613.000
862.149;   46.700; -801.000; -824.000
862.396;  -79.225; -297.000; -187.000
862.644;  -86.600; -368.000; -347.000
862.892;  -30.250;   98.000;  138.000
863.140; -120.300; -549.000; -530.000
863.388; -135.475; -815.000; -759.000
863.635; -136.125; -642.000; -601.000
863.883;  -28.950;  231.000;  190.000
864.131; -101.000; -288.000; -357.000
864.378; -131.325; -675.000; -540.000
864.626; -100.625; -347.000; -415.000
864.873; -104.825; -556.000; -505.000
865.121; -139.400; -714.000; -799.000
865.368;  -49.650; -173.000;   75.000
865.616;  -37.450;  -33.000;  -40.000
865.863;  -71.450; -462.000; -506.000
866.111;  -99.225; -795.000; -824.000
866.358;   36.400; -426.000; -420.000
866.605; 2001.450;  -64.000; -804.000
866.853; 2634.000; -621.000; -537.000
867.100;    1.650; -728.000; -775.000
867.347;  -97.250; -672.000; -611.000
867.594;  -83.950; -740.000; -714.000
867.841;   78.675;   97.000;   17.000
868.089; -141.250; -746.000; -698.000
868.336; -107.500; -477.000; -420.000
868.583; -133.825; -637.000; -741.000
868.830;  -56.925; -131.000; -170.000
869.077; -157.725; -859.000; -787.000
869.324; -124.900; -502.000; -458.000
869.571; -116.575; -398.000; -430.000
869.818; -126.900; -485.000; -439.000
870.065; -103.275; -439.000; -513.000
870.311; -121.575; -456.000; -542.000
870.558;  -93.475; -332.000; -311.000
870.805;  -93.275; -320.000; -384.000
871.052; -110.025; -494.000; -369.000
871.298;  -42.850; -204.000; -131.000
871.545;  -56.775; -151.000; -185.000
871.792;  -88.050; -173.000; -222.000
872.038;  -70.400;   43.000; -126.000
872.285; -125.975; -496.000; -387.000
872.532;  -99.200; -357.000; -387.000
872.778;    5.300;  556.000;  403.000
873.025; -105.700; -384.000; -359.000
873.271;    9.875;  501.000;  578.000
873.517;  -29.100; -133.000; -209.000
873.764;  -36.600; -193.000;  -80.000
874.010;  -71.600; -143.000; -230.000
874.257;  -43.525;  123.000;   90.000
874.503; -135.975; -579.000; -479.000
874.749;  -65.975;   31.000;  275.000
874.995;  -57.750;  -80.000;  -20.000
875.242; -119.075; -540.000; -478.000
875.488; -113.075; -414.000; -439.000
875.734;  -49.650; -106.000; -234.000
875.980;  147.475; -872.000;-1032.000
876.226;  436.200; -157.000; -255.000
876.472;   -9.650;  343.000;  237.000
876.718;  -42.025;  184.000;  158.000
876.964;  -40.200;   56.000;   55.000
877.210; -139.475; -547.000; -677.000
877.456; -130.650; -630.000; -557.000
877.702; -171.050; -821.000; -832.000
877.948; -112.950; -377.000; -497.000
878.193;    0.600;  361.000;  255.000
878.439;  -76.775; -487.000; -472.000
878.685;  -90.675; -272.000; -343.000
878.931; -118.400; -618.000; -676.000
879.176;  -77.450; -201.000; -201.000
879.422; -167.075; -933.000; -820.000
879.668;   53.025;   10.000;   79.000
879.913;  160.875;   53.000;  137.000
880.159;  -63.525; -112.000;  -17.000
880.404;  -55.825; -152.000; -162.000
880.650;  -38.650;   91.000;  141.000
880.895; -149.150; -670.000; -710.000
881.141; -117.500; -454.000; -428.000
881.386; -145.300; -503.000; -658.000
881.631;  -81.675; -311.000; -166.000
881.877;  -34.850;  112.000;  -13.000
882.122; -138.600; -684.000; -600.000
882.367;  -88.850; -136.000; -186.000
882.612;  -81.175;  -80.000; -176.000
882.858; -164.875; -877.000; -823.000
883.103;  -99.500; -297.000; -267.000
883.348; -157.825; -759.000; -852.000
883.593; -134.800; -677.000; -602.000
883.838;  -56.725; -311.000;  -24.000
884.083;   23.025;  353.000;  288.000
884.328;  -92.350; -564.000; -545.000
884.573;  -51.525; -196.000; -143.000
884.818;  158.750; -694.000; -531.000
885.063;  257.125; -348.000; -315.000
885.308; -103.425; -475.000; -398.000
885.553;  -14.750;  245.000;  325.000
885.797; -122.550; -545.000; -615.000
886.042;  -61.475;    8.000;   58.000
886.287;  -92.825; -253.000; -211.000
886.532;  -47.775;   26.000;  204.000
886.776;  -91.000; -407.000; -525.000
887.021; -138.025; -621.000; -574.000
887.265; -145.250; -685.000; -689.000
887.510; -126.650; -557.000; -496.000
887.755;  -96.125; -194.000; -164.000
887.999; -129.825; -552.000; -575.000
888.244;  -61.025;  -58.000;  161.000
888.488;  -21.000;  371.000;  393.000
888.732; -117.300; -368.000; -520.000
888.977; -118.375; -622.000; -567.000
889.221; -141.975; -683.000; -659.000
889.465; -130.750; -422.000; -566.000
889.710;  -87.600;  -56.000; -299.000
889.954;   -4.550;  579.000;  467.000
890.198; -126.525; -584.000; -707.000
890.442; -144.725; -716.000; -712.000
890.687; -148.900; -800.000; -753.000
890.931;  -92.400; -273.000; -210.000
891.175; -121.025; -502.000; -500.000
891.419;  -69.700; -105.000; -110.000
891.663;  -89.175; -239.000; -112.000
891.907; -161.625; -801.000; -545.000
892.151; -168.525; -920.000; -815.000
892.395; -107.850; -274.000; -387.000
892.638;  -16.025;  408.000;  291.000
892.882; -177.950; -780.000; -867.000
893.126;   17.250;  758.000;  558.000
893.370;  -93.175; -167.000; -168.000
893.614; -140.475; -714.000; -715.000
893.857;  -99.875; -183.000; -197.000
894.101; -129.125; -527.000; -631.000
894.345;  -52.700;  300.000;  150.000
894.588;   17.075;  569.000;  380.000
894.832;  -76.250; -178.000;  -84.000
895.075;  -71.125;   15.000;  -92.000
895.319; -109.025; -552.000; -420.000
895.563; -116.025; -413.000; -353.000
895.806; -146.675; -628.000; -741.000
896.049;  -56.500; -576.000; -368.000
896.293;  107.225;  527.000;  405.000
896.536;  -72.150; -465.000; -468.000
896.779;  -71.150; -149.000;   -1.000
897.023; -148.075; -751.000; -714.000
897.266;  -27.550;  325.000;  269.000
897.509; -175.125; -900.000; -901.000
897.752;  -41.975;  149.000;  171.000
897.996; -191.500; -972.000; -864.000
898.239;  -44.625;  168.000;  102.000
898.482; -121.350; -431.000; -453.000
898.725;  -36.450;  101.000;   53.000
898.968; -142.075; -609.000; -744.000
899.211; -102.175; -513.000; -361.000
899.454; -115.750; -633.000; -539.000
899.697;  -75.875;   90.000;  -43.000
899.940; -164.450; -761.000; -757.000
900.182; -107.425; -335.000; -405.000
900.425;  -96.825; -150.000; -298.000
900.668;  -24.150;  491.000;  350.000
900.911; -109.775; -292.000; -345.000
901.154;  -59.950;  141.000;   -3.000
901.396; -132.625; -407.000; -412.000
901.639; -129.350; -430.000; -496.000
901.882; -178.825; -790.000; -809.000
902.124;  -93.400;  -29.000; -143.000
902.367; -123.050; -315.000; -361.000
902.609; -131.300; -476.000; -453.000
902.852;  -88.375; -108.000; -260.000
903.094; -119.600; -458.000; -337.000
903.337;  -57.550;  -26.000;   53.000
903.579; -111.500; -228.000; -441.000
903.821; -150.525; -597.000; -744.000
904.064;  -61.950;   85.000;  127.000
904.306;  -96.400; -126.000; -166.000
904.548;  -96.175; -152.000; -366.000
904.790;  -98.400; -195.000; -340.000
905.033; -118.100; -625.000; -577.000
905.275; -115.475; -513.000; -524.000
905.517;   32.125;  468.000;  256.000
905.759;  -46.100; -667.000; -761.000
906.001; -101.650; -322.000; -369.000
906.243;  -67.150; -162.000; -224.000
906.485;  107.975; -265.000; -207.000
906.727;  138.725; -499.000; -542.000
906.969;  -14.125;  -30.000; -135.000
907.211;   93.975; -316.000; -382.000
907.453;  297.025; -188.000; -237.000
907.695;   24.100; -158.000; -385.000
907.936;   46.525;  818.000;  706.000
908.178;  -48.925;   92.000; -135.000
908.420;  -64.100; -111.000; -162.000
908.662; -132.700; -633.000; -682.000
908.903;  -78.675; -208.000; -123.000
909.145;  -54.125; -240.000; -305.000
909.386;    1.000;  315.000;  280.000
909.628;   13.700;  363.000;  397.000
909.870;   -8.550;   29.000;  264.000
910.111;  -79.150; -809.000; -949.000
910.353;   23.300; -123.000; -161.000
910.594;   13.350; -574.000; -606.000
910.835;   86.225; -265.000; -326.000
911.077;  169.400; -503.000; -604.000
911.318;  293.825; -505.000; -471.000
911.559;  480.925; -577.000; -880.000
911.801; 1323.775; -284.000; -280.000
912.042; 9643.125;  -50.000; -159.000
912.283;29375.025;  404.000;  371.000
912.524; 5684.450; -396.000; -457.000
912.765;  597.900; -193.000;   79.000
913.006;  281.375; -307.000; -338.000
913.247;   78.850; -270.000; -290.000
913.488;   11.600;  -43.000;   30.000
913.729;  -78.500; -373.000; -373.000
913.970;  -65.975;  -96.000; -292.000
914.211;  -72.800; -160.000; -198.000
914.452;  -56.025; -118.000;  -11.000
914.693;   23.250;  510.000;  592.000
914.934;    9.075;  510.000;  440.000
915.175;  -75.575;   53.000;  -95.000
915.415;  -80.100; -137.000;   27.000
915.656;  -66.800;  -28.000;  192.000
915.897;  -83.450; -252.000;  -82.000
916.137;  -65.725;   74.000;   -9.000
916.378; -134.900; -573.000; -517.000
916.619;  -74.525; -159.000;  -63.000
916.859;  -36.900;  303.000;  330.000
917.100;  117.575; 1655.000; 1070.000
917.340;   51.850;  930.000;  728.000
917.581;   27.400;  965.000;  789.000
917.821;  -33.075; -171.000;  143.000
918.061;   18.875; -199.000;  -72.000
918.302;  -43.900; -152.000; -211.000
918.542;  -14.350;  -22.000;    3.000
918.782;   33.800;  369.000;  377.000
919.023;  121.775;  360.000;  427.000
919.263; 1654.725; 8131.000;  202.000
919.503; 1209.050; -137.000;  -54.000
919.743;  663.925;  390.000;  266.000
919.983;  328.225; -134.000;  -26.000
920.223;   92.375;  135.000;   14.000
920.463;  131.200;  631.000;  554.000
920.703;  132.000;   84.000;   39.000
920.943;  182.425; -110.000;   90.000
921.183;  247.925; -414.000; -405.000
921.423;  499.925;  307.000;  546.000
921.663;  730.450; -174.000; -257.000
921.903; 1539.525;  237.000;  173.000
922.143; 8045.475;  372.000;  389.000
922.383;33722.675;  158.000;  115.000
922.622;14258.025; -120.000;  -15.000
922.862; 1475.450;  796.000;  785.000
923.102;  541.550;  -51.000;   33.000
923.341;  210.075;   59.000;   74.000
923.581;  118.900;  450.000;  360.000
923.821;   24.275;  301.000;  398.000
924.060;   21.625;  351.000;  193.000
924.300;  -46.125;  -16.000; -128.000
924.539;   -6.325;  584.000;  473.000
924.779;    8.100;  812.000;  597.000
925.018;  -49.150;  247.000;  353.000
925.257;  -17.000;  595.000;  666.000
925.497;  -28.575;  447.000;  412.000
925.736;  -83.425;  -35.000;  102.000
925.975;   14.075;  687.000;  669.000
926.214;   19.500;  907.000;  850.000
926.454;    8.225;  706.000;  757.000
926.693;  -37.575;  419.000;  543.000
926.932;   25.575; 1021.000;  825.000
927.171;   59.850; 1107.000; 1044.000
927.410;   54.800; 1144.000;  967.000
927.649;   26.475;  924.000;  742.000
927.888;   -5.750;  590.000;  564.000
928.127;  -11.125;  680.000;  678.000
928.366;   28.425;  842.000;  826.000
928.605;   28.500;  831.000;  737.000
928.844;  217.850; 1451.000; 1393.000
929.083;  625.625;  770.000;  613.000
929.321;  380.850; 1335.000; 1359.000
929.560;   76.575; 1158.000; 1122.000
929.799;  -23.400;  574.000;  475.000
930.038;   94.825; 1025.000; 1394.000
930.276;  -46.675;  334.000;  397.000
930.515;    0.175;  827.000;  681.000
930.753;  -20.175;  614.000;  589.000
930.992;  -27.775;  664.000;  717.000
931.230;   17.925;  847.000;  847.000
931.469;  165.175; 2162.000;  892.000
931.707;   68.450;  840.000;  751.000
931.946;   62.750; 1278.000; 1344.000
932.184;   57.725; 1437.000; 1175.000
932.423;   41.875; 1265.000;  963.000
932.661;   87.075; 1296.000; 1428.000
932.899;   26.600;  987.000;  821.000
933.137;   24.800;  754.000;  564.000
933.376;  147.775; 1664.000; 1335.000
933.614;  156.250; 1759.000; 1196.000
933.852;   35.000; 1357.000; 1171.000
934.090;  135.625; 1722.000; 1747.000
934.328;  108.000; 1252.000; 1457.000
934.566;  103.750; 1431.000; 1110.000
934.804;  128.875; 1263.000; 1309.000
935.042;  435.625; 1861.000; 1850.000
935.280; 1675.025; 2088.000; 2063.000
935.518; 1884.800; 2113.000; 2007.000
935.756;  420.425; 2481.000; 2316.000
935.994;  170.350; 1808.000; 1751.000
936.231;  340.550; 2890.000; 2950.000
936.469;  198.300; 2367.000; 2378.000
936.707;  172.700; 2220.000; 2167.000
936.945;  225.825; 2825.000; 2882.000
937.182;  214.325; 2679.000; 2741.000
937.420;  305.750; 3602.000; 3031.000
937.657;  417.625; 3365.000; 3478.000
937.895;  367.875; 3331.000; 3488.000
938.133;  310.525; 3540.000; 3528.000
938.370;  334.275; 3896.000; 4191.000
938.607;  387.400; 4488.000; 4205.000
938.845;  529.400; 5587.000; 5549.000
939.082;  480.450; 5387.000; 5177.000
939.320;  513.400; 5799.000; 5728.000
939.557;  659.650; 6549.000; 6491.000
939.794;  716.050; 7285.000; 7097.000
940.031;  910.750; 8421.000; 8368.000
940.269; 1102.325; 9552.000; 9107.000
940.506; 1130.075;10901.000;10507.000

