
Integration time [ms]: 100.000
Averaging Nr. [scans]: 40
Smoothing Nr. [pixels]: 0
Data measured with spectrometer [name]: 2101013U2
Wave   ;Sample   ;Dark     ;Reference
[nm]   ;[counts] ;[counts] ;[counts] 

394.013;   38.800; -450.257; -315.536
394.305;  163.223; -461.258; -419.536
394.596; 1072.045; -676.269; -527.514
394.887; 2766.962; -796.268; -654.518
395.178; 1081.892;  145.736;   11.476
395.470;   88.703; -210.263; -356.526
395.761;  173.926;  305.734;  394.479
396.052;  207.645; -545.284; -306.489
396.343;  199.015; -557.276; -454.503
396.634;   75.358; -200.279; -290.497
396.926;   69.559; -618.268; -565.517
397.217;   92.469;   11.725;  -17.504
397.508;   24.410; -366.273; -154.507
397.799;   28.033; -555.279; -571.497
398.090;  -17.972; -973.280; -902.495
398.381;   94.495;   11.708;  -11.473
398.672;   -9.379; -585.292; -742.473
398.963;   35.314; -348.279; -373.498
399.254;  106.005;   54.709; -209.475
399.545;  -43.327;-1017.266; -883.520
399.836;   42.079; -407.277; -343.501
400.127;   46.446; -205.295; -209.468
400.418;   49.904; -423.274; -392.506
400.709;   47.715; -359.281; -333.493
401.000;   42.734; -268.291; -309.476
401.290;  100.408;  225.698;  115.545
401.581;   58.403; -166.286; -228.485
401.872;   10.543; -542.298; -486.462
402.163;   42.689; -313.296; -252.467
402.454;   81.531; -123.291; -163.475
402.744;   54.605; -844.297; -813.465
403.035;  358.436; -226.293;  -86.471
403.326;  469.999; -366.292; -384.474
403.617;  354.588;  204.701;  165.539
403.907;  238.051; -593.283; -679.490
404.198; 2436.737; -545.307; -599.446
404.489; 6301.256; -618.283; -588.491
404.779; 2047.312; -618.302; -660.456
405.070;  237.165;  -67.304; -174.451
405.360;  342.813; -259.293; -238.472
405.651;  372.848;  125.699;   98.542
405.942;  166.573;  209.714;  127.516
406.232;  194.687; -432.285; -413.487
406.523;  399.506;  641.706;  758.530
406.813;   64.025; -579.286; -644.484
407.104;  297.469;  261.708;  144.527
407.394;  127.114; -604.299; -591.462
407.685;  139.312;  336.715;  222.513
407.975;   45.179; -400.283; -382.490
408.265;  107.645; -134.289; -190.478
408.556;   46.653; -472.291; -459.475
408.846;  173.407;  474.706;  429.530
409.137;   77.404;   -1.288; -216.480
409.427;   37.837; -193.285; -271.487
409.717;   25.913; -776.273; -692.508
410.007;  134.406;    4.715; -170.486
410.298;   86.624; -360.295; -342.469
410.588;   62.835; -495.285; -510.486
410.878;   26.040; -792.287; -873.482
411.168;   98.821; -481.298; -478.463
411.459;  107.649; -295.283; -242.489
411.749;   52.751; -609.292; -507.474
412.039;   45.277; -755.289; -386.480
412.329;  188.472;   40.722;  132.501
412.619;  181.726;  -62.286; -148.485
412.909;  354.923;  639.711;  594.521
413.199;  305.028; -130.280; -251.495
413.490;  362.564;  521.710;  352.523
413.780;  130.482;-1013.279; -913.496
414.070;  328.666;  -46.276;  235.497
414.360;  333.268; -729.278; -666.498
414.650;  407.336; -726.288; -688.482
414.940;  532.181; -538.280; -441.496
415.230;  907.158;   50.712;   74.519
415.520; 6123.519;  155.730;   66.486
415.809;24126.264; -305.281; -125.493
416.099;19020.331; -388.277; -229.501
416.389; 5312.127;  435.726;  236.494
416.679; 3190.857;   91.738;   85.473
416.969;  539.269; -527.287; -503.483
417.259;  550.384;  341.721;  171.503
417.549;  697.863;  522.718;  318.508
417.838; 1687.236; -205.268; -147.518
418.128; 5611.019;  650.710;  492.522
418.418; 4743.119; -491.272; -579.509
418.708; 3197.527;    9.726;  -48.506
418.997;11918.198; -474.275; -480.505
419.287;12552.559; -733.273; -790.507
419.577;11983.023; -160.283; -123.489
419.866;39147.354; -588.277; -498.501
420.156;39984.540; -242.270;  -55.513
420.446; 7245.599; -112.263;  -26.526
420.735;  795.959; -376.271; -446.512
421.025;  832.592; 1830.722;  315.502
421.314;  591.207; -203.271; -226.512
421.604; 1118.079;   89.732;  233.484
421.893;  655.428; -705.271; -602.511
422.183;  235.299; -487.263; -461.526
422.472;  352.230;  -36.271; -107.511
422.762;  403.479; -416.266; -379.521
423.051;  234.091; -916.276; -916.503
423.341;  301.586; -491.273; -439.507
423.630;  372.560; -121.265;   15.477
423.919;  395.472;   58.725;   49.495
424.209;  366.930;  -31.263;   56.473
424.498;  495.833;   68.732;  161.483
424.787; 1084.015; -535.267; -601.518
425.077; 3297.683;   34.735;   29.478
425.366; 4390.335; -734.262; -744.528
425.655; 9980.062;  639.727;  259.493
425.945;22824.639; -313.247; -268.554
426.234;12785.558;  117.741;  300.467
426.523; 5094.713;  -86.259; -350.534
426.812; 7086.625;  107.734;  159.480
427.101;10402.175; -127.269; -323.515
427.390;13021.269;  -55.270;  -86.514
427.680; 2679.058; -624.257; -411.538
427.969;  452.869; -330.255; -301.540
428.258;  284.250; -385.257; -477.536
428.547;  507.299;  449.728;  397.490
428.836; 1038.985; -421.253; -398.543
429.125; 1517.690; -199.259;  -72.534
429.414;  739.282; -330.251; -294.548
429.703; 3194.632; -231.251; -213.548
429.992; 9522.911; -938.250; -828.549
430.281; 6308.117; -397.264; -331.524
430.570;  564.673;  -21.252;   32.454
430.859;  494.388;  279.741;  352.466
431.148;  397.535;  636.752;  631.446
431.437;  277.822;  391.748;  367.454
431.725;  144.026; -544.257; -481.536
432.014;  126.092; -845.253; -756.545
432.303;  328.935; -149.239; -105.569
432.592;  546.449; -460.263; -178.525
432.881; 1047.336; -601.248; -437.554
433.169; 6402.670; -343.255;  -61.540
433.458;12956.119;  445.765;  540.424
433.747; 5417.216; -397.261; -289.529
434.036;  805.161; -275.242; -280.564
434.324; 2072.898; -395.249; -379.551
434.613; 3724.380;   40.757;  159.437
434.902; 1220.876;  333.760;  439.433
435.190;  445.234;   75.761;  295.431
435.479;  245.662;  -52.245;   83.441
435.767;   74.195; -411.244; -427.561
436.056;  183.857; -340.242; -294.563
436.345;  354.428; -372.240; -223.568
436.633;  394.219;   60.750;  383.450
436.922;  235.030;  208.760;  414.432
437.210;  434.784; -194.236;    1.426
437.499; 1332.292; -583.235; -432.576
437.787; 1542.784; -339.236;  -10.574
438.075;  407.815;   56.761;  162.430
438.364;  531.617;  -44.238;  250.429
438.652;  308.947; -286.226; -138.592
438.941;  115.461;    3.770;  269.415
439.229;   -7.430; -665.252; -466.545
439.517;   36.026; -160.234;  -85.577
439.806;   -4.812; -501.225; -290.595
440.094;  170.808;  377.766;  650.421
440.382;  128.612; -653.233; -302.580
440.670;  133.192; -361.235; -285.576
440.959;    7.730; -347.223; -170.599
441.247;   70.797; -151.229; -109.587
441.535;   85.524; -266.235;   31.423
441.823;   22.806; -497.234; -305.578
442.111;  164.327;  173.771;  327.412
442.400;  413.111; -628.245; -335.559
442.688; 1029.208; -111.234; -620.579
442.976;  710.917; -786.213; -450.617
443.264;   72.169; -324.224; -364.597
443.552;   64.248; -258.226;   51.408
443.840;  164.023;  602.765;  876.423
444.128;  109.836;  265.767;  269.420
444.416;  -11.521; -694.228; -312.588
444.704;    5.834; -465.219;  -92.605
444.992;   57.976;   -0.226;  240.407
445.280;   32.812; -517.230;  -94.585
445.568;    0.946; -694.212; -396.618
445.856;  267.419; -174.221;  357.398
446.143;  563.331;  -54.220;   -7.604
446.431;  487.833;  -25.228;  625.411
446.719;  227.004;  489.783;  675.391
447.007;  179.431;  481.769;  705.416
447.295;  167.402;  597.777;  871.402
447.583;   72.695; -464.229;  -34.587
447.870;  133.165; -434.221; -202.601
448.158;  318.360; -104.230;  129.415
448.446;  239.332; -800.219; -338.604
448.733;  147.221;   13.776;  269.403
449.021;  217.070;   60.788;  341.382
449.309;  163.410; -296.210;  208.379
449.596;  199.300;  128.783;   59.392
449.884;  154.384; -571.222; -325.600
450.172;  147.738; -756.227; -406.590
450.459;  455.126;  645.786;  780.387
450.747; 2488.873; -411.218; -147.608
451.034; 7973.734;  493.772;  889.411
451.322; 6626.229; -413.214; -170.614
451.609;  562.647;  292.777;  508.403
451.897;  612.398; -550.203; -183.634
452.184; 1840.602; -622.223; -400.598
452.472; 1743.132;   97.792;  269.375
452.759;  351.457;  512.781;  864.395
453.047;   96.768; -407.212; -125.617
453.334;   63.190; -732.219; -216.606
453.621;   52.531; -438.214; -161.615
453.909;   96.865;   13.796;  384.368
454.196;   84.785; -299.199; -123.641
454.483;  195.111;  317.798;  540.364
454.771;  104.410; -215.208;  196.374
455.058;   53.563; -316.207;  102.374
455.345;   95.340;   71.807;  344.347
455.632;   95.291; -128.207;  235.373
455.919;   51.683;  -82.196;  182.354
456.207;  -53.535; -774.198; -450.642
456.494;  -20.652; -475.200;  -66.639
456.781;   -0.868; -399.202; -198.635
457.068;   40.823; -253.206;  -29.628
457.355;   -7.601; -698.206; -401.629
457.642;   -5.021; -552.205; -290.630
457.929;   -6.569; -778.194; -417.651
458.216;   51.668; -575.212; -354.617
458.503;  252.811; -173.193;  -19.652
458.790;  232.458; -864.208; -630.625
459.077;  258.987;  -77.202;  110.364
459.364;  804.249; -350.195; -210.649
459.651; 1738.646;  -46.206;  220.372
459.938;  809.273; -864.209; -665.623
460.225;  133.215;  132.799;  276.363
460.512;  -64.570; -836.197; -688.645
460.799;  102.522;  -32.218;  320.392
461.086;   44.403; -370.200; -251.640
461.372;   43.815; -509.198; -279.642
461.659;   80.259; -165.196;  108.354
461.946;   43.685; -445.193;  -54.651
462.233;  220.950;  842.800;  888.361
462.519;  338.572; -814.201; -464.639
462.806; 1019.506; -768.197; -497.645
463.093;  898.580; -445.191;  -66.656
463.380;  -39.329; -920.186; -824.664
463.666;   54.232; -259.197;  -18.646
463.953;   92.094; -406.195; -243.648
464.239;  200.244; -173.195;  -77.648
464.526;  381.455;  413.806;  743.350
464.813;  303.767; -565.190; -304.658
465.099;  332.486;  606.807;  607.348
465.386;  305.990;  903.807;  921.348
465.672;    7.256; -694.197; -522.645
465.959;    4.435; -598.188; -520.662
466.245;   -0.060; -468.193; -359.652
466.532;   75.567; -109.195;   63.352
466.818;   50.746; -357.186; -216.664
467.104;  -16.614; -488.182; -415.672
467.391;  -26.106; -628.189; -459.658
467.677;   36.375; -289.186;    9.335
467.964;    0.825; -682.189; -471.660
468.250;   43.502; -331.186; -160.665
468.536;   63.570;   90.811;  180.341
468.822;  -28.561; -821.184; -574.668
469.109;  144.017;  351.827;  471.311
469.395;  199.124;  729.808;  787.346
469.681;  185.248;   46.811;  156.341
469.967; 1267.728; -699.188; -382.660
470.254; 2722.286; -494.188; -306.662
470.540; 1776.383; -601.196; -476.646
470.826;  244.347; -488.181; -397.675
471.112;  296.318;  288.816;  113.331
471.398;   77.897; -253.183;  -58.670
471.684;   40.725; -626.177; -447.680
471.970;  -14.449; -918.180; -981.675
472.256;   35.623; -521.192; -441.654
472.542;   14.677; -499.171; -434.691
472.828;    5.907; -743.182; -607.672
473.114;   16.971; -380.166; -283.700
473.400;    5.767; -504.175; -293.684
473.686;   16.202; -452.166; -400.701
473.972;   44.606; -230.174; -131.687
474.258;  -41.733; -925.173; -843.689
474.544;  231.617; -183.178;   -2.679
474.830;  335.769;  -65.175;   45.316
475.116;  528.968; -123.190; -196.658
475.401;  682.953; -558.180; -467.676
475.687;  203.102; -725.180; -718.676
475.973;   -1.760; -673.181; -770.673
476.259;  237.821;  736.825;  764.315
476.544;  361.658; -539.176; -437.682
476.830;  862.899; -398.172; -322.690
477.116;  787.432; -430.177; -336.682
477.401;  156.478;  346.820;  358.324
477.687;  -30.858; -289.175; -405.684
477.973;   40.669;   21.819;   28.326
478.258;   -6.603; -448.163; -348.706
478.544;   46.633;   21.815;   61.334
478.829;  -65.517; -818.171; -738.692
479.115;  -43.127; -749.172; -651.690
479.401;  -28.723; -444.174; -449.686
479.686;   37.352; -253.180;  -74.676
479.972;  -33.128; -886.178; -776.680
480.257;   40.697; -258.166;  -65.700
480.542;   -4.288; -614.170; -469.693
480.828;  237.440; 1288.824; 1392.317
481.113;  -33.637; -464.176; -426.683
481.399;  -10.854; -236.161; -202.711
481.684;  -61.478; -620.166; -462.700
481.969;   20.635; -158.159;  -73.713
482.255;  -14.452; -439.169; -285.695
482.540;   21.673; -569.178; -441.680
482.825;    0.666; -395.187; -404.663
483.110;  102.701;  -85.169; -105.696
483.396;  208.781; -840.157; -652.718
483.681;  535.982;  543.826;  730.313
483.966;  178.704; -696.160; -700.712
484.251;   12.056; -404.174; -310.687
484.536;   -3.193; -356.165; -378.703
484.822;   31.209; -205.173; -218.687
485.107;  -31.931; -599.152; -502.726
485.392;  119.413;  662.836;  541.296
485.677;   79.011;  354.832;  163.302
485.962;  102.729;  160.843;  270.283
486.247;   91.805;  -14.162;   -8.707
486.532;   43.748; -178.166; -325.701
486.817;  163.891;  381.839;  431.291
487.102;  110.152; -453.154; -514.722
487.387;  686.758; -637.156; -652.718
487.672; 1258.468; -154.164;  -38.705
487.957;  776.373; -394.160; -286.711
488.241;  222.761; -290.150; -314.729
488.526;  780.770; -280.152; -148.726
488.811; 1266.449; -881.177; -818.680
489.096;  944.655; -666.154; -702.723
489.381;  515.367;    3.847;  162.275
489.666;  422.246; -428.161; -510.710
489.950;  182.908;  558.846;  627.277
490.235;  -35.269; -480.151; -458.728
490.520;  -44.030; -756.161; -723.710
490.804;  -63.190; -827.156; -736.719
491.089;    1.426; -469.149; -299.732
491.374;   32.067; -132.164;  -75.704
491.658;  -18.737; -817.147; -717.735
491.943;  136.150; -657.152; -609.727
492.227;  232.798; -178.155;  -38.721
492.512;   44.228; -294.157; -341.717
492.797;  -67.730; -713.149; -716.731
493.081;  -70.909; -588.147; -598.735
493.366;  -44.779; -751.161; -635.711
493.650;  206.868;  831.859;  917.254
493.935;   35.212; -648.147; -447.734
494.219;  -34.194; -778.142; -687.743
494.503;  -50.010; -585.150; -487.730
494.788;   44.095;   46.842;   74.285
495.072;  111.612;  184.850;  434.271
495.356;  182.505; -463.148; -343.733
495.641;  431.772; -812.146; -736.736
495.925;  410.715; -976.156; -903.719
496.209;   26.101; -599.149; -451.732
496.494;  -52.819; -763.142; -544.744
496.778;    4.877; -364.154; -360.722
497.062;  -49.761; -819.156; -627.719
497.346;  -25.926; -869.160; -640.711
497.631;  153.958;  580.852;  560.266
497.915;   62.958;  -64.145;  175.261
498.199;   32.406; -341.157; -277.718
498.483;   36.469; -562.152; -508.725
498.767;  184.163;  301.850;  300.271
499.051;  192.999; -126.149; -100.732
499.335;   27.697; -693.149; -739.731
499.619;  -29.206; -381.129; -423.767
499.903;   13.797; -272.155;  -65.721
500.187;   24.884; -588.153; -316.724
500.471;   16.124; -796.152; -595.727
500.755;   89.595;   62.839;  -96.710
501.039;   -1.503; -270.155; -357.721
501.323;   84.645;  -21.141;  264.254
501.607;   25.498; -447.163; -503.706
501.891;   -2.042; -607.156; -512.718
502.174;  -37.631; -726.144; -585.741
502.458;   69.478;   89.849;  370.273
502.742;   36.744; -180.138; -191.751
503.026;  107.312; -412.147; -254.734
503.310;  192.583; -437.159; -375.713
503.593;  124.813; -464.147; -325.735
503.877;  106.434; -232.133; -156.760
504.161;  166.237;    2.847;  -50.724
504.444;  127.297; -841.158; -710.716
504.728;  478.616; -487.164; -522.704
505.012;  756.610; -257.150;  -76.729
505.295;  562.621; -417.161; -212.711
505.579;  592.964; -256.156; -496.719
505.862;  800.879; -555.145; -333.738
506.146;  792.186; -681.159; -758.714
506.429;  445.486;  568.841;  461.286
506.713;   55.782; -732.151; -667.728
506.996;  329.002;   90.846;  295.278
507.280;  344.111; -633.165; -474.703
507.563;  260.870; -469.155; -261.721
507.847;  110.260; -423.153; -112.724
508.130;  106.972; -665.161; -456.711
508.413;  140.018; -758.167; -577.700
508.697;  264.168; -151.167;   12.300
508.980;  159.262; -422.153; -312.724
509.263;    1.767; -466.155; -450.720
509.547;   38.335; -124.150;   82.271
509.830;   47.499; -172.160;  140.289
510.113;   68.414;  128.844;  298.281
510.396;   39.217; -530.152; -300.725
510.680;   95.980; -818.145; -812.738
510.963;  461.706;  184.846;  180.277
511.246;  366.767; -493.150; -357.730
511.529;  242.285; -482.145;  -83.739
511.812;  389.531; -250.134;   10.241
512.095;  293.904; -740.151; -396.728
512.378;   76.492; -317.147; -245.736
512.661;   23.202; -703.137; -623.753
512.944;   25.283; -750.142; -637.744
513.227;   61.824; -170.137; -171.752
513.510;   16.444; -479.144; -671.741
513.793;   15.699; -485.140; -435.747
514.076;  135.415;  -43.127;  -39.771
514.359;  121.477; -294.149; -135.732
514.642;   78.336; -442.142; -567.744
514.925;  792.648;  581.860;  561.253
515.208; 1039.527; -498.134; -443.758
515.491;  735.441; -276.133; -182.761
515.773;  395.247; -410.143; -337.742
516.056; 2239.808;  249.864;  409.246
516.339; 2911.137; -754.136; -652.755
516.622; 1809.990; -518.150; -488.730
516.904; 1005.929;  882.857;  975.257
517.187;  449.572; -730.138; -523.752
517.470;  388.753; -568.143; -510.743
517.752;  455.865; -624.136; -470.756
518.035;  367.910; -708.139; -725.749
518.318;  403.262; -799.136; -744.755
518.600; 2598.394; -300.132; -325.762
518.883; 3605.560;  310.858;   88.256
519.165; 1726.315; -585.138; -426.751
519.448;  377.194;  -61.132;  -19.762
519.730;  175.822; -573.126; -415.773
520.013;  276.787;  588.867;  664.240
520.295;  650.407;  -94.134;  -15.759
520.578; 1420.182; -335.131; -305.764
520.860; 1646.069; -254.132;   56.238
521.143;  907.567; -763.135; -584.756
521.425;  474.060; -251.125; -279.775
521.707;  700.065; -622.127; -380.771
521.990; 1896.291; -199.127;  167.229
522.272; 2132.076; -116.140;   -4.748
522.554;  915.548; -237.143; -157.742
522.836;  325.730;  -24.134;   99.241
523.119;  208.761; -496.148; -189.734
523.401;  140.664; -448.130; -314.766
523.683;   83.427; -865.137; -693.753
523.965;  300.170;  408.862;  260.248
524.247;  302.306;   54.878;  170.220
524.529;  220.332; -451.134; -367.759
524.812;  346.491;   -3.130;  191.234
525.094;  900.820; -773.138; -631.751
525.376; 1423.869; -143.124;   78.223
525.658;  872.309; -441.136; -339.754
525.940;   32.054; -805.131; -671.764
526.222;   18.688; -188.136;  -88.755
526.504;   89.352; -190.131;   32.237
526.786;  143.135; -960.133; -647.760
527.068;  228.275; -124.123;  -67.778
527.349;   92.681; -865.137; -774.754
527.631;  127.644; -137.132;   22.238
527.913;  146.689; -664.127; -450.771
528.195;  185.778; -761.125; -639.774
528.477;  264.677;  -93.134;  -30.758
528.759;  134.216; -648.130; -522.766
529.040;   80.173; -569.123; -293.778
529.322;   49.731; -235.125;  -10.774
529.604;  128.168;  -47.130;   93.233
529.886;   92.247; -546.126; -302.773
530.167;  119.735;  232.870;  192.235
530.449;   44.567;    1.853;   63.265
530.731;   31.305; -572.122; -459.779
531.012;   74.276; -513.120; -216.784
531.294;  102.940; -118.116;  -43.792
531.575;  152.785;  290.875;  538.225
531.857;   69.347; -548.135; -266.757
532.138;   82.269; -113.141;   40.254
532.420;  166.893;  294.865;  403.244
532.701;  158.862; -722.133; -751.760
532.983;  304.690;  232.867;  182.239
533.264;   96.395; -243.126;  175.228
533.546;  -38.763; -491.136; -508.755
533.827;   38.909;  173.867;   -1.759
534.109;   30.872; -352.135;  -80.757
534.390;   68.973; -725.132; -582.762
534.671;  254.768; -270.135;  -82.756
534.953;  136.651; -751.123; -611.779
535.234;   31.250; -426.117; -255.789
535.515;  -78.041; -891.119; -735.785
535.796;  -17.565; -431.128; -193.770
536.078; -112.056;-1050.124; -904.777
536.359;   -4.223;  -22.123;    3.221
536.640;  -16.370; -480.125; -197.774
536.921;  158.248;  225.871;  143.232
537.202;  372.667;  -87.138;  -16.751
537.483;  498.906;  251.869;  377.236
537.764;  185.835;   17.870;   98.235
538.045;  -43.774; -543.134; -371.758
538.326;  -46.200; -596.129; -447.768
538.607;   15.641; -686.127; -476.771
538.888;  181.117;   98.879;    5.218
539.169;  192.487; -704.122; -535.781
539.450;  345.872;  236.871;   16.233
539.731;  227.296; -361.121; -182.783
540.012;  124.451;  199.880;  412.216
540.293;   86.514;   82.876;  158.224
540.574;   -0.264; -895.113; -717.796
540.855;  427.520;  435.879;  377.218
541.136;  527.734;   47.878;  139.220
541.416;  271.066; -161.130; -220.766
541.697;  195.227; -274.131; -170.763
541.978; 1110.395; -270.135; -315.757
542.259; 1388.666; -211.127; -236.771
542.539;  672.684; -191.116; -186.790
542.820;  187.210;  461.875;  480.225
543.101;  119.982;  -52.145;  -77.738
543.381;   25.591; -638.127; -591.771
543.662;  276.013;  159.873; -254.771
543.942;  595.261; -751.127; -830.770
544.223; 1103.911;  193.878;  161.219
544.504;  720.769; -275.124; -182.777
544.784;  640.572; -592.126; -408.773
545.065; 1740.488;  104.884; -254.791
545.345; 2036.335;  227.881;   14.215
545.626; 1342.285;  -14.113; -108.796
545.906;  949.334;   77.869;   98.235
546.186;  393.427;   92.874;  -95.773
546.467;  218.621;   99.877;  -95.778
546.747;  350.684;  264.884;  327.210
547.027;  410.392;   91.876;  111.223
547.308;  326.711; -376.127; -530.770
547.588;  431.150;  299.871;  371.232
547.868;  194.785;  458.870;  588.235
548.149;  212.920;  609.885;  593.207
548.429;  132.639; -347.127; -299.771
548.709;  209.626; -645.120; -461.784
548.989;  506.719;   84.882;   88.213
549.269; 2289.667;   10.868;  139.239
549.550; 5149.050;  215.877;  117.222
549.830; 4598.803; -758.111; -556.799
550.110;  935.085; -468.110; -320.801
550.390;  878.656; -128.122;  -56.779
550.670; 1209.206; -868.114; -783.795
550.950;  852.644; -509.121; -471.782
551.230;  195.140;  549.879;  460.218
551.510;   -7.232; -381.121; -326.782
551.790;   33.318; -173.109; -127.803
552.070;  279.796;  940.877; 1181.223
552.350;  438.638; -492.119; -377.786
552.630;  635.063;   -2.121;   77.219
552.909;  387.788;  181.884;   73.209
553.189;  272.899;  -49.132;   33.237
553.469;  206.363; -703.119; -514.786
553.749;  212.917; -469.127; -357.772
554.029;  186.204;   33.883;  -24.790
554.308;  158.999; -154.115;  -37.794
554.588;   78.584; -196.128; -204.770
554.868;   74.745; -366.121;  -47.782
555.147;  179.796; -114.115;  -46.793
555.427;  653.515; -260.116; -250.792
555.707; 4162.069; -284.115; -200.793
555.986; 5052.856; -719.111; -538.800
556.266; 2650.482;   23.884;   72.210
556.546;  140.843; -888.121; -675.782
556.825;  278.803; -657.114; -556.794
557.105; 1933.032; -125.128;   17.230
557.384; 2249.087;  122.884;  187.209
557.664;  867.815; -717.116; -508.792
557.943;  125.694; -557.121; -411.782
558.222;  201.047; -345.118; -344.788
558.502;  300.723; -116.115;  -76.793
558.781;  519.693;  194.885;  499.208
559.061;  416.972; -232.118; -227.788
559.340;  330.252;  302.883;  353.211
559.619;  759.082;   93.884;  148.210
559.899; 1126.904; -239.117; -266.789
560.178; 1028.247; -778.115; -593.793
560.457; 3400.630; -623.117; -562.790
560.736; 4671.482; -472.111; -482.800
561.015; 3129.905; -500.128; -502.769
561.295;  415.638;  180.893;  215.193
561.574;  344.320;  119.885;  116.207
561.853;  519.397;  274.891;  303.197
562.132;  526.125;  -45.114;  182.206
562.411;  473.339;  396.879;  553.219
562.690;  169.118; -592.115; -458.792
562.969;  158.167;  472.888;  630.203
563.248;  548.186; 2966.878; 2487.219
563.527;  295.906; -290.111; -408.800
563.806;  409.614; -650.127; -521.771
564.085;  459.253; -297.105; -206.810
564.364;  271.107; -594.117; -405.790
564.643;  543.664; -276.121; -223.781
564.922; 2039.791;  221.890;  397.198
565.201; 2044.045; -640.109; -700.803
565.479;  893.542; -297.115; -219.792
565.758;  333.358; -810.128; -712.770
566.037;  513.171; -155.109; -100.803
566.316;  242.337; -286.116;  -28.791
566.595;   58.944;  -17.115;  -12.793
566.873;   94.683; -166.111;  -79.801
567.152;  -42.809; -490.113; -590.797
567.431;   14.333; -113.116;    6.210
567.709;   18.338; -344.107; -212.807
567.988;  264.753; -810.114; -769.794
568.266;  558.544; -160.115;  -68.793
568.545;  419.924; -644.100; -514.819
568.824;  611.316;  160.885;  356.208
569.102;  608.253; -351.114; -235.794
569.381;  251.540; -492.116; -407.792
569.659;  -39.162; -553.113; -553.796
569.938;   44.360; -743.122; -465.780
570.216;  118.148; -225.109; -225.804
570.494;  -19.044; -632.114; -572.795
570.773;   46.918;  202.879;  114.218
571.051;    1.349; -373.123; -357.778
571.330;   52.310; -221.113; -174.796
571.608;   66.367; -181.098; -173.823
571.886;  -70.474; -671.111; -581.799
572.164;  -60.030; -739.121; -621.782
572.443;  -42.644; -562.105; -512.811
572.721;  -19.395; -399.117; -289.790
572.999;  -37.226; -280.117; -168.788
573.277;   98.600;  379.894;  620.191
573.555;  315.602;   94.894;   37.190
573.834; 1457.349;  -86.117; -114.788
574.112; 1701.015;  880.893;  811.193
574.390;  516.083; -143.111;  -96.801
574.668;    2.768;  -91.112;  -61.797
574.946;   -9.048; -165.106; -187.810
575.224;   13.570;   71.891;  -16.803
575.502;  -19.365; -200.116; -204.791
575.780;  -89.506; -767.112; -829.798
576.058;  209.657; 1589.889; 1004.200
576.336;  -26.638; -210.110; -129.801
576.614;  -37.856; -511.112; -340.798
576.891;   59.974; -711.115; -823.794
577.169;  517.531; -158.108; -285.805
577.447;  593.440;  169.893;  202.193
577.725;  281.923;  629.888;  854.201
578.003;   16.621;  -71.112; -371.798
578.280;   98.365; -208.104; -242.812
578.558;   49.073; -450.115; -422.793
578.836;  124.981; -210.114; -145.795
579.114;   49.867; -630.112; -670.797
579.391;   76.525;   -6.117;  -18.789
579.669;  -86.025; -595.114; -704.794
579.947;  179.986; -326.107; -127.806
580.224;  342.861; -692.107; -524.806
580.502;  332.390;  127.893;   76.193
580.779;   17.481;  -42.117;   75.210
581.057;  -59.726; -584.109; -470.804
581.334;  -93.745; -726.102; -695.815
581.612;   41.528;   54.895;  511.190
581.889;  -27.057;  -83.101; -129.818
582.167;  -25.068; -298.099; -190.821
582.444; -105.937; -845.102; -814.817
582.721;  111.414;  657.899;  715.183
582.999;   63.255; -326.100; -167.821
583.276;  574.878; -812.123; -713.779
583.553;  770.383; -364.102; -294.816
583.831;  267.062; -607.104; -631.812
584.108;   53.404;  349.892;  174.195
584.385;   14.305; -122.102;  -98.815
584.662;  -56.616; -651.111; -828.801
584.940;   29.308;  204.889;  204.199
585.217;  -21.438;  -73.113; -303.796
585.494;   40.167;   71.890;  118.198
585.771;  228.025; -250.109; -354.804
586.048;  514.387; -196.113;  -76.796
586.325;  322.411; -721.110; -773.801
586.602;   89.541;  230.896;  213.188
586.879;  -20.174; -499.100; -580.820
587.156;   61.104; -156.105; -331.810
587.433;  -45.189; -701.102; -667.817
587.710;   64.169;  152.888;  234.202
587.987;  304.909; -264.105; -236.811
588.264;  816.171;  315.888;  387.202
588.541; 1416.718;  -61.104;   26.187
588.818; 2762.377;   72.892;  171.196
589.095; 2415.489; -163.104; -174.812
589.371;  405.598; -459.109; -414.804
589.648;   14.665; -581.107; -437.807
589.925;   29.407; -517.114; -621.795
590.202;   31.194; -741.112; -607.798
590.478;   93.661; -166.105;  -73.811
590.755;  284.158; -241.108; -132.806
591.032; 2653.164; -741.110; -699.802
591.308; 3620.057; -732.094; -790.831
591.585; 1911.613; -573.110; -560.802
591.862;  148.287;-1056.102; -950.817
592.138;   70.830; -475.108; -474.805
592.415;  161.717; -486.104; -495.813
592.691; 1518.064;  460.896;  518.188
592.968; 1928.744; -208.098; -123.824
593.244;  914.584; -695.116; -595.790
593.521;   83.938; -105.102;  -42.817
593.797;  -26.968; -810.122; -720.780
594.074;  345.982; -611.096; -588.826
594.350;  689.768;  828.905;  729.172
594.626;  314.934; -303.111; -283.801
594.903;  132.963; -643.101; -645.817
595.179;  197.320;  243.896;  418.187
595.455;   10.841; -136.107; -150.807
595.731;   -7.903;  -19.103;  -38.814
596.008;  -41.372; -464.111; -434.800
596.284;   30.729; -187.100; -242.820
596.560;   58.413; -501.093; -493.833
596.836;  218.056; -173.105;  -70.810
597.112;  358.056; -582.108; -437.805
597.388;  309.280;  -49.097;  -48.826
597.665;  114.990;  437.887;  530.203
597.941;  -52.357; -572.089; -658.839
598.217;   19.192; -323.110; -293.802
598.493;  280.376;   61.891; -204.804
598.769;  533.023; -175.100;  -50.819
599.045;  344.159; -490.108; -562.806
599.321;   71.103; -193.100; -261.820
599.597;  156.825; -355.109; -476.804
599.872;  511.693;  409.896;  429.187
600.148;  381.906;  -61.097; -172.826
600.424;  309.389;   91.893;  202.193
600.700;  253.291; -170.107; -280.807
600.976;  130.975; -442.097; -464.825
601.252;  272.497; -226.109; -272.803
601.527;  243.719; -833.104; -840.813
601.803;  153.511; -453.105; -404.812
602.079;  183.148; -124.100; -118.819
602.354;  583.798; -620.092; -531.835
602.630;  857.387; -140.113; -482.796
602.906; 2526.018; -910.101; -863.818
603.181; 7129.613; -627.119; -534.786
603.457; 6000.129;   98.903; -278.826
603.733;  899.847; -605.120; -626.783
604.008; 1014.428; -245.106; -164.810
604.284; 3197.040; -636.101; -580.817
604.559; 2777.498;   -3.112;  -42.799
604.835;  514.306; -163.105; -225.810
605.110;  440.208; -732.099; -892.821
605.385;  717.841;  224.907;  267.167
605.661;  690.920; -625.095; -729.829
605.936; 1232.159; -664.108; -737.806
606.211; 1048.103;  -17.103; -170.815
606.487;  223.202; -329.114; -376.794
606.762;   11.614; -791.119; -745.786
607.037;   -8.944; -501.105; -433.810
607.313;  -49.086; -589.096; -574.828
607.588;    3.027; -375.106; -137.810
607.863;   39.693;  -28.101; -143.818
608.138;  204.415;  513.890;  516.198
608.413;   36.087; -576.099; -592.822
608.688;   56.606; -203.108; -267.805
608.964;  226.122; -509.106; -218.809
609.239;  272.428; -107.105; -212.810
609.514;  261.861;  281.895;  240.188
609.789;  691.540; -187.104; -716.812
610.064;  908.338; -435.096; -609.827
610.339;  925.598; -855.109; -799.804
610.614; 1285.378; -131.100; -315.820
610.889;  698.711;  215.895;  107.188
611.163;   44.262; -407.104; -591.812
611.438;   92.578;   81.886; -167.794
611.713;   17.815; -467.101; -499.817
611.988;   50.292; -144.101; -328.818
612.263;  -16.570; -771.102; -717.815
612.538;  239.512;  385.887;  251.204
612.812;  188.954; -832.100; -911.820
613.087;  160.267; -358.098; -338.823
613.362;  -40.509; -497.107; -557.807
613.637;   61.800;  261.897;  138.186
613.911;   -9.576; -256.092; -345.835
614.186;  144.590; -249.107; -292.807
614.460;  746.667; -842.081; -758.854
614.735;  839.766;  -55.087;  -17.843
615.010;  179.781;   43.912;  -82.841
615.284;  272.905;  360.892;  246.195
615.559;  377.098; -792.092; -955.835
615.833;  309.985;  -76.099;  -87.822
616.108;    5.159; -225.090; -390.837
616.382;  168.517;  274.913;  402.156
616.656;  178.235; -241.090; -232.837
616.931;  521.035; -785.099; -700.822
617.205; 1090.244; -973.104; -979.813
617.480; 1034.033;  -91.125;    6.225
617.754;  187.706; -396.125; -128.774
618.028;   30.426; -369.129; -382.768
618.302;   76.279;   73.892;  -25.805
618.577;  -36.649; -371.103; -518.815
618.851;  -52.131; -399.109; -600.803
619.125;  -50.168; -335.134; -378.759
619.399;  -42.705; -244.104; -374.813
619.673;  -37.884; -330.115; -515.792
619.947;  -44.169; -333.114; -448.795
620.222;  -20.215; -198.110; -204.801
620.496;   10.895;  -47.121;  -96.782
620.770;   27.786; -187.122;  -93.781
621.044;  225.329;  323.895;  346.190
621.318;  772.723; -653.120; -614.783
621.592;  684.745; -430.121; -409.783
621.866;  389.574; -476.112; -572.799
622.140;   16.910; -207.116; -356.791
622.413;   59.703;  138.889;  112.200
622.687;  -36.835; -746.101; -492.817
622.961;    8.254; -130.108; -143.805
623.235;  -65.571; -633.111; -661.800
623.509;  -99.364; -816.105; -848.811
623.783;   10.537;  -12.107;   48.193
624.056;  -21.651; -254.120; -280.783
624.330;   41.943;   63.888;   -3.797
624.604;   49.982; -271.116; -355.790
624.877;   66.739;  180.890;   26.198
625.151;   47.875; -249.114; -238.794
625.425;  -45.828; -150.103; -283.814
625.698;  -64.342; -367.119; -374.785
625.972; -100.008; -799.110; -765.802
626.245;   90.934;  685.884;  484.210
626.519;  -57.597; -426.120; -340.784
626.792;  -36.759; -192.107; -380.807
627.066;  -96.396; -485.122; -662.779
627.339; -102.037; -736.110; -663.802
627.613;   38.926;  351.880;  148.216
627.886;  -58.056;  187.891; -612.803
628.160;  -27.778;  312.880; -161.783
628.433; -100.664; -695.125; -703.775
628.706;  -79.422; -517.120; -615.784
628.979;   28.892;  296.876;  117.223
629.253;  -86.287; -785.119; -833.786
629.526;  395.795; -334.126; -253.772
629.799;  376.424; -641.123; -479.778
630.072;  181.878; -497.128; -516.769
630.346;  -60.016;-1115.116;-1080.790
630.619;  474.242; -467.107; -545.808
630.892;  664.355;  709.889;  593.200
631.165;  359.945;  790.896;  679.187
631.438;  -78.829;-1092.112;-1055.798
631.711;   60.127;  453.877;  257.221
631.984;  -59.971; -523.117; -624.789
632.257;  -66.100; -636.117; -681.789
632.530;  -47.717; -412.119; -433.785
632.803;   17.973; -109.115;    7.207
633.076;  -75.829; -360.123; -422.777
633.349;    5.707;  173.872;  121.231
633.622;  -44.718; -187.119; -240.785
633.895; -122.227; -903.120; -823.783
634.167;  -78.378; -496.126; -525.773
634.440;  -26.460;  -19.116; -137.792
634.713;  -13.888;  -22.119; -120.786
634.986;   94.122;  593.871;  453.233
635.258;  -62.203; -507.115; -597.793
635.531;   91.946;  742.882; -343.788
635.804;  -26.522; -303.117; -318.789
636.077;  -90.264; -830.116; -852.791
636.349;    1.970; -586.115; -474.793
636.622;  422.020; 1695.874; 1392.228
636.894;  249.853; -474.120; -909.784
637.167;  171.739; -836.127; -789.771
637.439;   27.835; -278.128; -213.770
637.712;  -42.829; -312.126; -293.772
637.984;  -96.788; -635.116; -707.791
638.257;  387.346;  515.877;  488.222
638.529;  568.862; -881.125; -924.776
638.802;  261.753; -508.128; -449.769
639.074; -120.314; -927.122; -952.781
639.346; -118.976; -942.135; -930.757
639.619;   -1.216;  -79.142; -319.744
639.891;   -9.796;  -83.122; -168.779
640.163;  -95.244; -689.122; -756.780
640.435;   32.258;  273.878;  103.220
640.708;    8.235;  -72.122; -132.780
640.980;  -40.838; -366.122; -362.781
641.252;  192.364;  -25.121;  -71.781
641.524; 1849.965;  580.879;  573.219
641.796; 1831.117;-1094.121; -907.782
642.068;  346.944; -191.121; -300.782
642.340;  -63.379; -486.121; -566.783
642.613;   40.723;  294.880;  323.217
642.885; -100.726; -787.120; -878.783
643.157;  -46.474; -810.120; -658.784
643.428;   53.303;  170.880;  218.216
643.700;  -75.170; -498.120; -425.784
643.972;  -18.343;  -16.119; -133.785
644.244;  -80.916; -474.119; -559.785
644.516;  -61.240; -250.119; -114.786
644.788;   70.712;  662.881;  548.214
645.060;  -29.236;  -12.119; -124.786
645.332;  -97.734; -525.118; -535.787
645.603;   25.793;  479.882;  342.213
645.875;  -66.706; -334.118; -369.787
646.147;  170.271; 1487.882; 1242.212
646.418;  -54.727; -931.117; -918.788
646.690;  157.525; -714.117; -715.789
646.962;   33.627; -413.117; -451.789
647.233;   -5.396;   15.883;   11.211
647.505; -101.395; -595.117; -475.790
647.776;   18.157;  328.884;  229.210
648.048;   -4.491; -248.116; -418.790
648.320;  -69.239; -752.116; -679.791
648.591; -157.612;-1055.116; -958.791
648.862;  -91.661; -505.116; -577.792
649.134;   24.191;  115.885;  198.208
649.405;  -51.907; -661.115; -618.792
649.677;  -48.605; -475.115; -598.793
649.948;  -12.703; -181.115; -296.793
650.219;  -12.576;  -37.115; -147.793
650.491;  -84.150; -431.114; -520.794
650.762; -120.098; -705.114; -731.794
651.033;  -81.896; -437.114; -424.795
651.304;  -83.094; -743.114; -728.795
651.576;  -74.692; -680.114; -645.795
651.847;  -43.166; -250.113; -140.796
652.118;  -28.464;  -32.113; -189.796
652.389; -103.512; -639.113; -722.796
652.660;  -46.785; -147.113;  -89.797
652.931; -147.933; -897.112; -871.797
653.202;  -97.632; -382.112; -541.798
653.473;  -58.205; -633.112; -533.798
653.744;  169.872; -595.112; -590.798
654.015;  157.674; -356.112; -303.799
654.286;  -67.249; -642.111; -663.799
654.557;  -53.247; -586.111; -521.799
654.828; -160.071;-1114.111;-1088.800
655.099;  -75.094; -404.111; -291.800
655.370;  -83.442; -427.111; -543.801
655.641; -121.815; -656.110; -714.801
655.911; -111.838; -618.110; -638.801
656.182;   41.763;  437.890;  387.198
656.453;   72.665;  830.890;  746.198
656.724;  -80.808; -466.110; -426.802
656.994;  -83.856; -553.109; -568.803
657.265; -110.404; -862.109; -873.803
657.536;  -94.127; -500.109; -377.804
657.806;  -96.976; -561.109; -593.804
658.077; -142.049; -866.109; -950.804
658.347;  -90.422; -523.108; -598.805
658.618; -127.045; -646.108; -694.805
658.888;  -24.918;  -41.108;  112.195
659.159;  -78.992; -432.108; -548.806
659.429;  -13.065; -292.108; -349.806
659.700;   13.187; -435.107; -390.807
659.970;  -12.736; -370.107; -359.807
660.241;   16.691; -754.107; -921.807
660.511;  528.643; -147.107; -174.808
660.781;  101.744; -793.106; -748.808
661.052;  -36.929; -222.106; -381.808
661.322;  -27.952;   21.894;   -9.809
661.592;   25.875;  257.894;  148.191
661.862;  -81.348; -369.106; -382.810
662.133;  -95.722; -551.105; -502.810
662.403; -127.020; -770.105; -676.810
662.673;  -56.343; -256.105; -213.811
662.943; -115.616; -612.105; -551.811
663.213;   -1.039;  -85.105;  -81.811
663.483;  -73.062; -593.104; -568.812
663.753;  -42.936; -194.104; -152.812
664.023;  -12.684;   68.896;  -32.813
664.293;  -45.707; -319.104; -126.813
664.563; -112.605; -694.104; -648.813
664.833; -118.428; -743.103; -608.814
665.103; -127.852; -730.103; -793.814
665.373; -122.475; -766.103; -806.814
665.643; -102.523; -863.103; -918.815
665.913;   45.554; -534.103; -714.815
666.182;  117.531; -685.102; -719.816
666.452;  273.758;  -22.102;  -89.816
666.722;  -34.891; -724.102; -784.816
666.992; -136.914; -948.102; -921.817
667.261; -111.812; -824.102; -808.817
667.531;  214.490;  134.899;   45.183
667.801;  521.267; -440.101; -412.818
668.070;  238.943;  714.899;  697.182
668.340; -110.805; -883.101; -840.819
668.609;   99.672;  588.900;  301.181
668.879;  -81.051; -490.100; -558.819
669.149;  -75.699; -539.100; -516.820
669.418; -114.372; -698.100; -726.820
669.688;  -26.196; -482.100; -666.820
669.957;   67.356; -423.099; -546.821
670.226;  -25.517; -268.099; -331.821
670.496; -107.965; -431.099; -635.822
670.765;  -87.363; -418.099; -501.822
671.034; -139.887; -872.099; -828.822
671.304;  -17.435;   55.902; -111.823
671.573; -158.383;-1085.098; -957.823
671.842;   87.894; -380.098; -294.823
672.112;   27.021; -692.098; -586.824
672.381;    1.123; -239.098; -214.824
672.650; -129.426;-1005.097;-1021.825
672.919; -102.549; -631.097; -507.825
673.188; -112.347; -681.097; -878.825
673.457; -151.270;-1101.097;-1143.826
673.726;  -85.743; -579.096; -646.826
673.995;  -36.842; -533.096; -479.826
674.265;  -18.015; -263.096; -333.827
674.534;   20.862; -183.096; -235.827
674.802;   15.039; -618.096; -703.828
675.071; 1121.316; -886.095; -801.828
675.340; 4088.843; -464.095; -339.828
675.609; 1375.269;  103.905;   82.171
675.878;   80.946; -949.095; -893.829
676.147;   20.073;  -26.095;   -8.829
676.416;   90.825; -210.094; -294.830
676.685;  770.852; 1000.906; -622.830
676.953;  119.628; -603.094; -452.831
677.222;  -37.645; -193.094; -273.831
677.491;  -21.518;  -24.094; -127.831
677.759;  -18.941;   11.907;  172.168
678.028;  -15.739; -279.093; -222.832
678.297;   -9.862;   71.907;  197.168
678.565; -145.811; -898.093; -944.833
678.834;  -58.584; -311.093; -268.833
679.102;  -83.757; -411.092; -391.834
679.371; -144.405; -898.092; -727.834
679.639; -134.878; -797.092; -786.834
679.908; -122.702; -794.092; -724.835
680.176; -161.075; -895.091; -941.835
680.445;  -68.098; -346.091; -352.835
680.713;  -20.446;  -58.091;  -23.836
680.982;  -98.019; -523.091; -525.836
681.250; -112.092; -578.091; -507.837
681.518; -101.616; -534.090; -751.837
681.787;  -15.539; -204.090; -167.837
682.055;  -66.612; -490.090; -422.838
682.323; -165.560; -993.090; -992.838
682.591;   32.417; -216.090; -538.838
682.859;   96.393;    9.911;  -35.839
683.128;   17.395;  232.911;  497.161
683.396; -160.678;-1102.089;-1122.840
683.664;  -39.051; -241.089;   21.160
683.932;   -0.699;  144.911;  -76.840
684.200; -100.822; -576.088; -320.841
684.468;  -33.821;  -73.088; -124.841
684.736;  -32.269; -214.088; -175.841
685.004; -123.242;-1024.088; -982.842
685.272;  -49.215; -880.088; -774.842
685.540;  -60.488; -499.087; -557.843
685.808;  -90.812; -651.087; -682.843
686.076; -101.510; -894.087; -969.843
686.343;  -57.233; -601.087; -815.844
686.611;   51.819; -195.087; -224.844
686.879;  513.596; -530.086; -553.844
687.147; 3471.923; -483.086; -480.845
687.414;  980.274;  -12.086; -169.845
687.682;   -3.999; -658.086; -757.846
687.950;  326.928;  259.915;  263.154
688.217;   16.330; -792.085; -760.846
688.485;    0.557; -632.085; -636.847
688.753;  560.133;  -11.085; -102.847
689.020;  182.010; -820.085; -851.847
689.288; -106.963; -853.084; -787.848
689.555;  -18.786; -195.084; -148.848
689.823;  -50.659; -241.084; -345.849
690.090;  -86.232; -546.084; -651.849
690.358; -147.781; -877.084; -897.849
690.625;    8.746;  120.917;   45.150
690.892;  -74.677; -403.083; -369.850
691.160;  -30.425;   72.917;  -35.850
691.427;  -10.823;  141.917;  130.149
691.694; -135.297; -855.083; -929.851
691.962; -149.695;-1177.082;-1060.852
692.229;   26.832;  127.918;   56.148
692.496;   85.184;  130.918;  -49.852
692.763;   29.986; -164.082; -201.853
693.031;  -78.587; -739.082; -716.853
693.298;  -44.061; -509.081; -368.853
693.565;  365.666; -155.081; -163.854
693.832; 1318.943;   -5.081;   -9.854
694.099;  159.670; -643.081; -642.855
694.366;  -47.403; -882.081; -896.855
694.633;  -57.427; -920.080; -633.855
694.900;  769.775; 4367.920; -114.856
695.167;  443.002; -214.080; -380.856
695.434;   99.179; -646.080; -623.856
695.701;  183.756;  121.921;  -61.857
695.968;  478.282; -365.079; -361.857
696.234; 1042.634; -415.079; -646.858
696.501;10245.211; -776.079; -614.858
696.768; 5039.138; -554.079; -617.858
697.035;  308.165; -632.078; -667.859
697.302;   20.567; -448.078; -552.859
697.568;   -0.257; -458.078; -497.859
697.835;  -53.480; -683.078; -624.860
698.102;  -24.278; -498.078; -407.860
698.368;   78.924;  384.923;  396.139
698.635;  -24.649;  -47.077; -424.861
698.901;  -29.023; -240.077; -348.861
699.168;   77.529; -534.077; -456.862
699.435;   64.331;  -72.077;  -13.862
699.701; -118.092; -868.076; -764.862
699.968;  -57.915;  144.924; -441.863
700.234;  -95.538; -783.076; -822.863
700.500;  -58.462; -448.076; -539.864
700.767;   -5.860;   -1.075;   26.136
701.033; -131.683;-1015.075; -963.864
701.299;  -53.906; -450.075; -483.865
701.566;  116.646;  950.925;  763.135
701.832;   34.772;  -31.075;  -76.865
702.098; -102.376;-1054.074;-1034.866
702.365;  -92.549;-1098.074;-1030.866
702.631;  -28.822;-1038.074;-1063.867
702.897; 1467.430; -765.074; -676.867
703.163; 2242.332;  348.926;  254.133
703.429;  170.658; -256.073; -273.868
703.695;  -43.865; -796.073; -792.868
703.961;   14.012; -214.073; -210.868
704.227;  -56.986; -630.073; -725.869
704.493;  128.991;  613.927;  510.131
704.759;  -23.308; -565.072; -540.870
705.025;   40.419; -203.072; -194.870
705.291;  -21.479; -666.072; -562.870
705.557;  187.748;  719.928;   34.129
705.823;   25.700; -742.072; -694.871
706.089;  124.252; -307.071; -326.871
706.355;  349.928; -315.071; -244.872
706.620; 5357.530; -776.071; -729.872
706.886; 7433.607; -309.071; -362.873
707.152;  700.534; -818.070; -973.873
707.418;  -23.289;-1153.070;-1186.873
707.683;  -12.713; -550.070; -530.874
707.949;  -57.161; -547.070; -578.874
708.215;    0.491; -129.070; -207.874
708.480;  -31.232; -520.069; -420.875
708.746;  103.745;   68.931;   28.125
709.011;  -70.603; -578.069; -612.876
709.277;  -81.027; -538.069; -543.876
709.542;  -57.275; -428.069; -387.876
709.808;  -21.873;  -59.068;   89.123
710.073;  -83.071; -577.068; -695.877
710.339;  -19.344; -242.068; -228.877
710.604;   81.107; -780.068; -845.878
710.869;  326.259; -277.068; -366.878
711.135;  -64.289; -715.067; -628.879
711.400;  -86.487; -507.067; -608.879
711.665;  -66.385; -404.067; -479.879
711.931; -106.058; -661.067; -677.880
712.196; -128.632; -876.067; -954.880
712.461;  120.845; -402.066; -490.880
712.726;  152.047; -727.066; -771.881
712.991;  -77.876; -647.066; -664.881
713.256;  -54.874; -350.066; -332.882
713.521;  -67.998; -417.065; -381.882
713.787;  -67.296; -454.065; -472.882
714.052;  -42.594; -214.065; -400.883
714.317;  -98.367;-1045.065; -981.883
714.581; 1022.985; -374.065; -268.883
714.846; 1284.562; -822.064; -888.884
715.111;  136.888;  261.936;  257.116
715.376;  -39.710;  -86.064; -223.885
715.641;  -24.533; -365.064; -367.885
715.906;  316.719;   15.936; -551.885
716.171;  136.921;  221.937;  209.114
716.436;   26.497;  -78.063; -104.886
716.700; -115.576; -818.063; -692.886
716.965; -123.974; -794.063; -807.887
717.230;  -68.547; -339.063; -392.887
717.494;  -26.370;  -40.062; -134.888
717.759;  -93.868; -784.062; -640.888
718.024;    4.733;  269.938;  250.112
718.288;   65.485;  685.938;  395.111
718.553; -148.263; -803.062; -977.889
718.817; -139.336; -883.061; -899.889
719.082;  -44.734; -115.061; -125.890
719.346; -149.983;-1000.061; -947.890
719.611;  -46.531; -300.061; -255.891
719.875;  -92.704; -568.060; -537.891
720.140;  -64.877; -453.060; -603.891
720.404;   34.550; -136.060; -249.892
720.668;  886.052; -475.060; -411.892
720.933;  332.428;  146.940;  137.108
721.197;  -89.945; -667.059; -600.893
721.461; -133.968; -851.059; -826.893
721.725;  -21.066;  -21.059; -250.894
721.990;  -54.139; -284.059; -204.894
722.254;  -35.513;  -26.059; -108.894
722.518;  -76.061; -286.058; -442.895
722.782;  -98.584; -743.058; -594.895
723.046;  136.593;  614.942;  570.105
723.310;   32.370;  374.942;  210.104
723.574; -107.303; -654.058; -614.896
723.838; -104.902; -576.057; -642.897
724.102;  -48.850; -226.057; -239.897
724.366; -137.523;-1032.057; -978.897
724.630; -106.321; -749.057; -571.898
724.894;  -72.694; -722.057; -514.898
725.158;  -19.368;   38.944; -295.898
725.422;  -59.766; -394.056; -327.899
725.685;  -57.714; -441.056; -349.899
725.949;  -93.812; -566.056; -519.900
726.213;  -73.460; -732.056; -811.900
726.477;  180.692;-1020.055; -933.900
726.740;  151.768; -274.055; -104.901
727.004;  353.645; -384.055; -510.901
727.268; 3249.847; -442.055; -400.901
727.531;  833.849; -961.055; -775.902
727.795;  -47.274; -713.054; -673.902
728.059;  -60.898; -552.054; -557.903
728.322;  -83.421; -841.054; -669.903
728.586;   33.756; -692.054; -701.903
728.849;  -89.667; -695.053; -756.904
729.112; -129.565; -812.053; -912.904
729.376; -121.238; -959.053; -905.904
729.639;  -74.487; -536.053; -536.905
729.903; -114.635; -733.053; -699.905
730.166;  -60.458; -437.052; -399.906
730.429;   -9.831; -317.052; -468.906
730.693;  -66.729; -355.052; -894.906
730.956;  224.947;  810.948;  651.093
731.219;  710.024; -310.052; -103.907
731.482;  123.426;-1003.051; -894.907
731.745;   98.528; -794.051; -935.908
732.009;   17.905;  -30.051;   50.092
732.272; -103.018; -904.051; -771.909
732.535;  -37.117; -300.051; -310.909
732.798; -158.015;-1083.050;-1166.909
733.061;  -59.988; -430.050; -456.910
733.324;   -3.936;   31.950; -180.910
733.587;   66.041;  290.950;  365.090
733.850;  -79.158; -973.049;-1050.911
734.113;   37.194;   33.951;   32.089
734.376;   -0.129; -328.049; -447.912
734.639;  230.348; 1188.951; 1011.088
734.901;   72.250; -180.049; -402.912
735.164;  566.026; -883.048; -837.913
735.427; 1342.928; -166.048; -355.913
735.690;  117.855; -205.048; -234.913
735.952;  -40.068; -923.048; -925.914
736.215;  -33.266;-1113.048;-1009.914
736.478;   31.011; -771.047; -774.915
736.740;  224.787;   33.953;  129.085
737.003;  774.664; -658.047; -672.915
737.266; 4217.991;  -94.047;   46.084
737.528;  431.743; -682.047; -660.916
737.791;  315.120; -316.046; -327.916
738.053;  830.571;  465.954;  649.083
738.316;10936.848; -162.046; -136.917
738.578; 7151.800; -770.046; -736.918
738.841;  417.377; -382.046; -446.918
739.103;  178.504; -875.045; -777.918
739.365;  503.456;   79.955;  -69.919
739.628;  -17.593; -884.045; -805.919
739.890;  -43.466; -758.045; -710.919
740.152;  -46.889; -692.044; -754.920
740.414;    0.713; -408.044; -359.920
740.677;  -40.660; -785.044; -634.921
740.939;  -47.284; -587.044; -487.921
741.201;  286.318; -432.044; -572.921
741.463;   44.370; -689.043; -745.922
741.725;    6.947;  -21.043; -199.922
741.987;   47.924;  220.957;  116.078
742.249;   12.401; -751.043; -859.923
742.511;  237.377; -703.043; -794.923
742.773;   -4.921; -546.042; -546.924
743.035;  143.306;  796.958;  533.076
743.297;  -45.392; -963.042;-1013.924
743.559;  755.235; -278.042; -262.925
743.821;   61.236; -735.042; -744.925
744.083;   10.938;  -44.041; -149.925
744.345; -104.660; -869.041; -892.926
744.607;   58.492;   75.959;  122.074
744.868;  -58.131; -490.041; -554.927
745.130; -127.904; -994.041;-1008.927
745.392;   36.247;   -1.040;  -44.927
745.653;   -9.726; -411.040; -378.928
745.915;  168.876;  896.960;  631.072
746.177;   44.603;   35.960;  -43.928
746.438;    1.330; -428.040; -543.929
746.700;  -45.694; -947.039; -988.929
746.961;    3.833; -659.039; -740.930
747.223;  126.935; -190.039;  -74.930
747.484;   76.712; -391.039; -471.930
747.746;  156.664;  -23.038; -106.931
748.007;  111.466; -647.038; -689.931
748.269;  330.792; -468.038; -440.931
748.530;  483.694; -852.038; -638.932
748.791;  273.621; -354.038; -420.932
749.053;  435.673;  286.963;  163.067
749.314;  481.175; -236.037; -169.933
749.575;  498.026; -945.037; -905.933
749.836;  861.603; -217.037;   86.066
750.098; 2657.755;  -60.037;  -21.934
750.359;37908.882;  414.964;  555.066
750.620; 9009.284; -121.036; -220.935
750.881; 1057.136; -585.036; -513.935
751.142; 1389.462; -950.036; -938.936
751.403;17235.739; -789.036; -705.936
751.664; 6994.941;-1034.035; -999.936
751.925;  469.293; -175.035; -262.937
752.186;  269.170; -298.035; -278.937
752.447;  143.571; -590.035; -445.937
752.708;   52.898; -532.035; -648.938
752.969;    4.100; -566.034; -576.938
753.230;  -12.073; -777.034; -672.939
753.491;   -7.021; -650.034; -631.939
753.751;   70.506;  109.966;   19.061
754.012;   95.832;  258.967;  181.060
754.273;   61.209; -174.033;  -71.940
754.534;    1.011; -487.033; -580.940
754.794;  -92.237; -926.033; -911.941
755.055;  134.190; 1051.967;  881.059
755.316;  -40.759; -700.032; -566.942
755.576;  -31.907; -606.032; -576.942
755.837;  -44.780; -527.032; -695.942
756.097;  -42.278; -530.032; -564.943
756.358;  -83.276; -725.032; -770.943
756.618;  -62.849; -705.031; -641.943
756.879;    1.627; -254.031; -349.944
757.139; -125.921;-1098.031;-1116.944
757.400;  -72.194; -538.031; -553.945
757.660;  -11.592; -365.031; -401.945
757.920;    0.535; -266.030; -228.945
758.181;   -8.789; -468.030; -351.946
758.441;  -98.737; -870.030; -809.946
758.701;  -32.985; -308.030; -215.946
758.961;  -21.533; -220.030; -278.947
759.222;  -57.481; -574.029; -502.947
759.482;  -71.929; -683.029; -723.948
759.742;  -84.603; -706.029; -547.948
760.002;    5.949;  -83.029; -143.948
760.262;   28.801;   50.972;  182.051
760.522;  -54.147; -498.028; -574.949
760.782;  -63.820; -738.028; -612.949
761.042;  -39.444; -618.028; -573.950
761.302;   63.583;   55.972;  -18.950
761.562;   43.060; -164.027; -154.951
761.822;   78.887; -710.027; -551.951
762.082;  -52.436;-1104.027;-1093.951
762.342;   77.741; -328.027; -403.952
762.601;   65.642; -567.027; -506.952
762.861;  374.069; -281.026; -207.952
763.121;  410.096; -406.026; -411.953
763.381; 7733.698; -499.026; -485.953
763.640; 7751.700; -139.026; -307.954
763.900;  347.976; -242.026; -203.954
764.160;   74.553; -458.025; -491.954
764.419;  -31.745; -726.025; -782.955
764.679;  -61.993; -795.025; -726.955
764.939;   -5.566; -124.025; -210.955
765.198;  -83.739; -608.025; -563.956
765.458;  -82.538; -710.024; -612.956
765.717;  -87.161; -454.024; -590.957
765.976;  -49.584; -428.024; -411.957
766.236;  -76.632; -475.024; -610.957
766.495;   26.270;  260.977;   73.042
766.755; -105.929;-1090.023; -987.958
767.014;   10.473; -594.023; -665.958
767.273;  -49.150; -373.023; -397.959
767.533;  -54.373; -228.023; -307.959
767.792;  -35.846; -151.022; -188.960
768.051;  -39.419; -228.022; -276.960
768.310;  -83.868; -546.022; -650.960
768.569;   -1.841; -161.022;    4.039
768.828;  -29.564; -285.022; -363.961
769.088; -117.337;-1050.021; -942.961
769.347;  -91.635; -755.021; -599.962
769.606;  -89.009; -876.021; -857.962
769.865; -129.857;-1016.021;-1033.963
770.124;   13.770; -411.021; -336.963
770.383;  -52.928; -778.020; -910.963
770.641;   -8.551; -398.020; -400.964
770.900;  -78.849; -953.020; -846.964
771.159;  -49.423; -851.020; -951.964
771.418;  -37.096; -917.020; -779.965
771.677;  127.581; -224.019; -293.965
771.936;  116.958; -794.019; -865.966
772.194; 2293.460; -465.019; -437.966
772.453;10472.511; -213.019; -391.966
772.712;  720.088;  416.982;  329.033
772.970;  113.290;   32.982;   63.033
773.229;   77.292;  -22.018;  102.033
773.488;  -84.656; -814.018; -770.968
773.746;   39.721;  296.982;  335.032
774.005;    1.172;  190.983;  -22.969
774.263;    9.249;  243.983;  177.031
774.522; -105.524; -422.017; -548.969
774.780;  -76.672; -484.017; -417.970
775.039;  -94.020; -551.017; -531.970
775.297;  -17.944; -135.016; -351.970
775.555; -119.892; -489.016; -612.971
775.814; -126.540; -618.016; -570.971
776.072; -120.538; -749.016; -740.971
776.330; -123.236; -630.016; -520.972
776.589; -121.435; -703.015; -721.972
776.847; -119.533; -645.015; -624.973
777.105; -182.456;-1016.015;-1032.973
777.363;  -91.854; -459.015; -454.973
777.621; -152.427; -660.015; -717.974
777.879;  -38.175;  -42.014;   32.026
778.138; -101.474; -554.014; -717.974
778.396; -103.997; -585.014; -526.975
778.654; -177.420;-1015.014; -970.975
778.912;  -67.793; -269.014; -371.976
779.170; -133.691; -880.013; -803.976
779.427; -153.090; -922.013; -897.976
779.685; -139.663; -880.013; -832.977
779.943;  -86.461; -654.013; -593.977
780.201; -174.184; -964.012; -883.978
780.459; -119.057; -651.012; -610.978
780.717;  -92.655; -440.012; -390.978
780.974; -103.129; -449.012; -490.979
781.232;  -77.302; -358.012; -338.979
781.490;  -86.025; -551.011; -472.979
781.747;  -95.073; -555.011; -476.980
782.005;   22.904;  462.989;  254.020
782.263; -171.570; -542.011;-1004.981
782.520;  -93.493; -326.011; -501.981
782.778; -176.191;-1013.010;-1051.981
783.035; -174.464; -962.010; -938.982
783.293;  -61.262; -248.010; -206.982
783.550;  -45.510; -134.010; -198.982
783.808; -139.934; -764.010; -776.983
784.065; -162.757; -745.009; -874.983
784.322;  -41.655;   25.991;  -86.984
784.580; -142.053; -915.009; -771.984
784.837;  -90.151; -392.009; -466.984
785.094; -136.250; -783.009; -762.985
785.352;  -75.423; -304.008; -404.985
785.609; -104.896; -934.008; -839.985
785.866;  -74.494; -345.008; -401.986
786.123;  -59.717; -639.008; -583.986
786.380;  -99.740; -665.008; -604.987
786.637;  -39.614; -225.007; -380.987
786.895;  -30.187; -456.007; -543.987
787.152;  -48.835; -135.007; -267.988
787.409;  -45.133; -123.007; -225.988
787.666;  -88.206; -299.006; -378.988
787.923; -116.630; -616.006; -695.989
788.179;  -99.228; -551.006; -584.989
788.436; -108.576; -585.006; -585.990
788.693;  -30.399;  -92.006;  -87.990
788.950;  168.803; -125.005; -112.990
789.207;  206.130; -381.005; -372.991
789.464;  -57.644; -161.005; -301.991
789.720;  -14.042;  150.995;  110.009
789.977; -170.715;-1003.005; -671.992
790.234;  -19.213;   44.996;  -66.992
790.490; -160.261; -884.004;-1031.993
790.747;  -24.535;  -85.004;   22.007
791.004;  -25.583; -426.004; -348.993
791.260;  -68.231; -430.004; -560.994
791.517; -110.154; -843.003; -788.994
791.773;  -43.727; -379.003; -342.994
792.030; -105.650; -596.003; -660.995
792.286; -104.499; -686.003; -636.995
792.543;  -18.522;  -74.002; -159.995
792.799;  -60.070; -584.002; -382.996
793.055; -182.168;-1179.002;-1210.996
793.312;  -98.541; -827.002; -816.997
793.568;  -74.640; -746.002; -599.997
793.824;    3.037; -226.001; -284.997
794.081;   24.039; -447.001; -508.998
794.337;   59.366; -664.001; -561.998
794.593; 1470.293; -319.001; -271.999
794.849; 6528.045; -746.001; -772.999
795.105;  301.321; -270.000; -261.999
795.361;   -0.752; -490.000; -457.000
795.617;  -77.325; -875.000; -945.000
795.873;  -61.925; -360.000; -407.000
796.129;  -40.700; -368.000; -306.000
796.385;  -20.925; -124.000; -156.000
796.641;   63.350;  412.000;  550.000
796.897;  -78.275; -666.000; -635.000
797.153;   66.450;  453.000;  357.000
797.409; -112.200; -785.000; -868.000
797.665;  -76.550; -625.000; -732.000
797.921;  -96.100; -775.000; -762.000
798.176;  -68.425; -744.000; -747.000
798.432;  -53.025; -824.000; -596.000
798.688;  -82.700;-1174.000;-1078.000
798.943;   81.175; -165.000; -147.000
799.199;   -6.550;-1005.000; -959.000
799.455;  232.400;  369.000;  316.000
799.710;  119.900; -813.000; -380.000
799.966;  286.850; -162.000; -160.000
800.221;  448.925; -638.000; -721.000
800.477;10806.050; -743.000; -710.000
800.732; 8623.075; -773.000; -800.000
800.988;  591.500;  205.000;  -19.000
801.243; 1803.150; -454.000; -344.000
801.498; 6997.800; -814.000; -739.000
801.754;  374.575; -289.000; -163.000
802.009;   68.400; -257.000; -335.000
802.264;  -61.250; -967.000;-1033.000
802.520;   17.525;  222.000;   -3.000
802.775;  -56.050; -524.000; -359.000
803.030;   44.400;  395.000;  356.000
803.285; -117.450; -840.000; -903.000
803.540;  -45.350; -686.000; -699.000
803.795;  -49.350; -648.000; -583.000
804.051;  -45.375; -279.000; -346.000
804.306;   22.225;  168.000;  128.000
804.561;  142.650;  451.000;  362.000
804.816;  144.950;  714.000;  861.000
805.071;    6.000; -185.000; -280.000
805.325;  228.350; -257.000; -427.000
805.580; -115.150; -841.000; -877.000
805.835;  -17.800; -204.000; -297.000
806.090;  -79.850; -760.000; -676.000
806.345;  -20.600; -344.000; -264.000
806.600;  -29.575; -549.000; -632.000
806.854;  -37.325; -408.000; -538.000
807.109;   -6.725; -493.000; -577.000
807.364;    7.200; -407.000; -328.000
807.618;   -1.900; -415.000; -381.000
807.873;   40.475; -470.000; -494.000
808.128;   91.250; -257.000; -518.000
808.382;   91.075; -224.000; -332.000
808.637;   63.400; -440.000; -511.000
808.891;  182.000; -257.000; -180.000
809.146;  111.100; -902.000; -794.000
809.400;  286.075; -848.000; -923.000
809.654;  327.375; -779.000; -551.000
809.909;  505.550; -841.000; -927.000
810.163; 7427.800; -813.000; -651.000
810.418;17249.500; -940.000; -861.000
810.672; 1022.975; -685.000; -690.000
810.926;  701.475; -993.000; -973.000
811.180; 1425.200; -439.000; -372.000
811.434;31855.225;  240.000;  135.000
811.689;11432.800; -231.000; -365.000
811.943;  592.525; -936.000; -953.000
812.197;  309.125; -893.000; -671.000
812.451;  124.950; -379.000; -514.000
812.705;  -22.925; -809.000; -619.000
812.959;  -10.550; -263.000; -388.000
813.213;   -9.725; -283.000; -209.000
813.467;   64.925;  470.000;  253.000
813.721;  -99.750; -764.000; -792.000
813.975; -120.750; -826.000; -877.000
814.229;   55.625;  430.000;  353.000
814.482;  -84.225; -517.000; -566.000
814.736; -119.575; -766.000; -744.000
814.990; -141.050; -779.000; -872.000
815.244;  -44.475; -228.000; -285.000
815.497; -101.325; -636.000; -601.000
815.751;  -20.525; -141.000;   82.000
816.005;  -95.650; -470.000; -586.000
816.258;  -63.925; -510.000; -363.000
816.512; -123.000; -693.000; -610.000
816.766;   16.100;  121.000;  157.000
817.019;   15.875;  148.000;  149.000
817.273; -118.275;-1000.000; -802.000
817.526;  -36.400; -206.000; -173.000
817.779;  -39.450;-1049.000; -960.000
818.033;  -80.425; -693.000; -807.000
818.286; -132.600; -725.000; -792.000
818.540;  -89.600; -403.000; -403.000
818.793;  -84.725; -402.000; -489.000
819.046; -103.775; -582.000; -520.000
819.299;  -32.800; -157.000; -166.000
819.553; -110.600; -552.000; -592.000
819.806; -165.650;-1016.000; -838.000
820.059;  -65.200; -334.000; -354.000
820.312;   18.375;  152.000;  185.000
820.565;  -28.950;  110.000;  -27.000
820.818;  -51.000;  -59.000; -173.000
821.071; -163.375;-1041.000; -957.000
821.324; -112.275; -536.000; -540.000
821.577;  -99.550; -457.000; -483.000
821.830;  -59.450; -270.000; -172.000
822.083; -146.050; -733.000; -288.000
822.336;  -55.150; -261.000; -167.000
822.589; -155.375; -805.000; -688.000
822.842; -141.975; -875.000; -770.000
823.094; -181.875;-1076.000;-1114.000
823.347; -134.675; -925.000; -729.000
823.600;   12.025;  402.000;  187.000
823.853;  -47.050; -311.000; -267.000
824.105;  -78.375; -331.000; -575.000
824.358; -115.200; -617.000; -716.000
824.611;   22.550;  234.000;   40.000
824.863;  -62.000; -612.000; -591.000
825.116;   44.450;  -33.000;   27.000
825.368;   85.825; -366.000; -372.000
825.621;  152.275; -186.000; -240.000
825.873;   77.125; -704.000; -737.000
826.126;  643.775; -669.000; -641.000
826.378;11919.900; -389.000; -505.000
826.630; 2554.775; -890.000; -898.000
826.883;   42.925; -754.000; -693.000
827.135;   40.475; -279.000; -270.000
827.387; -119.625; -893.000; -839.000
827.639;  -31.550;  -86.000;   32.000
827.892; -135.350; -742.000; -582.000
828.144; -145.250; -848.000; -804.000
828.396;  -38.325;  104.000;  -80.000
828.648; -108.250; -440.000; -333.000
828.900; -152.850; -702.000; -795.000
829.152; -122.175; -684.000; -683.000
829.404;  -51.525; -215.000; -267.000
829.656;  -50.975;  321.000;  214.000
829.908;  -10.475;  393.000;  229.000
830.160; -178.825;-1064.000;-1047.000
830.412; -110.975; -481.000; -430.000
830.664; -130.325; -557.000; -665.000
830.916;  -81.275; -268.000; -206.000
831.167; -197.750;-1073.000; -951.000
831.419;  -99.875; -623.000; -566.000
831.671; -150.175; -764.000; -809.000
831.923;  -92.425; -311.000; -447.000
832.174;  -82.475; -273.000; -331.000
832.426; -122.400; -493.000; -582.000
832.678; -198.000;-1043.000;-1091.000
832.929; -165.900; -947.000; -935.000
833.181;  -72.850; -575.000; -677.000
833.432;  -51.225;  -59.000; -186.000
833.684;  -27.250;  112.000;  -27.000
833.935; -113.475; -610.000; -566.000
834.187; -139.025; -829.000; -823.000
834.438;  -52.550;  -58.000;  -25.000
834.689;  -48.825; -255.000; -123.000
834.941;  -57.825; -343.000; -244.000
835.192; -112.700; -590.000; -533.000
835.443; -100.300; -419.000; -506.000
835.695;  -17.525;  138.000;  -16.000
835.946;  -98.250; -608.000; -378.000
836.197; -117.775; -599.000; -622.000
836.448;  -89.150; -528.000; -395.000
836.699;  -55.000; -253.000; -341.000
836.950;   -5.000;   72.000;    7.000
837.201; -156.575;-1003.000; -987.000
837.452;  -61.375; -356.000; -170.000
837.703; -112.375; -791.000; -737.000
837.954;  -27.975; -205.000; -365.000
838.205;  -77.400;-1029.000;-1008.000
838.456;  192.125; -196.000; -282.000
838.707;   -3.475; -423.000; -519.000
838.958;   10.725; -634.000; -647.000
839.209;  297.925;   18.000;   40.000
839.460;  110.975; -439.000; -201.000
839.710;  167.925; -135.000; -297.000
839.961;  436.050;  730.000;  612.000
840.212;  337.825; -382.000; -497.000
840.462; 1203.450; -328.000; -277.000
840.713;18554.975; -571.000; -536.000
840.964; 6666.325;  -62.000; -143.000
841.214;  509.475; -384.000; -624.000
841.465;  583.250; -214.000; -141.000
841.715;  509.750; -417.000; -380.000
841.966;  692.125; -746.000; -685.000
842.216;10461.525; -330.000; -431.000
842.466;35494.475; -169.000; -313.000
842.717; 1724.850; -964.000; -952.000
842.967;  352.975; -635.000; -641.000
843.217;  277.650;   20.000;   28.000
843.468;   68.800; -104.000; -132.000
843.718;  -42.850; -718.000; -726.000
843.968;  -92.550; -837.000; -765.000
844.218;   26.525; -315.000; -262.000
844.469;  -54.725; -577.000; -561.000
844.719; -116.125; -537.000; -682.000
844.969;  -92.100; -550.000; -580.000
845.219; -159.025; -814.000; -862.000
845.469;  -74.125; -392.000; -342.000
845.719; -138.075; -792.000; -884.000
845.969;   -8.475;  119.000;  174.000
846.219; -115.200; -738.000; -720.000
846.469;   20.450;  464.000;  432.000
846.718;  -54.350; -115.000;   31.000
846.968; -137.875; -827.000; -827.000
847.218;  -50.950; -224.000; -371.000
847.468;   -5.750; -586.000; -555.000
847.718; -157.900; -827.000; -798.000
847.967; -140.475; -826.000; -915.000
848.217;  -89.750; -449.000; -569.000
848.467;  -72.300; -405.000; -376.000
848.716; -105.450; -708.000; -725.000
848.966;   21.000; -372.000; -358.000
849.215;  -60.650; -428.000; -419.000
849.465;  -98.100; -785.000; -615.000
849.714; -146.450;-1132.000;-1150.000
849.964;  -46.075; -551.000; -613.000
850.213;  -23.650; -393.000; -355.000
850.463;   61.475;  137.000;  340.000
850.712;   -7.275; -542.000; -567.000
850.961;   30.550; -739.000; -678.000
851.211;  109.150; -513.000; -504.000
851.460;  171.500; -635.000; -650.000
851.709;  576.800;  -25.000;   18.000
851.958;10847.575; -912.000; -750.000
852.208;11953.900; -859.000; -879.000
852.457;  434.175; -181.000;  -13.000
852.706;   63.375; -791.000; -823.000
852.955;    2.250; -507.000; -528.000
853.204;  -73.600; -521.000; -461.000
853.453;  -91.275; -418.000; -458.000
853.702; -136.675; -660.000; -750.000
853.951;  -98.050; -532.000; -520.000
854.200; -125.000; -613.000; -562.000
854.449; -128.150; -695.000; -661.000
854.698; -100.275; -340.000; -279.000
854.946;  -62.200; -181.000; -284.000
855.195; -154.875; -843.000; -868.000
855.444;  -94.375; -395.000; -420.000
855.693; -124.325; -345.000; -432.000
855.941; -109.975; -387.000; -516.000
856.190;  -70.525; -256.000; -382.000
856.439; -141.050; -652.000; -703.000
856.687;  -58.350;  -99.000;  -72.000
856.936; -126.375; -621.000; -323.000
857.184; -199.175;-1067.000;-1020.000
857.433;  -95.575; -423.000; -512.000
857.681; -168.325; -989.000; -953.000
857.930;  -69.775; -282.000; -433.000
858.178; -180.225; -856.000; -929.000
858.427; -163.400; -802.000; -781.000
858.675; -122.750; -377.000; -544.000
858.923; -110.700; -527.000; -819.000
859.172; -188.150;-1094.000;-1070.000
859.420;  -88.350; -339.000; -239.000
859.668; -151.200; -624.000; -628.000
859.916;  -21.825;  109.000;  115.000
860.164; -116.050; -699.000; -603.000
860.413;  313.700; -878.000; -696.000
860.661;  202.850; -709.000; -577.000
860.909;  -77.250; -339.000; -325.000
861.157; -104.000; -277.000; -444.000
861.405; -127.050; -534.000; -670.000
861.653;   26.275;  310.000;  310.000
861.901;  192.575; -543.000; -613.000
862.149;   -8.900; -801.000; -824.000
862.396;  -85.800; -297.000; -187.000
862.644;  -94.100; -368.000; -347.000
862.892;  -36.325;   98.000;  138.000
863.140; -121.925; -549.000; -530.000
863.388; -167.150; -815.000; -759.000
863.635; -139.525; -642.000; -601.000
863.883;  -20.675;  231.000;  190.000
864.131; -102.650; -288.000; -357.000
864.378; -134.775; -675.000; -540.000
864.626; -106.075; -347.000; -415.000
864.873; -117.600; -556.000; -505.000
865.121; -155.325; -714.000; -799.000
865.368;  -56.725; -173.000;   75.000
865.616;  -49.375;  -33.000;  -40.000
865.863;  -82.700; -462.000; -506.000
866.111; -120.100; -795.000; -824.000
866.358;   29.500; -426.000; -420.000
866.605; 2197.375;  -64.000; -804.000
866.853; 2007.100; -621.000; -537.000
867.100;  -54.400; -728.000; -775.000
867.347; -108.125; -672.000; -611.000
867.594;  -94.975; -740.000; -714.000
867.841;   90.625;   97.000;   17.000
868.089; -154.850; -746.000; -698.000
868.336;  -98.975; -477.000; -420.000
868.583; -157.350; -637.000; -741.000
868.830;  -65.050; -131.000; -170.000
869.077; -175.325; -859.000; -787.000
869.324; -135.800; -502.000; -458.000
869.571; -140.525; -398.000; -430.000
869.818; -122.950; -485.000; -439.000
870.065; -106.025; -439.000; -513.000
870.311; -110.450; -456.000; -542.000
870.558; -108.475; -332.000; -311.000
870.805;  -92.250; -320.000; -384.000
871.052; -119.700; -494.000; -369.000
871.298;  -43.125; -204.000; -131.000
871.545;  -64.650; -151.000; -185.000
871.792;  -95.575; -173.000; -222.000
872.038;  -77.450;   43.000; -126.000
872.285; -114.250; -496.000; -387.000
872.532; -101.525; -357.000; -387.000
872.778;    3.200;  556.000;  403.000
873.025;  -94.550; -384.000; -359.000
873.271;   13.875;  501.000;  578.000
873.517;  -28.500; -133.000; -209.000
873.764;  -38.700; -193.000;  -80.000
874.010;  -73.900; -143.000; -230.000
874.257;  -54.550;  123.000;   90.000
874.503; -144.475; -579.000; -479.000
874.749;  -81.900;   31.000;  275.000
874.995;  -75.250;  -80.000;  -20.000
875.242; -125.525; -540.000; -478.000
875.488; -121.000; -414.000; -439.000
875.734;  -47.875; -106.000; -234.000
875.980;  224.100; -872.000;-1032.000
876.226;  359.625; -157.000; -255.000
876.472;  -12.175;  343.000;  237.000
876.718;  -38.000;  184.000;  158.000
876.964;  -42.225;   56.000;   55.000
877.210; -167.775; -547.000; -677.000
877.456; -155.550; -630.000; -557.000
877.702; -184.050; -821.000; -832.000
877.948; -119.375; -377.000; -497.000
878.193;   -3.900;  361.000;  255.000
878.439; -107.075; -487.000; -472.000
878.685; -104.650; -272.000; -343.000
878.931; -134.575; -618.000; -676.000
879.176;  -81.950; -201.000; -201.000
879.422; -191.650; -933.000; -820.000
879.668;   44.150;   10.000;   79.000
879.913;  138.100;   53.000;  137.000
880.159;  -70.700; -112.000;  -17.000
880.404;  -54.675; -152.000; -162.000
880.650;  -42.100;   91.000;  141.000
880.895; -162.325; -670.000; -710.000
881.141; -128.875; -454.000; -428.000
881.386; -154.200; -503.000; -658.000
881.631;  -84.125; -311.000; -166.000
881.877;  -48.825;  112.000;  -13.000
882.122; -136.650; -684.000; -600.000
882.367;  -96.675; -136.000; -186.000
882.612;  -78.750;  -80.000; -176.000
882.858; -186.475; -877.000; -823.000
883.103; -111.975; -297.000; -267.000
883.348; -159.375; -759.000; -852.000
883.593; -141.400; -677.000; -602.000
883.838;  -51.850; -311.000;  -24.000
884.083;   28.325;  353.000;  288.000
884.328; -106.400; -564.000; -545.000
884.573;  -54.475; -196.000; -143.000
884.818;  215.975; -694.000; -531.000
885.063;  178.775; -348.000; -315.000
885.308; -113.425; -475.000; -398.000
885.553;  -28.650;  245.000;  325.000
885.797; -130.050; -545.000; -615.000
886.042;  -57.800;    8.000;   58.000
886.287;  -89.350; -253.000; -211.000
886.532;  -50.200;   26.000;  204.000
886.776; -102.575; -407.000; -525.000
887.021; -158.600; -621.000; -574.000
887.265; -164.675; -685.000; -689.000
887.510; -136.600; -557.000; -496.000
887.755;  -95.825; -194.000; -164.000
887.999; -143.725; -552.000; -575.000
888.244;  -75.500;  -58.000;  161.000
888.488;   -5.250;  371.000;  393.000
888.732; -128.300; -368.000; -520.000
888.977; -140.125; -622.000; -567.000
889.221; -172.000; -683.000; -659.000
889.465; -118.500; -422.000; -566.000
889.710;  -82.175;  -56.000; -299.000
889.954;   -5.625;  579.000;  467.000
890.198; -151.225; -584.000; -707.000
890.442; -175.125; -716.000; -712.000
890.687; -171.375; -800.000; -753.000
890.931;  -96.875; -273.000; -210.000
891.175; -144.700; -502.000; -500.000
891.419;  -76.325; -105.000; -110.000
891.663; -102.525; -239.000; -112.000
891.907; -160.900; -801.000; -545.000
892.151; -191.900; -920.000; -815.000
892.395; -115.700; -274.000; -387.000
892.638;  -18.550;  408.000;  291.000
892.882; -173.925; -780.000; -867.000
893.126;    3.250;  758.000;  558.000
893.370;  -87.150; -167.000; -168.000
893.614; -155.625; -714.000; -715.000
893.857; -102.375; -183.000; -197.000
894.101; -163.700; -527.000; -631.000
894.345;  -56.625;  300.000;  150.000
894.588;   17.725;  569.000;  380.000
894.832;  -91.900; -178.000;  -84.000
895.075;  -73.425;   15.000;  -92.000
895.319; -129.425; -552.000; -420.000
895.563; -126.200; -413.000; -353.000
895.806; -162.700; -628.000; -741.000
896.049;  -73.475; -576.000; -368.000
896.293;   92.500;  527.000;  405.000
896.536;  -98.600; -465.000; -468.000
896.779;  -58.600; -149.000;   -1.000
897.023; -153.475; -751.000; -714.000
897.266;  -37.500;  325.000;  269.000
897.509; -203.300; -900.000; -901.000
897.752;  -58.725;  149.000;  171.000
897.996; -198.225; -972.000; -864.000
898.239;  -55.325;  168.000;  102.000
898.482; -142.825; -431.000; -453.000
898.725;  -21.750;  101.000;   53.000
898.968; -169.575; -609.000; -744.000
899.211; -108.975; -513.000; -361.000
899.454; -123.425; -633.000; -539.000
899.697;  -67.250;   90.000;  -43.000
899.940; -184.075; -761.000; -757.000
900.182;  -99.250; -335.000; -405.000
900.425;  -89.575; -150.000; -298.000
900.668;  -41.850;  491.000;  350.000
900.911; -111.225; -292.000; -345.000
901.154;  -50.925;  141.000;   -3.000
901.396; -146.125; -407.000; -412.000
901.639; -154.900; -430.000; -496.000
901.882; -184.975; -790.000; -809.000
902.124;  -87.975;  -29.000; -143.000
902.367; -122.800; -315.000; -361.000
902.609; -139.900; -476.000; -453.000
902.852;  -94.475; -108.000; -260.000
903.094; -125.550; -458.000; -337.000
903.337;  -64.700;  -26.000;   53.000
903.579; -110.275; -228.000; -441.000
903.821; -166.625; -597.000; -744.000
904.064;  -66.275;   85.000;  127.000
904.306; -107.225; -126.000; -166.000
904.548; -107.100; -152.000; -366.000
904.790;  -99.300; -195.000; -340.000
905.033; -135.825; -625.000; -577.000
905.275; -129.725; -513.000; -524.000
905.517;   30.175;  468.000;  256.000
905.759;  -77.750; -667.000; -761.000
906.001; -105.525; -322.000; -369.000
906.243;  -71.400; -162.000; -224.000
906.485;  144.800; -265.000; -207.000
906.727;  104.400; -499.000; -542.000
906.969;  -30.875;  -30.000; -135.000
907.211;  119.125; -316.000; -382.000
907.453;  291.500; -188.000; -237.000
907.695;   -2.625; -158.000; -385.000
907.936;   41.075;  818.000;  706.000
908.178;  -67.825;   92.000; -135.000
908.420;  -71.000; -111.000; -162.000
908.662; -143.275; -633.000; -682.000
908.903;  -97.200; -208.000; -123.000
909.145;  -64.200; -240.000; -305.000
909.386;    0.175;  315.000;  280.000
909.628;   37.575;  363.000;  397.000
909.870;    6.425;   29.000;  264.000
910.111; -114.550; -809.000; -949.000
910.353;    8.750; -123.000; -161.000
910.594;  -17.900; -574.000; -606.000
910.835;   70.775; -265.000; -326.000
911.077;  153.950; -503.000; -604.000
911.318;  299.900; -505.000; -471.000
911.559;  444.950; -577.000; -880.000
911.801; 1381.450; -284.000; -280.000
912.042;10993.000;  -50.000; -159.000
912.283;26251.675;  404.000;  371.000
912.524; 3559.950; -396.000; -457.000
912.765;  435.350; -193.000;   79.000
913.006;  202.875; -307.000; -338.000
913.247;   28.950; -270.000; -290.000
913.488;   -6.850;  -43.000;   30.000
913.729;  -91.875; -373.000; -373.000
913.970;  -79.475;  -96.000; -292.000
914.211;  -70.675; -160.000; -198.000
914.452;  -63.325; -118.000;  -11.000
914.693;    9.450;  510.000;  592.000
914.934;    7.450;  510.000;  440.000
915.175;  -68.775;   53.000;  -95.000
915.415;  -82.500; -137.000;   27.000
915.656;  -65.425;  -28.000;  192.000
915.897; -103.300; -252.000;  -82.000
916.137;  -58.575;   74.000;   -9.000
916.378; -145.875; -573.000; -517.000
916.619;  -95.900; -159.000;  -63.000
916.859;  -50.050;  303.000;  330.000
917.100;  146.500; 1655.000; 1070.000
917.340;   50.375;  930.000;  728.000
917.581;   34.025;  965.000;  789.000
917.821;  -27.325; -171.000;  143.000
918.061;   14.600; -199.000;  -72.000
918.302;  -75.925; -152.000; -211.000
918.542;  -34.500;  -22.000;    3.000
918.782;   45.575;  369.000;  377.000
919.023;  125.750;  360.000;  427.000
919.263; 1842.300; 8131.000;  202.000
919.503; 1082.725; -137.000;  -54.000
919.743;  636.025;  390.000;  266.000
919.983;  241.375; -134.000;  -26.000
920.223;   77.450;  135.000;   14.000
920.463;  130.600;  631.000;  554.000
920.703;  125.625;   84.000;   39.000
920.943;  156.575; -110.000;   90.000
921.183;  215.000; -414.000; -405.000
921.423;  496.875;  307.000;  546.000
921.663;  693.775; -174.000; -257.000
921.903; 1553.200;  237.000;  173.000
922.143; 8919.500;  372.000;  389.000
922.383;32956.225;  158.000;  115.000
922.622; 9912.550; -120.000;  -15.000
922.862; 1091.525;  796.000;  785.000
923.102;  416.550;  -51.000;   33.000
923.341;  171.525;   59.000;   74.000
923.581;   67.675;  450.000;  360.000
923.821;   20.075;  301.000;  398.000
924.060;   -3.800;  351.000;  193.000
924.300;  -62.925;  -16.000; -128.000
924.539;  -14.475;  584.000;  473.000
924.779;   14.350;  812.000;  597.000
925.018;  -57.000;  247.000;  353.000
925.257;   -0.625;  595.000;  666.000
925.497;  -44.000;  447.000;  412.000
925.736;  -81.225;  -35.000;  102.000
925.975;    0.275;  687.000;  669.000
926.214;   29.375;  907.000;  850.000
926.454;    8.775;  706.000;  757.000
926.693;  -33.600;  419.000;  543.000
926.932;   36.825; 1021.000;  825.000
927.171;   67.600; 1107.000; 1044.000
927.410;   50.300; 1144.000;  967.000
927.649;   25.850;  924.000;  742.000
927.888;  -25.425;  590.000;  564.000
928.127;   -8.025;  680.000;  678.000
928.366;   25.250;  842.000;  826.000
928.605;   26.825;  831.000;  737.000
928.844;  252.925; 1451.000; 1393.000
929.083;  620.225;  770.000;  613.000
929.321;  313.950; 1335.000; 1359.000
929.560;   90.600; 1158.000; 1122.000
929.799;  -37.825;  574.000;  475.000
930.038;   79.500; 1025.000; 1394.000
930.276;  -54.100;  334.000;  397.000
930.515;   -2.900;  827.000;  681.000
930.753;  -35.675;  614.000;  589.000
930.992;  -18.175;  664.000;  717.000
931.230;    6.925;  847.000;  847.000
931.469;  167.525; 2162.000;  892.000
931.707;   71.325;  840.000;  751.000
931.946;   65.375; 1278.000; 1344.000
932.184;   46.175; 1437.000; 1175.000
932.423;   60.425; 1265.000;  963.000
932.661;   87.925; 1296.000; 1428.000
932.899;   18.675;  987.000;  821.000
933.137;    1.550;  754.000;  564.000
933.376;  142.975; 1664.000; 1335.000
933.614;  152.675; 1759.000; 1196.000
933.852;   58.000; 1357.000; 1171.000
934.090;  131.475; 1722.000; 1747.000
934.328;   89.875; 1252.000; 1457.000
934.566;  104.450; 1431.000; 1110.000
934.804;  121.975; 1263.000; 1309.000
935.042;  425.925; 1861.000; 1850.000
935.280; 1720.150; 2088.000; 2063.000
935.518; 1512.075; 2113.000; 2007.000
935.756;  347.125; 2481.000; 2316.000
935.994;  135.900; 1808.000; 1751.000
936.231;  367.125; 2890.000; 2950.000
936.469;  187.150; 2367.000; 2378.000
936.707;  147.900; 2220.000; 2167.000
936.945;  222.775; 2825.000; 2882.000
937.182;  217.950; 2679.000; 2741.000
937.420;  310.975; 3602.000; 3031.000
937.657;  433.150; 3365.000; 3478.000
937.895;  360.575; 3331.000; 3488.000
938.133;  314.050; 3540.000; 3528.000
938.370;  321.400; 3896.000; 4191.000
938.607;  412.450; 4488.000; 4205.000
938.845;  551.775; 5587.000; 5549.000
939.082;  489.800; 5387.000; 5177.000
939.320;  522.075; 5799.000; 5728.000
939.557;  643.050; 6549.000; 6491.000
939.794;  723.325; 7285.000; 7097.000
940.031;  925.700; 8421.000; 8368.000
940.269; 1122.375; 9552.000; 9107.000
940.506; 1129.750;10901.000;10507.000

