
Integration time [ms]: 200.000
Averaging Nr. [scans]: 10
Smoothing Nr. [pixels]: 0
Data measured with spectrometer [name]: 2101013U2
Wave   ;Sample   ;Dark     ;Reference
[nm]   ;[counts] ;[counts] ;[counts] 

394.013;  153.177; -450.257; -315.536
394.305;  427.974; -461.258; -419.536
394.596; 1860.727; -676.269; -527.514
394.887; 4194.651; -796.268; -654.518
395.178; 1743.994;  145.736;   11.476
395.470;  206.210; -210.263; -356.526
395.761;  463.372;  305.734;  394.479
396.052;  767.448; -545.284; -306.489
396.343;  710.648; -557.276; -454.503
396.634;  224.703; -200.279; -290.497
396.926;  238.647; -618.268; -565.517
397.217;  212.854;   11.725;  -17.504
397.508;  120.477; -366.273; -154.507
397.799;  123.003; -555.279; -571.497
398.090;  -11.605; -973.280; -902.495
398.381;  249.341;   11.708;  -11.473
398.672;    6.442; -585.292; -742.473
398.963;   84.012; -348.279; -373.498
399.254;  233.455;   54.709; -209.475
399.545;  -80.933;-1017.266; -883.520
399.836;  168.532; -407.277; -343.501
400.127;  120.007; -205.295; -209.468
400.418;  126.269; -423.274; -392.506
400.709;  159.477; -359.281; -333.493
401.000;  134.761; -268.291; -309.476
401.290;  229.416;  225.698;  115.545
401.581;  172.723; -166.286; -228.485
401.872;   43.867; -542.298; -486.462
402.163;  124.996; -313.296; -252.467
402.454;  186.656; -123.291; -163.475
402.744;  105.684; -844.297; -813.465
403.035;  801.828; -226.293;  -86.471
403.326; 1001.747; -366.292; -384.474
403.617;  704.859;  204.701;  165.539
403.907;  406.356; -593.283; -679.490
404.198; 3792.851; -545.307; -599.446
404.489; 9798.863; -618.283; -588.491
404.779; 3496.321; -618.302; -660.456
405.070;  451.191;  -67.304; -174.451
405.360;  595.331; -259.293; -238.472
405.651;  617.137;  125.699;   98.542
405.942;  378.717;  209.714;  127.516
406.232;  534.137; -432.285; -413.487
406.523;  998.521;  641.706;  758.530
406.813;  183.120; -579.286; -644.484
407.104;  716.339;  261.708;  144.527
407.394;  385.761; -604.299; -591.462
407.685;  328.536;  336.715;  222.513
407.975;  148.961; -400.283; -382.490
408.265;  256.777; -134.289; -190.478
408.556;  136.052; -472.291; -459.475
408.846;  368.122;  474.706;  429.530
409.137;  202.789;   -1.288; -216.480
409.427;  118.237; -193.285; -271.487
409.717;   83.082; -776.273; -692.508
410.007;  266.628;    4.715; -170.486
410.298;  207.311; -360.295; -342.469
410.588;  148.533; -495.285; -510.486
410.878;   59.005; -792.287; -873.482
411.168;  212.270; -481.298; -478.463
411.459;  214.753; -295.283; -242.489
411.749;  111.750; -609.292; -507.474
412.039;  106.387; -755.289; -386.480
412.329;  431.822;   40.722;  132.501
412.619;  370.520;  -62.286; -148.485
412.909;  701.281;  639.711;  594.521
413.199;  688.295; -130.280; -251.495
413.490;  783.667;  521.710;  352.523
413.780;  219.601;-1013.279; -913.496
414.070;  540.149;  -46.276;  235.497
414.360;  615.017; -729.278; -666.498
414.650;  676.899; -726.288; -688.482
414.940;  892.300; -538.280; -441.496
415.230; 1508.695;   50.712;   74.519
415.520; 9944.026;  155.730;   66.486
415.809;37985.976; -305.281; -125.493
416.099;30139.435; -388.277; -229.501
416.389; 8026.166;  435.726;  236.494
416.679; 4729.916;   91.738;   85.473
416.969;  901.611; -527.287; -503.483
417.259; 1047.504;  341.721;  171.503
417.549; 1153.674;  522.718;  318.508
417.838; 2577.650; -205.268; -147.518
418.128; 8488.575;  650.710;  492.522
418.418; 7199.191; -491.272; -579.509
418.708; 4767.166;    9.726;  -48.506
418.997;17609.860; -474.275; -480.505
419.287;18582.276; -733.273; -790.507
419.577;17187.352; -160.283; -123.489
419.866;55444.532; -588.277; -498.501
420.156;58104.020; -242.270;  -55.513
420.446;11260.505; -112.263;  -26.526
420.735; 1561.011; -376.271; -446.512
421.025; 1571.915; 1830.722;  315.502
421.314; 1273.809; -203.271; -226.512
421.604; 2719.040;   89.732;  233.484
421.893; 1584.904; -705.271; -602.511
422.183;  371.205; -487.263; -461.526
422.472;  652.606;  -36.271; -107.511
422.762;  770.876; -416.266; -379.521
423.051;  422.250; -916.276; -916.503
423.341;  515.879; -491.273; -439.507
423.630;  725.084; -121.265;   15.477
423.919;  646.959;   58.725;   49.495
424.209;  671.113;  -31.263;   56.473
424.498;  847.246;   68.732;  161.483
424.787; 1698.255; -535.267; -601.518
425.077; 5243.882;   34.735;   29.478
425.366; 7428.021; -734.262; -744.528
425.655;14706.679;  639.727;  259.493
425.945;30233.005; -313.247; -268.554
426.234;17644.253;  117.741;  300.467
426.523; 7953.261;  -86.259; -350.534
426.812;11000.370;  107.734;  159.480
427.101;15635.035; -127.269; -323.515
427.390;19792.826;  -55.270;  -86.514
427.680; 4881.589; -624.257; -411.538
427.969;  860.204; -330.255; -301.540
428.258;  557.877; -385.257; -477.536
428.547;  999.696;  449.728;  397.490
428.836; 2115.627; -421.253; -398.543
429.125; 3115.663; -199.259;  -72.534
429.414; 1443.060; -330.251; -294.548
429.703; 4870.560; -231.251; -213.548
429.992;14184.665; -938.250; -828.549
430.281; 9599.795; -397.264; -331.524
430.570; 1096.146;  -21.252;   32.454
430.859; 1139.960;  279.741;  352.466
431.148;  965.299;  636.752;  631.446
431.437;  613.846;  391.748;  367.454
431.725;  274.479; -544.257; -481.536
432.014;  146.738; -845.253; -756.545
432.303;  637.707; -149.239; -105.569
432.592; 1031.304; -460.263; -178.525
432.881; 1629.101; -601.248; -437.554
433.169; 9193.605; -343.255;  -61.540
433.458;18803.156;  445.765;  540.424
433.747; 8190.229; -397.261; -289.529
434.036; 1623.273; -275.242; -280.564
434.324; 3264.683; -395.249; -379.551
434.613; 5566.464;   40.757;  159.437
434.902; 2070.893;  333.760;  439.433
435.190; 1205.606;   75.761;  295.431
435.479;  694.338;  -52.245;   83.441
435.767;  252.449; -411.244; -427.561
436.056;  400.067; -340.242; -294.563
436.345;  635.497; -372.240; -223.568
436.633;  715.376;   60.750;  383.450
436.922;  571.800;  208.760;  414.432
437.210; 1238.641; -194.236;    1.426
437.499; 3835.753; -583.235; -432.576
437.787; 4233.741; -339.236;  -10.574
438.075; 1081.514;   56.761;  162.430
438.364; 1401.317;  -44.238;  250.429
438.652;  858.267; -286.226; -138.592
438.941;  314.616;    3.770;  269.415
439.229;   25.742; -665.252; -466.545
439.517;   99.965; -160.234;  -85.577
439.806;   44.289; -501.225; -290.595
440.094;  370.576;  377.766;  650.421
440.382;  368.781; -653.233; -302.580
440.670;  389.952; -361.235; -285.576
440.959;   89.614; -347.223; -170.599
441.247;  163.132; -151.229; -109.587
441.535;  219.463; -266.235;   31.423
441.823;   76.172; -497.234; -305.578
442.111;  385.938;  173.771;  327.412
442.400;  954.837; -628.245; -335.559
442.688; 2665.575; -111.234; -620.579
442.976; 1997.539; -786.213; -450.617
443.264;  233.699; -324.224; -364.597
443.552;  208.468; -258.226;   51.408
443.840;  377.661;  602.765;  876.423
444.128;  248.780;  265.767;  269.420
444.416;   -6.758; -694.228; -312.588
444.704;   63.056; -465.219;  -92.605
444.992;  164.172;   -0.226;  240.407
445.280;  112.117; -517.230;  -94.585
445.568;   79.345; -694.212; -396.618
445.856;  616.234; -174.221;  357.398
446.143; 1455.051;  -54.220;   -7.604
446.431; 1206.547;  -25.228;  625.411
446.719;  491.484;  489.783;  675.391
447.007;  356.508;  481.769;  705.416
447.295;  374.710;  597.777;  871.402
447.583;  187.828; -464.229;  -34.587
447.870;  273.529; -434.221; -202.601
448.158;  737.215; -104.230;  129.415
448.446;  557.253; -800.219; -338.604
448.733;  302.701;   13.776;  269.403
449.021;  454.144;   60.788;  341.382
449.309;  357.765; -296.210;  208.379
449.596;  421.079;  128.783;   59.392
449.884;  212.620; -571.222; -325.600
450.172;  216.954; -756.227; -406.590
450.459;  667.116;  645.786;  780.387
450.747; 3352.076; -411.218; -147.608
451.034;10722.548;  493.772;  889.411
451.322; 9009.620; -413.214; -170.614
451.609;  838.903;  292.777;  508.403
451.897;  859.055; -550.203; -183.634
452.184; 2601.810; -622.223; -400.598
452.472; 2620.196;   97.792;  269.375
452.759;  677.654;  512.781;  864.395
453.047;  242.940; -407.212; -125.617
453.334;  173.265; -732.219; -216.606
453.621;  187.823; -438.214; -161.615
453.909;  247.144;   13.796;  384.368
454.196;  227.009; -299.199; -123.641
454.483;  424.674;  317.798;  540.364
454.771;  272.900; -215.208;  196.374
455.058;   97.605; -316.207;  102.374
455.345;  233.087;   71.807;  344.347
455.632;  143.810; -128.207;  235.373
455.919;  114.641;  -82.196;  182.354
456.207;  -88.685; -774.198; -450.642
456.494;  -16.909; -475.200;  -66.639
456.781;   -1.532; -399.202; -198.635
457.068;  135.019; -253.206;  -29.628
457.355;    3.220; -698.206; -401.629
457.642;   32.528; -552.205; -290.630
457.929;    6.275; -778.194; -417.651
458.216;  102.341; -575.212; -354.617
458.503;  353.681; -173.193;  -19.652
458.790;  339.497; -864.208; -630.625
459.077;  423.875;  -77.202;  110.364
459.364; 1165.564; -350.195; -210.649
459.651; 2449.216;  -46.206;  220.372
459.938; 1174.883; -864.209; -665.623
460.225;  339.979;  132.799;  276.363
460.512;  -34.763; -836.197; -688.645
460.799;  234.775;  -32.218;  320.392
461.086;  193.698; -370.200; -251.640
461.372;   92.216; -509.198; -279.642
461.659;  248.642; -165.196;  108.354
461.946;  119.079; -445.193;  -54.651
462.233;  500.994;  842.800;  888.361
462.519;  495.590; -814.201; -464.639
462.806; 1508.737; -768.197; -497.645
463.093; 1313.909; -445.191;  -66.656
463.380;  -56.532; -920.186; -824.664
463.666;  144.740; -259.197;  -18.646
463.953;  170.857; -406.195; -243.648
464.239;  293.057; -173.195;  -77.648
464.526;  710.172;  413.806;  743.350
464.813;  548.025; -565.190; -304.658
465.099;  648.981;  606.807;  607.348
465.386;  670.786;  903.807;  921.348
465.672;  118.438; -694.197; -522.645
465.959;   89.551; -598.188; -520.662
466.245;   95.686; -468.193; -359.652
466.532;  221.854; -109.195;   63.352
466.818;  203.767; -357.186; -216.664
467.104;   33.125; -488.182; -415.672
467.391;   23.728; -628.189; -459.658
467.677;  124.672; -289.186;    9.335
467.964;   53.237; -682.189; -471.660
468.250;  150.376; -331.186; -160.665
468.536;  197.630;   90.811;  180.341
468.822;  -13.907; -821.184; -574.668
469.109;  321.940;  351.827;  471.311
469.395;  408.400;  729.808;  787.346
469.681;  362.334;   46.811;  156.341
469.967; 1855.041; -699.188; -382.660
470.254; 3858.452; -494.188; -306.662
470.540; 2484.240; -601.196; -476.646
470.826;  337.540; -488.181; -397.675
471.112;  493.398;  288.816;  113.331
471.398;  207.805; -253.183;  -58.670
471.684;   65.581; -626.177; -447.680
471.970;  -24.354; -918.180; -981.675
472.256;   44.499; -521.192; -441.654
472.542;   49.955; -499.171; -434.691
472.828;   38.119; -743.182; -607.672
473.114;   76.317; -380.166; -283.700
473.400;   51.704; -504.175; -293.684
473.686;  106.726; -452.166; -400.701
473.972;  144.725; -230.174; -131.687
474.258;  -94.760; -925.173; -843.689
474.544;  290.169; -183.178;   -2.679
474.830;  482.007;  -65.175;   45.316
475.116;  632.227; -123.190; -196.658
475.401;  854.549; -558.180; -467.676
475.687;  296.348; -725.180; -718.676
475.973;   61.230; -673.181; -770.673
476.259;  552.710;  736.825;  764.315
476.544;  551.792; -539.176; -437.682
476.830; 1104.650; -398.172; -322.690
477.116;  991.390; -430.177; -336.682
477.401;  321.248;  346.820;  358.324
477.687;   16.404; -289.175; -405.684
477.973;  107.135;   21.819;   28.326
478.258;   52.756; -448.163; -348.706
478.544;  110.684;   21.815;   61.334
478.829;  -65.637; -818.171; -738.692
479.115;  -71.051; -749.172; -651.690
479.401;  -11.081; -444.174; -449.686
479.686;  104.947; -253.180;  -74.676
479.972;  -68.824; -886.178; -776.680
480.257;  104.419; -258.166;  -65.700
480.542;   27.769; -614.170; -469.693
480.828;  533.402; 1288.824; 1392.317
481.113;  -38.301; -464.176; -426.683
481.399;   40.989; -236.161; -202.711
481.684;  -73.481; -620.166; -462.700
481.969;   53.209; -158.159;  -73.713
482.255;   23.384; -439.169; -285.695
482.540;   13.477; -569.178; -441.680
482.825;   47.660; -395.187; -404.663
483.110;  154.789;  -85.169; -105.696
483.396;  259.539; -840.157; -652.718
483.681;  771.725;  543.826;  730.313
483.966;  233.400; -696.160; -700.712
484.251;   61.424; -404.174; -310.687
484.536;   65.834; -356.165; -378.703
484.822;   36.228; -205.173; -218.687
485.107;  -12.006; -599.152; -502.726
485.392;  284.242;  662.836;  541.296
485.677;  186.403;  354.832;  163.302
485.962;  231.336;  160.843;  270.283
486.247;  226.667;  -14.162;   -8.707
486.532;   88.921; -178.166; -325.701
486.817;  343.281;  381.839;  431.291
487.102;  183.470; -453.154; -514.722
487.387;  847.842; -637.156; -652.718
487.672; 1537.649; -154.164;  -38.705
487.957; 1013.392; -394.160; -286.711
488.241;  335.018; -290.150; -314.729
488.526; 1021.196; -280.152; -148.726
488.811; 1529.479; -881.177; -818.680
489.096; 1194.873; -666.154; -702.723
489.381;  702.491;    3.847;  162.275
489.666;  494.789; -428.161; -510.710
489.950;  349.978;  558.846;  627.277
490.235;  -12.589; -480.151; -458.728
490.520;  -66.912; -756.161; -723.710
490.804;  -86.955; -827.156; -736.719
491.089;   -0.460; -469.149; -299.732
491.374;   83.647; -132.164;  -75.704
491.658;   -5.244; -817.147; -717.735
491.943;  243.402; -657.152; -609.727
492.227;  425.464; -178.155;  -38.721
492.512;  102.235; -294.157; -341.717
492.797;  -91.169; -713.149; -716.731
493.081; -108.440; -588.147; -598.735
493.366;  -76.910; -751.161; -635.711
493.650;  439.836;  831.859;  917.254
493.935;   33.956; -648.147; -447.734
494.219;  -89.382; -778.142; -687.743
494.503;  -84.976; -585.150; -487.730
494.788;  127.423;   46.842;   74.285
495.072;  217.619;  184.850;  434.271
495.356;  228.045; -463.148; -343.733
495.641;  602.870; -812.146; -736.736
495.925;  589.352; -976.156; -903.719
496.209;  106.439; -599.149; -451.732
496.494;  -77.081; -763.142; -544.744
496.778;   54.170; -364.154; -360.722
497.062;  -72.849; -819.156; -627.719
497.346;  -89.706; -869.160; -640.711
497.631;  320.550;  580.852;  560.266
497.915;  173.585;  -64.145;  175.261
498.199;  149.539; -341.157; -277.718
498.483;   96.193; -562.152; -508.725
498.767;  341.521;  301.850;  300.271
499.051;  274.336; -126.149; -100.732
499.335;   49.333; -693.149; -739.731
499.619;  -44.320; -381.129; -423.767
499.903;   72.762; -272.155;  -65.721
500.187;   78.480; -588.153; -316.724
500.471;   18.801; -796.152; -595.727
500.755;  210.488;   62.839;  -96.710
501.039;   72.062; -270.155; -357.721
501.323;  202.739;  -21.141;  264.254
501.607;   86.756; -447.163; -503.706
501.891;   -3.258; -607.156; -512.718
502.174;  -30.599; -726.144; -585.741
502.458;  161.306;   89.849;  370.273
502.742;   94.073; -180.138; -191.751
503.026;  152.555; -412.147; -254.734
503.310;  209.407; -437.159; -375.713
503.593;  191.357; -464.147; -325.735
503.877;  156.830; -232.133; -156.760
504.161;  289.783;    2.847;  -50.724
504.444;  144.427; -841.158; -710.716
504.728;  630.246; -487.164; -522.704
505.012;  975.517; -257.150;  -76.729
505.295;  741.490; -417.161; -212.711
505.579;  764.551; -256.156; -496.719
505.862;  991.280; -555.145; -333.738
506.146;  968.311; -681.159; -758.714
506.429;  645.211;  568.841;  461.286
506.713;   99.313; -732.151; -667.728
506.996;  490.669;   90.846;  295.278
507.280;  467.339; -633.165; -474.703
507.563;  350.460; -469.155; -261.721
507.847;  143.781; -423.153; -112.724
508.130;  105.491; -665.161; -456.711
508.413;  147.013; -758.167; -577.700
508.697;  376.914; -151.167;   12.300
508.980;  224.383; -422.153; -312.724
509.263;  -15.945; -466.155; -450.720
509.547;   85.116; -124.150;   82.271
509.830;  119.994; -172.160;  140.289
510.113;  205.751;  128.844;  298.281
510.396;   65.791; -530.152; -300.725
510.680;  335.381; -818.145; -812.738
510.963; 1234.475;  184.846;  180.277
511.246; 1032.627; -493.150; -357.730
511.529;  428.889; -482.145;  -83.739
511.812;  513.525; -250.134;   10.241
512.095;  325.208; -740.151; -396.728
512.378;   95.763; -317.147; -245.736
512.661;   24.984; -703.137; -623.753
512.944;   14.321; -750.142; -637.744
513.227;  104.580; -170.137; -171.752
513.510;   41.601; -479.144; -671.741
513.793;   58.845; -485.140; -435.747
514.076;  239.910;  -43.127;  -39.771
514.359;  189.641; -294.149; -135.732
514.642;   97.925; -442.142; -567.744
514.925; 1110.743;  581.860;  561.253
515.208; 1238.920; -498.134; -443.758
515.491;  888.640; -276.133; -182.761
515.773;  486.006; -410.143; -337.742
516.056; 2810.993;  249.864;  409.246
516.339; 3731.598; -754.136; -652.755
516.622; 2972.424; -518.150; -488.730
516.904; 2346.416;  882.857;  975.257
517.187;  964.578; -730.138; -523.752
517.470;  603.614; -568.143; -510.743
517.752;  546.202; -624.136; -470.756
518.035;  382.460; -708.139; -725.749
518.318;  456.298; -799.136; -744.755
518.600; 3057.245; -300.132; -325.762
518.883; 4136.924;  310.858;   88.256
519.165; 2100.867; -585.138; -426.751
519.448;  544.844;  -61.132;  -19.762
519.730;  279.321; -573.126; -415.773
520.013;  577.834;  588.867;  664.240
520.295; 1457.728;  -94.134;  -15.759
520.578; 3206.063; -335.131; -305.764
520.860; 3569.845; -254.132;   56.238
521.143; 1802.905; -763.135; -584.756
521.425;  706.339; -251.125; -279.775
521.707;  899.811; -622.127; -380.771
521.990; 2325.311; -199.127;  167.229
522.272; 2665.947; -116.140;   -4.748
522.554; 1285.007; -237.143; -157.742
522.836;  614.025;  -24.134;   99.241
523.119;  398.853; -496.148; -189.734
523.401;  215.973; -448.130; -314.766
523.683;  116.984; -865.137; -693.753
523.965;  434.775;  408.862;  260.248
524.247;  407.969;   54.878;  170.220
524.529;  261.927; -451.134; -367.759
524.812;  533.975;   -3.130;  191.234
525.094; 1088.374; -773.138; -631.751
525.376; 1751.452; -143.124;   78.223
525.658; 1044.894; -441.136; -339.754
525.940;   -1.242; -805.131; -671.764
526.222;   94.799; -188.136;  -88.755
526.504;  238.055; -190.131;   32.237
526.786;  265.331; -960.133; -647.760
527.068;  541.460; -124.123;  -67.778
527.349;  221.089; -865.137; -774.754
527.631;  209.744; -137.132;   22.238
527.913;  166.909; -664.127; -450.771
528.195;  179.529; -761.125; -639.774
528.477;  361.520;  -93.134;  -30.758
528.759;  133.575; -648.130; -522.766
529.040;   40.258; -569.123; -293.778
529.322;  101.633; -235.125;  -10.774
529.604;  260.178;  -47.130;   93.233
529.886;  198.820; -546.126; -302.773
530.167;  207.167;  232.870;  192.235
530.449;  128.462;    1.853;   63.265
530.731;   13.168; -572.122; -459.779
531.012;   91.998; -513.120; -216.784
531.294;   81.353; -118.116;  -43.792
531.575;  276.439;  290.875;  538.225
531.857;   64.913; -548.135; -266.757
532.138;  160.737; -113.141;   40.254
532.420;  344.208;  294.865;  403.244
532.701;  290.234; -722.133; -751.760
532.983;  602.339;  232.867;  182.239
533.264;  257.718; -243.126;  175.228
533.546;  -61.401; -491.136; -508.755
533.827;  131.730;  173.867;   -1.759
534.109;   72.613; -352.135;  -80.757
534.390;  126.050; -725.132; -582.762
534.671;  356.307; -270.135;  -82.756
534.953;  180.162; -751.123; -611.779
535.234;   19.032; -426.117; -255.789
535.515; -121.890; -891.119; -735.785
535.796;  -11.396; -431.128; -193.770
536.078; -215.148;-1050.124; -904.777
536.359;   58.263;  -22.123;    3.221
536.640;   -0.669; -480.125; -197.774
536.921;  289.686;  225.871;  143.232
537.202;  498.169;  -87.138;  -16.751
537.483;  676.062;  251.869;  377.236
537.764;  323.067;   17.870;   98.235
538.045;  -86.581; -543.134; -371.758
538.326;  -60.712; -596.129; -447.768
538.607;  -21.088; -686.127; -476.771
538.888;  262.985;   98.879;    5.218
539.169;  195.977; -704.122; -535.781
539.450;  493.784;  236.871;   16.233
539.731;  323.291; -361.121; -182.783
540.012;  265.498;  199.880;  412.216
540.293;  189.844;   82.876;  158.224
540.574;  -31.617; -895.113; -717.796
540.855;  737.488;  435.879;  377.218
541.136;  804.473;   47.878;  139.220
541.416;  412.376; -161.130; -220.766
541.697;  298.756; -274.131; -170.763
541.978; 1370.011; -270.135; -315.757
542.259; 1648.312; -211.127; -236.771
542.539;  877.145; -191.116; -186.790
542.820;  384.939;  461.875;  480.225
543.101;  185.684;  -52.145;  -77.738
543.381;    1.511; -638.127; -591.771
543.662;  409.808;  159.873; -254.771
543.942;  711.605; -751.127; -830.770
544.223; 1419.476;  193.878;  161.219
544.504;  893.651; -275.124; -182.777
544.784;  751.620; -592.126; -408.773
545.065; 2237.950;  104.884; -254.791
545.345; 2654.910;  227.881;   14.215
545.626; 1721.282;  -14.113; -108.796
545.906; 1173.866;   77.869;   98.235
546.186;  496.327;   92.874;  -95.773
546.467;  321.255;   99.877;  -95.778
546.747;  481.344;  264.884;  327.210
547.027;  537.649;   91.876;  111.223
547.308;  413.204; -376.127; -530.770
547.588;  577.789;  299.871;  371.232
547.868;  371.968;  458.870;  588.235
548.149;  357.261;  609.885;  593.207
548.429;  149.909; -347.127; -299.771
548.709;  196.297; -645.120; -461.784
548.989;  652.924;   84.882;   88.213
549.269; 2729.542;   10.868;  139.239
549.550; 6140.361;  215.877;  117.222
549.830; 5527.507; -758.111; -556.799
550.110; 1121.518; -468.110; -320.801
550.390; 1106.569; -128.122;  -56.779
550.670; 1443.576; -868.114; -783.795
550.950; 1068.088; -509.121; -471.782
551.230;  374.683;  549.879;  460.218
551.510;   -2.714; -381.121; -326.782
551.790;   58.329; -173.109; -127.803
552.070;  473.555;  940.877; 1181.223
552.350;  537.815; -492.119; -377.786
552.630;  758.179;   -2.121;   77.219
552.909;  513.451;  181.884;   73.209
553.189;  350.651;  -49.132;   33.237
553.469;  247.715; -703.119; -514.786
553.749;  232.014; -469.127; -357.772
554.029;  289.338;   33.883;  -24.790
554.308;  211.267; -154.115;  -37.794
554.588;   85.702; -196.128; -204.770
554.868;  109.689; -366.121;  -47.782
555.147;  189.862; -114.115;  -46.793
555.427;  780.054; -260.116; -250.792
555.707; 4972.060; -284.115; -200.793
555.986; 5679.312; -719.111; -538.800
556.266; 3146.043;   23.884;   72.210
556.546;   87.886; -888.121; -675.782
556.825;  334.273; -657.114; -556.794
557.105; 2244.699; -125.128;   17.230
557.384; 2596.849;  122.884;  187.209
557.664; 1010.153; -717.116; -508.792
557.943;  134.588; -557.121; -411.782
558.222;  214.028; -345.118; -344.788
558.502;  377.664; -116.115;  -76.793
558.781;  690.358;  194.885;  499.208
559.061;  550.728; -232.118; -227.788
559.340;  407.935;  302.883;  353.211
559.619;  933.242;   93.884;  148.210
559.899; 1240.837; -239.117; -266.789
560.178; 1154.264; -778.115; -593.793
560.457; 4034.640; -623.117; -562.790
560.736; 5353.114; -472.111; -482.800
561.015; 3661.796; -500.128; -502.769
561.295;  515.658;  180.893;  215.193
561.574;  522.560;  119.885;  116.207
561.853;  704.735;  274.891;  303.197
562.132;  677.767;  -45.114;  182.206
562.411;  631.480;  396.879;  553.219
562.690;  147.258; -592.115; -458.792
562.969;  257.592;  472.888;  630.203
563.248;  983.277; 2966.878; 2487.219
563.527;  371.313; -290.111; -408.800
563.806;  455.109; -650.127; -521.771
564.085;  563.479; -297.105; -206.810
564.364;  270.142; -594.117; -405.790
564.643;  688.180; -276.121; -223.781
564.922; 2402.727;  221.890;  397.198
565.201; 2212.132; -640.109; -700.803
565.479; 1018.856; -297.115; -219.792
565.758;  322.700; -810.128; -712.770
566.037;  626.134; -155.109; -100.803
566.316;  360.250; -286.116;  -28.791
566.595;   72.960;  -17.115;  -12.793
566.873;  266.416; -166.111;  -79.801
567.152;  -94.909; -490.113; -590.797
567.431;   -6.356; -113.116;    6.210
567.709;    3.758; -344.107; -212.807
567.988;  320.672; -810.114; -769.794
568.266;  702.960; -160.115;  -68.793
568.545;  492.146; -644.100; -514.819
568.824;  821.955;  160.885;  356.208
569.102;  641.772; -351.114; -235.794
569.381;  278.154; -492.116; -407.792
569.659;  -66.414; -553.113; -553.796
569.938;   18.374; -743.122; -465.780
570.216;  178.637; -225.109; -225.804
570.494;  -80.523; -632.114; -572.795
570.773;  117.086;  202.879;  114.218
571.051;   25.359; -373.123; -357.778
571.330;   94.683; -221.113; -174.796
571.608;   64.571; -181.098; -173.823
571.886; -137.395; -671.111; -581.799
572.164; -132.711; -739.121; -621.782
572.443;  -66.916; -562.105; -512.811
572.721;  -73.360; -399.117; -289.790
572.999;  -45.569; -280.117; -168.788
573.277;  200.475;  379.894;  620.191
573.555;  427.778;   94.894;   37.190
573.834; 1637.430;  -86.117; -114.788
574.112; 2061.861;  880.893;  811.193
574.390;  595.514; -143.111;  -96.801
574.668;   12.293;  -91.112;  -61.797
574.946;   -8.422; -165.106; -187.810
575.224;   57.832;   71.891;  -16.803
575.502;  -20.854; -200.116; -204.791
575.780; -154.206; -767.112; -829.798
576.058;  548.913; 1589.889; 1004.200
576.336;  -10.379; -210.110; -129.801
576.614;  -78.305; -511.112; -340.798
576.891;   22.266; -711.115; -823.794
577.169;  599.949; -158.108; -285.805
577.447;  765.860;  169.893;  202.193
577.725;  458.201;  629.888;  854.201
578.003;   27.298;  -71.112; -371.798
578.280;  140.597; -208.104; -242.812
578.558;   80.564; -450.115; -422.793
578.836;  176.476; -210.114; -145.795
579.114;   46.292; -630.112; -670.797
579.391;  115.333;   -6.117;  -18.789
579.669; -141.033; -595.114; -704.794
579.947;  250.256; -326.107; -127.806
580.224;  374.456; -692.107; -524.806
580.502;  413.261;  127.893;   76.193
580.779;   94.541;  -42.117;   75.210
581.057; -121.462; -584.109; -470.804
581.334; -178.982; -726.102; -695.815
581.612;  106.980;   54.895;  511.190
581.889;  -45.763;  -83.101; -129.818
582.167;  -60.143; -298.099; -190.821
582.444; -187.671; -845.102; -814.817
582.721;  248.830;  657.899;  715.183
582.999;  110.554; -326.100; -167.821
583.276;  561.365; -812.123; -713.779
583.553;  813.623; -364.102; -294.816
583.831;  247.793; -607.104; -631.812
584.108;  123.046;  349.892;  174.195
584.385;   14.418; -122.102;  -98.815
584.662; -133.384; -651.111; -828.801
584.940;   95.615;  204.889;  204.199
585.217;  -14.614;  -73.113; -303.796
585.494;   68.028;   71.890;  118.198
585.771;  231.139; -250.109; -354.804
586.048;  649.685; -196.113;  -76.796
586.325;  381.220; -721.110; -773.801
586.602;  152.298;  230.896;  213.188
586.879;  -14.251; -499.100; -580.820
587.156;   79.781; -156.105; -331.810
587.433;  -78.773; -701.102; -667.817
587.710;  141.496;  152.888;  234.202
587.987;  425.288; -264.105; -236.811
588.264; 1099.398;  315.888;  387.202
588.541; 1874.001;  -61.104;   26.187
588.818; 3480.242;   72.892;  171.196
589.095; 3031.995; -163.104; -174.812
589.371;  444.336; -459.109; -414.804
589.648;  -12.539; -581.107; -437.807
589.925;   50.478; -517.114; -621.795
590.202;  -17.505; -741.112; -607.798
590.478;  113.891; -166.105;  -73.811
590.755;  422.750; -241.108; -132.806
591.032; 3168.423; -741.110; -699.802
591.308; 4022.529; -732.094; -790.831
591.585; 2218.222; -573.110; -560.802
591.862;  131.029;-1056.102; -950.817
592.138;   42.747; -475.108; -474.805
592.415;  205.699; -486.104; -495.813
592.691; 2052.196;  460.896;  518.188
592.968; 2384.074; -208.098; -123.824
593.244; 1144.444; -695.116; -595.790
593.521;  102.029; -105.102;  -42.817
593.797;  -58.030; -810.122; -720.780
594.074;  364.492; -611.096; -588.826
594.350;  974.708;  828.905;  729.172
594.626;  375.817; -303.111; -283.801
594.903;  104.530; -643.101; -645.817
595.179;  295.804;  243.896;  418.187
595.455;   44.463; -136.107; -150.807
595.731;  101.506;  -19.103;  -38.814
596.008;  -49.792; -464.111; -434.800
596.284;   57.752; -187.100; -242.820
596.560;   71.238; -501.093; -493.833
596.836;  270.484; -173.105;  -70.810
597.112;  437.748; -582.108; -437.805
597.388;  392.889;  -49.097;  -48.826
597.665;  224.889;  437.887;  530.203
597.941; -124.821; -572.089; -658.839
598.217;   39.827; -323.110; -293.802
598.493;  379.641;   61.891; -204.804
598.769;  666.344; -175.100;  -50.819
599.045;  365.852; -490.108; -562.806
599.321;   95.051; -193.100; -261.820
599.597;  136.840; -355.109; -476.804
599.872;  696.101;  409.896;  429.187
600.148;  490.991;  -61.097; -172.826
600.424;  433.059;   91.893;  202.193
600.700;  312.962; -170.107; -280.807
600.976;  140.883; -442.097; -464.825
601.252;  325.035; -226.109; -272.803
601.527;  180.502; -833.104; -840.813
601.803;  149.091; -453.105; -404.812
602.079;  243.044; -124.100; -118.819
602.354;  679.052; -620.092; -531.835
602.630; 1029.986; -140.113; -482.796
602.906; 3121.537; -910.101; -863.818
603.181; 8102.615; -627.119; -534.786
603.457; 7122.888;   98.903; -278.826
603.733; 1000.192; -605.120; -626.783
604.008; 1381.279; -245.106; -164.810
604.284; 3806.432; -636.101; -580.817
604.559; 3398.901;   -3.112;  -42.799
604.835;  682.183; -163.105; -225.810
605.110;  483.758; -732.099; -892.821
605.385;  908.342;  224.907;  267.167
605.661;  810.412; -625.095; -729.829
605.936; 1309.453; -664.108; -737.806
606.211; 1238.816;  -17.103; -170.815
606.487;  245.770; -329.114; -376.794
606.762;  -11.784; -791.119; -745.786
607.037;  -40.016; -501.105; -433.810
607.313;  -92.998; -589.096; -574.828
607.588;  -16.221; -375.106; -137.810
607.863;   99.837;  -28.101; -143.818
608.138;  320.126;  513.890;  516.198
608.413;   12.764; -576.099; -592.822
608.688;   39.447; -203.108; -267.805
608.964;  265.570; -509.106; -218.809
609.239;  315.580; -107.105; -212.810
609.514;  371.391;  281.895;  240.188
609.789;  759.597; -187.104; -716.812
610.064; 1156.701; -435.096; -609.827
610.339; 1024.636; -855.109; -799.804
610.614; 1381.751; -131.100; -315.820
610.889;  825.991;  215.895;  107.188
611.163;   13.192; -407.104; -591.812
611.438;   81.372;   81.886; -167.794
611.713;  -16.368; -467.101; -499.817
611.988;   56.335; -144.101; -328.818
612.263;  -60.882; -771.102; -717.815
612.538;  375.785;  385.887;  251.204
612.812;  157.653; -832.100; -911.820
613.087;  156.371; -358.098; -338.823
613.362;  -90.537; -497.107; -557.807
613.637;  111.510;  261.897;  138.186
613.911;  -38.547; -256.092; -345.835
614.186;  149.160; -249.107; -292.807
614.460;  717.686; -842.081; -758.854
614.735;  976.013;  -55.087;  -17.843
615.010;  251.098;   43.912;  -82.841
615.284;  412.747;  360.892;  246.195
615.559;  384.951; -792.092; -955.835
615.833;  395.961;  -76.099;  -87.822
616.108;   11.068; -225.090; -390.837
616.382;  239.615;  274.913;  402.156
616.656;  200.768; -241.090; -232.837
616.931;  596.562; -785.099; -700.822
617.205; 1262.403; -973.104; -979.813
617.480; 1223.236;  -91.125;    6.225
617.754;  197.232; -396.125; -128.774
618.028;   -4.109; -369.129; -382.768
618.302;  121.045;   73.892;  -25.805
618.577; -108.188; -371.103; -518.815
618.851;  -84.669; -399.109; -600.803
619.125;  -71.473; -335.134; -378.759
619.399;  -26.496; -244.104; -374.813
619.673; -103.945; -330.115; -515.792
619.947;  -67.624; -333.114; -448.795
620.222;   -8.082; -198.110; -204.801
620.496;   28.989;  -47.121;  -96.782
620.770;   36.377; -187.122;  -93.781
621.044;  330.781;  323.895;  346.190
621.318;  870.093; -653.120; -614.783
621.592;  815.690; -430.121; -409.783
621.866;  392.402; -476.112; -572.799
622.140;   31.646; -207.116; -356.791
622.413;  121.608;  138.889;  112.200
622.687;  -87.768; -746.101; -492.817
622.961;   29.445; -130.108; -143.805
623.235;  -96.991; -633.111; -661.800
623.509; -187.609; -816.105; -848.811
623.783;   58.457;  -12.107;   48.193
624.056;  -10.706; -254.120; -280.783
624.330;  113.793;   63.888;   -3.797
624.604;   67.642; -271.116; -355.790
624.877;  133.624;  180.890;   26.198
625.151;   34.568; -249.114; -238.794
625.425;  -15.794; -150.103; -283.814
625.698;  -92.492; -367.119; -374.785
625.972; -167.372; -799.110; -765.802
626.245;  199.044;  685.884;  484.210
626.519;  -65.500; -426.120; -340.784
626.792;  -17.438; -192.107; -380.807
627.066; -132.133; -485.122; -662.779
627.339; -175.678; -736.110; -663.802
627.613;  138.398;  351.880;  148.216
627.886;  138.330;  187.891; -612.803
628.160;   -9.008;  312.880; -161.783
628.433; -159.760; -695.125; -703.775
628.706; -141.000; -517.120; -615.784
628.979;   53.749;  296.876;  117.223
629.253; -175.686; -785.119; -833.786
629.526;  427.018; -334.126; -253.772
629.799;  335.859; -641.123; -479.778
630.072;  140.593; -497.128; -516.769
630.346; -168.556;-1115.116;-1080.790
630.619;  527.764; -467.107; -545.808
630.892;  846.810;  709.889;  593.200
631.165;  508.303;  790.896;  679.187
631.438; -161.402;-1092.112;-1055.798
631.711;  149.064;  453.877;  257.221
631.984; -118.062; -523.117; -624.789
632.257; -136.267; -636.117; -681.789
632.530;  -77.892; -412.119; -433.785
632.803;   77.466; -109.115;    7.207
633.076;  -84.445; -360.123; -422.777
633.349;   43.298;  173.872;  121.231
633.622;  -43.294; -187.119; -240.785
633.895; -224.606; -903.120; -823.783
634.167; -103.379; -496.126; -525.773
634.440;   -9.347;  -19.116; -137.792
634.713;   33.113;  -22.119; -120.786
634.986;  151.784;  593.871;  453.233
635.258; -131.837; -507.115; -597.793
635.531;  211.227;  742.882; -343.788
635.804;   -2.764; -303.117; -318.789
636.077; -155.852; -830.116; -852.791
636.349;  -15.939; -586.115; -474.793
636.622;  710.717; 1695.874; 1392.228
636.894;  289.700; -474.120; -909.784
637.167;  103.908; -836.127; -789.771
637.439;   53.103; -278.128; -213.770
637.712;  -65.381; -312.126; -293.772
637.984; -134.451; -635.116; -707.791
638.257;  607.455;  515.877;  488.222
638.529;  690.241; -881.125; -924.776
638.802;  312.892; -508.128; -449.769
639.074; -203.624; -927.122; -952.781
639.346; -241.985; -942.135; -930.757
639.619;   81.323;  -79.142; -319.744
639.891;    9.467;  -83.122; -168.779
640.163;  -89.831; -689.122; -756.780
640.435;   98.972;  273.878;  103.220
640.708;   17.375;  -72.122; -132.780
640.980;  -47.923; -366.122; -362.781
641.252;  318.580;  -25.121;  -71.781
641.524; 2555.982;  580.879;  573.219
641.796; 2321.585;-1094.121; -907.782
642.068;  436.488; -191.121; -300.782
642.340;  -95.710; -486.121; -566.783
642.613;  125.693;  294.880;  323.217
642.885; -157.905; -787.120; -878.783
643.157; -122.902; -810.120; -658.784
643.428;  126.701;  170.880;  218.216
643.700; -116.097; -498.120; -425.784
643.972;    1.606;  -16.119; -133.785
644.244; -134.792; -474.119; -559.785
644.516;  -55.089; -250.119; -114.786
644.788;  196.614;  662.881;  548.214
645.060;   12.416;  -12.119; -124.786
645.332; -181.181; -525.118; -535.787
645.603;  128.321;  479.882;  342.213
645.875;  -98.176; -334.118; -369.787
646.147;  382.727; 1487.882; 1242.212
646.418; -152.471; -931.117; -918.788
646.690;   86.632; -714.117; -715.789
646.962;   -0.966; -413.117; -451.789
647.233;   30.937;   15.883;   11.211
647.505; -145.460; -595.117; -475.790
647.776;  112.842;  328.884;  229.210
648.048;   -3.955; -248.116; -418.790
648.320; -168.153; -752.116; -679.791
648.591; -266.150;-1055.116; -958.791
648.862; -118.847; -505.116; -577.792
649.134;   98.955;  115.885;  198.208
649.405;  -78.842; -661.115; -618.792
649.677;  -94.040; -475.115; -598.793
649.948;  -19.537; -181.115; -296.793
650.219;   25.666;  -37.115; -147.793
650.491; -108.832; -431.114; -520.794
650.762; -159.829; -705.114; -731.794
651.033; -113.627; -437.114; -424.795
651.304; -198.524; -743.114; -728.795
651.576; -143.521; -680.114; -645.795
651.847;   -9.819; -250.113; -140.796
652.118;   -3.316;  -32.113; -189.796
652.389; -159.814; -639.113; -722.796
652.660;  -37.411; -147.113;  -89.797
652.931; -253.908; -897.112; -871.797
653.202; -116.406; -382.112; -541.798
653.473;  -98.303; -633.112; -533.798
653.744;  174.599; -595.112; -590.798
654.015;  186.902; -356.112; -303.799
654.286; -117.095; -642.111; -663.799
654.557; -130.593; -586.111; -521.799
654.828; -266.490;-1114.111;-1088.800
655.099;  -97.287; -404.111; -291.800
655.370; -142.285; -427.111; -543.801
655.641; -206.782; -656.110; -714.801
655.911; -163.280; -618.110; -638.801
656.182;  144.523;  437.890;  387.198
656.453;  244.626;  830.890;  746.198
656.724; -103.272; -466.110; -426.802
656.994; -124.269; -553.109; -568.803
657.265; -213.667; -862.109; -873.803
657.536; -115.264; -500.109; -377.804
657.806; -153.161; -561.109; -593.804
658.077; -226.159; -866.109; -950.804
658.347; -135.856; -523.108; -598.805
658.618; -172.754; -646.108; -694.805
658.888;    5.849;  -41.108;  112.195
659.159; -117.548; -432.108; -548.806
659.429;  -53.646; -292.108; -349.806
659.700;   49.957; -435.107; -390.807
659.970;  -23.841; -370.107; -359.807
660.241;    2.262; -754.107; -921.807
660.511;  659.465; -147.107; -174.808
660.781;   66.467; -793.106; -748.808
661.052;  -50.930; -222.106; -381.808
661.322;  -14.428;   21.894;   -9.809
661.592;  108.575;  257.894;  148.191
661.862;  -78.722; -369.106; -382.810
662.133; -143.520; -551.105; -502.810
662.403; -214.517; -770.105; -676.810
662.673;  -88.515; -256.105; -213.811
662.943; -165.712; -612.105; -551.811
663.213;    2.391;  -85.105;  -81.811
663.483; -113.907; -593.104; -568.812
663.753;  -38.804; -194.104; -152.812
664.023;   17.998;   68.896;  -32.813
664.293;  -89.099; -319.104; -126.813
664.563; -156.496; -694.104; -648.813
664.833; -185.494; -743.103; -608.814
665.103; -195.191; -730.103; -793.814
665.373; -194.389; -766.103; -806.814
665.643; -163.586; -863.103; -918.815
665.913;   -8.183; -534.103; -714.815
666.182;  159.419; -685.102; -719.816
666.452;  359.022;  -22.102;  -89.816
666.722;  -92.776; -724.102; -784.816
666.992; -252.673; -948.102; -921.817
667.261; -144.970; -824.102; -808.817
667.531;  332.432;  134.899;   45.183
667.801;  737.735; -440.101; -412.818
668.070;  440.637;  714.899;  697.182
668.340; -175.360; -883.101; -840.819
668.609;  191.543;  588.900;  301.181
668.879; -135.655; -490.100; -558.819
669.149; -117.152; -539.100; -516.820
669.418; -186.850; -698.100; -726.820
669.688;  -57.747; -482.100; -666.820
669.957;   34.156; -423.099; -546.821
670.226;  -30.642; -268.099; -331.821
670.496; -142.539; -431.099; -635.822
670.765; -110.937; -418.099; -501.822
671.034; -202.534; -872.099; -828.822
671.304;   44.869;   55.902; -111.823
671.573; -254.329;-1085.098; -957.823
671.842;   72.774; -380.098; -294.823
672.112;  -14.023; -692.098; -586.824
672.381;    7.179; -239.098; -214.824
672.650; -236.818;-1005.097;-1021.825
672.919; -146.516; -631.097; -507.825
673.188; -150.813; -681.097; -878.825
673.457; -291.410;-1101.097;-1143.826
673.726; -143.408; -579.096; -646.826
673.995;  -78.805; -533.096; -479.826
674.265;   -3.203; -263.096; -333.827
674.534;  -14.600; -183.096; -235.827
674.802;    0.303; -618.096; -703.828
675.071; 1320.605; -886.095; -801.828
675.340; 4561.408; -464.095; -339.828
675.609; 1620.110;  103.905;   82.171
675.878;   77.513; -949.095; -893.829
676.147;   96.616;  -26.095;   -8.829
676.416;  141.018; -210.094; -294.830
676.685; 1043.721; 1000.906; -622.830
676.953;  104.723; -603.094; -452.831
677.222;  -19.974; -193.094; -273.831
677.491;   -8.171;  -24.094; -127.831
677.759;   26.931;   11.907;  172.168
678.028;   44.534; -279.093; -222.832
678.297;   50.736;   71.907;  197.168
678.565; -234.561; -898.093; -944.833
678.834;  -79.458; -311.093; -268.833
679.102;  -98.756; -411.092; -391.834
679.371; -239.153; -898.092; -727.834
679.639; -226.251; -797.092; -786.834
679.908; -202.948; -794.092; -724.835
680.176; -271.545; -895.091; -941.835
680.445;  -75.943; -346.091; -352.835
680.713;   40.760;  -58.091;  -23.836
680.982; -124.138; -523.091; -525.836
681.250; -145.335; -578.091; -507.837
681.518; -168.332; -534.090; -751.837
681.787;   -8.430; -204.090; -167.837
682.055; -103.927; -490.090; -422.838
682.323; -257.225; -993.090; -992.838
682.591;   87.878; -216.090; -538.838
682.859;  135.381;    9.911;  -35.839
683.128;   82.283;  232.911;  497.161
683.396; -262.614;-1102.089;-1122.840
683.664;  -29.912; -241.089;   21.160
683.932;   34.391;  144.911;  -76.840
684.200; -117.806; -576.088; -320.841
684.468;    8.596;  -73.088; -124.841
684.736;  -26.501; -214.088; -175.841
685.004; -215.399;-1024.088; -982.842
685.272; -141.696; -880.088; -774.842
685.540; -118.693; -499.087; -557.843
685.808; -151.291; -651.087; -682.843
686.076; -174.088; -894.087; -969.843
686.343; -116.186; -601.087; -815.844
686.611;   98.617; -195.087; -224.844
686.879;  648.120; -530.086; -553.844
687.147; 4001.122; -483.086; -480.845
687.414; 1159.025;  -12.086; -169.845
687.682;  -19.373; -658.086; -757.846
687.950;  462.930;  259.915;  263.154
688.217;  -75.967; -792.085; -760.846
688.485;  -10.365; -632.085; -636.847
688.753;  712.238;  -11.085; -102.847
689.020;  125.241; -820.085; -851.847
689.288; -175.957; -853.084; -787.848
689.555;   20.246; -195.084; -148.848
689.823;  -30.352; -241.084; -345.849
690.090; -127.449; -546.084; -651.849
690.358; -242.146; -877.084; -897.849
690.625;   32.656;  120.917;   45.150
690.892; -109.041; -403.083; -369.850
691.160;   -1.539;   72.917;  -35.850
691.427;   98.564;  141.917;  130.149
691.694; -248.533; -855.083; -929.851
691.962; -250.031;-1177.082;-1060.852
692.229;   86.872;  127.918;   56.148
692.496;  158.874;  130.918;  -49.852
692.763;   42.977; -164.082; -201.853
693.031; -110.520; -739.082; -716.853
693.298;  -25.818; -509.081; -368.853
693.565;  443.285; -155.081; -163.854
693.832; 1498.787;   -5.081;   -9.854
694.099;  177.190; -643.081; -642.855
694.366; -117.207; -882.081; -896.855
694.633; -117.305; -920.080; -633.855
694.900; 1522.798; 4367.920; -114.856
695.167;  582.200; -214.080; -380.856
695.434;  137.203; -646.080; -623.856
695.701;  359.006;  121.921;  -61.857
695.968;  590.308; -365.079; -361.857
696.234; 1676.211; -415.079; -646.858
696.501;15767.413; -776.079; -614.858
696.768; 7460.616; -554.079; -617.858
697.035;  477.619; -632.078; -667.859
697.302;   86.721; -448.078; -552.859
697.568;   52.924; -458.078; -497.859
697.835;  -60.074; -683.078; -624.860
698.102;  -14.071; -498.078; -407.860
698.368;  215.232;  384.923;  396.139
698.635;  -45.766;  -47.077; -424.861
698.901;    9.437; -240.077; -348.861
699.168;   81.739; -534.077; -456.862
699.435;  129.742;  -72.077;  -13.862
699.701; -229.455; -868.076; -764.862
699.968;  -70.753;  144.924; -441.863
700.234; -172.650; -783.076; -822.863
700.500;  -75.848; -448.076; -539.864
700.767;   45.455;   -1.075;   26.136
701.033; -229.142;-1015.075; -963.864
701.299;  -63.440; -450.075; -483.865
701.566;  279.063;  950.925;  763.135
701.832;   49.165;  -31.075;  -76.865
702.098; -162.332;-1054.074;-1034.866
702.365; -201.529;-1098.074;-1030.866
702.631;  -97.227;-1038.074;-1063.867
702.897; 1911.676; -765.074; -676.867
703.163; 2949.178;  348.926;  254.133
703.429;  237.381; -256.073; -273.868
703.695;  -86.416; -796.073; -792.868
703.961;   49.686; -214.073; -210.868
704.227;  -79.811; -630.073; -725.869
704.493;  277.991;  613.927;  510.131
704.759;    0.394; -565.072; -540.870
705.025;   85.397; -203.072; -194.870
705.291;    2.199; -666.072; -562.870
705.557;  421.802;  719.928;   34.129
705.823;   61.805; -742.072; -694.871
706.089;  249.307; -307.071; -326.871
706.355;  635.910; -315.071; -244.872
706.620; 9419.312; -776.071; -729.872
706.886;11595.615; -309.071; -362.873
707.152; 1003.918; -818.070; -973.873
707.418;  -63.480;-1153.070;-1186.873
707.683;   17.423; -550.070; -530.874
707.949;   -9.175; -547.070; -578.874
708.215;   46.128; -129.070; -207.874
708.480;  -17.269; -520.069; -420.875
708.746;  199.933;   68.931;   28.125
709.011;  -91.564; -578.069; -612.876
709.277; -128.662; -538.069; -543.876
709.542;   -4.559; -428.069; -387.876
709.808;    3.644;  -59.068;   89.123
710.073; -114.254; -577.068; -695.877
710.339;  -19.251; -242.068; -228.877
710.604;   97.251; -780.068; -845.878
710.869;  431.954; -277.068; -366.878
711.135;  -97.843; -715.067; -628.879
711.400; -121.241; -507.067; -608.879
711.665;  -62.238; -404.067; -479.879
711.931; -133.736; -661.067; -677.880
712.196; -194.733; -876.067; -954.880
712.461;  137.470; -402.066; -490.880
712.726;   86.272; -727.066; -771.881
712.991; -159.025; -647.066; -664.881
713.256;  -26.223; -350.066; -332.882
713.521;  -87.820; -417.065; -381.882
713.787;  -95.117; -454.065; -472.882
714.052;  -18.815; -214.065; -400.883
714.317; -171.112;-1045.065; -981.883
714.581; 1715.490; -374.065; -268.883
714.846; 2002.693; -822.064; -888.884
715.111;  248.796;  261.936;  257.116
715.376;  -14.102;  -86.064; -223.885
715.641;   -4.799; -365.064; -367.885
715.906;  358.803;   15.936; -551.885
716.171;  234.906;  221.937;  209.114
716.436;  102.209;  -78.063; -104.886
716.700; -176.189; -818.063; -692.886
716.965; -203.586; -794.063; -807.887
717.230;  -93.484; -339.063; -392.887
717.494;   34.419;  -40.062; -134.888
717.759; -129.878; -784.062; -640.888
718.024;  101.124;  269.938;  250.112
718.288;  206.327;  685.938;  395.111
718.553; -244.371; -803.062; -977.889
718.817; -240.868; -883.061; -899.889
719.082;  -11.665; -115.061; -125.890
719.346; -233.263;-1000.061; -947.890
719.611;  -46.860; -300.061; -255.891
719.875; -153.158; -568.060; -537.891
720.140;  -78.255; -453.060; -603.891
720.404;  119.848; -136.060; -249.892
720.668; 1064.350; -475.060; -411.892
720.933;  458.953;  146.940;  137.108
721.197; -140.945; -667.059; -600.893
721.461; -234.042; -851.059; -826.893
721.725;   52.661;  -21.059; -250.894
721.990;  -49.937; -284.059; -204.894
722.254;   15.866;  -26.059; -108.894
722.518;  -71.531; -286.058; -442.895
722.782; -134.429; -743.058; -594.895
723.046;  307.774;  614.942;  570.105
723.310;  149.076;  374.942;  210.104
723.574; -145.221; -654.058; -614.896
723.838; -148.318; -576.057; -642.897
724.102;  -56.216; -226.057; -239.897
724.366; -216.613;-1032.057; -978.897
724.630; -134.711; -749.057; -571.898
724.894;  -90.508; -722.057; -514.898
725.158;   56.995;   38.944; -295.898
725.422;  -67.303; -394.056; -327.899
725.685;  -94.400; -441.056; -349.899
725.949; -118.898; -566.056; -519.900
726.213; -117.995; -732.056; -811.900
726.477;  106.008;-1020.055; -933.900
726.740;  232.910; -274.055; -104.901
727.004;  545.713; -384.055; -510.901
727.268; 4973.715; -442.055; -400.901
727.531; 1253.818; -961.055; -775.902
727.795;  -81.279; -713.054; -673.902
728.059;  -90.777; -552.054; -557.903
728.322; -152.074; -841.054; -669.903
728.586;  -12.972; -692.054; -701.903
728.849; -146.569; -695.053; -756.904
729.112; -181.466; -812.053; -912.904
729.376; -225.064; -959.053; -905.904
729.639;  -96.961; -536.053; -536.905
729.903; -162.159; -733.053; -699.905
730.166;  -68.856; -437.052; -399.906
730.429;  -18.853; -317.052; -468.906
730.693;  -70.751; -355.052; -894.906
730.956;  433.352;  810.948;  651.093
731.219;  894.154; -310.052; -103.907
731.482;  141.057;-1003.051; -894.907
731.745;   33.860; -794.051; -935.908
732.009;   64.462;  -30.051;   50.092
732.272; -141.635; -904.051; -771.909
732.535;  -58.033; -300.051; -310.909
732.798; -265.930;-1083.050;-1166.909
733.061;  -75.527; -430.050; -456.910
733.324;   88.675;   31.950; -180.910
733.587;  159.778;  290.950;  365.090
733.850; -123.920; -973.049;-1050.911
734.113;   58.483;   33.951;   32.089
734.376;   46.686; -328.049; -447.912
734.639;  462.988; 1188.951; 1011.088
734.901;  120.391; -180.049; -402.912
735.164;  670.493; -883.048; -837.913
735.427; 1648.196; -166.048; -355.913
735.690;  184.499; -205.048; -234.913
735.952;  -90.199; -923.048; -925.914
736.215;  -97.296;-1113.048;-1009.914
736.478;   58.806; -771.047; -774.915
736.740;  328.809;   33.953;  129.085
737.003; 1010.812; -658.047; -672.915
737.266; 5039.014;  -94.047;   46.084
737.528;  550.717; -682.047; -660.916
737.791;  444.519; -316.046; -327.916
738.053; 1399.122;  465.954;  649.083
738.316;16641.325; -162.046; -136.917
738.578;10115.227; -770.046; -736.918
738.841;  653.130; -382.046; -446.918
739.103;  285.133; -875.045; -777.918
739.365;  697.735;   79.955;  -69.919
739.628;  -13.562; -884.045; -805.919
739.890;  -45.960; -758.045; -710.919
740.152;  -41.657; -692.044; -754.920
740.414;    3.946; -408.044; -359.920
740.677;  -81.452; -785.044; -634.921
740.939;  -91.349; -587.044; -487.921
741.201;  345.253; -432.044; -572.921
741.463;    3.756; -689.043; -745.922
741.725;   82.959;  -21.043; -199.922
741.987;  133.361;  220.957;  116.078
742.249;  -23.636; -751.043; -859.923
742.511;  246.066; -703.043; -794.923
742.773;   22.769; -546.042; -546.924
743.035;  278.272;  796.958;  533.076
743.297;  -95.826; -963.042;-1013.924
743.559; 1028.577; -278.042; -262.925
743.821;   51.779; -735.042; -744.925
744.083;   79.082;  -44.041; -149.925
744.345; -162.215; -869.041; -892.926
744.607;  135.687;   75.959;  122.074
744.868;  -83.110; -490.041; -554.927
745.130; -173.608; -994.041;-1008.927
745.392;  122.995;   -1.040;  -44.927
745.653;  -21.802; -411.040; -378.928
745.915;  373.300;  896.960;  631.072
746.177;  127.003;   35.960;  -43.928
746.438;   19.605; -428.040; -543.929
746.700;  -91.392; -947.039; -988.929
746.961;   -5.789; -659.039; -740.930
747.223;  262.313; -190.039;  -74.930
747.484;  135.616; -391.039; -471.930
747.746;  253.218;  -23.038; -106.931
748.007;  168.121; -647.038; -689.931
748.269;  409.424; -468.038; -440.931
748.530;  608.726; -852.038; -638.932
748.791;  365.429; -354.038; -420.932
749.053;  651.631;  286.963;  163.067
749.314;  661.734; -236.037; -169.933
749.575;  670.637; -945.037; -905.933
749.836; 1209.839; -217.037;   86.066
750.098; 3985.542;  -60.037;  -21.934
750.359;49000.844;  414.964;  555.066
750.620;11229.747; -121.036; -220.935
750.881; 1397.550; -585.036; -513.935
751.142; 1974.452; -950.036; -938.936
751.403;24866.855; -789.036; -705.936
751.664; 9472.457;-1034.035; -999.936
751.925;  747.360; -175.035; -262.937
752.186;  457.763; -298.035; -278.937
752.447;  213.865; -590.035; -445.937
752.708;   52.968; -532.035; -648.938
752.969;   36.070; -566.034; -576.938
753.230;    0.373; -777.034; -672.939
753.491;    9.576; -650.034; -631.939
753.751;  142.778;  109.966;   19.061
754.012;  226.581;  258.967;  181.060
754.273;  126.883; -174.033;  -71.940
754.534;    6.686; -487.033; -580.940
754.794; -139.411; -926.033; -911.941
755.055;  394.591; 1051.967;  881.059
755.316;  -44.206; -700.032; -566.942
755.576;   -9.003; -606.032; -576.942
755.837;  -72.601; -527.032; -695.942
756.097;  -64.598; -530.032; -564.943
756.358;  -78.896; -725.032; -770.943
756.618;  -62.193; -705.031; -641.943
756.879;   38.010; -254.031; -349.944
757.139; -228.488;-1098.031;-1116.944
757.400;  -60.485; -538.031; -553.945
757.660;   -5.883; -365.031; -401.945
757.920;   55.720; -266.030; -228.945
758.181;   -1.777; -468.030; -351.946
758.441; -136.575; -870.030; -809.946
758.701;  -28.072; -308.030; -215.946
758.961;  -13.270; -220.030; -278.947
759.222;  -63.967; -574.029; -502.947
759.482; -111.664; -683.029; -723.948
759.742; -133.362; -706.029; -547.948
760.002;   84.141;  -83.029; -143.948
760.262;   65.743;   50.972;  182.051
760.522;  -11.554; -498.028; -574.949
760.782;  -57.451; -738.028; -612.949
761.042;  -23.849; -618.028; -573.950
761.302;  134.054;   55.972;  -18.950
761.562;  131.656; -164.027; -154.951
761.822;  100.659; -710.027; -551.951
762.082;  -74.638;-1104.027;-1093.951
762.342;  161.464; -328.027; -403.952
762.601;  150.267; -567.027; -506.952
762.861;  540.269; -281.026; -207.952
763.121;  715.772; -406.026; -411.953
763.381;12835.175; -499.026; -485.953
763.640;11652.677; -139.026; -307.954
763.900;  605.980; -242.026; -203.954
764.160;  149.582; -458.025; -491.954
764.419;   38.885; -726.025; -782.955
764.679; -101.612; -795.025; -726.955
764.939;   32.290; -124.025; -210.955
765.198;  -81.107; -608.025; -563.956
765.458; -118.005; -710.024; -612.956
765.717;  -98.202; -454.024; -590.957
765.976;  -47.299; -428.024; -411.957
766.236; -119.497; -475.024; -610.957
766.495;   86.506;  260.977;   73.042
766.755; -208.692;-1090.023; -987.958
767.014;    2.111; -594.023; -665.958
767.273;  -68.786; -373.023; -397.959
767.533;  -38.784; -228.023; -307.959
767.792;   25.019; -151.022; -188.960
768.051;  -69.479; -228.022; -276.960
768.310; -113.676; -546.022; -650.960
768.569;   47.427; -161.022;    4.039
768.828;   -0.571; -285.022; -363.961
769.088; -204.768;-1050.021; -942.961
769.347; -145.666; -755.021; -599.962
769.606; -138.063; -876.021; -857.962
769.865; -194.060;-1016.021;-1033.963
770.124;   42.942; -411.021; -336.963
770.383;  -82.255; -778.020; -910.963
770.641;   57.047; -398.020; -400.964
770.900; -111.650; -953.020; -846.964
771.159;  -94.047; -851.020; -951.964
771.418;  -17.945; -917.020; -779.965
771.677;  222.758; -224.019; -293.965
771.936;  255.861; -794.019; -865.966
772.194; 4407.863; -465.019; -437.966
772.453;16613.566; -213.019; -391.966
772.712; 1246.168;  416.982;  329.033
772.970;  244.471;   32.982;   63.033
773.229;  238.274;  -22.018;  102.033
773.488; -133.924; -814.018; -770.968
773.746;  148.679;  296.982;  335.032
774.005;   82.081;  190.983;  -22.969
774.263;  104.184;  243.983;  177.031
774.522; -120.513; -422.017; -548.969
774.780; -115.911; -484.017; -417.970
775.039;  -69.508; -551.017; -531.970
775.297;    7.294; -135.016; -351.970
775.555; -134.103; -489.016; -612.971
775.814; -201.800; -618.016; -570.971
776.072; -206.998; -749.016; -740.971
776.330; -139.295; -630.016; -520.972
776.589; -160.793; -703.015; -721.972
776.847; -195.390; -645.015; -624.973
777.105; -276.187;-1016.015;-1032.973
777.363;  -97.385; -459.015; -454.973
777.621; -207.282; -660.015; -717.974
777.879;   11.620;  -42.014;   32.026
778.138; -146.777; -554.014; -717.974
778.396; -150.074; -585.014; -526.975
778.654; -263.572;-1015.014; -970.975
778.912;  -84.469; -269.014; -371.976
779.170; -230.867; -880.013; -803.976
779.427; -261.564; -922.013; -897.976
779.685; -204.361; -880.013; -832.977
779.943; -162.859; -654.013; -593.977
780.201; -272.756; -964.012; -883.978
780.459; -174.354; -651.012; -610.978
780.717; -110.251; -440.012; -390.978
780.974; -116.348; -449.012; -490.979
781.232;  -77.546; -358.012; -338.979
781.490; -129.643; -551.011; -472.979
781.747; -104.841; -555.011; -476.980
782.005;  128.662;  462.989;  254.020
782.263; -257.135; -542.011;-1004.981
782.520;  -80.933; -326.011; -501.981
782.778; -254.230;-1013.010;-1051.981
783.035; -293.928; -962.010; -938.982
783.293;  -43.825; -248.010; -206.982
783.550;  -48.722; -134.010; -198.982
783.808; -193.320; -764.010; -776.983
784.065; -267.917; -745.009; -874.983
784.322;  -32.915;   25.991;  -86.984
784.580; -230.012; -915.009; -771.984
784.837; -126.909; -392.009; -466.984
785.094; -218.707; -783.009; -762.985
785.352;  -57.404; -304.008; -404.985
785.609; -196.102; -934.008; -839.985
785.866;  -85.499; -345.008; -401.986
786.123; -102.096; -639.008; -583.986
786.380; -164.694; -665.008; -604.987
786.637;  -43.091; -225.007; -380.987
786.895;  -40.689; -456.007; -543.987
787.152;   -8.286; -135.007; -267.988
787.409;  -17.183; -123.007; -225.988
787.666; -140.881; -299.006; -378.988
787.923; -141.578; -616.006; -695.989
788.179; -153.375; -551.006; -584.989
788.436; -133.773; -585.006; -585.990
788.693;    6.930;  -92.006;  -87.990
788.950;  238.632; -125.005; -112.990
789.207;  220.035; -381.005; -372.991
789.464;  -16.062; -161.005; -301.991
789.720;   67.640;  150.995;  110.009
789.977; -272.857;-1003.005; -671.992
790.234;   17.445;   44.996;  -66.992
790.490; -260.652; -884.004;-1031.993
790.747;    4.951;  -85.004;   22.007
791.004;  -34.047; -426.004; -348.993
791.260;  -87.844; -430.004; -560.994
791.517; -161.642; -843.003; -788.994
791.773;  -80.739; -379.003; -342.994
792.030; -175.836; -596.003; -660.995
792.286; -138.234; -686.003; -636.995
792.543;   30.569;  -74.002; -159.995
792.799;  -59.029; -584.002; -382.996
793.055; -306.526;-1179.002;-1210.996
793.312; -153.223; -827.002; -816.997
793.568;  -67.321; -746.002; -599.997
793.824;   61.782; -226.001; -284.997
794.081;   49.684; -447.001; -508.998
794.337;  118.687; -664.001; -561.998
794.593; 2527.990; -319.001; -271.999
794.849; 9374.792; -746.001; -772.999
795.105;  469.795; -270.000; -261.999
795.361;   46.597; -490.000; -457.000
795.617; -107.500; -875.000; -945.000
795.873;  -41.100; -360.000; -407.000
796.129;    6.700; -368.000; -306.000
796.385;   33.600; -124.000; -156.000
796.641;  240.500;  412.000;  550.000
796.897; -103.400; -666.000; -635.000
797.153;  194.400;  453.000;  357.000
797.409; -141.700; -785.000; -868.000
797.665; -103.800; -625.000; -732.000
797.921;  -99.000; -775.000; -762.000
798.176;  -82.700; -744.000; -747.000
798.432;  -67.600; -824.000; -596.000
798.688; -130.300;-1174.000;-1078.000
798.943;  178.400; -165.000; -147.000
799.199;   -4.100;-1005.000; -959.000
799.455;  469.900;  369.000;  316.000
799.710;  230.500; -813.000; -380.000
799.966;  478.600; -162.000; -160.000
800.221;  778.400; -638.000; -721.000
800.477;17436.700; -743.000; -710.000
800.732;11908.100; -773.000; -800.000
800.988; 1062.200;  205.000;  -19.000
801.243; 3956.300; -454.000; -344.000
801.498;13034.500; -814.000; -739.000
801.754;  746.900; -289.000; -163.000
802.009;  181.500; -257.000; -335.000
802.264;  -56.600; -967.000;-1033.000
802.520;   98.700;  222.000;   -3.000
802.775;  -25.600; -524.000; -359.000
803.030;  198.800;  395.000;  356.000
803.285; -167.200; -840.000; -903.000
803.540;  -59.600; -686.000; -699.000
803.795;  -66.400; -648.000; -583.000
804.051;    1.400; -279.000; -346.000
804.306;  128.100;  168.000;  128.000
804.561;  271.900;  451.000;  362.000
804.816;  351.300;  714.000;  861.000
805.071;   78.600; -185.000; -280.000
805.325;  284.700; -257.000; -427.000
805.580; -152.500; -841.000; -877.000
805.835;   12.300; -204.000; -297.000
806.090;  -86.400; -760.000; -676.000
806.345;   28.900; -344.000; -264.000
806.600;  -13.800; -549.000; -632.000
806.854;  -45.200; -408.000; -538.000
807.109;   12.000; -493.000; -577.000
807.364;   49.500; -407.000; -328.000
807.618;   29.800; -415.000; -381.000
807.873;   75.500; -470.000; -494.000
808.128;  181.200; -257.000; -518.000
808.382;  210.100; -224.000; -332.000
808.637;  148.200; -440.000; -511.000
808.891;  357.300; -257.000; -180.000
809.146;  175.000; -902.000; -794.000
809.400;  337.200; -848.000; -923.000
809.654;  504.600; -779.000; -551.000
809.909;  721.500; -841.000; -927.000
810.163;11160.500; -813.000; -651.000
810.418;22149.300; -940.000; -861.000
810.672; 1476.100; -685.000; -690.000
810.926; 1142.600; -993.000; -973.000
811.180; 2549.000; -439.000; -372.000
811.434;53823.900;  240.000;  135.000
811.689;16510.900; -231.000; -365.000
811.943;  862.200; -936.000; -953.000
812.197;  544.100; -893.000; -671.000
812.451;  247.000; -379.000; -514.000
812.705;  -40.300; -809.000; -619.000
812.959;  -16.900; -263.000; -388.000
813.213;   38.600; -283.000; -209.000
813.467;  222.500;  470.000;  253.000
813.721; -127.700; -764.000; -792.000
813.975; -177.100; -826.000; -877.000
814.229;  169.300;  430.000;  353.000
814.482;  -82.300; -517.000; -566.000
814.736; -176.500; -766.000; -744.000
814.990; -181.200; -779.000; -872.000
815.244;  -41.900; -228.000; -285.000
815.497; -114.300; -636.000; -601.000
815.751;   35.700; -141.000;   82.000
816.005; -116.500; -470.000; -586.000
816.258;  -75.400; -510.000; -363.000
816.512; -154.300; -693.000; -610.000
816.766;   70.700;  121.000;  157.000
817.019;  141.800;  148.000;  149.000
817.273; -201.300;-1000.000; -802.000
817.526;   16.200; -206.000; -173.000
817.779; -136.400;-1049.000; -960.000
818.033; -121.700; -693.000; -807.000
818.286; -203.500; -725.000; -792.000
818.540; -119.600; -403.000; -403.000
818.793; -104.400; -402.000; -489.000
819.046; -162.200; -582.000; -520.000
819.299;  -25.400; -157.000; -166.000
819.553; -166.500; -552.000; -592.000
819.806; -272.000;-1016.000; -838.000
820.059;  -52.800; -334.000; -354.000
820.312;   97.800;  152.000;  185.000
820.565;   69.700;  110.000;  -27.000
820.818;  -27.200;  -59.000; -173.000
821.071; -269.800;-1041.000; -957.000
821.324; -148.700; -536.000; -540.000
821.577; -161.000; -457.000; -483.000
821.830; -108.500; -270.000; -172.000
822.083; -201.000; -733.000; -288.000
822.336;  -38.400; -261.000; -167.000
822.589; -192.600; -805.000; -688.000
822.842; -235.400; -875.000; -770.000
823.094; -303.500;-1076.000;-1114.000
823.347; -213.800; -925.000; -729.000
823.600;  123.000;  402.000;  187.000
823.853;  -28.900; -311.000; -267.000
824.105;  -88.800; -331.000; -575.000
824.358; -187.700; -617.000; -716.000
824.611;  122.100;  234.000;   40.000
824.863;  -63.800; -612.000; -591.000
825.116;  125.700;  -33.000;   27.000
825.368;  107.400; -366.000; -372.000
825.621;  278.800; -186.000; -240.000
825.873;  149.900; -704.000; -737.000
826.126; 1065.700; -669.000; -641.000
826.378;17841.000; -389.000; -505.000
826.630; 3111.400; -890.000; -898.000
826.883;   41.000; -754.000; -693.000
827.135;  105.600; -279.000; -270.000
827.387; -172.900; -893.000; -839.000
827.639;    5.900;  -86.000;   32.000
827.892; -179.800; -742.000; -582.000
828.144; -239.900; -848.000; -804.000
828.396;  -28.400;  104.000;  -80.000
828.648; -116.300; -440.000; -333.000
828.900; -242.800; -702.000; -795.000
829.152; -165.800; -684.000; -683.000
829.404;  -34.000; -215.000; -267.000
829.656;  -43.800;  321.000;  214.000
829.908;   41.500;  393.000;  229.000
830.160; -291.400;-1064.000;-1047.000
830.412; -153.600; -481.000; -430.000
830.664; -169.000; -557.000; -665.000
830.916; -116.300; -268.000; -206.000
831.167; -276.200;-1073.000; -951.000
831.419; -149.400; -623.000; -566.000
831.671; -236.100; -764.000; -809.000
831.923;  -97.200; -311.000; -447.000
832.174;  -65.500; -273.000; -331.000
832.426; -199.900; -493.000; -582.000
832.678; -302.800;-1043.000;-1091.000
832.929; -252.100; -947.000; -935.000
833.181; -145.300; -575.000; -677.000
833.432;  -53.800;  -59.000; -186.000
833.684;   47.800;  112.000;  -27.000
833.935; -171.700; -610.000; -566.000
834.187; -186.900; -829.000; -823.000
834.438;  -27.500;  -58.000;  -25.000
834.689;  -52.000; -255.000; -123.000
834.941;  -50.300; -343.000; -244.000
835.192; -134.600; -590.000; -533.000
835.443; -113.300; -419.000; -506.000
835.695;   28.000;  138.000;  -16.000
835.946;  -94.200; -608.000; -378.000
836.197; -131.300; -599.000; -622.000
836.448; -118.900; -528.000; -395.000
836.699;  -44.800; -253.000; -341.000
836.950;   30.400;   72.000;    7.000
837.201; -251.000;-1003.000; -987.000
837.452;  -44.400; -356.000; -170.000
837.703; -126.100; -791.000; -737.000
837.954;  -34.200; -205.000; -365.000
838.205; -145.600;-1029.000;-1008.000
838.456;  272.000; -196.000; -282.000
838.707;   14.400; -423.000; -519.000
838.958;   23.400; -634.000; -647.000
839.209;  479.500;   18.000;   40.000
839.460;  174.600; -439.000; -201.000
839.710;  287.500; -135.000; -297.000
839.961;  693.500;  730.000;  612.000
840.212;  486.300; -382.000; -497.000
840.462; 1932.000; -328.000; -277.000
840.713;29108.300; -571.000; -536.000
840.964; 8626.300;  -62.000; -143.000
841.214;  697.900; -384.000; -624.000
841.465;  804.800; -214.000; -141.000
841.715;  683.200; -417.000; -380.000
841.966;  919.700; -746.000; -685.000
842.216;15224.400; -330.000; -431.000
842.466;44747.300; -169.000; -313.000
842.717; 1802.700; -964.000; -952.000
842.967;  472.200; -635.000; -641.000
843.217;  419.900;   20.000;   28.000
843.468;  147.400; -104.000; -132.000
843.718;  -63.400; -718.000; -726.000
843.968; -144.500; -837.000; -765.000
844.218;   62.000; -315.000; -262.000
844.469;  -83.400; -577.000; -561.000
844.719; -146.100; -537.000; -682.000
844.969; -113.000; -550.000; -580.000
845.219; -226.500; -814.000; -862.000
845.469; -106.600; -392.000; -342.000
845.719; -209.500; -792.000; -884.000
845.969;   82.500;  119.000;  174.000
846.219; -192.600; -738.000; -720.000
846.469;  124.200;  464.000;  432.000
846.718;  -19.500; -115.000;   31.000
846.968; -207.100; -827.000; -827.000
847.218;  -14.100; -224.000; -371.000
847.468; -181.600; -586.000; -555.000
847.718; -213.400; -827.000; -798.000
847.967; -216.500; -826.000; -915.000
848.217; -101.200; -449.000; -569.000
848.467;  -58.200; -405.000; -376.000
848.716; -149.000; -708.000; -725.000
848.966;    8.700; -372.000; -358.000
849.215;  -93.800; -428.000; -419.000
849.465; -154.400; -785.000; -615.000
849.714; -245.400;-1132.000;-1150.000
849.964;  -72.400; -551.000; -613.000
850.213;  -19.800; -393.000; -355.000
850.463;  164.800;  137.000;  340.000
850.712;   33.900; -542.000; -567.000
850.961;   49.900; -739.000; -678.000
851.211;  173.300; -513.000; -504.000
851.460;  266.400; -635.000; -650.000
851.709;  987.400;  -25.000;   18.000
851.958;17796.100; -912.000; -750.000
852.208;16425.600; -859.000; -879.000
852.457;  655.500; -181.000;  -13.000
852.706;   94.900; -791.000; -823.000
852.955;   23.900; -507.000; -528.000
853.204; -100.100; -521.000; -461.000
853.453; -103.400; -418.000; -458.000
853.702; -190.800; -660.000; -750.000
853.951; -136.000; -532.000; -520.000
854.200; -156.300; -613.000; -562.000
854.449; -192.700; -695.000; -661.000
854.698; -111.200; -340.000; -279.000
854.946;  -51.600; -181.000; -284.000
855.195; -215.300; -843.000; -868.000
855.444; -105.400; -395.000; -420.000
855.693; -168.600; -345.000; -432.000
855.941; -174.800; -387.000; -516.000
856.190;  -34.300; -256.000; -382.000
856.439; -178.100; -652.000; -703.000
856.687;  -22.300;  -99.000;  -72.000
856.936; -174.900; -621.000; -323.000
857.184; -286.100;-1067.000;-1020.000
857.433; -135.200; -423.000; -512.000
857.681; -246.800; -989.000; -953.000
857.930;  -99.100; -282.000; -433.000
858.178; -252.400; -856.000; -929.000
858.427; -245.700; -802.000; -781.000
858.675; -136.600; -377.000; -544.000
858.923; -148.300; -527.000; -819.000
859.172; -309.700;-1094.000;-1070.000
859.420; -134.300; -339.000; -239.000
859.668; -189.700; -624.000; -628.000
859.916;   12.100;  109.000;  115.000
860.164; -181.800; -699.000; -603.000
860.413;  355.700; -878.000; -696.000
860.661;  116.600; -709.000; -577.000
860.909; -115.200; -339.000; -325.000
861.157; -105.000; -277.000; -444.000
861.405; -182.700; -534.000; -670.000
861.653;   93.900;  310.000;  310.000
861.901;  267.100; -543.000; -613.000
862.149;  -64.900; -801.000; -824.000
862.396;  -88.000; -297.000; -187.000
862.644;  -77.200; -368.000; -347.000
862.892;    8.500;   98.000;  138.000
863.140; -135.500; -549.000; -530.000
863.388; -240.000; -815.000; -759.000
863.635; -180.400; -642.000; -601.000
863.883;   66.700;  231.000;  190.000
864.131; -119.700; -288.000; -357.000
864.378; -208.500; -675.000; -540.000
864.626; -121.400; -347.000; -415.000
864.873; -169.900; -556.000; -505.000
865.121; -216.600; -714.000; -799.000
865.368;  -46.200; -173.000;   75.000
865.616;    5.100;  -33.000;  -40.000
865.863; -103.800; -462.000; -506.000
866.111; -171.700; -795.000; -824.000
866.358;   96.600; -426.000; -420.000
866.605; 4720.700;  -64.000; -804.000
866.853; 3560.300; -621.000; -537.000
867.100;  -70.700; -728.000; -775.000
867.347; -124.500; -672.000; -611.000
867.594; -102.200; -740.000; -714.000
867.841;  177.300;   97.000;   17.000
868.089; -193.100; -746.000; -698.000
868.336; -158.200; -477.000; -420.000
868.583; -211.700; -637.000; -741.000
868.830;  -27.400; -131.000; -170.000
869.077; -236.700; -859.000; -787.000
869.324; -200.400; -502.000; -458.000
869.571; -155.300; -398.000; -430.000
869.818; -176.500; -485.000; -439.000
870.065; -138.100; -439.000; -513.000
870.311; -159.200; -456.000; -542.000
870.558; -127.500; -332.000; -311.000
870.805;  -98.600; -320.000; -384.000
871.052; -120.000; -494.000; -369.000
871.298;  -59.800; -204.000; -131.000
871.545;  -81.500; -151.000; -185.000
871.792;  -71.100; -173.000; -222.000
872.038;  -26.900;   43.000; -126.000
872.285; -156.600; -496.000; -387.000
872.532; -113.900; -357.000; -387.000
872.778;   78.000;  556.000;  403.000
873.025; -116.300; -384.000; -359.000
873.271;  126.000;  501.000;  578.000
873.517;  -16.000; -133.000; -209.000
873.764;  -24.400; -193.000;  -80.000
874.010;  -61.800; -143.000; -230.000
874.257;  -13.100;  123.000;   90.000
874.503; -179.100; -579.000; -479.000
874.749;  -70.100;   31.000;  275.000
874.995;  -43.300;  -80.000;  -20.000
875.242; -165.600; -540.000; -478.000
875.488; -123.300; -414.000; -439.000
875.734;  -52.300; -106.000; -234.000
875.980;  225.000; -872.000;-1032.000
876.226;  419.100; -157.000; -255.000
876.472;   61.200;  343.000;  237.000
876.718;    2.100;  184.000;  158.000
876.964;   -2.900;   56.000;   55.000
877.210; -182.700; -547.000; -677.000
877.456; -194.300; -630.000; -557.000
877.702; -260.900; -821.000; -832.000
877.948; -149.400; -377.000; -497.000
878.193;   88.900;  361.000;  255.000
878.439; -138.900; -487.000; -472.000
878.685; -149.500; -272.000; -343.000
878.931; -185.000; -618.000; -676.000
879.176;  -87.900; -201.000; -201.000
879.422; -291.800; -933.000; -820.000
879.668;  123.300;   10.000;   79.000
879.913;  198.100;   53.000;  137.000
880.159;  -23.900; -112.000;  -17.000
880.404;  -56.000; -152.000; -162.000
880.650;   -5.700;   91.000;  141.000
880.895; -241.400; -670.000; -710.000
881.141; -176.400; -454.000; -428.000
881.386; -216.000; -503.000; -658.000
881.631; -135.400; -311.000; -166.000
881.877;   46.500;  112.000;  -13.000
882.122; -205.500; -684.000; -600.000
882.367;  -93.200; -136.000; -186.000
882.612;  -75.700;  -80.000; -176.000
882.858; -258.600; -877.000; -823.000
883.103; -150.800; -297.000; -267.000
883.348; -207.500; -759.000; -852.000
883.593; -230.600; -677.000; -602.000
883.838;  -22.400; -311.000;  -24.000
884.083;  114.100;  353.000;  288.000
884.328; -121.700; -564.000; -545.000
884.573;  -61.800; -196.000; -143.000
884.818;  289.900; -694.000; -531.000
885.063;  199.900; -348.000; -315.000
885.308; -163.800; -475.000; -398.000
885.553;   80.900;  245.000;  325.000
885.797; -179.700; -545.000; -615.000
886.042;    5.200;    8.000;   58.000
886.287; -108.700; -253.000; -211.000
886.532;   -4.600;   26.000;  204.000
886.776; -145.100; -407.000; -525.000
887.021; -229.200; -621.000; -574.000
887.265; -223.900; -685.000; -689.000
887.510; -203.300; -557.000; -496.000
887.755; -103.000; -194.000; -164.000
887.999; -207.000; -552.000; -575.000
888.244;  -12.500;  -58.000;  161.000
888.488;   55.800;  371.000;  393.000
888.732; -149.000; -368.000; -520.000
888.977; -177.200; -622.000; -567.000
889.221; -232.200; -683.000; -659.000
889.465; -180.400; -422.000; -566.000
889.710;  -68.300;  -56.000; -299.000
889.954;   86.600;  579.000;  467.000
890.198; -214.600; -584.000; -707.000
890.442; -252.600; -716.000; -712.000
890.687; -248.800; -800.000; -753.000
890.931; -109.000; -273.000; -210.000
891.175; -202.000; -502.000; -500.000
891.419;  -73.600; -105.000; -110.000
891.663;  -99.000; -239.000; -112.000
891.907; -257.900; -801.000; -545.000
892.151; -281.300; -920.000; -815.000
892.395; -164.700; -274.000; -387.000
892.638;   42.700;  408.000;  291.000
892.882; -295.400; -780.000; -867.000
893.126;  114.800;  758.000;  558.000
893.370;  -76.100; -167.000; -168.000
893.614; -204.400; -714.000; -715.000
893.857; -128.600; -183.000; -197.000
894.101; -196.000; -527.000; -631.000
894.345;  -37.900;  300.000;  150.000
894.588;  141.800;  569.000;  380.000
894.832;  -92.600; -178.000;  -84.000
895.075;  -71.300;   15.000;  -92.000
895.319; -193.400; -552.000; -420.000
895.563; -165.000; -413.000; -353.000
895.806; -197.700; -628.000; -741.000
896.049; -109.600; -576.000; -368.000
896.293;  173.200;  527.000;  405.000
896.536; -101.600; -465.000; -468.000
896.779;  -83.800; -149.000;   -1.000
897.023; -166.000; -751.000; -714.000
897.266;   20.300;  325.000;  269.000
897.509; -292.100; -900.000; -901.000
897.752;   28.300;  149.000;  171.000
897.996; -329.200; -972.000; -864.000
898.239;    9.700;  168.000;  102.000
898.482; -173.500; -431.000; -453.000
898.725;  -23.800;  101.000;   53.000
898.968; -244.600; -609.000; -744.000
899.211; -162.600; -513.000; -361.000
899.454; -187.700; -633.000; -539.000
899.697;  -61.100;   90.000;  -43.000
899.940; -258.800; -761.000; -757.000
900.182; -128.600; -335.000; -405.000
900.425;  -85.600; -150.000; -298.000
900.668;   62.000;  491.000;  350.000
900.911; -135.000; -292.000; -345.000
901.154;  -21.000;  141.000;   -3.000
901.396; -185.800; -407.000; -412.000
901.639; -195.000; -430.000; -496.000
901.882; -295.300; -790.000; -809.000
902.124;  -96.800;  -29.000; -143.000
902.367; -157.800; -315.000; -361.000
902.609; -162.300; -476.000; -453.000
902.852;  -82.300; -108.000; -260.000
903.094; -148.100; -458.000; -337.000
903.337;  -17.100;  -26.000;   53.000
903.579; -146.800; -228.000; -441.000
903.821; -225.400; -597.000; -744.000
904.064;  -29.400;   85.000;  127.000
904.306;  -64.300; -126.000; -166.000
904.548; -142.100; -152.000; -366.000
904.790; -129.500; -195.000; -340.000
905.033; -167.500; -625.000; -577.000
905.275; -190.600; -513.000; -524.000
905.517;  141.900;  468.000;  256.000
905.759; -170.300; -667.000; -761.000
906.001; -177.400; -322.000; -369.000
906.243;  -77.400; -162.000; -224.000
906.485;  184.000; -265.000; -207.000
906.727;  107.000; -499.000; -542.000
906.969;   -6.600;  -30.000; -135.000
907.211;  198.100; -316.000; -382.000
907.453;  395.600; -188.000; -237.000
907.695;  -14.800; -158.000; -385.000
907.936;  158.200;  818.000;  706.000
908.178;  -28.700;   92.000; -135.000
908.420;  -67.900; -111.000; -162.000
908.662; -211.200; -633.000; -682.000
908.903;  -94.300; -208.000; -123.000
909.145;  -45.700; -240.000; -305.000
909.386;   89.500;  315.000;  280.000
909.628;  162.500;  363.000;  397.000
909.870;   30.300;   29.000;  264.000
910.111; -163.100; -809.000; -949.000
910.353;   56.600; -123.000; -161.000
910.594;  -15.100; -574.000; -606.000
910.835;  180.400; -265.000; -326.000
911.077;  284.400; -503.000; -604.000
911.318;  498.800; -505.000; -471.000
911.559;  747.700; -577.000; -880.000
911.801; 2505.700; -284.000; -280.000
912.042;21601.200;  -50.000; -159.000
912.283;44534.400;  404.000;  371.000
912.524; 5270.300; -396.000; -457.000
912.765;  850.800; -193.000;   79.000
913.006;  439.000; -307.000; -338.000
913.247;   88.500; -270.000; -290.000
913.488;   52.700;  -43.000;   30.000
913.729; -110.100; -373.000; -373.000
913.970;  -58.600;  -96.000; -292.000
914.211; -104.200; -160.000; -198.000
914.452;  -17.200; -118.000;  -11.000
914.693;  137.700;  510.000;  592.000
914.934;  119.000;  510.000;  440.000
915.175;  -63.600;   53.000;  -95.000
915.415;  -78.200; -137.000;   27.000
915.656;  -50.100;  -28.000;  192.000
915.897; -120.200; -252.000;  -82.000
916.137;  -39.300;   74.000;   -9.000
916.378; -183.600; -573.000; -517.000
916.619;  -99.700; -159.000;  -63.000
916.859;   45.300;  303.000;  330.000
917.100;  372.900; 1655.000; 1070.000
917.340;  206.800;  930.000;  728.000
917.581;  176.100;  965.000;  789.000
917.821;  -10.000; -171.000;  143.000
918.061;   30.000; -199.000;  -72.000
918.302;  -32.400; -152.000; -211.000
918.542;  -16.000;  -22.000;    3.000
918.782;  135.900;  369.000;  377.000
919.023;  293.100;  360.000;  427.000
919.263; 3489.900; 8131.000;  202.000
919.503; 1492.300; -137.000;  -54.000
919.743;  953.700;  390.000;  266.000
919.983;  349.300; -134.000;  -26.000
920.223;  183.600;  135.000;   14.000
920.463;  366.800;  631.000;  554.000
920.703;  292.100;   84.000;   39.000
920.943;  315.900; -110.000;   90.000
921.183;  443.800; -414.000; -405.000
921.423;  946.500;  307.000;  546.000
921.663; 1235.100; -174.000; -257.000
921.903; 2786.300;  237.000;  173.000
922.143;16994.000;  372.000;  389.000
922.383;57282.900;  158.000;  115.000
922.622;14707.500; -120.000;  -15.000
922.862; 1869.000;  796.000;  785.000
923.102;  788.700;  -51.000;   33.000
923.341;  307.200;   59.000;   74.000
923.581;  238.500;  450.000;  360.000
923.821;  101.200;  301.000;  398.000
924.060;  118.100;  351.000;  193.000
924.300;  -88.900;  -16.000; -128.000
924.539;   71.100;  584.000;  473.000
924.779;  126.800;  812.000;  597.000
925.018;   18.200;  247.000;  353.000
925.257;   67.200;  595.000;  666.000
925.497;   22.700;  447.000;  412.000
925.736;  -84.700;  -35.000;  102.000
925.975;  110.000;  687.000;  669.000
926.214;  158.100;  907.000;  850.000
926.454;  130.000;  706.000;  757.000
926.693;   -0.600;  419.000;  543.000
926.932;  184.400; 1021.000;  825.000
927.171;  255.500; 1107.000; 1044.000
927.410;  199.500; 1144.000;  967.000
927.649;  146.800;  924.000;  742.000
927.888;   94.000;  590.000;  564.000
928.127;   98.800;  680.000;  678.000
928.366;  141.800;  842.000;  826.000
928.605;  167.100;  831.000;  737.000
928.844;  553.500; 1451.000; 1393.000
929.083; 1000.300;  770.000;  613.000
929.321;  549.700; 1335.000; 1359.000
929.560;  240.400; 1158.000; 1122.000
929.799;   37.100;  574.000;  475.000
930.038;  234.700; 1025.000; 1394.000
930.276;    0.300;  334.000;  397.000
930.515;   83.100;  827.000;  681.000
930.753;   46.900;  614.000;  589.000
930.992;   43.900;  664.000;  717.000
931.230;  113.000;  847.000;  847.000
931.469;  414.400; 2162.000;  892.000
931.707;  265.100;  840.000;  751.000
931.946;  242.000; 1278.000; 1344.000
932.184;  208.700; 1437.000; 1175.000
932.423;  196.100; 1265.000;  963.000
932.661;  300.500; 1296.000; 1428.000
932.899;  120.000;  987.000;  821.000
933.137;  127.900;  754.000;  564.000
933.376;  279.500; 1664.000; 1335.000
933.614;  392.800; 1759.000; 1196.000
933.852;  195.500; 1357.000; 1171.000
934.090;  400.300; 1722.000; 1747.000
934.328;  279.700; 1252.000; 1457.000
934.566;  254.200; 1431.000; 1110.000
934.804;  353.300; 1263.000; 1309.000
935.042; 1039.400; 1861.000; 1850.000
935.280; 3936.200; 2088.000; 2063.000
935.518; 3041.900; 2113.000; 2007.000
935.756;  730.200; 2481.000; 2316.000
935.994;  379.400; 1808.000; 1751.000
936.231;  768.200; 2890.000; 2950.000
936.469;  494.100; 2367.000; 2378.000
936.707;  436.700; 2220.000; 2167.000
936.945;  562.800; 2825.000; 2882.000
937.182;  539.400; 2679.000; 2741.000
937.420;  765.900; 3602.000; 3031.000
937.657;  858.600; 3365.000; 3478.000
937.895;  768.700; 3331.000; 3488.000
938.133;  680.700; 3540.000; 3528.000
938.370;  841.600; 3896.000; 4191.000
938.607;  899.400; 4488.000; 4205.000
938.845; 1219.200; 5587.000; 5549.000
939.082; 1106.000; 5387.000; 5177.000
939.320; 1195.800; 5799.000; 5728.000
939.557; 1398.900; 6549.000; 6491.000
939.794; 1548.900; 7285.000; 7097.000
940.031; 1898.800; 8421.000; 8368.000
940.269; 2271.700; 9552.000; 9107.000
940.506; 2321.000;10901.000;10507.000

