
Integration time [ms]: 100.000
Averaging Nr. [scans]: 40
Smoothing Nr. [pixels]: 0
Data measured with spectrometer [name]: 2101013U2
Wave   ;Sample   ;Dark     ;Reference
[nm]   ;[counts] ;[counts] ;[counts] 

394.013;   46.359; -450.257; -315.536
394.305;  187.932; -461.258; -419.536
394.596; 1113.303; -676.269; -527.514
394.887; 2705.020; -796.268; -654.518
395.178; 1054.151;  145.736;   11.476
395.470;   86.062; -210.263; -356.526
395.761;  195.810;  305.734;  394.479
396.052;  282.477; -545.284; -306.489
396.343;  280.623; -557.276; -454.503
396.634;  118.841; -200.279; -290.497
396.926;  125.392; -618.268; -565.517
397.217;  101.577;   11.725;  -17.504
397.508;   34.393; -366.273; -154.507
397.799;   60.316; -555.279; -571.497
398.090;    2.185; -973.280; -902.495
398.381;  124.827;   11.708;  -11.473
398.672;    0.578; -585.292; -742.473
398.963;   42.422; -348.279; -373.498
399.254;  114.437;   54.709; -209.475
399.545;  -27.443;-1017.266; -883.520
399.836;   73.087; -407.277; -343.501
400.127;   53.703; -205.295; -209.468
400.418;   60.563; -423.274; -392.506
400.709;   64.348; -359.281; -333.493
401.000;   42.491; -268.291; -309.476
401.290;  115.714;  225.698;  115.545
401.581;   73.410; -166.286; -228.485
401.872;   15.500; -542.298; -486.462
402.163;   53.771; -313.296; -252.467
402.454;   84.663; -123.291; -163.475
402.744;   77.412; -844.297; -813.465
403.035;  463.443; -226.293;  -86.471
403.326;  610.706; -366.292; -384.474
403.617;  400.344;  204.701;  165.539
403.907;  266.308; -593.283; -679.490
404.198; 2399.543; -545.307; -599.446
404.489; 6271.963; -618.283; -588.491
404.779; 2163.168; -618.302; -660.456
405.070;  244.796;  -67.304; -174.451
405.360;  337.770; -259.293; -238.472
405.651;  374.204;  125.699;   98.542
405.942;  190.205;  209.714;  127.516
406.232;  292.345; -432.285; -413.487
406.523;  502.588;  641.706;  758.530
406.813;  107.807; -579.286; -644.484
407.104;  360.501;  261.708;  144.527
407.394;  194.571; -604.299; -591.462
407.685;  150.369;  336.715;  222.513
407.975;   67.162; -400.283; -382.490
408.265;  118.802; -134.289; -190.478
408.556;   65.335; -472.291; -459.475
408.846;  175.889;  474.706;  429.530
409.137;   87.011;   -1.288; -216.480
409.427;   36.870; -193.285; -271.487
409.717;   40.246; -776.273; -692.508
410.007;  149.613;    4.715; -170.486
410.298;  108.781; -360.295; -342.469
410.588;   62.842; -495.285; -510.486
410.878;   23.897; -792.287; -873.482
411.168;  108.977; -481.298; -478.463
411.459;  124.281; -295.283; -242.489
411.749;   63.558; -609.292; -507.474
412.039;   63.984; -755.289; -386.480
412.329;  206.829;   40.722;  132.501
412.619;  194.633;  -62.286; -148.485
412.909;  379.805;  639.711;  594.521
413.199;  330.786; -130.280; -251.495
413.490;  426.346;  521.710;  352.523
413.780;  144.615;-1013.279; -913.496
414.070;  315.999;  -46.276;  235.497
414.360;  381.226; -729.278; -666.498
414.650;  413.593; -726.288; -688.482
414.940;  532.364; -538.280; -441.496
415.230;  942.515;   50.712;   74.519
415.520; 6112.227;  155.730;   66.486
415.809;23990.022; -305.281; -125.493
416.099;18668.789; -388.277; -229.501
416.389; 5137.735;  435.726;  236.494
416.679; 3065.291;   91.738;   85.473
416.969;  520.702; -527.287; -503.483
417.259;  608.942;  341.721;  171.503
417.549;  686.871;  522.718;  318.508
417.838; 1659.019; -205.268; -147.518
418.128; 5504.176;  650.710;  492.522
418.418; 4589.728; -491.272; -579.509
418.708; 3114.710;    9.726;  -48.506
418.997;11561.156; -474.275; -480.505
419.287;12143.592; -733.273; -790.507
419.577;11386.381; -160.283; -123.489
419.866;37687.387; -588.277; -498.501
420.156;38891.748; -242.270;  -55.513
420.446; 7166.533; -112.263;  -26.526
420.735;  904.492; -376.271; -446.512
421.025;  869.825; 1830.722;  315.502
421.314;  705.365; -203.271; -226.512
421.604; 1502.587;   89.732;  233.484
421.893;  880.687; -705.271; -602.511
422.183;  255.833; -487.263; -461.526
422.472;  384.838;  -36.271; -107.511
422.762;  459.637; -416.266; -379.521
423.051;  250.724; -916.276; -916.503
423.341;  319.869; -491.273; -439.507
423.630;  440.368; -121.265;   15.477
423.919;  404.856;   58.725;   49.495
424.209;  378.889;  -31.263;   56.473
424.498;  485.342;   68.732;  161.483
424.787; 1114.773; -535.267; -601.518
425.077; 3388.092;   34.735;   29.478
425.366; 4818.494; -734.262; -744.528
425.655; 9957.145;  639.727;  259.493
425.945;21354.774; -313.247; -268.554
426.234;12076.442;  117.741;  300.467
426.523; 5066.947;  -86.259; -350.534
426.812; 6940.258;  107.734;  159.480
427.101;10196.584; -127.269; -323.515
427.390;13069.902;  -55.270;  -86.514
427.680; 3050.992; -624.257; -411.538
427.969;  499.803; -330.255; -301.540
428.258;  343.884; -385.257; -477.536
428.547;  535.032;  449.728;  397.490
428.836; 1299.244; -421.253; -398.543
429.125; 1885.899; -199.259;  -72.534
429.414;  841.742; -330.251; -294.548
429.703; 3115.867; -231.251; -213.548
429.992; 9346.571; -938.250; -828.549
430.281; 6179.876; -397.264; -331.524
430.570;  607.557;  -21.252;   32.454
430.859;  598.647;  279.741;  352.466
431.148;  445.770;  636.752;  631.446
431.437;  280.382;  391.748;  367.454
431.725;  158.085; -544.257; -481.536
432.014;  102.277; -845.253; -756.545
432.303;  393.471; -149.239; -105.569
432.592;  649.883; -460.263; -178.525
432.881; 1070.746; -601.248; -437.554
433.169; 6167.429; -343.255;  -61.540
433.458;12552.005;  445.765;  540.424
433.747; 5309.425; -397.261; -289.529
434.036;  934.422; -275.242; -280.564
434.324; 2078.983; -395.249; -379.551
434.613; 3655.790;   40.757;  159.437
434.902; 1223.436;  333.760;  439.433
435.190;  593.920;   75.761;  295.431
435.479;  324.397;  -52.245;   83.441
435.767;  115.480; -411.244; -427.561
436.056;  213.342; -340.242; -294.563
436.345;  371.238; -372.240; -223.568
436.633;  391.978;   60.750;  383.450
436.922;  261.590;  208.760;  414.432
437.210;  622.345; -194.236;    1.426
437.499; 2054.578; -583.235; -432.576
437.787; 2292.119; -339.236;  -10.574
438.075;  567.525;   56.761;  162.430
438.364;  768.628;  -44.238;  250.429
438.652;  483.533; -286.226; -138.592
438.941;  131.847;    3.770;  269.415
439.229;   -0.345; -665.252; -466.545
439.517;   35.961; -160.234;  -85.577
439.806;   -6.851; -501.225; -290.595
440.094;  181.119;  377.766;  650.421
440.382;  175.623; -653.233; -302.580
440.670;  219.652; -361.235; -285.576
440.959;   32.291; -347.223; -170.599
441.247;   74.208; -151.229; -109.587
441.535;  108.185; -266.235;   31.423
441.823;   37.541; -497.234; -305.578
442.111;  191.162;  173.771;  327.412
442.400;  574.371; -628.245; -335.559
442.688; 1485.043; -111.234; -620.579
442.976; 1089.004; -786.213; -450.617
443.264;  117.105; -324.224; -364.597
443.552;  111.159; -258.226;   51.408
443.840;  169.958;  602.765;  876.423
444.128;  100.522;  265.767;  269.420
444.416;    8.690; -694.228; -312.588
444.704;   34.871; -465.219;  -92.605
444.992;   61.737;   -0.226;  240.407
445.280;   60.797; -517.230;  -94.585
445.568;   47.033; -694.212; -396.618
445.856;  368.280; -174.221;  357.398
446.143;  796.167;  -54.220;   -7.604
446.431;  674.519;  -25.228;  625.411
446.719;  256.240;  489.783;  675.391
447.007;  204.792;  481.769;  705.416
447.295;  178.513;  597.777;  871.402
447.583;   75.806; -464.229;  -34.587
447.870;  176.627; -434.221; -202.601
448.158;  421.046; -104.230;  129.415
448.446;  332.518; -800.219; -338.604
448.733;  171.282;   13.776;  269.403
449.021;  251.982;   60.788;  341.382
449.309;  197.022; -296.210;  208.379
449.596;  202.836;  128.783;   59.392
449.884;  159.020; -571.222; -325.600
450.172;  153.249; -756.227; -406.590
450.459;  445.087;  645.786;  780.387
450.747; 2369.085; -411.218; -147.608
451.034; 7505.895;  493.772;  889.411
451.322; 6308.665; -413.214; -170.614
451.609;  538.383;  292.777;  508.403
451.897;  605.161; -550.203; -183.634
452.184; 1760.413; -622.223; -400.598
452.472; 1702.294;   97.792;  269.375
452.759;  355.169;  512.781;  864.395
453.047;  115.055; -407.212; -125.617
453.334;   75.627; -732.219; -216.606
453.621;   93.118; -438.214; -161.615
453.909;  118.953;   13.796;  384.368
454.196;  105.898; -299.199; -123.641
454.483;  217.599;  317.798;  540.364
454.771;  140.647; -215.208;  196.374
455.058;   42.375; -316.207;  102.374
455.345;  106.778;   71.807;  344.347
455.632;   86.078; -128.207;  235.373
455.919;   45.771;  -82.196;  182.354
456.207;  -54.697; -774.198; -450.642
456.494;   -9.189; -475.200;  -66.639
456.781;    9.119; -399.202; -198.635
457.068;   53.310; -253.206;  -29.628
457.355;  -30.089; -698.206; -401.629
457.642;    0.417; -552.205; -290.630
457.929;   -7.230; -778.194; -417.651
458.216;   67.630; -575.212; -354.617
458.503;  247.949; -173.193;  -19.652
458.790;  235.745; -864.208; -630.625
459.077;  271.949;  -77.202;  110.364
459.364;  791.637; -350.195; -210.649
459.651; 1695.733;  -46.206;  220.372
459.938;  791.860; -864.209; -665.623
460.225;  149.927;  132.799;  276.363
460.512;  -43.382; -836.197; -688.645
460.799;   91.934;  -32.218;  320.392
461.086;   68.665; -370.200; -251.640
461.372;   39.278; -509.198; -279.642
461.659;  111.622; -165.196;  108.354
461.946;   61.148; -445.193;  -54.651
462.233;  249.338;  842.800;  888.361
462.519;  343.135; -814.201; -464.639
462.806; 1018.793; -768.197; -497.645
463.093;  873.094; -445.191;  -66.656
463.380;  -30.115; -920.186; -824.664
463.666;   63.145; -259.197;  -18.646
463.953;   88.357; -406.195; -243.648
464.239;  183.207; -173.195;  -77.648
464.526;  393.568;  413.806;  743.350
464.813;  349.280; -565.190; -304.658
465.099;  357.499;  606.807;  607.348
465.386;  333.453;  903.807;  921.348
465.672;   24.319; -694.197; -522.645
465.959;   19.398; -598.188; -520.662
466.245;   14.528; -468.193; -359.652
466.532;   79.205; -109.195;   63.352
466.818;   67.310; -357.186; -216.664
467.104;   -5.975; -488.182; -415.672
467.391;  -21.493; -628.189; -459.658
467.677;   30.163; -289.186;    9.335
467.964;    5.739; -682.189; -471.660
468.250;   51.016; -331.186; -160.665
468.536;   61.058;   90.811;  180.341
468.822;  -38.847; -821.184; -574.668
469.109;  123.506;  351.827;  471.311
469.395;  184.313;  729.808;  787.346
469.681;  194.161;   46.811;  156.341
469.967; 1240.616; -699.188; -382.660
470.254; 2672.299; -494.188; -306.662
470.540; 1732.346; -601.196; -476.646
470.826;  238.161; -488.181; -397.675
471.112;  300.031;  288.816;  113.331
471.398;   85.311; -253.183;  -58.670
471.684;   42.139; -626.177; -447.680
471.970;   -3.785; -918.180; -981.675
472.256;   19.787; -521.192; -441.654
472.542;    8.117; -499.171; -434.691
472.828;   -9.954; -743.182; -607.672
473.114;   27.286; -380.166; -283.700
473.400;    4.581; -504.175; -293.684
473.686;   25.742; -452.166; -400.701
473.972;   52.746; -230.174; -131.687
474.258;  -43.394; -925.173; -843.689
474.544;  187.231; -183.178;   -2.679
474.830;  306.133;  -65.175;   45.316
475.116;  487.632; -123.190; -196.658
475.401;  665.192; -558.180; -467.676
475.687;  213.066; -725.180; -718.676
475.973;   15.654; -673.181; -770.673
476.259;  267.235;  736.825;  764.315
476.544;  362.998; -539.176; -437.682
476.830;  823.963; -398.172; -322.690
477.116;  727.271; -430.177; -336.682
477.401;  129.442;  346.820;  358.324
477.687;  -16.744; -289.175; -405.684
477.973;   32.932;   21.819;   28.326
478.258;   -6.138; -448.163; -348.706
478.544;   56.746;   21.815;   61.334
478.829;  -51.628; -818.171; -738.692
479.115;  -43.387; -749.172; -651.690
479.401;  -10.409; -444.174; -449.686
479.686;   40.241; -253.180;  -74.676
479.972;  -43.264; -886.178; -776.680
480.257;   31.787; -258.166;  -65.700
480.542;   -0.049; -614.170; -469.693
480.828;  232.929; 1288.824; 1392.317
481.113;  -29.048; -464.176; -426.683
481.399;  -12.564; -236.161; -202.711
481.684;  -47.439; -620.166; -462.700
481.969;   13.300; -158.159;  -73.713
482.255;   -7.488; -439.169; -285.695
482.540;   -0.238; -569.178; -441.680
482.825;   -3.245; -395.187; -404.663
483.110;  104.965;  -85.169; -105.696
483.396;  187.821; -840.157; -652.718
483.681;  482.421;  543.826;  730.313
483.966;  149.569; -696.160; -700.712
484.251;    6.845; -404.174; -310.687
484.536;    5.922; -356.165; -378.703
484.822;    8.373; -205.173; -218.687
485.107;  -37.790; -599.152; -502.726
485.392;  125.503;  662.836;  541.296
485.677;   80.775;  354.832;  163.302
485.962;   91.494;  160.843;  270.283
486.247;   83.795;  -14.162;   -8.707
486.532;   35.138; -178.166; -325.701
486.817;  155.406;  381.839;  431.291
487.102;  120.943; -453.154; -514.722
487.387;  682.223; -637.156; -652.718
487.672; 1145.233; -154.164;  -38.705
487.957;  742.138; -394.160; -286.711
488.241;  201.451; -290.150; -314.729
488.526;  728.811; -280.152; -148.726
488.811; 1177.514; -881.177; -818.680
489.096;  919.595; -666.154; -702.723
489.381;  500.432;    3.847;  162.275
489.666;  365.361; -428.161; -510.710
489.950;  172.873;  558.846;  627.277
490.235;  -20.354; -480.151; -458.728
490.520;  -55.965; -756.161; -723.710
490.804;  -63.350; -827.156; -736.719
491.089;    4.092; -469.149; -299.732
491.374;   43.182; -132.164;  -75.704
491.658;  -16.396; -817.147; -717.735
491.943;  175.015; -657.152; -609.727
492.227;  260.138; -178.155;  -38.721
492.512;   46.893; -294.157; -341.717
492.797;  -84.439; -713.149; -716.731
493.081;  -47.444; -588.147; -598.735
493.366;  -41.213; -751.161; -635.711
493.650;  194.810;  831.859;  917.254
493.935;   27.178; -648.147; -447.734
494.219;  -45.303; -778.142; -687.743
494.503;  -45.469; -585.150; -487.730
494.788;   43.585;   46.842;   74.285
495.072;  108.878;  184.850;  434.271
495.356;  175.920; -463.148; -343.733
495.641;  465.763; -812.146; -736.736
495.925;  453.230; -976.156; -903.719
496.209;   45.142; -599.149; -451.732
496.494;  -52.152; -763.142; -544.744
496.778;    0.343; -364.154; -360.722
497.062;  -60.220; -819.156; -627.719
497.346;  -27.660; -869.160; -640.711
497.631;  147.274;  580.852;  560.266
497.915;   72.874;  -64.145;  175.261
498.199;   66.771; -341.157; -277.718
498.483;   27.709; -562.152; -508.725
498.767;  202.304;  301.850;  300.271
499.051;  175.989; -126.149; -100.732
499.335;   31.087; -693.149; -739.731
499.619;  -42.089; -381.129; -423.767
499.903;   29.112; -272.155;  -65.721
500.187;   14.250; -588.153; -316.724
500.471;    6.865; -796.152; -595.727
500.755;  102.360;   62.839;  -96.710
501.039;   15.738; -270.155; -357.721
501.323;   81.987;  -21.141;  264.254
501.607;   30.338; -447.163; -503.706
501.891;   -2.677; -607.156; -512.718
502.174;  -32.215; -726.144; -585.741
502.458;   73.419;   89.849;  370.273
502.742;   34.585; -180.138; -191.751
503.026;  111.928; -412.147; -254.734
503.310;  181.799; -437.159; -375.713
503.593;  129.429; -464.147; -325.735
503.877;  118.401; -232.133; -156.760
504.161;  189.577;    2.847;  -50.724
504.444;  142.262; -841.158; -710.716
504.728;  463.256; -487.164; -522.704
505.012;  704.701; -257.150;  -76.729
505.295;  535.061; -417.161; -212.711
505.579;  522.980; -256.156; -496.719
505.862;  732.520; -555.145; -333.738
506.146;  715.876; -681.159; -758.714
506.429;  402.977;  568.841;  461.286
506.713;   64.223; -732.151; -667.728
506.996;  327.167;   90.846;  295.278
507.280;  341.501; -633.165; -474.703
507.563;  233.136; -469.155; -261.721
507.847;   89.201; -423.153; -112.724
508.130;   83.062; -665.161; -456.711
508.413;   96.358; -758.167; -577.700
508.697;  251.933; -151.167;   12.300
508.980;  146.552; -422.153; -312.724
509.263;   -5.718; -466.155; -450.720
509.547;   38.725; -124.150;   82.271
509.830;   47.639; -172.160;  140.289
510.113;   86.879;  128.844;  298.281
510.396;   40.108; -530.152; -300.725
510.680;  187.596; -818.145; -812.738
510.963;  682.297;  184.846;  180.277
511.246;  584.983; -493.150; -357.730
511.529;  268.376; -482.145;  -83.739
511.812;  380.972; -250.134;   10.241
512.095;  261.770; -740.151; -396.728
512.378;   88.858; -317.147; -245.736
512.661;   19.643; -703.137; -623.753
512.944;   23.899; -750.142; -637.744
513.227;   64.015; -170.137; -171.752
513.510;   25.460; -479.144; -671.741
513.793;   33.241; -485.140; -435.747
514.076;  136.957;  -43.127;  -39.771
514.359;   96.793; -294.149; -135.732
514.642;   82.477; -442.142; -567.744
514.925;  730.639;  581.860;  561.253
515.208;  975.744; -498.134; -443.758
515.491;  651.083; -276.133; -182.761
515.773;  369.888; -410.143; -337.742
516.056; 2053.224;  249.864;  409.246
516.339; 2821.603; -754.136; -652.755
516.622; 1977.456; -518.150; -488.730
516.904; 1325.320;  882.857;  975.257
517.187;  612.414; -730.138; -523.752
517.470;  404.344; -568.143; -510.743
517.752;  428.606; -624.136; -470.756
518.035;  341.026; -708.139; -725.749
518.318;  351.879; -799.136; -744.755
518.600; 2389.786; -300.132; -325.762
518.883; 3281.976;  310.858;   88.256
519.165; 1615.282; -585.138; -426.751
519.448;  394.236;  -61.132;  -19.762
519.730;  201.815; -573.126; -415.773
520.013;  328.429;  588.867;  664.240
520.295;  899.624;  -94.134;  -15.759
520.578; 2013.299; -335.131; -305.764
520.860; 2225.236; -254.132;   56.238
521.143; 1148.733; -763.135; -584.756
521.425;  507.827; -251.125; -279.775
521.707;  683.532; -622.127; -380.771
521.990; 1756.908; -199.127;  167.229
522.272; 1993.143; -116.140;   -4.748
522.554;  920.139; -237.143; -157.742
522.836;  379.072;  -24.134;   99.241
523.119;  229.701; -496.148; -189.734
523.401;  148.256; -448.130; -314.766
523.683;   98.019; -865.137; -693.753
523.965;  265.487;  408.862;  260.248
524.247;  277.449;   54.878;  170.220
524.529;  212.374; -451.134; -367.759
524.812;  357.308;   -3.130;  191.234
525.094;  862.636; -773.138; -631.751
525.376; 1335.787; -143.124;   78.223
525.658;  821.026; -441.136; -339.754
525.940;   26.046; -805.131; -671.764
526.222;   33.129; -188.136;  -88.755
526.504;  125.343; -190.131;   32.237
526.786;  190.776; -960.133; -647.760
527.068;  333.417; -124.123;  -67.778
527.349;  150.797; -865.137; -774.754
527.631;  151.711; -137.132;   22.238
527.913;  141.207; -664.127; -450.771
528.195;  141.245; -761.125; -639.774
528.477;  241.094;  -93.134;  -30.758
528.759;  126.858; -648.130; -522.766
529.040;   48.266; -569.123; -293.778
529.322;   59.673; -235.125;  -10.774
529.604;  154.635;  -47.130;   93.233
529.886;  151.814; -546.126; -302.773
530.167;  117.626;  232.870;  192.235
530.449;   49.033;    1.853;   63.265
530.731;   17.623; -572.122; -459.779
531.012;   60.794; -513.120; -216.784
531.294;   78.533; -118.116;  -43.792
531.575;  144.627;  290.875;  538.225
531.857;   45.664; -548.135; -266.757
532.138;  107.110; -113.141;   40.254
532.420;  165.785;  294.865;  403.244
532.701;  249.154; -722.133; -751.760
532.983;  356.707;  232.867;  182.239
533.264;  136.862; -243.126;  175.228
533.546;  -45.271; -491.136; -508.755
533.827;   63.200;  173.867;   -1.759
534.109;   48.514; -352.135;  -80.757
534.390;  104.790; -725.132; -582.762
534.671;  255.085; -270.135;  -82.756
534.953;  142.844; -751.123; -611.779
535.234;   26.543; -426.117; -255.789
535.515;  -84.298; -891.119; -735.785
535.796;  -23.522; -431.128; -193.770
536.078; -122.564;-1050.124; -904.777
536.359;    5.294;  -22.123;    3.221
536.640;  -13.653; -480.125; -197.774
536.921;  162.515;  225.871;  143.232
537.202;  369.158;  -87.138;  -16.751
537.483;  444.548;  251.869;  377.236
537.764;  178.277;   17.870;   98.235
538.045;  -45.707; -543.134; -371.758
538.326;  -29.083; -596.129; -447.768
538.607;   14.308; -686.127; -476.771
538.888;  168.460;   98.879;    5.218
539.169;  170.229; -704.122; -535.781
539.450;  342.164;  236.871;   16.233
539.731;  236.564; -361.121; -182.783
540.012;  137.844;  199.880;  412.216
540.293;   79.406;   82.876;  158.224
540.574;   10.529; -895.113; -717.796
540.855;  454.062;  435.879;  377.218
541.136;  535.902;   47.878;  139.220
541.416;  279.408; -161.130; -220.766
541.697;  196.069; -274.131; -170.763
541.978; 1030.512; -270.135; -315.757
542.259; 1302.783; -211.127; -236.771
542.539;  624.177; -191.116; -186.790
542.820;  191.802;  461.875;  480.225
543.101;  131.223;  -52.145;  -77.738
543.381;   43.983; -638.127; -591.771
543.662;  266.005;  159.873; -254.771
543.942;  581.754; -751.127; -830.770
544.223; 1035.903;  193.878;  161.219
544.504;  662.211; -275.124; -182.777
544.784;  575.414; -592.126; -408.773
545.065; 1627.480;  104.884; -254.791
545.345; 1941.527;  227.881;   14.215
545.626; 1283.228;  -14.113; -108.796
545.906;  868.426;   77.869;   98.235
546.186;  369.044;   92.874;  -95.773
546.467;  201.989;   99.877;  -95.778
546.747;  337.876;  264.884;  327.210
547.027;  361.410;   91.876;  111.223
547.308;  315.603; -376.127; -530.770
547.588;  385.518;  299.871;  371.232
547.868;  191.802;  458.870;  588.235
548.149;  206.138;  609.885;  593.207
548.429;  126.681; -347.127; -299.771
548.709;  195.943; -645.120; -461.784
548.989;  479.212;   84.882;   88.213
549.269; 2135.109;   10.868;  139.239
549.550; 4784.468;  215.877;  117.222
549.830; 4283.621; -758.111; -556.799
550.110;  879.103; -468.110; -320.801
550.390;  827.823; -128.122;  -56.779
550.670; 1126.824; -868.114; -783.795
550.950;  803.012; -509.121; -471.782
551.230;  186.608;  549.879;  460.218
551.510;  -23.614; -381.121; -326.782
551.790;   32.736; -173.109; -127.803
552.070;  268.513;  940.877; 1181.223
552.350;  413.031; -492.119; -377.786
552.630;  590.556;   -2.121;   77.219
552.909;  368.456;  181.884;   73.209
553.189;  247.866;  -49.132;   33.237
553.469;  185.556; -703.119; -514.786
553.749;  192.009; -469.127; -357.772
554.029;  155.372;   33.883;  -24.790
554.308;  145.842; -154.115;  -37.794
554.588;   64.477; -196.128; -204.770
554.868;   59.413; -366.121;  -47.782
555.147;  144.339; -114.115;  -46.793
555.427;  595.833; -260.116; -250.792
555.707; 3839.187; -284.115; -200.793
555.986; 4640.349; -719.111; -538.800
556.266; 2477.475;   23.884;   72.210
556.546;  115.311; -888.121; -675.782
556.825;  239.171; -657.114; -556.794
557.105; 1779.099; -125.128;   17.230
557.384; 2092.205;  122.884;  187.209
557.664;  817.533; -717.116; -508.792
557.943;  108.262; -557.121; -411.782
558.222;  165.165; -345.118; -344.788
558.502;  256.666; -116.115;  -76.793
558.781;  492.286;  194.885;  499.208
559.061;  410.040; -232.118; -227.788
559.340;  290.345;  302.883;  353.211
559.619;  687.150;   93.884;  148.210
559.899;  998.796; -239.117; -266.789
560.178;  919.915; -778.115; -593.793
560.457; 3114.298; -623.117; -562.790
560.736; 4331.550; -472.111; -482.800
561.015; 2915.122; -500.128; -502.769
561.295;  379.906;  180.893;  215.193
561.574;  352.613;  119.885;  116.207
561.853;  517.415;  274.891;  303.197
562.132;  482.593;  -45.114;  182.206
562.411;  425.081;  396.879;  553.219
562.690;  143.586; -592.115; -458.792
562.969;  134.810;  472.888;  630.203
563.248;  521.029; 2966.878; 2487.219
563.527;  259.075; -290.111; -408.800
563.806;  373.731; -650.127; -521.771
564.085;  421.921; -297.105; -206.810
564.364;  234.575; -594.117; -405.790
564.643;  496.657; -276.121; -223.781
564.922; 1853.184;  221.890;  397.198
565.201; 1866.563; -640.109; -700.803
565.479;  820.510; -297.115; -219.792
565.758;  309.750; -810.128; -712.770
566.037;  467.664; -155.109; -100.803
566.316;  228.130; -286.116;  -28.791
566.595;   40.012;  -17.115;  -12.793
566.873;  100.777; -166.111;  -79.801
567.152;  -62.441; -490.113; -590.797
567.431;   12.201; -113.116;    6.210
567.709;   17.031; -344.107; -212.807
567.988;  257.121; -810.114; -769.794
568.266;  510.012; -160.115;  -68.793
568.545;  387.543; -644.100; -514.819
568.824;  589.084;  160.885;  356.208
569.102;  528.296; -351.114; -235.794
569.381;  235.508; -492.116; -407.792
569.659;  -40.594; -553.113; -553.796
569.938;   30.802; -743.122; -465.780
570.216;  109.592; -225.109; -225.804
570.494;  -33.176; -632.114; -572.795
570.773;   17.760;  202.879;  114.218
571.051;    4.441; -373.123; -357.778
571.330;   64.978; -221.113; -174.796
571.608;   36.961; -181.098; -173.823
571.886;  -71.406; -671.111; -581.799
572.164;  -66.937; -739.121; -621.782
572.443;  -53.350; -562.105; -512.811
572.721;  -32.802; -399.117; -289.790
572.999;  -23.258; -280.117; -168.788
573.277;   99.743;  379.894;  620.191
573.555;  292.621;   94.894;   37.190
573.834; 1328.366;  -86.117; -114.788
574.112; 1558.884;  880.893;  811.193
574.390;  465.751; -143.111;  -96.801
574.668;   10.861;  -91.112;  -61.797
574.946;  -17.979; -165.106; -187.810
575.224;   -6.437;   71.891;  -16.803
575.502;  -19.097; -200.116; -204.791
575.780;  -92.038; -767.112; -829.798
576.058;  187.075; 1589.889; 1004.200
576.336;  -35.045; -210.110; -129.801
576.614;  -63.138; -511.112; -340.798
576.891;   55.442; -711.115; -823.794
577.169;  482.000; -158.108; -285.805
577.447;  566.158;  169.893;  202.193
577.725;  279.641;  629.888;  854.201
578.003;   -1.786;  -71.112; -371.798
578.280;   99.459; -208.104; -242.812
578.558;   49.841; -450.115; -422.793
578.836;  128.824; -210.114; -145.795
579.114;   43.260; -630.112; -670.797
579.391;   71.093;   -6.117;  -18.789
579.669;  -86.832; -595.114; -704.794
579.947;  171.255; -326.107; -127.806
580.224;  306.805; -692.107; -524.806
580.502;  321.009;  127.893;   76.193
580.779;   16.624;  -42.117;   75.210
581.057;  -64.558; -584.109; -470.804
581.334; -105.051; -726.102; -695.815
581.612;   38.022;   54.895;  511.190
581.889;  -28.388;  -83.101; -129.818
582.167;  -38.174; -298.099; -190.821
582.444; -110.343; -845.102; -814.817
582.721;   90.682;  657.899;  715.183
582.999;   46.524; -326.100; -167.821
583.276;  506.721; -812.123; -713.779
583.553;  708.302; -364.102; -294.816
583.831;  215.531; -607.104; -631.812
584.108;   50.348;  349.892;  174.195
584.385;    6.098; -122.102;  -98.815
584.662;  -75.448; -651.111; -828.801
584.940;   30.226;  204.889;  204.199
585.217;  -13.270;  -73.113; -303.796
585.494;   24.685;   71.890;  118.198
585.771;  212.643; -250.109; -354.804
586.048;  495.680; -196.113;  -76.796
586.325;  307.305; -721.110; -773.801
586.602;  101.234;  230.896;  213.188
586.879;  -31.330; -499.100; -580.820
587.156;   43.547; -156.105; -331.810
587.433;  -34.095; -701.102; -667.817
587.710;   57.437;  152.888;  234.202
587.987;  289.628; -264.105; -236.811
588.264;  776.089;  315.888;  387.202
588.541; 1359.287;  -61.104;   26.187
588.818; 2638.995;   72.892;  171.196
589.095; 2289.132; -163.104; -174.812
589.371;  379.666; -459.109; -414.804
589.648;   12.934; -581.107; -437.807
589.925;   22.475; -517.114; -621.795
590.202;   10.012; -741.112; -607.798
590.478;   96.254; -166.105;  -73.811
590.755;  273.076; -241.108; -132.806
591.032; 2460.207; -741.110; -699.802
591.308; 3349.951; -732.094; -790.831
591.585; 1766.381; -573.110; -560.802
591.862;  153.906;-1056.102; -950.817
592.138;   61.274; -475.108; -474.805
592.415;  136.210; -486.104; -495.813
592.691; 1462.808;  460.896;  518.188
592.968; 1849.663; -208.098; -123.824
593.244;  895.701; -695.116; -595.790
593.521;   84.256; -105.102;  -42.817
593.797;  -16.576; -810.122; -720.780
594.074;  338.776; -611.096; -588.826
594.350;  642.262;  828.905;  729.172
594.626;  298.702; -303.111; -283.801
594.903;  109.382; -643.101; -645.817
595.179;  196.814;  243.896;  418.187
595.455;   16.560; -136.107; -150.807
595.731;   -8.085;  -19.103;  -38.814
596.008;  -46.879; -464.111; -434.800
596.284;   34.848; -187.100; -242.820
596.560;   62.208; -501.093; -493.833
596.836;  183.024; -173.105;  -70.810
597.112;  323.199; -582.108; -437.805
597.388;  276.399;  -49.097;  -48.826
597.665;  110.158;  437.887;  530.203
597.941;  -57.213; -572.089; -658.839
598.217;    1.210; -323.110; -293.802
598.493;  258.669;   61.891; -204.804
598.769;  500.417; -175.100;  -50.819
599.045;  321.752; -490.108; -562.806
599.321;   34.547; -193.100; -261.820
599.597;  146.019; -355.109; -476.804
599.872;  486.737;  409.896;  429.187
600.148;  347.400;  -61.097; -172.826
600.424;  291.282;   91.893;  202.193
600.700;  229.184; -170.107; -280.807
600.976;  105.669; -442.097; -464.825
601.252;  255.515; -226.109; -272.803
601.527;  191.788; -833.104; -840.813
601.803;  155.530; -453.105; -404.812
602.079;  175.067; -124.100; -118.819
602.354;  555.368; -620.092; -531.835
602.630;  831.230; -140.113; -482.796
602.906; 2321.612; -910.101; -863.818
603.181; 6538.106; -627.119; -534.786
603.457; 5605.173;   98.903; -278.826
603.733;  839.914; -605.120; -626.783
604.008;  971.396; -245.106; -164.810
604.284; 3021.708; -636.101; -580.817
604.559; 2609.391;   -3.112;  -42.799
604.835;  487.724; -163.105; -225.810
605.110;  404.252; -732.099; -892.821
605.385;  680.610;  224.907;  267.167
605.661;  648.190; -625.095; -729.829
605.936; 1129.128; -664.108; -737.806
606.211;  978.772;  -17.103; -170.815
606.487;  181.070; -329.114; -376.794
606.762;   -4.469; -791.119; -745.786
607.037;  -20.676; -501.105; -433.810
607.313;  -52.642; -589.096; -574.828
607.588;  -19.029; -375.106; -137.810
607.863;   42.837;  -28.101; -143.818
608.138;  178.834;  513.890;  516.198
608.413;   20.306; -576.099; -592.822
608.688;   52.699; -203.108; -267.805
608.964;  185.515; -509.106; -218.809
609.239;  247.372; -107.105; -212.810
609.514;  260.330;  281.895;  240.188
609.789;  651.034; -187.104; -716.812
610.064;  868.332; -435.096; -609.827
610.339;  892.191; -855.109; -799.804
610.614; 1162.222; -131.100; -315.820
610.889;  658.780;  215.895;  107.188
611.163;   38.356; -407.104; -591.812
611.438;   81.921;   81.886; -167.794
611.713;    5.283; -467.101; -499.817
611.988;   43.186; -144.101; -328.818
612.263;  -28.201; -771.102; -717.815
612.538;  216.480;  385.887;  251.204
612.812;  168.573; -832.100; -911.820
613.087;  121.686; -358.098; -338.823
613.362;  -63.315; -497.107; -557.807
613.637;   38.593;  261.897;  138.186
613.911;  -16.132; -256.092; -345.835
614.186;  111.633; -249.107; -292.807
614.460;  650.362; -842.081; -758.854
614.735;  760.435;  -55.087;  -17.843
615.010;  165.975;   43.912;  -82.841
615.284;  244.448;  360.892;  246.195
615.559;  342.842; -792.092; -955.835
615.833;  280.354;  -76.099;  -87.822
616.108;    2.629; -225.090; -390.837
616.382;  126.212;  274.913;  402.156
616.656;  162.404; -241.090; -232.837
616.931;  509.129; -785.099; -700.822
617.205; 1044.063; -973.104; -979.813
617.480;  932.850;  -91.125;    6.225
617.754;  165.223; -396.125; -128.774
618.028;    5.993; -369.129; -382.768
618.302;   77.272;   73.892;  -25.805
618.577;  -58.931; -371.103; -518.815
618.851;  -71.738; -399.109; -600.803
619.125;  -49.351; -335.134; -378.759
619.399;  -29.612; -244.104; -374.813
619.673;  -54.641; -330.115; -515.792
619.947;  -40.476; -333.114; -448.795
620.222;  -28.497; -198.110; -204.801
620.496;   20.462;  -47.121;  -96.782
620.770;    3.279; -187.122;  -93.781
621.044;  208.547;  323.895;  346.190
621.318;  719.290; -653.120; -614.783
621.592;  654.688; -430.121; -409.783
621.866;  345.817; -476.112; -572.799
622.140;    9.603; -207.116; -356.791
622.413;   52.771;  138.889;  112.200
622.687;  -37.916; -746.101; -492.817
622.961;   11.597; -130.108; -143.805
623.235;  -60.228; -633.111; -661.800
623.509; -119.796; -816.105; -848.811
623.783;   16.031;  -12.107;   48.193
624.056;  -27.534; -254.120; -280.783
624.330;   50.686;   63.888;   -3.797
624.604;   36.200; -271.116; -355.790
624.877;   66.883;  180.890;   26.198
625.151;   33.668; -249.114; -238.794
625.425;  -41.985; -150.103; -283.814
625.698;  -50.474; -367.119; -374.785
625.972; -101.665; -799.110; -765.802
626.245;   76.976;  685.884;  484.210
626.519;  -57.905; -426.120; -340.784
626.792;  -38.541; -192.107; -380.807
627.066;  -99.928; -485.122; -662.779
627.339;  -90.269; -736.110; -663.802
627.613;   39.944;  351.880;  148.216
627.886;  -63.663;  187.891; -612.803
628.160;  -13.985;  312.880; -161.783
628.433; -101.672; -695.125; -703.775
628.706;  -82.630; -517.120; -615.784
628.979;   23.810;  296.876;  117.223
629.253;  -86.745; -785.119; -833.786
629.526;  353.013; -334.126; -253.772
629.799;  325.342; -641.123; -479.778
630.072;  151.370; -497.128; -516.769
630.346;  -69.524;-1115.116;-1080.790
630.619;  453.285; -467.107; -545.808
630.892;  605.548;  709.889;  593.200
631.165;  333.063;  790.896;  679.187
631.438;  -82.286;-1092.112;-1055.798
631.711;   48.120;  453.877;  257.221
631.984;  -62.753; -523.117; -624.789
632.257;  -71.382; -636.117; -681.789
632.530;  -41.424; -412.119; -433.785
632.803;   10.866; -109.115;    7.207
633.076;  -72.087; -360.123; -422.777
633.349;    0.749;  173.872;  121.231
633.622;  -48.600; -187.119; -240.785
633.895; -136.484; -903.120; -823.783
634.167;  -71.335; -496.126; -525.773
634.440;  -15.017;  -19.116; -137.792
634.713;   -1.421;  -22.119; -120.786
634.986;   75.714;  593.871;  453.233
635.258;  -84.535; -507.115; -597.793
635.531;   96.789;  742.882; -343.788
635.804;  -30.105; -303.117; -318.789
636.077;  -99.396; -830.116; -852.791
636.349;    3.663; -586.115; -474.793
636.622;  388.562; 1695.874; 1392.228
636.894;  243.921; -474.120; -909.784
637.167;  138.731; -836.127; -789.771
637.439;   29.052; -278.128; -213.770
637.712;  -48.161; -312.126; -293.772
637.984;  -86.470; -635.116; -707.791
638.257;  372.839;  515.877;  488.222
638.529;  538.729; -881.125; -924.776
638.802;  241.795; -508.128; -449.769
639.074; -123.322; -927.122; -952.781
639.346; -132.810; -942.135; -930.757
639.619;    3.125;  -79.142; -319.744
639.891;  -24.628;  -83.122; -168.779
640.163;  -68.676; -689.122; -756.780
640.435;   34.051;  273.878;  103.220
640.708;    0.377;  -72.122; -132.780
640.980;  -36.521; -366.122; -362.781
641.252;  192.556;  -25.121;  -71.781
641.524; 1777.458;  580.879;  573.219
641.796; 1796.360;-1094.121; -907.782
642.068;  330.062; -191.121; -300.782
642.340;  -54.212; -486.121; -566.783
642.613;   37.515;  294.880;  323.217
642.885; -107.058; -787.120; -878.783
643.157;  -57.306; -810.120; -658.784
643.428;   63.146;  170.880;  218.216
643.700;  -65.453; -498.120; -425.784
643.972;  -29.001;  -16.119; -133.785
644.244; -102.074; -474.119; -559.785
644.516;  -58.222; -250.119; -114.786
644.788;   58.355;  662.881;  548.214
645.060;  -17.318;  -12.119; -124.786
645.332; -107.417; -525.118; -535.787
645.603;   34.310;  479.882;  342.213
645.875;  -79.313; -334.118; -369.787
646.147;  171.289; 1487.882; 1242.212
646.418;  -65.309; -931.117; -918.788
646.690;  114.368; -714.117; -715.789
646.962;   22.744; -413.117; -451.789
647.233;   -5.479;   15.883;   11.211
647.505;  -91.777; -595.117; -475.790
647.776;   26.750;  328.884;  229.210
648.048;  -26.498; -248.116; -418.790
648.320;  -88.396; -752.116; -679.791
648.591; -162.995;-1055.116; -958.791
648.862;  -91.043; -505.116; -577.792
649.134;   17.759;  115.885;  198.208
649.405;  -34.889; -661.115; -618.792
649.677;  -66.787; -475.115; -598.793
649.948;  -10.160; -181.115; -296.793
650.219;  -21.559;  -37.115; -147.793
650.491;  -79.182; -431.114; -520.794
650.762; -129.280; -705.114; -731.794
651.033;  -94.103; -437.114; -424.795
651.304;  -96.626; -743.114; -728.795
651.576;  -71.799; -680.114; -645.795
651.847;  -26.523; -250.113; -140.796
652.118;  -32.096;  -32.113; -189.796
652.389; -109.944; -639.113; -722.796
652.660;  -37.317; -147.113;  -89.797
652.931; -147.115; -897.112; -871.797
653.202;  -90.663; -382.112; -541.798
653.473;  -63.812; -633.112; -533.798
653.744;  148.615; -595.112; -590.798
654.015;  134.417; -356.112; -303.799
654.286;  -58.306; -642.111; -663.799
654.557;  -64.104; -586.111; -521.799
654.828; -155.727;-1114.111;-1088.800
655.099;  -88.601; -404.111; -291.800
655.370; -102.324; -427.111; -543.801
655.641; -126.697; -656.110; -714.801
655.911; -106.395; -618.110; -638.801
656.182;   49.032;  437.890;  387.198
656.453;   96.384;  830.890;  746.198
656.724;  -74.015; -466.110; -426.802
656.994;  -79.513; -553.109; -568.803
657.265; -116.486; -862.109; -873.803
657.536;  -85.634; -500.109; -377.804
657.806; -107.557; -561.109; -593.804
658.077; -130.330; -866.109; -950.804
658.347;  -90.829; -523.108; -598.805
658.618; -128.902; -646.108; -694.805
658.888;  -29.050;  -41.108;  112.195
659.159;  -79.673; -432.108; -548.806
659.429;  -26.521; -292.108; -349.806
659.700;    2.630; -435.107; -390.807
659.970;  -21.243; -370.107; -359.807
660.241;   12.559; -754.107; -921.807
660.511;  488.211; -147.107; -174.808
660.781;   89.413; -793.106; -748.808
661.052;  -34.110; -222.106; -381.808
661.322;  -34.109;   21.894;   -9.809
661.592;    3.368;  257.894;  148.191
661.862;  -78.930; -369.106; -382.810
662.133; -101.203; -551.105; -502.810
662.403; -117.051; -770.105; -676.810
662.673;  -68.424; -256.105; -213.811
662.943;  -99.923; -612.105; -551.811
663.213;  -21.321;  -85.105;  -81.811
663.483;  -78.444; -593.104; -568.812
663.753;  -47.842; -194.104; -152.812
664.023;  -17.415;   68.896;  -32.813
664.293;  -57.438; -319.104; -126.813
664.563; -118.812; -694.104; -648.813
664.833; -122.560; -743.103; -608.814
665.103; -133.558; -730.103; -793.814
665.373; -124.306; -766.103; -806.814
665.643;  -88.229; -863.103; -918.815
665.913;   23.898; -534.103; -714.815
666.182;  142.124; -685.102; -719.816
666.452;  233.301;  -22.102;  -89.816
666.722;  -26.797; -724.102; -784.816
666.992; -132.795; -948.102; -921.817
667.261; -111.868; -824.102; -808.817
667.531;  208.834;  134.899;   45.183
667.801;  518.285; -440.101; -412.818
668.070;  240.687;  714.899;  697.182
668.340; -109.761; -883.101; -840.819
668.609;   85.041;  588.900;  301.181
668.879;  -79.557; -490.100; -558.819
669.149;  -82.380; -539.100; -516.820
669.418; -103.154; -698.100; -726.820
669.688;  -39.227; -482.100; -666.820
669.957;   62.675; -423.099; -546.821
670.226;  -26.898; -268.099; -331.821
670.496; -108.446; -431.099; -635.822
670.765;  -82.644; -418.099; -501.822
671.034; -136.393; -872.099; -828.822
671.304;  -22.191;   55.902; -111.823
671.573; -166.489;-1085.098; -957.823
671.842;   76.113; -380.098; -294.823
672.112;   24.865; -692.098; -586.824
672.381;   13.192; -239.098; -214.824
672.650; -137.407;-1005.097;-1021.825
672.919; -103.355; -631.097; -507.825
673.188; -112.978; -681.097; -878.825
673.457; -164.951;-1101.097;-1143.826
673.726;  -76.724; -579.096; -646.826
673.995;  -54.672; -533.096; -479.826
674.265;  -25.046; -263.096; -333.827
674.534;    1.731; -183.096; -235.827
674.802;    0.858; -618.096; -703.828
675.071; 1020.710; -886.095; -801.828
675.340; 3832.412; -464.095; -339.828
675.609; 1292.363;  103.905;   82.171
675.878;   67.865; -949.095; -893.829
676.147;   30.942;  -26.095;   -8.829
676.416;   82.194; -210.094; -294.830
676.685;  737.571; 1000.906; -622.830
676.953;   96.773; -603.094; -452.831
677.222;  -36.601; -193.094; -273.831
677.491;  -30.674;  -24.094; -127.831
677.759;  -15.547;   11.907;  172.168
678.028;  -35.120; -279.093; -222.832
678.297;   -1.218;   71.907;  197.168
678.565; -146.441; -898.093; -944.833
678.834;  -68.415; -311.093; -268.833
679.102;  -81.588; -411.092; -391.834
679.371; -148.636; -898.092; -727.834
679.639; -142.334; -797.092; -786.834
679.908; -117.732; -794.092; -724.835
680.176; -170.455; -895.091; -941.835
680.445;  -78.529; -346.091; -352.835
680.713;  -15.827;  -58.091;  -23.836
680.982; -112.475; -523.091; -525.836
681.250; -103.173; -578.091; -507.837
681.518;  -95.421; -534.090; -751.837
681.787;  -16.894; -204.090; -167.837
682.055;  -72.843; -490.090; -422.838
682.323; -154.516; -993.090; -992.838
682.591;   28.986; -216.090; -538.838
682.859;   69.438;    9.911;  -35.839
683.128;   11.190;  232.911;  497.161
683.396; -169.033;-1102.089;-1122.840
683.664;  -47.732; -241.089;   21.160
683.932;  -13.305;  144.911;  -76.840
684.200;  -79.153; -576.088; -320.841
684.468;  -26.826;  -73.088; -124.841
684.736;  -49.249; -214.088; -175.841
685.004; -116.897;-1024.088; -982.842
685.272;  -59.946; -880.088; -774.842
685.540;  -58.494; -499.087; -557.843
685.808;  -91.942; -651.087; -682.843
686.076;  -99.640; -894.087; -969.843
686.343;  -61.938; -601.087; -815.844
686.611;   35.989; -195.087; -224.844
686.879;  467.740; -530.086; -553.844
687.147; 3267.492; -483.086; -480.845
687.414;  925.569;  -12.086; -169.845
687.682;   -0.879; -658.086; -757.846
687.950;  312.198;  259.915;  263.154
688.217;   25.100; -792.085; -760.846
688.485;   -9.699; -632.085; -636.847
688.753;  531.428;  -11.085; -102.847
689.020;  158.280; -820.085; -851.847
689.288;  -89.518; -853.084; -787.848
689.555;  -36.291; -195.084; -148.848
689.823;  -38.339; -241.084; -345.849
690.090;  -84.388; -546.084; -651.849
690.358; -159.286; -877.084; -897.849
690.625;    9.791;  120.917;   45.150
690.892;  -79.682; -403.083; -369.850
691.160;  -15.480;   72.917;  -35.850
691.427;    5.571;  141.917;  130.149
691.694; -135.302; -855.083; -929.851
691.962; -136.775;-1177.082;-1060.852
692.229;   19.152;  127.918;   56.148
692.496;   86.504;  130.918;  -49.852
692.763;    3.631; -164.082; -201.853
693.031;  -75.393; -739.082; -716.853
693.298;  -39.966; -509.081; -368.853
693.565;  330.011; -155.081; -163.854
693.832; 1231.963;   -5.081;   -9.854
694.099;  130.515; -643.081; -642.855
694.366;  -56.108; -882.081; -896.855
694.633;  -72.632; -920.080; -633.855
694.900;  740.395; 4367.920; -114.856
695.167;  425.072; -214.080; -380.856
695.434;   85.849; -646.080; -623.856
695.701;  194.476;  121.921;  -61.857
695.968;  451.803; -365.079; -361.857
696.234; 1041.054; -415.079; -646.858
696.501;10487.206; -776.079; -614.858
696.768; 5200.258; -554.079; -617.858
697.035;  313.935; -632.078; -667.859
697.302;   23.337; -448.078; -552.859
697.568;   11.714; -458.078; -497.859
697.835;  -51.785; -683.078; -624.860
698.102;  -33.433; -498.078; -407.860
698.368;   71.769;  384.923;  396.139
698.635;  -37.104;  -47.077; -424.861
698.901;  -15.077; -240.077; -348.861
699.168;   74.275; -534.077; -456.862
699.435;   71.701;  -72.077;  -13.862
699.701; -113.847; -868.076; -764.862
699.968;  -57.295;  144.924; -441.863
700.234;  -98.618; -783.076; -822.863
700.500;  -49.816; -448.076; -539.864
700.767;   -9.164;   -1.075;   26.136
701.033; -136.888;-1015.075; -963.864
701.299;  -65.161; -450.075; -483.865
701.566;  131.066;  950.925;  763.135
701.832;   36.043;  -31.075;  -76.865
702.098; -111.205;-1054.074;-1034.866
702.365;  -93.103;-1098.074;-1030.866
702.631;  -29.202;-1038.074;-1063.867
702.897; 1373.700; -765.074; -676.867
703.163; 2218.527;  348.926;  254.133
703.429;  151.779; -256.073; -273.868
703.695;  -31.119; -796.073; -792.868
703.961;   12.908; -214.073; -210.868
704.227;  -52.141; -630.073; -725.869
704.493;  125.711;  613.927;  510.131
704.759;  -17.887; -565.072; -540.870
705.025;   23.190; -203.072; -194.870
705.291;  -25.133; -666.072; -562.870
705.557;  196.968;  719.928;   34.129
705.823;   18.395; -742.072; -694.871
706.089;  135.122; -307.071; -326.871
706.355;  391.749; -315.071; -244.872
706.620; 5759.576; -776.071; -729.872
706.886; 7841.903; -309.071; -362.873
707.152;  720.904; -818.070; -973.873
707.418;  -18.244;-1153.070;-1186.873
707.683;  -10.217; -550.070; -530.874
707.949;  -49.165; -547.070; -578.874
708.215;   -8.113; -129.070; -207.874
708.480;  -24.211; -520.069; -420.875
708.746;   94.465;   68.931;   28.125
709.011;  -67.433; -578.069; -612.876
709.277;  -88.306; -538.069; -543.876
709.542;  -45.329; -428.069; -387.876
709.808;   -1.202;  -59.068;   89.123
710.073; -104.025; -577.068; -695.877
710.339;  -34.749; -242.068; -228.877
710.604;   81.103; -780.068; -845.878
710.869;  321.055; -277.068; -366.878
711.135;  -72.793; -715.067; -628.879
711.400;  -90.416; -507.067; -608.879
711.665;  -72.789; -404.067; -479.879
711.931; -100.963; -661.067; -677.880
712.196; -121.661; -876.067; -954.880
712.461;  108.966; -402.066; -490.880
712.726;  121.243; -727.066; -771.881
712.991;  -90.155; -647.066; -664.881
713.256;  -28.003; -350.066; -332.882
713.521;  -61.077; -417.065; -381.882
713.787;  -62.650; -454.065; -472.882
714.052;  -31.023; -214.065; -400.883
714.317; -105.371;-1045.065; -981.883
714.581; 1083.131; -374.065; -268.883
714.846; 1379.108; -822.064; -888.884
715.111;  126.759;  261.936;  257.116
715.376;  -28.914;  -86.064; -223.885
715.641;  -25.412; -365.064; -367.885
715.906;  287.915;   15.936; -551.885
716.171;  139.692;  221.937;  209.114
716.436;   32.894;  -78.063; -104.886
716.700; -118.155; -818.063; -692.886
716.965; -129.703; -794.063; -807.887
717.230;  -87.801; -339.063; -392.887
717.494;  -25.399;  -40.062; -134.888
717.759;  -95.497; -784.062; -640.888
718.024;   11.655;  269.938;  250.112
718.288;   56.731;  685.938;  395.111
718.553; -142.192; -803.062; -977.889
718.817; -148.515; -883.061; -899.889
719.082;  -39.813; -115.061; -125.890
719.346; -147.536;-1000.061; -947.890
719.611;  -47.834; -300.061; -255.891
719.875; -103.283; -568.060; -537.891
720.140;  -63.981; -453.060; -603.891
720.404;   38.871; -136.060; -249.892
720.668;  846.148; -475.060; -411.892
720.933;  309.325;  146.940;  137.108
721.197; -105.724; -667.059; -600.893
721.461; -147.472; -851.059; -826.893
721.725;    0.530;  -21.059; -250.894
721.990;  -59.093; -284.059; -204.894
722.254;  -33.116;  -26.059; -108.894
722.518;  -79.214; -286.058; -442.895
722.782;  -92.113; -743.058; -594.895
723.046;  121.964;  614.942;  570.105
723.310;   30.991;  374.942;  210.104
723.574; -111.682; -654.058; -614.896
723.838; -118.505; -576.057; -642.897
724.102;  -41.153; -226.057; -239.897
724.366; -143.352;-1032.057; -978.897
724.630; -105.700; -749.057; -571.898
724.894;  -81.848; -722.057; -514.898
725.158;  -15.171;   38.944; -295.898
725.422;  -53.719; -394.056; -327.899
725.685;  -74.892; -441.056; -349.899
725.949;  -81.041; -566.056; -519.900
726.213;  -83.414; -732.056; -811.900
726.477;  164.988;-1020.055; -933.900
726.740;  160.640; -274.055; -104.901
727.004;  349.917; -384.055; -510.901
727.268; 3386.619; -442.055; -400.901
727.531;  876.220; -961.055; -775.902
727.795;  -40.628; -713.054; -673.902
728.059;  -69.376; -552.054; -557.903
728.322;  -81.199; -841.054; -669.903
728.586;   19.903; -692.054; -701.903
728.849;  -93.420; -695.053; -756.904
729.112; -122.819; -812.053; -912.904
729.376; -131.967; -959.053; -905.904
729.639;  -78.240; -536.053; -536.905
729.903; -113.138; -733.053; -699.905
730.166;  -45.436; -437.052; -399.906
730.429;  -30.384; -317.052; -468.906
730.693;  -66.258; -355.052; -894.906
730.956;  215.094;  810.948;  651.093
731.219;  694.821; -310.052; -103.907
731.482;  101.523;-1003.051; -894.907
731.745;   80.675; -794.051; -935.908
732.009;    9.577;  -30.051;   50.092
732.272;  -85.772; -904.051; -771.909
732.535;  -44.045; -300.051; -310.909
732.798; -154.468;-1083.050;-1166.909
733.061;  -63.141; -430.050; -456.910
733.324;   10.986;   31.950; -180.910
733.587;   57.938;  290.950;  365.090
733.850;  -70.786; -973.049;-1050.911
734.113;   31.466;   33.951;   32.089
734.376;   10.593; -328.049; -447.912
734.639;  224.145; 1188.951; 1011.088
734.901;   61.197; -180.049; -402.912
735.164;  538.174; -883.048; -837.913
735.427; 1277.300; -166.048; -355.913
735.690;  115.027; -205.048; -234.913
735.952;  -29.446; -923.048; -925.914
736.215;  -31.244;-1113.048;-1009.914
736.478;   37.858; -771.047; -774.915
736.740;  210.184;   33.953;  129.085
737.003;  738.786; -658.047; -672.915
737.266; 4000.988;  -94.047;   46.084
737.528;  419.465; -682.047; -660.916
737.791;  321.717; -316.046; -327.916
738.053;  823.144;  465.954;  649.083
738.316;11289.545; -162.046; -136.917
738.578; 7467.947; -770.046; -736.918
738.841;  444.699; -382.046; -446.918
739.103;  180.476; -875.045; -777.918
739.365;  501.928;   79.955;  -69.919
739.628;   -0.995; -884.045; -805.919
739.890;  -37.094; -758.045; -710.919
740.152;  -44.442; -692.044; -754.920
740.414;  -11.440; -408.044; -359.920
740.677;  -54.813; -785.044; -634.921
740.939;  -46.936; -587.044; -487.921
741.201;  264.066; -432.044; -572.921
741.463;   23.067; -689.043; -745.922
741.725;   11.644;  -21.043; -199.922
741.987;   50.196;  220.957;  116.078
742.249;    2.748; -751.043; -859.923
742.511;  196.925; -703.043; -794.923
742.773;    7.302; -546.042; -546.924
743.035;  131.878;  796.958;  533.076
743.297;  -45.345; -963.042;-1013.924
743.559;  721.082; -278.042; -262.925
743.821;   58.584; -735.042; -744.925
744.083;  -11.314;  -44.041; -149.925
744.345;  -93.537; -869.041; -892.926
744.607;   27.114;   75.959;  122.074
744.868;  -48.884; -490.041; -554.927
745.130; -113.007; -994.041;-1008.927
745.392;   50.895;   -1.040;  -44.927
745.653;  -19.053; -411.040; -378.928
745.915;  157.724;  896.960;  631.072
746.177;   50.775;   35.960;  -43.928
746.438;   -0.173; -428.040; -543.929
746.700;  -57.321; -947.039; -988.929
746.961;    7.006; -659.039; -740.930
747.223;  148.608; -190.039;  -74.930
747.484;   74.085; -391.039; -471.930
747.746;  142.561;  -23.038; -106.931
748.007;   93.438; -647.038; -689.931
748.269;  309.965; -468.038; -440.931
748.530;  475.167; -852.038; -638.932
748.791;  272.219; -354.038; -420.932
749.053;  447.396;  286.963;  163.067
749.314;  444.972; -236.037; -169.933
749.575;  513.724; -945.037; -905.933
749.836;  863.776; -217.037;   86.066
750.098; 2604.103;  -60.037;  -21.934
750.359;37193.230;  414.964;  555.066
750.620; 8927.007; -121.036; -220.935
750.881; 1024.583; -585.036; -513.935
751.142; 1384.060; -950.036; -938.936
751.403;17312.737; -789.036; -705.936
751.664; 7086.814;-1034.035; -999.936
751.925;  490.641; -175.035; -262.937
752.186;  282.117; -298.035; -278.937
752.447;  125.069; -590.035; -445.937
752.708;   27.021; -532.035; -648.938
752.969;    7.848; -566.034; -576.938
753.230;  -19.750; -777.034; -672.939
753.491;  -16.723; -650.034; -631.939
753.751;   74.328;  109.966;   19.061
754.012;   87.805;  258.967;  181.060
754.273;   59.507; -174.033;  -71.940
754.534;   -5.491; -487.033; -580.940
754.794;  -89.364; -926.033; -911.941
755.055;  151.788; 1051.967;  881.059
755.316;  -40.036; -700.032; -566.942
755.576;  -38.934; -606.032; -576.942
755.837;  -59.407; -527.032; -695.942
756.097;  -51.005; -530.032; -564.943
756.358;  -79.803; -725.032; -770.943
756.618;  -53.826; -705.031; -641.943
756.879;   -4.500; -254.031; -349.944
757.139; -129.173;-1098.031;-1116.944
757.400;  -55.696; -538.031; -553.945
757.660;  -22.469; -365.031; -401.945
757.920;    9.458; -266.030; -228.945
758.181;  -25.340; -468.030; -351.946
758.441;  -95.839; -870.030; -809.946
758.701;  -37.462; -308.030; -215.946
758.961;  -24.785; -220.030; -278.947
759.222;  -46.633; -574.029; -502.947
759.482;  -77.931; -683.029; -723.948
759.742;  -87.729; -706.029; -547.948
760.002;   20.772;  -83.029; -143.948
760.262;   19.649;   50.972;  182.051
760.522;  -44.524; -498.028; -574.949
760.782;  -65.397; -738.028; -612.949
761.042;  -38.045; -618.028; -573.950
761.302;   50.157;   55.972;  -18.950
761.562;   46.258; -164.027; -154.951
761.822;   89.560; -710.027; -551.951
762.082;  -48.863;-1104.027;-1093.951
762.342;   63.814; -328.027; -403.952
762.601;   68.516; -567.027; -506.952
762.861;  379.568; -281.026; -207.952
763.121;  425.644; -406.026; -411.953
763.381; 7750.771; -499.026; -485.953
763.640; 7924.448; -139.026; -307.954
763.900;  370.350; -242.026; -203.954
764.160;   81.552; -458.025; -491.954
764.419;   -9.421; -726.025; -782.955
764.679;  -79.070; -795.025; -726.955
764.939;  -17.843; -124.025; -210.955
765.198;  -62.241; -608.025; -563.956
765.458;  -92.389; -710.024; -612.956
765.717;  -79.062; -454.024; -590.957
765.976;  -69.211; -428.024; -411.957
766.236;  -97.059; -475.024; -610.957
766.495;   24.193;  260.977;   73.042
766.755; -105.905;-1090.023; -987.958
767.014;   -6.053; -594.023; -665.958
767.273;  -44.901; -373.023; -397.959
767.533;  -54.175; -228.023; -307.959
767.792;  -44.873; -151.022; -188.960
768.051;  -51.471; -228.022; -276.960
768.310;  -86.944; -546.022; -650.960
768.569;   -8.092; -161.022;    4.039
768.828;  -15.215; -285.022; -363.961
769.088; -119.514;-1050.021; -942.961
769.347;  -84.362; -755.021; -599.962
769.606; -106.260; -876.021; -857.962
769.865; -126.508;-1016.021;-1033.963
770.124;   -0.831; -411.021; -336.963
770.383;  -47.454; -778.020; -910.963
770.641;   -2.353; -398.020; -400.964
770.900;  -64.401; -953.020; -846.964
771.159;  -58.174; -851.020; -951.964
771.418;  -12.097; -917.020; -779.965
771.677;  122.580; -224.019; -293.965
771.936;  134.807; -794.019; -865.966
772.194; 2405.708; -465.019; -437.966
772.453;11003.035; -213.019; -391.966
772.712;  723.262;  416.982;  329.033
772.970;  121.189;   32.982;   63.033
773.229;   84.041;  -22.018;  102.033
773.488;  -97.482; -814.018; -770.968
773.746;   42.494;  296.982;  335.032
774.005;  -16.929;  190.983;  -22.969
774.263;    7.648;  243.983;  177.031
774.522;  -92.550; -422.017; -548.969
774.780;  -99.898; -484.017; -417.970
775.039;  -83.671; -551.017; -531.970
775.297;  -20.570; -135.016; -351.970
775.555; -116.943; -489.016; -612.971
775.814; -123.791; -618.016; -570.971
776.072; -120.889; -749.016; -740.971
776.330; -120.862; -630.016; -520.972
776.589; -125.910; -703.015; -721.972
776.847; -132.684; -645.015; -624.973
777.105; -174.682;-1016.015;-1032.973
777.363;  -90.930; -459.015; -454.973
777.621; -139.753; -660.015; -717.974
777.879;  -25.601;  -42.014;   32.026
778.138;  -99.524; -554.014; -717.974
778.396; -102.148; -585.014; -526.975
778.654; -168.246;-1015.014; -970.975
778.912;  -69.144; -269.014; -371.976
779.170; -150.067; -880.013; -803.976
779.427; -147.140; -922.013; -897.976
779.685; -143.638; -880.013; -832.977
779.943;  -88.412; -654.013; -593.977
780.201; -166.160; -964.012; -883.978
780.459; -133.758; -651.012; -610.978
780.717;  -84.531; -440.012; -390.978
780.974;  -99.854; -449.012; -490.979
781.232;  -66.053; -358.012; -338.979
781.490;  -97.951; -551.011; -472.979
781.747; -118.774; -555.011; -476.980
782.005;   30.003;  462.989;  254.020
782.263; -161.570; -542.011;-1004.981
782.520;  -89.168; -326.011; -501.981
782.778; -170.467;-1013.010;-1051.981
783.035; -177.090; -962.010; -938.982
783.293;  -69.413; -248.010; -206.982
783.550;  -67.886; -134.010; -198.982
783.808; -135.234; -764.010; -776.983
784.065; -174.457; -745.009; -874.983
784.322;  -38.131;   25.991;  -86.984
784.580; -138.379; -915.009; -771.984
784.837; -102.552; -392.009; -466.984
785.094; -144.700; -783.009; -762.985
785.352;  -80.573; -304.008; -404.985
785.609; -109.546; -934.008; -839.985
785.866;  -88.145; -345.008; -401.986
786.123;  -81.818; -639.008; -583.986
786.380;  -99.941; -665.008; -604.987
786.637;  -40.789; -225.007; -380.987
786.895;  -24.512; -456.007; -543.987
787.152;  -52.010; -135.007; -267.988
787.409;  -34.984; -123.007; -225.988
787.666;  -91.082; -299.006; -378.988
787.923; -108.930; -616.006; -695.989
788.179; -107.328; -551.006; -584.989
788.436; -127.476; -585.006; -585.990
788.693;  -32.349;  -92.006;  -87.990
788.950;  152.602; -125.005; -112.990
789.207;  212.104; -381.005; -372.991
789.464;  -61.994; -161.005; -301.991
789.720;   -6.717;  150.995;  110.009
789.977; -187.590;-1003.005; -671.992
790.234;  -35.263;   44.996;  -66.992
790.490; -158.937; -884.004;-1031.993
790.747;  -25.435;  -85.004;   22.007
791.004;  -26.983; -426.004; -348.993
791.260;  -77.306; -430.004; -560.994
791.517;  -84.879; -843.003; -788.994
791.773;  -57.502; -379.003; -342.994
792.030; -110.776; -596.003; -660.995
792.286;  -99.949; -686.003; -636.995
792.543;   -4.172;  -74.002; -159.995
792.799;  -57.470; -584.002; -382.996
793.055; -168.618;-1179.002;-1210.996
793.312;  -92.866; -827.002; -816.997
793.568;  -55.040; -746.002; -599.997
793.824;    7.412; -226.001; -284.997
794.081;   10.389; -447.001; -508.998
794.337;   61.341; -664.001; -561.998
794.593; 1435.968; -319.001; -271.999
794.849; 6488.595; -746.001; -772.999
795.105;  306.896; -270.000; -261.999
795.361;    4.648; -490.000; -457.000
795.617;  -71.500; -875.000; -945.000
795.873;  -52.950; -360.000; -407.000
796.129;  -34.475; -368.000; -306.000
796.385;  -32.325; -124.000; -156.000
796.641;   64.925;  412.000;  550.000
796.897;  -87.900; -666.000; -635.000
797.153;   51.900;  453.000;  357.000
797.409;  -98.350; -785.000; -868.000
797.665;  -68.025; -625.000; -732.000
797.921;  -79.200; -775.000; -762.000
798.176;  -48.125; -744.000; -747.000
798.432;  -59.425; -824.000; -596.000
798.688;  -80.775;-1174.000;-1078.000
798.943;   83.275; -165.000; -147.000
799.199;   -9.725;-1005.000; -959.000
799.455;  239.600;  369.000;  316.000
799.710;  127.600; -813.000; -380.000
799.966;  288.400; -162.000; -160.000
800.221;  470.950; -638.000; -721.000
800.477;11077.075; -743.000; -710.000
800.732; 8983.850; -773.000; -800.000
800.988;  640.900;  205.000;  -19.000
801.243; 1954.550; -454.000; -344.000
801.498; 7759.975; -814.000; -739.000
801.754;  409.175; -289.000; -163.000
802.009;   81.800; -257.000; -335.000
802.264;  -54.425; -967.000;-1033.000
802.520;   21.650;  222.000;   -3.000
802.775;  -53.775; -524.000; -359.000
803.030;   40.550;  395.000;  356.000
803.285; -110.825; -840.000; -903.000
803.540;  -56.375; -686.000; -699.000
803.795;  -56.525; -648.000; -583.000
804.051;  -46.125; -279.000; -346.000
804.306;   19.325;  168.000;  128.000
804.561;  140.775;  451.000;  362.000
804.816;  129.050;  714.000;  861.000
805.071;   13.050; -185.000; -280.000
805.325;  209.775; -257.000; -427.000
805.580;  -97.750; -841.000; -877.000
805.835;  -19.650; -204.000; -297.000
806.090;  -89.700; -760.000; -676.000
806.345;  -24.850; -344.000; -264.000
806.600;  -36.325; -549.000; -632.000
806.854;  -31.425; -408.000; -538.000
807.109;  -14.650; -493.000; -577.000
807.364;    4.975; -407.000; -328.000
807.618;  -17.175; -415.000; -381.000
807.873;   56.050; -470.000; -494.000
808.128;   90.550; -257.000; -518.000
808.382;  109.875; -224.000; -332.000
808.637;   78.200; -440.000; -511.000
808.891;  188.725; -257.000; -180.000
809.146;   99.875; -902.000; -794.000
809.400;  265.275; -848.000; -923.000
809.654;  329.975; -779.000; -551.000
809.909;  491.350; -841.000; -927.000
810.163; 7087.025; -813.000; -651.000
810.418;16774.075; -940.000; -861.000
810.672; 1005.750; -685.000; -690.000
810.926;  730.750; -993.000; -973.000
811.180; 1447.775; -439.000; -372.000
811.434;33067.800;  240.000;  135.000
811.689;12022.200; -231.000; -365.000
811.943;  615.200; -936.000; -953.000
812.197;  315.650; -893.000; -671.000
812.451;  127.725; -379.000; -514.000
812.705;  -28.925; -809.000; -619.000
812.959;    3.100; -263.000; -388.000
813.213;  -16.975; -283.000; -209.000
813.467;   62.450;  470.000;  253.000
813.721;  -90.700; -764.000; -792.000
813.975; -117.350; -826.000; -877.000
814.229;   35.475;  430.000;  353.000
814.482;  -82.775; -517.000; -566.000
814.736; -117.625; -766.000; -744.000
814.990; -137.325; -779.000; -872.000
815.244;  -51.675; -228.000; -285.000
815.497;  -97.225; -636.000; -601.000
815.751;   -6.725; -141.000;   82.000
816.005;  -85.200; -470.000; -586.000
816.258;  -71.825; -510.000; -363.000
816.512; -119.925; -693.000; -610.000
816.766;   -1.275;  121.000;  157.000
817.019;   30.600;  148.000;  149.000
817.273; -135.175;-1000.000; -802.000
817.526;  -43.325; -206.000; -173.000
817.779;  -37.475;-1049.000; -960.000
818.033;  -71.175; -693.000; -807.000
818.286; -126.350; -725.000; -792.000
818.540;  -93.700; -403.000; -403.000
818.793;  -68.025; -402.000; -489.000
819.046;  -96.975; -582.000; -520.000
819.299;  -45.075; -157.000; -166.000
819.553; -111.475; -552.000; -592.000
819.806; -168.600;-1016.000; -838.000
820.059;  -61.575; -334.000; -354.000
820.312;   28.550;  152.000;  185.000
820.565;  -20.650;  110.000;  -27.000
820.818;  -53.375;  -59.000; -173.000
821.071; -166.900;-1041.000; -957.000
821.324; -111.575; -536.000; -540.000
821.577;  -94.325; -457.000; -483.000
821.830;  -83.975; -270.000; -172.000
822.083; -139.150; -733.000; -288.000
822.336;  -53.350; -261.000; -167.000
822.589; -143.575; -805.000; -688.000
822.842; -148.175; -875.000; -770.000
823.094; -186.350;-1076.000;-1114.000
823.347; -136.350; -925.000; -729.000
823.600;    6.800;  402.000;  187.000
823.853;  -59.650; -311.000; -267.000
824.105;  -85.625; -331.000; -575.000
824.358; -117.525; -617.000; -716.000
824.611;   28.125;  234.000;   40.000
824.863;  -43.250; -612.000; -591.000
825.116;   47.450;  -33.000;   27.000
825.368;   60.200; -366.000; -372.000
825.621;  166.200; -186.000; -240.000
825.873;   66.050; -704.000; -737.000
826.126;  646.400; -669.000; -641.000
826.378;11948.825; -389.000; -505.000
826.630; 2603.650; -890.000; -898.000
826.883;   24.100; -754.000; -693.000
827.135;   42.900; -279.000; -270.000
827.387; -115.400; -893.000; -839.000
827.639;  -18.125;  -86.000;   32.000
827.892; -125.150; -742.000; -582.000
828.144; -146.400; -848.000; -804.000
828.396;  -44.050;  104.000;  -80.000
828.648; -104.000; -440.000; -333.000
828.900; -155.600; -702.000; -795.000
829.152;  -94.625; -684.000; -683.000
829.404;  -75.025; -215.000; -267.000
829.656;  -52.425;  321.000;  214.000
829.908;  -24.600;  393.000;  229.000
830.160; -179.925;-1064.000;-1047.000
830.412; -109.650; -481.000; -430.000
830.664; -130.575; -557.000; -665.000
830.916;  -83.150; -268.000; -206.000
831.167; -186.850;-1073.000; -951.000
831.419; -122.125; -623.000; -566.000
831.671; -158.700; -764.000; -809.000
831.923;  -95.150; -311.000; -447.000
832.174;  -75.250; -273.000; -331.000
832.426; -117.825; -493.000; -582.000
832.678; -184.725;-1043.000;-1091.000
832.929; -165.075; -947.000; -935.000
833.181;  -68.375; -575.000; -677.000
833.432;  -45.125;  -59.000; -186.000
833.684;  -20.300;  112.000;  -27.000
833.935; -113.500; -610.000; -566.000
834.187; -131.400; -829.000; -823.000
834.438;  -42.275;  -58.000;  -25.000
834.689;  -67.175; -255.000; -123.000
834.941;  -57.650; -343.000; -244.000
835.192;  -87.125; -590.000; -533.000
835.443; -107.500; -419.000; -506.000
835.695;  -10.650;  138.000;  -16.000
835.946;  -99.650; -608.000; -378.000
836.197; -115.625; -599.000; -622.000
836.448;  -94.500; -528.000; -395.000
836.699;  -51.750; -253.000; -341.000
836.950;   -7.825;   72.000;    7.000
837.201; -156.150;-1003.000; -987.000
837.452;  -53.075; -356.000; -170.000
837.703; -126.925; -791.000; -737.000
837.954;  -43.450; -205.000; -365.000
838.205;  -83.775;-1029.000;-1008.000
838.456;  161.650; -196.000; -282.000
838.707;   -8.550; -423.000; -519.000
838.958;   -2.425; -634.000; -647.000
839.209;  275.025;   18.000;   40.000
839.460;  105.550; -439.000; -201.000
839.710;  172.675; -135.000; -297.000
839.961;  404.350;  730.000;  612.000
840.212;  338.825; -382.000; -497.000
840.462; 1189.225; -328.000; -277.000
840.713;18608.350; -571.000; -536.000
840.964; 6774.850;  -62.000; -143.000
841.214;  475.300; -384.000; -624.000
841.465;  553.400; -214.000; -141.000
841.715;  500.775; -417.000; -380.000
841.966;  670.375; -746.000; -685.000
842.216; 9712.050; -330.000; -431.000
842.466;33879.525; -169.000; -313.000
842.717; 1649.200; -964.000; -952.000
842.967;  321.650; -635.000; -641.000
843.217;  269.650;   20.000;   28.000
843.468;   73.575; -104.000; -132.000
843.718;  -39.600; -718.000; -726.000
843.968; -105.550; -837.000; -765.000
844.218;    4.200; -315.000; -262.000
844.469;  -61.875; -577.000; -561.000
844.719; -103.025; -537.000; -682.000
844.969;  -94.925; -550.000; -580.000
845.219; -143.600; -814.000; -862.000
845.469;  -85.600; -392.000; -342.000
845.719; -143.175; -792.000; -884.000
845.969;  -14.775;  119.000;  174.000
846.219; -128.200; -738.000; -720.000
846.469;   19.200;  464.000;  432.000
846.718;  -63.275; -115.000;   31.000
846.968; -155.825; -827.000; -827.000
847.218;  -43.575; -224.000; -371.000
847.468;   -4.600; -586.000; -555.000
847.718; -151.350; -827.000; -798.000
847.967; -134.525; -826.000; -915.000
848.217; -105.025; -449.000; -569.000
848.467;  -80.225; -405.000; -376.000
848.716; -107.275; -708.000; -725.000
848.966;   -9.650; -372.000; -358.000
849.215;  -72.250; -428.000; -419.000
849.465;  -99.025; -785.000; -615.000
849.714; -153.525;-1132.000;-1150.000
849.964;  -61.750; -551.000; -613.000
850.213;  -26.925; -393.000; -355.000
850.463;   64.650;  137.000;  340.000
850.712;   -9.075; -542.000; -567.000
850.961;    6.450; -739.000; -678.000
851.211;  105.900; -513.000; -504.000
851.460;  165.450; -635.000; -650.000
851.709;  572.350;  -25.000;   18.000
851.958;10986.000; -912.000; -750.000
852.208;12232.850; -859.000; -879.000
852.457;  425.300; -181.000;  -13.000
852.706;   72.275; -791.000; -823.000
852.955;   -0.250; -507.000; -528.000
853.204;  -80.975; -521.000; -461.000
853.453;  -73.675; -418.000; -458.000
853.702; -142.075; -660.000; -750.000
853.951; -114.050; -532.000; -520.000
854.200; -109.800; -613.000; -562.000
854.449; -138.450; -695.000; -661.000
854.698;  -95.875; -340.000; -279.000
854.946;  -64.975; -181.000; -284.000
855.195; -164.825; -843.000; -868.000
855.444; -116.075; -395.000; -420.000
855.693; -124.000; -345.000; -432.000
855.941; -107.700; -387.000; -516.000
856.190;  -46.525; -256.000; -382.000
856.439; -139.500; -652.000; -703.000
856.687;  -60.850;  -99.000;  -72.000
856.936; -145.400; -621.000; -323.000
857.184; -192.500;-1067.000;-1020.000
857.433;  -99.775; -423.000; -512.000
857.681; -164.750; -989.000; -953.000
857.930;  -79.475; -282.000; -433.000
858.178; -170.325; -856.000; -929.000
858.427; -155.975; -802.000; -781.000
858.675; -129.325; -377.000; -544.000
858.923; -129.175; -527.000; -819.000
859.172; -184.125;-1094.000;-1070.000
859.420; -102.800; -339.000; -239.000
859.668; -135.425; -624.000; -628.000
859.916;  -35.800;  109.000;  115.000
860.164; -117.175; -699.000; -603.000
860.413;  278.150; -878.000; -696.000
860.661;  187.225; -709.000; -577.000
860.909;  -92.975; -339.000; -325.000
861.157;  -89.825; -277.000; -444.000
861.405; -130.950; -534.000; -670.000
861.653;    4.700;  310.000;  310.000
861.901;  178.375; -543.000; -613.000
862.149;  -27.900; -801.000; -824.000
862.396;  -85.750; -297.000; -187.000
862.644;  -83.250; -368.000; -347.000
862.892;  -50.100;   98.000;  138.000
863.140; -137.350; -549.000; -530.000
863.388; -168.650; -815.000; -759.000
863.635; -143.800; -642.000; -601.000
863.883;  -36.400;  231.000;  190.000
864.131; -102.000; -288.000; -357.000
864.378; -133.725; -675.000; -540.000
864.626; -104.450; -347.000; -415.000
864.873; -116.900; -556.000; -505.000
865.121; -145.100; -714.000; -799.000
865.368;  -50.450; -173.000;   75.000
865.616;  -60.325;  -33.000;  -40.000
865.863;  -68.250; -462.000; -506.000
866.111; -120.525; -795.000; -824.000
866.358;   35.325; -426.000; -420.000
866.605; 2412.225;  -64.000; -804.000
866.853; 2254.050; -621.000; -537.000
867.100;  -45.175; -728.000; -775.000
867.347; -106.975; -672.000; -611.000
867.594;  -82.850; -740.000; -714.000
867.841;   72.575;   97.000;   17.000
868.089; -158.575; -746.000; -698.000
868.336; -113.775; -477.000; -420.000
868.583; -148.350; -637.000; -741.000
868.830;  -66.125; -131.000; -170.000
869.077; -168.450; -859.000; -787.000
869.324; -140.225; -502.000; -458.000
869.571; -128.850; -398.000; -430.000
869.818; -120.050; -485.000; -439.000
870.065; -121.200; -439.000; -513.000
870.311; -114.975; -456.000; -542.000
870.558; -109.875; -332.000; -311.000
870.805;  -99.475; -320.000; -384.000
871.052; -119.925; -494.000; -369.000
871.298;  -62.625; -204.000; -131.000
871.545;  -73.375; -151.000; -185.000
871.792;  -93.125; -173.000; -222.000
872.038;  -74.375;   43.000; -126.000
872.285; -123.450; -496.000; -387.000
872.532; -103.850; -357.000; -387.000
872.778;   -0.925;  556.000;  403.000
873.025; -101.350; -384.000; -359.000
873.271;   14.875;  501.000;  578.000
873.517;  -30.700; -133.000; -209.000
873.764;  -47.100; -193.000;  -80.000
874.010;  -77.325; -143.000; -230.000
874.257;  -40.075;  123.000;   90.000
874.503; -139.975; -579.000; -479.000
874.749;  -65.800;   31.000;  275.000
874.995;  -63.775;  -80.000;  -20.000
875.242; -146.975; -540.000; -478.000
875.488; -107.075; -414.000; -439.000
875.734;  -59.400; -106.000; -234.000
875.980;  196.725; -872.000;-1032.000
876.226;  346.150; -157.000; -255.000
876.472;    4.800;  343.000;  237.000
876.718;  -50.875;  184.000;  158.000
876.964;  -51.150;   56.000;   55.000
877.210; -180.225; -547.000; -677.000
877.456; -133.400; -630.000; -557.000
877.702; -185.050; -821.000; -832.000
877.948; -123.475; -377.000; -497.000
878.193;   17.925;  361.000;  255.000
878.439;  -98.150; -487.000; -472.000
878.685; -101.500; -272.000; -343.000
878.931; -135.175; -618.000; -676.000
879.176;  -92.925; -201.000; -201.000
879.422; -179.850; -933.000; -820.000
879.668;   71.150;   10.000;   79.000
879.913;  129.925;   53.000;  137.000
880.159;  -67.000; -112.000;  -17.000
880.404;  -65.300; -152.000; -162.000
880.650;  -50.075;   91.000;  141.000
880.895; -167.125; -670.000; -710.000
881.141; -127.150; -454.000; -428.000
881.386; -148.450; -503.000; -658.000
881.631;  -94.550; -311.000; -166.000
881.877;  -32.800;  112.000;  -13.000
882.122; -141.225; -684.000; -600.000
882.367;  -88.900; -136.000; -186.000
882.612;  -72.100;  -80.000; -176.000
882.858; -174.225; -877.000; -823.000
883.103; -105.175; -297.000; -267.000
883.348; -159.300; -759.000; -852.000
883.593; -164.150; -677.000; -602.000
883.838;  -66.300; -311.000;  -24.000
884.083;   19.650;  353.000;  288.000
884.328;  -91.800; -564.000; -545.000
884.573;  -54.500; -196.000; -143.000
884.818;  185.350; -694.000; -531.000
885.063;  165.850; -348.000; -315.000
885.308; -113.500; -475.000; -398.000
885.553;  -15.275;  245.000;  325.000
885.797; -135.550; -545.000; -615.000
886.042;  -71.775;    8.000;   58.000
886.287; -102.875; -253.000; -211.000
886.532;  -63.125;   26.000;  204.000
886.776; -112.375; -407.000; -525.000
887.021; -151.150; -621.000; -574.000
887.265; -161.350; -685.000; -689.000
887.510; -137.000; -557.000; -496.000
887.755; -101.600; -194.000; -164.000
887.999; -163.325; -552.000; -575.000
888.244;  -56.150;  -58.000;  161.000
888.488;   -6.600;  371.000;  393.000
888.732; -139.950; -368.000; -520.000
888.977; -143.050; -622.000; -567.000
889.221; -166.725; -683.000; -659.000
889.465; -126.575; -422.000; -566.000
889.710;  -95.350;  -56.000; -299.000
889.954;    6.125;  579.000;  467.000
890.198; -157.850; -584.000; -707.000
890.442; -183.075; -716.000; -712.000
890.687; -178.400; -800.000; -753.000
890.931; -106.050; -273.000; -210.000
891.175; -149.800; -502.000; -500.000
891.419;  -81.650; -105.000; -110.000
891.663;  -93.200; -239.000; -112.000
891.907; -156.450; -801.000; -545.000
892.151; -191.350; -920.000; -815.000
892.395; -125.100; -274.000; -387.000
892.638;  -29.075;  408.000;  291.000
892.882; -189.850; -780.000; -867.000
893.126;   19.350;  758.000;  558.000
893.370; -101.700; -167.000; -168.000
893.614; -153.050; -714.000; -715.000
893.857; -102.275; -183.000; -197.000
894.101; -132.575; -527.000; -631.000
894.345;  -54.825;  300.000;  150.000
894.588;    1.325;  569.000;  380.000
894.832;  -96.650; -178.000;  -84.000
895.075;  -90.200;   15.000;  -92.000
895.319; -135.075; -552.000; -420.000
895.563; -124.775; -413.000; -353.000
895.806; -156.450; -628.000; -741.000
896.049;  -75.325; -576.000; -368.000
896.293;   90.425;  527.000;  405.000
896.536;  -75.825; -465.000; -468.000
896.779;  -68.875; -149.000;   -1.000
897.023; -137.450; -751.000; -714.000
897.266;  -40.375;  325.000;  269.000
897.509; -192.750; -900.000; -901.000
897.752;  -46.625;  149.000;  171.000
897.996; -205.525; -972.000; -864.000
898.239;  -48.075;  168.000;  102.000
898.482; -143.050; -431.000; -453.000
898.725;  -33.700;  101.000;   53.000
898.968; -170.850; -609.000; -744.000
899.211; -119.900; -513.000; -361.000
899.454; -145.825; -633.000; -539.000
899.697;  -75.750;   90.000;  -43.000
899.940; -188.900; -761.000; -757.000
900.182; -117.600; -335.000; -405.000
900.425;  -98.825; -150.000; -298.000
900.668;  -39.675;  491.000;  350.000
900.911; -116.575; -292.000; -345.000
901.154;  -60.975;  141.000;   -3.000
901.396; -160.400; -407.000; -412.000
901.639; -151.825; -430.000; -496.000
901.882; -194.975; -790.000; -809.000
902.124;  -91.625;  -29.000; -143.000
902.367; -128.975; -315.000; -361.000
902.609; -144.675; -476.000; -453.000
902.852;  -97.325; -108.000; -260.000
903.094; -133.600; -458.000; -337.000
903.337;  -56.250;  -26.000;   53.000
903.579; -122.250; -228.000; -441.000
903.821; -173.325; -597.000; -744.000
904.064;  -75.850;   85.000;  127.000
904.306;  -95.025; -126.000; -166.000
904.548; -113.775; -152.000; -366.000
904.790; -110.925; -195.000; -340.000
905.033; -142.775; -625.000; -577.000
905.275; -133.700; -513.000; -524.000
905.517;   40.650;  468.000;  256.000
905.759;  -79.925; -667.000; -761.000
906.001; -110.950; -322.000; -369.000
906.243;  -69.025; -162.000; -224.000
906.485;  134.225; -265.000; -207.000
906.727;   94.425; -499.000; -542.000
906.969;  -28.925;  -30.000; -135.000
907.211;  127.550; -316.000; -382.000
907.453;  250.350; -188.000; -237.000
907.695;  -10.850; -158.000; -385.000
907.936;   31.575;  818.000;  706.000
908.178;  -65.200;   92.000; -135.000
908.420;  -75.850; -111.000; -162.000
908.662; -139.575; -633.000; -682.000
908.903; -107.450; -208.000; -123.000
909.145;  -75.675; -240.000; -305.000
909.386;    4.275;  315.000;  280.000
909.628;   40.775;  363.000;  397.000
909.870;    0.075;   29.000;  264.000
910.111; -106.625; -809.000; -949.000
910.353;   26.075; -123.000; -161.000
910.594;   -5.475; -574.000; -606.000
910.835;   88.000; -265.000; -326.000
911.077;  152.400; -503.000; -604.000
911.318;  286.375; -505.000; -471.000
911.559;  445.925; -577.000; -880.000
911.801; 1406.625; -284.000; -280.000
912.042;11061.775;  -50.000; -159.000
912.283;26753.675;  404.000;  371.000
912.524; 3699.025; -396.000; -457.000
912.765;  448.800; -193.000;   79.000
913.006;  214.975; -307.000; -338.000
913.247;   39.750; -270.000; -290.000
913.488;  -12.150;  -43.000;   30.000
913.729;  -99.875; -373.000; -373.000
913.970;  -83.050;  -96.000; -292.000
914.211;  -85.175; -160.000; -198.000
914.452;  -66.525; -118.000;  -11.000
914.693;   16.325;  510.000;  592.000
914.934;   16.075;  510.000;  440.000
915.175;  -71.075;   53.000;  -95.000
915.415;  -96.700; -137.000;   27.000
915.656;  -79.025;  -28.000;  192.000
915.897;  -98.850; -252.000;  -82.000
916.137;  -81.200;   74.000;   -9.000
916.378; -150.425; -573.000; -517.000
916.619;  -95.175; -159.000;  -63.000
916.859;  -27.125;  303.000;  330.000
917.100;  135.000; 1655.000; 1070.000
917.340;   44.050;  930.000;  728.000
917.581;   50.025;  965.000;  789.000
917.821;  -36.850; -171.000;  143.000
918.061;   -0.100; -199.000;  -72.000
918.302;  -72.350; -152.000; -211.000
918.542;  -43.650;  -22.000;    3.000
918.782;   26.650;  369.000;  377.000
919.023;  123.275;  360.000;  427.000
919.263; 1401.300; 8131.000;  202.000
919.503; 1072.000; -137.000;  -54.000
919.743;  614.300;  390.000;  266.000
919.983;  223.100; -134.000;  -26.000
920.223;   71.050;  135.000;   14.000
920.463;  146.025;  631.000;  554.000
920.703;  127.125;   84.000;   39.000
920.943;  151.425; -110.000;   90.000
921.183;  225.475; -414.000; -405.000
921.423;  515.825;  307.000;  546.000
921.663;  742.800; -174.000; -257.000
921.903; 1636.300;  237.000;  173.000
922.143; 9301.525;  372.000;  389.000
922.383;34235.900;  158.000;  115.000
922.622;10526.025; -120.000;  -15.000
922.862; 1163.475;  796.000;  785.000
923.102;  438.100;  -51.000;   33.000
923.341;  170.025;   59.000;   74.000
923.581;   85.425;  450.000;  360.000
923.821;    3.325;  301.000;  398.000
924.060;    5.900;  351.000;  193.000
924.300;  -89.450;  -16.000; -128.000
924.539;  -20.200;  584.000;  473.000
924.779;   10.975;  812.000;  597.000
925.018;  -49.075;  247.000;  353.000
925.257;  -17.775;  595.000;  666.000
925.497;  -49.500;  447.000;  412.000
925.736;  -91.750;  -35.000;  102.000
925.975;  -10.025;  687.000;  669.000
926.214;   15.300;  907.000;  850.000
926.454;    8.400;  706.000;  757.000
926.693;  -43.575;  419.000;  543.000
926.932;   33.975; 1021.000;  825.000
927.171;   59.150; 1107.000; 1044.000
927.410;   45.750; 1144.000;  967.000
927.649;    5.025;  924.000;  742.000
927.888;  -16.625;  590.000;  564.000
928.127;  -15.475;  680.000;  678.000
928.366;   20.150;  842.000;  826.000
928.605;   29.575;  831.000;  737.000
928.844;  238.750; 1451.000; 1393.000
929.083;  622.600;  770.000;  613.000
929.321;  289.325; 1335.000; 1359.000
929.560;   91.100; 1158.000; 1122.000
929.799;  -16.475;  574.000;  475.000
930.038;   64.500; 1025.000; 1394.000
930.276;  -71.775;  334.000;  397.000
930.515;   -0.150;  827.000;  681.000
930.753;  -17.375;  614.000;  589.000
930.992;  -18.850;  664.000;  717.000
931.230;    5.400;  847.000;  847.000
931.469;  157.675; 2162.000;  892.000
931.707;   49.150;  840.000;  751.000
931.946;   50.425; 1278.000; 1344.000
932.184;   61.775; 1437.000; 1175.000
932.423;   42.425; 1265.000;  963.000
932.661;   90.575; 1296.000; 1428.000
932.899;   15.325;  987.000;  821.000
933.137;   15.425;  754.000;  564.000
933.376;  125.550; 1664.000; 1335.000
933.614;  165.775; 1759.000; 1196.000
933.852;   48.175; 1357.000; 1171.000
934.090;  121.475; 1722.000; 1747.000
934.328;  107.075; 1252.000; 1457.000
934.566;   92.950; 1431.000; 1110.000
934.804;  135.025; 1263.000; 1309.000
935.042;  484.925; 1861.000; 1850.000
935.280; 1911.400; 2088.000; 2063.000
935.518; 1671.525; 2113.000; 2007.000
935.756;  360.400; 2481.000; 2316.000
935.994;  165.525; 1808.000; 1751.000
936.231;  350.800; 2890.000; 2950.000
936.469;  189.800; 2367.000; 2378.000
936.707;  144.875; 2220.000; 2167.000
936.945;  208.000; 2825.000; 2882.000
937.182;  200.950; 2679.000; 2741.000
937.420;  300.000; 3602.000; 3031.000
937.657;  428.050; 3365.000; 3478.000
937.895;  346.750; 3331.000; 3488.000
938.133;  320.375; 3540.000; 3528.000
938.370;  332.600; 3896.000; 4191.000
938.607;  389.550; 4488.000; 4205.000
938.845;  535.000; 5587.000; 5549.000
939.082;  478.475; 5387.000; 5177.000
939.320;  538.475; 5799.000; 5728.000
939.557;  628.675; 6549.000; 6491.000
939.794;  720.475; 7285.000; 7097.000
940.031;  912.625; 8421.000; 8368.000
940.269; 1125.750; 9552.000; 9107.000
940.506; 1121.275;10901.000;10507.000

