
Integration time [ms]: 200.000
Averaging Nr. [scans]: 10
Smoothing Nr. [pixels]: 0
Data measured with spectrometer [name]: 2101013U2
Wave   ;Sample   ;Dark     ;Reference
[nm]   ;[counts] ;[counts] ;[counts] 

394.013;   42.009; -450.257; -315.536
394.305;  363.906; -461.258; -419.536
394.596; 1973.851; -676.269; -527.514
394.887; 4696.676; -796.268; -654.518
395.178; 1881.022;  145.736;   11.476
395.470;  158.238; -210.263; -356.526
395.761;  417.698;  305.734;  394.479
396.052;  556.962; -545.284; -306.489
396.343;  545.467; -557.276; -454.503
396.634;  142.720; -200.279; -290.497
396.926;  108.072; -618.268; -565.517
397.217;  175.474;   11.725;  -17.504
397.508;   65.798; -366.273; -154.507
397.799;   35.420; -555.279; -571.497
398.090;  -63.688; -973.280; -902.495
398.381;  177.750;   11.708;  -11.473
398.672;  -48.649; -585.292; -742.473
398.963;   94.130; -348.279; -373.498
399.254;  171.165;   54.709; -209.475
399.545;  -85.907;-1017.266; -883.520
399.836;   82.151; -407.277; -343.501
400.127;  110.814; -205.295; -209.468
400.418;   87.190; -423.274; -392.506
400.709;   66.492; -359.281; -333.493
401.000;   62.171; -268.291; -309.476
401.290;  210.918;  225.698;  115.545
401.581;  114.136; -166.286; -228.485
401.872;   39.072; -542.298; -486.462
402.163;   50.603; -313.296; -252.467
402.454;  158.466; -123.291; -163.475
402.744;   51.589; -844.297; -813.465
403.035;  577.036; -226.293;  -86.471
403.326;  778.756; -366.292; -384.474
403.617;  571.963;  204.701;  165.539
403.907;  395.171; -593.283; -679.490
404.198; 4225.949; -545.307; -599.446
404.489;10652.078; -618.283; -588.491
404.779; 3513.924; -618.302; -660.456
405.070;  406.791;  -67.304; -174.451
405.360;  593.639; -259.293; -238.472
405.651;  663.940;  125.699;   98.542
405.942;  345.329;  209.714;  127.516
406.232;  374.751; -432.285; -413.487
406.523;  809.329;  641.706;  758.530
406.813;  108.533; -579.286; -644.484
407.104;  572.248;  261.708;  144.527
407.394;  225.465; -604.299; -591.462
407.685;  270.850;  336.715;  222.513
407.975;  124.876; -400.283; -382.490
408.265;  212.488; -134.289; -190.478
408.556;   93.461; -472.291; -459.475
408.846;  312.430;  474.706;  429.530
409.137;  158.200;   -1.288; -216.480
409.427;   62.151; -193.285; -271.487
409.717;   30.603; -776.273; -692.508
410.007;  250.141;    4.715; -170.486
410.298;  151.618; -360.295; -342.469
410.588;  120.147; -495.285; -510.486
410.878;   42.217; -792.287; -873.482
411.168;  157.775; -481.298; -478.463
411.459;  224.168; -295.283; -242.489
411.749;   72.559; -609.292; -507.474
412.039;   53.898; -755.289; -386.480
412.329;  351.740;   40.722;  132.501
412.619;  346.933;  -62.286; -148.485
412.909;  608.792;  639.711;  594.521
413.199;  499.412; -130.280; -251.495
413.490;  680.078;  521.710;  352.523
413.780;  200.218;-1013.279; -913.496
414.070;  570.569;  -46.276;  235.497
414.360;  576.934; -729.278; -666.498
414.650;  625.411; -726.288; -688.482
414.940;  880.517; -538.280; -441.496
415.230; 1562.606;   50.712;   74.519
415.520;10781.849;  155.730;   66.486
415.809;40900.192; -305.281; -125.493
416.099;32561.954; -388.277; -229.501
416.389; 9046.586;  435.726;  236.494
416.679; 5331.244;   91.738;   85.473
416.969;  902.624; -527.287; -503.483
417.259; 1079.521;  341.721;  171.503
417.549; 1194.190;  522.718;  318.508
417.838; 2882.575; -205.268; -147.518
418.128; 9447.886;  650.710;  492.522
418.418; 7988.312; -491.272; -579.509
418.708; 5470.587;    9.726;  -48.506
418.997;20115.780; -474.275; -480.505
419.287;20963.197; -733.273; -790.507
419.577;20374.867; -160.283; -123.489
419.866;62978.851; -588.277; -498.501
420.156;63972.943; -242.270;  -55.513
420.446;12357.133; -112.263;  -26.526
420.735; 1374.834; -376.271; -446.512
421.025; 1566.133; 1830.722;  315.502
421.314; 1099.131; -203.271; -226.512
421.604; 2018.164;   89.732;  233.484
421.893; 1155.926; -705.271; -602.511
422.183;  370.933; -487.263; -461.526
422.472;  648.328;  -36.271; -107.511
422.762;  743.402; -416.266; -379.521
423.051;  395.470; -916.276; -916.503
423.341;  472.700; -491.273; -439.507
423.630;  688.411; -121.265;   15.477
423.919;  654.679;   58.725;   49.495
424.209;  647.541;  -31.263;   56.473
424.498;  859.271;   68.732;  161.483
424.787; 1851.581; -535.267; -601.518
425.077; 5567.909;   34.735;   29.478
425.366; 7305.950; -734.262; -744.528
425.655;16814.401;  639.727;  259.493
425.945;36792.844; -313.247; -268.554
426.234;20952.784;  117.741;  300.467
426.523; 8672.691;  -86.259; -350.534
426.812;11881.796;  107.734;  159.480
427.101;17600.459; -127.269; -323.515
427.390;21757.949;  -55.270;  -86.514
427.680; 4601.421; -624.257; -411.538
427.969;  765.437; -330.255; -301.540
428.258;  526.208; -385.257; -477.536
428.547;  910.019;  449.728;  397.490
428.836; 1820.362; -421.253; -398.543
429.125; 2535.294; -199.259;  -72.534
429.414; 1288.496; -330.251; -294.548
429.703; 5427.396; -231.251; -213.548
429.992;15655.801; -938.250; -828.549
430.281;10693.822; -397.264; -331.524
430.570; 1046.881;  -21.252;   32.454
430.859;  896.591;  279.741;  352.466
431.148;  832.637;  636.752;  631.446
431.437;  480.581;  391.748;  367.454
431.725;  271.311; -544.257; -481.536
432.014;  180.473; -845.253; -756.545
432.303;  649.051; -149.239; -105.569
432.592;  950.432; -460.263; -178.525
432.881; 1741.939; -601.248; -437.554
433.169;10667.939; -343.255;  -61.540
433.458;21290.002;  445.765;  540.424
433.747; 9070.058; -397.261; -289.529
434.036; 1367.615; -275.242; -280.564
434.324; 3537.820; -395.249; -379.551
434.613; 6103.005;   40.757;  159.437
434.902; 2119.736;  333.760;  439.433
435.190;  831.249;   75.761;  295.431
435.479;  468.178;  -52.245;   83.441
435.767;  162.290; -411.244; -427.561
436.056;  310.908; -340.242; -294.563
436.345;  616.940; -372.240; -223.568
436.633;  694.313;   60.750;  383.450
436.922;  439.643;  208.760;  414.432
437.210;  833.087; -194.236;    1.426
437.499; 2434.599; -583.235; -432.576
437.787; 2735.086; -339.236;  -10.574
438.075;  767.658;   56.761;  162.430
438.364; 1017.661;  -44.238;  250.429
438.652;  590.819; -286.226; -138.592
438.941;  231.265;    3.770;  269.415
439.229;    3.577; -665.252; -466.545
439.517;  108.711; -160.234;  -85.577
439.806;  -29.658; -501.225; -290.595
440.094;  326.923;  377.766;  650.421
440.382;  214.929; -653.233; -302.580
440.670;  276.798; -361.235; -285.576
440.959;   39.269; -347.223; -170.599
441.247;   80.982; -151.229; -109.587
441.535;  138.309; -266.235;   31.423
441.823;   -0.381; -497.234; -305.578
442.111;  313.888;  173.771;  327.412
442.400;  666.777; -628.245; -335.559
442.688; 1903.322; -111.234; -620.579
442.976; 1234.600; -786.213; -450.617
443.264;  135.452; -324.224; -364.597
443.552;  148.420; -258.226;   51.408
443.840;  304.507;  602.765;  876.423
444.128;  187.427;  265.767;  269.420
444.416;  -12.708; -694.228; -312.588
444.704;   22.313; -465.219;  -92.605
444.992;  142.725;   -0.226;  240.407
445.280;   28.366; -517.230;  -94.585
445.568;   21.006; -694.212; -396.618
445.856;  487.189; -174.221;  357.398
446.143;  957.807;  -54.220;   -7.604
446.431;  866.198;  -25.228;  625.411
446.719;  416.842;  489.783;  675.391
447.007;  308.257;  481.769;  705.416
447.295;  311.564;  597.777;  871.402
447.583;  105.878; -464.229;  -34.587
447.870;  208.484; -434.221; -202.601
448.158;  604.364; -104.230;  129.415
448.446;  366.509; -800.219; -338.604
448.733;  239.155;   13.776;  269.403
449.021;  392.405;   60.788;  341.382
449.309;  298.028; -296.210;  208.379
449.596;  362.836;  128.783;   59.392
449.884;  215.775; -571.222; -325.600
450.172;  221.506; -756.227; -406.590
450.459;  754.375;  645.786;  780.387
450.747; 4053.734; -411.218; -147.608
451.034;12838.099;  493.772;  889.411
451.322;10722.480; -413.214; -170.614
451.609;  952.257;  292.777;  508.403
451.897;  993.022; -550.203; -183.634
452.184; 3031.364; -622.223; -400.598
452.472; 2905.860;   97.792;  269.375
452.759;  621.610;  512.781;  864.395
453.047;  193.901; -407.212; -125.617
453.334;  114.022; -732.219; -216.606
453.621;   89.183; -438.214; -161.615
453.909;  212.010;   13.796;  384.368
454.196;  159.578; -299.199; -123.641
454.483;  338.942;  317.798;  540.364
454.771;  210.464; -215.208;  196.374
455.058;   66.069; -316.207;  102.374
455.345;  252.761;   71.807;  344.347
455.632;  164.574; -128.207;  235.373
455.919;  102.712;  -82.196;  182.354
456.207; -127.415; -774.198; -450.642
456.494;  -17.840; -475.200;  -66.639
456.781;    3.735; -399.202; -198.635
457.068;   91.284; -253.206;  -29.628
457.355;  -65.614; -698.206; -401.629
457.642;  -16.506; -552.205; -290.630
457.929;  -27.452; -778.194; -417.651
458.216;   86.102; -575.212; -354.617
458.503;  420.555; -173.193;  -19.652
458.790;  376.761; -864.208; -630.625
459.077;  486.043;  -77.202;  110.364
459.364; 1360.737; -350.195; -210.649
459.651; 2766.881;  -46.206;  220.372
459.938; 1262.247; -864.209; -665.623
460.225;  249.047;  132.799;  276.363
460.512;  -94.192; -836.197; -688.645
460.799;  166.232;  -32.218;  320.392
461.086;   93.567; -370.200; -251.640
461.372;   14.886; -509.198; -279.642
461.659;  169.214; -165.196;  108.354
461.946;  103.053; -445.193;  -54.651
462.233;  427.363;  842.800;  888.361
462.519;  505.558; -814.201; -464.639
462.806; 1646.409; -768.197; -497.645
463.093; 1441.284; -445.191;  -66.656
463.380;  -73.354; -920.186; -824.664
463.666;   72.611; -259.197;  -18.646
463.953;  159.529; -406.195; -243.648
464.239;  332.229; -173.195;  -77.648
464.526;  668.146;  413.806;  743.350
464.813;  487.301; -565.190; -304.658
465.099;  567.354;  606.807;  607.348
465.386;  562.360;  903.807;  921.348
465.672;   18.109; -694.197; -522.645
465.959;   15.728; -598.188; -520.662
466.245;   10.460; -468.193; -359.652
466.532;  148.326; -109.195;   63.352
466.818;   80.845; -357.186; -216.664
467.104;  -17.394; -488.182; -415.672
467.391;  -63.896; -628.189; -459.658
467.677;   62.751; -289.186;    9.335
467.964;   -1.486; -682.189; -471.660
468.250;  101.255; -331.186; -160.665
468.536;  165.906;   90.811;  180.341
468.822;  -89.527; -821.184; -574.668
469.109;  289.627;  351.827;  471.311
469.395;  368.375;  729.808;  787.346
469.681;  343.310;   46.811;  156.341
469.967; 2038.417; -699.188; -382.660
470.254; 4435.929; -494.188; -306.662
470.540; 2915.812; -601.196; -476.646
470.826;  375.622; -488.181; -397.675
471.112;  539.778;  288.816;  113.331
471.398;  179.385; -253.183;  -58.670
471.684;   25.965; -626.177; -447.680
471.970;  -27.372; -918.180; -981.675
472.256;   18.873; -521.192; -441.654
472.542;   24.743; -499.171; -434.691
472.828;  -16.900; -743.182; -607.672
473.114;   20.609; -380.166; -283.700
473.400;   36.989; -504.175; -293.684
473.686;   52.218; -452.166; -400.701
473.972;   98.911; -230.174; -131.687
474.258;  -96.773; -925.173; -843.689
474.544;  378.452; -183.178;   -2.679
474.830;  553.192;  -65.175;   45.316
475.116;  828.503; -123.190; -196.658
475.401; 1091.731; -558.180; -467.676
475.687;  323.030; -725.180; -718.676
475.973;  -11.388; -673.181; -770.673
476.259;  465.795;  736.825;  764.315
476.544;  573.077; -539.176; -437.682
476.830; 1348.837; -398.172; -322.690
477.116; 1217.075; -430.177; -336.682
477.401;  270.531;  346.820;  358.324
477.687;  -14.810; -289.175; -405.684
477.973;   76.817;   21.819;   28.326
478.258;  -17.651; -448.163; -348.706
478.544;   69.863;   21.815;   61.334
478.829;  -91.049; -818.171; -738.692
479.115; -105.663; -749.172; -651.690
479.401;   -9.195; -444.174; -449.686
479.686;   78.229; -253.180;  -74.676
479.972;  -65.740; -886.178; -776.680
480.257;   33.111; -258.166;  -65.700
480.542;   20.657; -614.170; -469.693
480.828;  482.987; 1288.824; 1392.317
481.113;  -54.116; -464.176; -426.683
481.399;  -30.316; -236.161; -202.711
481.684; -101.990; -620.166; -462.700
481.969;   37.705; -158.159;  -73.713
482.255;  -30.927; -439.169; -285.695
482.540;   -4.640; -569.178; -441.680
482.825;   19.638; -395.187; -404.663
483.110;  172.378;  -85.169; -105.696
483.396;  286.937; -840.157; -652.718
483.681;  854.112;  543.826;  730.313
483.966;  250.196; -696.160; -700.712
484.251;    1.410; -404.174; -310.687
484.536;   17.926; -356.165; -378.703
484.822;   24.815; -205.173; -218.687
485.107;  -58.106; -599.152; -502.726
485.392;  286.634;  662.836;  541.296
485.677;  136.493;  354.832;  163.302
485.962;  206.433;  160.843;  270.283
486.247;  141.161;  -14.162;   -8.707
486.532;   74.712; -178.166; -325.701
486.817;  333.076;  381.839;  431.291
487.102;  155.169; -453.154; -514.722
487.387; 1047.340; -637.156; -652.718
487.672; 1956.042; -154.164;  -38.705
487.957; 1286.487; -394.160; -286.711
488.241;  339.319; -290.150; -314.729
488.526; 1237.996; -280.152; -148.726
488.811; 1915.463; -881.177; -818.680
489.096; 1446.373; -666.154; -702.723
489.381;  824.191;    3.847;  162.275
489.666;  681.684; -428.161; -510.710
489.950;  356.377;  558.846;  627.277
490.235;  -41.188; -480.151; -458.728
490.520;  -82.717; -756.161; -723.710
490.804; -119.457; -827.156; -736.719
491.089;    2.343; -469.149; -299.732
491.374;   66.940; -132.164;  -75.704
491.658;  -55.540; -817.147; -717.735
491.943;  205.303; -657.152; -609.727
492.227;  389.262; -178.155;  -38.721
492.512;   77.533; -294.157; -341.717
492.797; -137.866; -713.149; -716.731
493.081; -103.736; -588.147; -598.735
493.366;  -88.515; -751.161; -635.711
493.650;  425.144;  831.859;  917.254
493.935;   15.559; -648.147; -447.734
494.219; -102.575; -778.142; -687.743
494.503; -100.374; -585.150; -487.730
494.788;   89.220;   46.842;   74.285
495.072;  240.921;  184.850;  434.271
495.356;  237.648; -463.148; -343.733
495.641;  649.174; -812.146; -736.736
495.925;  590.650; -976.156; -903.719
496.209;   51.542; -599.149; -451.732
496.494;  -86.574; -763.142; -544.744
496.778;   18.069; -364.154; -360.722
497.062; -115.351; -819.156; -627.719
497.346;  -59.911; -869.160; -640.711
497.631;  315.053;  580.852;  560.266
497.915;  114.190;  -64.145;  175.261
498.199;  102.637; -341.157; -277.718
498.483;   83.094; -562.152; -508.725
498.767;  373.723;  301.850;  300.271
499.051;  325.539; -126.149; -100.732
499.335;   35.636; -693.149; -739.731
499.619;  -40.004; -381.129; -423.767
499.903;   47.360; -272.155;  -65.721
500.187;   19.380; -588.153; -316.724
500.471;  -20.798; -796.152; -595.727
500.755;  167.983;   62.839;  -96.710
501.039;   62.061; -270.155; -357.721
501.323;  150.247;  -21.141;  264.254
501.607;   42.949; -447.163; -503.706
501.891;  -32.161; -607.156; -512.718
502.174;  -63.593; -726.144; -585.741
502.458;  173.208;   89.849;  370.273
502.742;   90.282; -180.138; -191.751
503.026;  173.358; -412.147; -254.734
503.310;  307.003; -437.159; -375.713
503.593;  218.261; -464.147; -325.735
503.877;  188.843; -232.133; -156.760
504.161;  267.683;    2.847;  -50.724
504.444;  127.923; -841.158; -710.716
504.728;  755.439; -487.164; -522.704
505.012; 1148.918; -257.150;  -76.729
505.295;  884.184; -417.161; -212.711
505.579;  942.549; -256.156; -496.719
505.862; 1284.984; -555.145; -333.738
506.146; 1208.707; -681.159; -758.714
506.429;  731.007;  568.841;  461.286
506.713;   92.014; -732.151; -667.728
506.996;  559.168;   90.846;  295.278
507.280;  539.632; -633.165; -474.703
507.563;  378.558; -469.155; -261.721
507.847;  150.481; -423.153; -112.724
508.130;  146.786; -665.161; -456.711
508.413;  222.904; -758.167; -577.700
508.697;  384.004; -151.167;   12.300
508.980;  248.683; -422.153; -312.724
509.263;  -25.947; -466.155; -450.720
509.547;   81.618; -124.150;   82.271
509.830;  113.289; -172.160;  140.289
510.113;  176.349;  128.844;  298.281
510.396;   62.691; -530.152; -300.725
510.680;  161.186; -818.145; -812.738
510.963;  836.075;  184.846;  180.277
511.246;  654.329; -493.150; -357.730
511.529;  403.094; -482.145;  -83.739
511.812;  606.138; -250.134;   10.241
512.095;  443.310; -740.151; -396.728
512.378;  115.467; -317.147; -245.736
512.661;    7.994; -703.137; -623.753
512.944;   18.328; -750.142; -637.744
513.227;  108.290; -170.137; -171.752
513.510;   13.307; -479.144; -671.741
513.793;   31.053; -485.140; -435.747
514.076;  226.327;  -43.127;  -39.771
514.359;  169.843; -294.149; -135.732
514.642;  176.932; -442.142; -567.744
514.925; 1314.151;  581.860;  561.253
515.208; 1642.932; -498.134; -443.758
515.491; 1111.753; -276.133; -182.761
515.773;  650.412; -410.143; -337.742
516.056; 3523.403;  249.864;  409.246
516.339; 4489.409; -754.136; -652.755
516.622; 2946.826; -518.150; -488.730
516.904; 1742.123;  882.857;  975.257
517.187;  723.188; -730.138; -523.752
517.470;  633.621; -568.143; -510.743
517.752;  704.414; -624.136; -470.756
518.035;  526.669; -708.139; -725.749
518.318;  596.509; -799.136; -744.755
518.600; 4064.358; -300.132; -325.762
518.883; 5429.331;  310.858;   88.256
519.165; 2667.977; -585.138; -426.751
519.448;  607.858;  -61.132;  -19.762
519.730;  317.038; -573.126; -415.773
520.013;  559.247;  588.867;  664.240
520.295; 1169.840;  -94.134;  -15.759
520.578; 2393.577; -335.131; -305.764
520.860; 2768.258; -254.132;   56.238
521.143; 1484.517; -763.135; -584.756
521.425;  746.958; -251.125; -279.775
521.707; 1158.328; -622.127; -380.771
521.990; 2906.528; -199.127;  167.229
522.272; 3308.156; -116.140;   -4.748
522.554; 1480.713; -237.143; -157.742
522.836;  557.837;  -24.134;   99.241
523.119;  318.157; -496.148; -189.734
523.401;  223.388; -448.130; -314.766
523.683;   89.395; -865.137; -693.753
523.965;  497.485;  408.862;  260.248
524.247;  456.989;   54.878;  170.220
524.529;  315.540; -451.134; -367.759
524.812;  589.290;   -3.130;  191.234
525.094; 1388.384; -773.138; -631.751
525.376; 2212.971; -143.124;   78.223
525.658; 1363.805; -441.136; -339.754
525.940;    6.872; -805.131; -671.764
526.222;   43.711; -188.136;  -88.755
526.504;  163.569; -190.131;   32.237
526.786;  186.944; -960.133; -647.760
527.068;  420.679; -124.123;  -67.778
527.349;  139.800; -865.137; -774.754
527.631;  209.658; -137.132;   22.238
527.913;  203.826; -664.127; -450.771
528.195;  265.547; -761.125; -639.774
528.477;  396.333;  -93.134;  -30.758
528.759;  225.590; -648.130; -522.766
529.040;   85.478; -569.123; -293.778
529.322;  127.751; -235.125;  -10.774
529.604;  219.894;  -47.130;   93.233
529.886;  153.038; -546.126; -302.773
530.167;  203.781;  232.870;  192.235
530.449;  118.666;    1.853;   63.265
530.731;   14.788; -572.122; -459.779
531.012;   72.819; -513.120; -216.784
531.294;  142.378; -118.116;  -43.792
531.575;  272.558;  290.875;  538.225
531.857;   82.125; -548.135; -266.757
532.138;  200.244; -113.141;   40.254
532.420;  292.219;  294.865;  403.244
532.701;  237.047; -722.133; -751.760
532.983;  539.052;  232.867;  182.239
533.264;  187.235; -243.126;  175.228
533.546;  -67.190; -491.136; -508.755
533.827;   98.842;  173.867;   -1.759
534.109;   18.525; -352.135;  -80.757
534.390;   88.564; -725.132; -582.762
534.671;  357.219; -270.135;  -82.756
534.953;  177.882; -751.123; -611.779
535.234;   11.255; -426.117; -255.789
535.515; -166.368; -891.119; -735.785
535.796;  -35.880; -431.128; -193.770
536.078; -225.129;-1050.124; -904.777
536.359;    4.183;  -22.123;    3.221
536.640;   -9.751; -480.125; -197.774
536.921;  285.302;  225.871;  143.232
537.202;  614.379;  -87.138;  -16.751
537.483;  716.477;  251.869;  377.236
537.764;  307.381;   17.870;   98.235
538.045; -110.969; -543.134; -371.758
538.326;  -40.796; -596.129; -447.768
538.607;   10.829; -686.127; -476.771
538.888;  295.006;   98.879;    5.218
539.169;  292.998; -704.122; -535.781
539.450;  573.300;  236.871;   16.233
539.731;  336.512; -361.121; -182.783
540.012;  238.919;  199.880;  412.216
540.293;  142.863;   82.876;  158.224
540.574;  -61.491; -895.113; -717.796
540.855;  760.709;  435.879;  377.218
541.136;  798.494;   47.878;  139.220
541.416;  472.691; -161.130; -220.766
541.697;  312.370; -274.131; -170.763
541.978; 1711.422; -270.135; -315.757
542.259; 2096.929; -211.127; -236.771
542.539; 1013.769; -191.116; -186.790
542.820;  336.557;  461.875;  480.225
543.101;  186.089;  -52.145;  -77.738
543.381;   11.828; -638.127; -591.771
543.662;  462.325;  159.873; -254.771
543.942;  893.322; -751.127; -830.770
544.223; 1736.096;  193.878;  161.219
544.504; 1125.970; -275.124; -182.777
544.784;  948.038; -592.126; -408.773
545.065; 2665.174;  104.884; -254.791
545.345; 3115.432;  227.881;   14.215
545.626; 2143.508;  -14.113; -108.796
545.906; 1358.880;   77.869;   98.235
546.186;  608.545;   92.874;  -95.773
546.467;  339.574;   99.877;  -95.778
546.747;  550.068;  264.884;  327.210
547.027;  636.068;   91.876;  111.223
547.308;  499.621; -376.127; -530.770
547.588;  691.005;  299.871;  371.232
547.868;  381.782;  458.870;  588.235
548.149;  350.685;  609.885;  593.207
548.429;  225.226; -347.127; -299.771
548.709;  266.119; -645.120; -461.784
548.989;  833.146;   84.882;   88.213
549.269; 3555.356;   10.868;  139.239
549.550; 7744.880;  215.877;  117.222
549.830; 6929.235; -758.111; -556.799
550.110; 1450.646; -468.110; -320.801
550.390; 1333.488; -128.122;  -56.779
550.670; 1767.601; -868.114; -783.795
550.950; 1316.009; -509.121; -471.782
551.230;  407.503;  549.879;  460.218
551.510;  -20.893; -381.121; -326.782
551.790;  105.958; -173.109; -127.803
552.070;  525.974;  940.877; 1181.223
552.350;  694.138; -492.119; -377.786
552.630;  930.700;   -2.121;   77.219
552.909;  614.375;  181.884;   73.209
553.189;  424.265;  -49.132;   33.237
553.469;  251.237; -703.119; -514.786
553.749;  288.731; -469.127; -357.772
554.029;  279.562;   33.883;  -24.790
554.308;  234.892; -154.115;  -37.794
554.588;   91.019; -196.128; -204.770
554.868;   96.710; -366.121;  -47.782
555.147;  259.487; -114.115;  -46.793
555.427; 1073.778; -260.116; -250.792
555.707; 6389.384; -284.115; -200.793
555.986; 7393.240; -719.111; -538.800
556.266; 4131.566;   23.884;   72.210
556.546;  189.707; -888.121; -675.782
556.825;  402.398; -657.114; -556.794
557.105; 2940.916; -125.128;   17.230
557.384; 3317.573;  122.884;  187.209
557.664; 1319.977; -717.116; -508.792
557.943;  191.709; -557.121; -411.782
558.222;  264.851; -345.118; -344.788
558.502;  475.189; -116.115;  -76.793
558.781;  841.683;  194.885;  499.208
559.061;  657.051; -232.118; -227.788
559.340;  561.658;  302.883;  353.211
559.619; 1205.266;   93.884;  148.210
559.899; 1602.261; -239.117; -266.789
560.178; 1564.489; -778.115; -593.793
560.457; 5296.563; -623.117; -562.790
560.736; 6975.541; -472.111; -482.800
561.015; 4787.212; -500.128; -502.769
561.295;  660.487;  180.893;  215.193
561.574;  544.185;  119.885;  116.207
561.853;  872.464;  274.891;  303.197
562.132;  844.893;  -45.114;  182.206
562.411;  736.300;  396.879;  553.219
562.690;  223.182; -592.115; -458.792
562.969;  313.018;  472.888;  630.203
563.248; 1066.797; 2966.878; 2487.219
563.527;  480.040; -290.111; -408.800
563.806;  631.626; -650.127; -521.771
564.085;  724.410; -297.105; -206.810
564.364;  346.065; -594.117; -405.790
564.643;  859.701; -276.121; -223.781
564.922; 3083.355;  221.890;  397.198
565.201; 2972.260; -640.109; -700.803
565.479; 1384.880; -297.115; -219.792
565.758;  492.216; -810.128; -712.770
566.037;  765.262; -155.109; -100.803
566.316;  410.174; -286.116;  -28.791
566.595;   84.684;  -17.115;  -12.793
566.873;  210.043; -166.111;  -79.801
567.152;  -69.882; -490.113; -590.797
567.431;   76.368; -113.116;    6.210
567.709;   40.188; -344.107; -212.807
567.988;  381.798; -810.114; -769.794
568.266;  847.884; -160.115;  -68.793
568.545;  631.180; -644.100; -514.819
568.824; 1024.779;  160.885;  356.208
569.102;  843.097; -351.114; -235.794
569.381;  371.878; -492.116; -407.792
569.659;  -68.388; -553.113; -553.796
569.938;   31.894; -743.122; -465.780
570.216;  168.866; -225.109; -225.804
570.494;  -66.898; -632.114; -572.795
570.773;  112.107;  202.879;  114.218
571.051;   10.078; -373.123; -357.778
571.330;  102.109; -221.113; -174.796
571.608;   68.307; -181.098; -173.823
571.886;  -89.468; -671.111; -581.799
572.164; -133.090; -739.121; -621.782
572.443;  -83.984; -562.105; -512.811
572.721; -100.737; -399.117; -289.790
572.999;  -39.446; -280.117; -168.788
573.277;  211.806;  379.894;  620.191
573.555;  501.609;   94.894;   37.190
573.834; 2170.053;  -86.117; -114.788
574.112; 2599.391;  880.893;  811.193
574.390;  827.942; -143.111;  -96.801
574.668;    9.119;  -91.112;  -61.797
574.946;   -6.891; -165.106; -187.810
575.224;   19.860;   71.891;  -16.803
575.502;  -49.530; -200.116; -204.791
575.780; -154.379; -767.112; -829.798
576.058;  494.941; 1589.889; 1004.200
576.336;   -6.651; -210.110; -129.801
576.614; -120.679; -511.112; -340.798
576.891;   86.191; -711.115; -823.794
577.169;  779.678; -158.108; -285.805
577.447;  928.290;  169.893;  202.193
577.725;  454.128;  629.888;  854.201
578.003;   60.525;  -71.112; -371.798
578.280;  158.229; -208.104; -242.812
578.558;   71.589; -450.115; -422.793
578.836;  168.602; -210.114; -145.795
579.114;   31.819; -630.112; -670.797
579.391;  140.156;   -6.117;  -18.789
579.669; -160.408; -595.114; -704.794
579.947;  294.186; -326.107; -127.806
580.224;  487.285; -692.107; -524.806
580.502;  544.692;  127.893;   76.193
580.779;   60.565;  -42.117;   75.210
581.057; -132.233; -584.109; -470.804
581.334; -138.749; -726.102; -695.815
581.612;  107.311;   54.895;  511.190
581.889;  -52.429;  -83.101; -129.818
582.167;  -54.507; -298.099; -190.821
582.444; -205.637; -845.102; -814.817
582.721;  242.864;  657.899;  715.183
582.999;  117.889; -326.100; -167.821
583.276;  878.185; -812.123; -713.779
583.553; 1104.256; -364.102; -294.816
583.831;  365.824; -607.104; -631.812
584.108;  156.375;  349.892;  174.195
584.385;   18.651; -122.102;  -98.815
584.662; -111.656; -651.111; -828.801
584.940;  105.743;  204.889;  204.199
585.217;  -25.688;  -73.113; -303.796
585.494;   69.656;   71.890;  118.198
585.771;  365.468; -250.109; -354.804
586.048;  765.111; -196.113;  -76.796
586.325;  443.448; -721.110; -773.801
586.602;  187.130;  230.896;  213.188
586.879;  -40.917; -499.100; -580.820
587.156;  105.012; -156.105; -331.810
587.433;  -71.540; -701.102; -667.817
587.710;  125.022;  152.888;  234.202
587.987;  510.820; -264.105; -236.811
588.264; 1274.625;  315.888;  387.202
588.541; 2204.133;  -61.104;   26.187
588.818; 4177.771;   72.892;  171.196
589.095; 3710.927; -163.104; -174.812
589.371;  589.565; -459.109; -414.804
589.648;    4.491; -581.107; -437.807
589.925;   43.003; -517.114; -621.795
590.202;    8.222; -741.112; -607.798
590.478;  199.322; -166.105;  -73.811
590.755;  479.880; -241.108; -132.806
591.032; 4014.651; -741.110; -699.802
591.308; 5279.067; -732.094; -790.831
591.585; 2897.550; -573.110; -560.802
591.862;  177.862;-1056.102; -950.817
592.138;   83.876; -475.108; -474.805
592.415;  254.131; -486.104; -495.813
592.691; 2415.328;  460.896;  518.188
592.968; 2901.210; -208.098; -123.824
593.244; 1398.268; -695.116; -595.790
593.521;  138.263; -105.102;  -42.817
593.797;  -51.010; -810.122; -720.780
594.074;  493.429; -611.096; -588.826
594.350; 1096.546;  828.905;  729.172
594.626;  508.044; -303.111; -283.801
594.903;  148.964; -643.101; -645.817
595.179;  353.737;  243.896;  418.187
595.455;   27.593; -136.107; -150.807
595.731;   62.239;  -19.103;  -38.814
596.008;  -51.564; -464.111; -434.800
596.284;   49.487; -187.100; -242.820
596.560;   99.277; -501.093; -493.833
596.836;  322.315; -173.105;  -70.810
597.112;  533.678; -582.108; -437.805
597.388;  475.826;  -49.097;  -48.826
597.665;  220.915;  437.887;  530.203
597.941;  -99.979; -572.089; -658.839
598.217;   30.056; -323.110; -293.802
598.493;  437.970;   61.891; -204.804
598.769;  817.278; -175.100;  -50.819
599.045;  468.682; -490.108; -562.806
599.321;  104.485; -193.100; -261.820
599.597;  244.569; -355.109; -476.804
599.872;  775.033;  409.896;  429.187
600.148;  605.728;  -61.097; -172.826
600.424;  483.489;   91.893;  202.193
600.700;  401.592; -170.107; -280.807
600.976;  163.020; -442.097; -464.825
601.252;  400.764; -226.109; -272.803
601.527;  269.635; -833.104; -840.813
601.803;  246.223; -453.105; -404.812
602.079;  335.978; -124.100; -118.819
602.354;  907.492; -620.092; -531.835
602.630; 1243.712; -140.113; -482.796
602.906; 3936.771; -910.101; -863.818
603.181;10446.638; -627.119; -534.786
603.457; 8960.825;   98.903; -278.826
603.733; 1318.413; -605.120; -626.783
604.008; 1674.210; -245.106; -164.810
604.284; 4575.766; -636.101; -580.817
604.559; 4176.428;   -3.112;  -42.799
604.835;  821.914; -163.105; -225.810
605.110;  633.193; -732.099; -892.821
605.385; 1094.881;  224.907;  267.167
605.661; 1049.450; -625.095; -729.829
605.936; 1794.782; -664.108; -737.806
606.211; 1580.149;  -17.103; -170.815
606.487;  313.696; -329.114; -376.794
606.762;   16.738; -791.119; -745.786
607.037;  -33.785; -501.105; -433.810
607.313;  -95.660; -589.096; -574.828
607.588;   -2.890; -375.106; -137.810
607.863;   95.671;  -28.101; -143.818
608.138;  380.754;  513.890;  516.198
608.413;   50.099; -576.099; -592.822
608.688;   89.477; -203.108; -267.805
608.964;  307.901; -509.106; -218.809
609.239;  389.611; -107.105; -212.810
609.514;  447.423;  281.895;  240.188
609.789; 1000.829; -187.104; -716.812
610.064; 1347.838; -435.096; -609.827
610.339; 1369.465; -855.109; -799.804
610.614; 1771.086; -131.100; -315.820
610.889; 1089.223;  215.895;  107.188
611.163;   64.524; -407.104; -591.812
611.438;  122.197;   81.886; -167.794
611.713;  -31.034; -467.101; -499.817
611.988;  109.269; -144.101; -328.818
612.263;  -72.449; -771.102; -717.815
612.538;  403.511;  385.887;  251.204
612.812;  241.488; -832.100; -911.820
613.087;  218.307; -358.098; -338.823
613.362;  -67.907; -497.107; -557.807
613.637;  115.743;  261.897;  138.186
613.911;   29.693; -256.092; -345.835
614.186;  231.290; -249.107; -292.807
614.460; 1027.333; -842.081; -758.854
614.735; 1229.456;  -55.087;  -17.843
615.010;  290.841;   43.912;  -82.841
615.284;  462.676;  360.892;  246.195
615.559;  519.391; -792.092; -955.835
615.833;  461.896;  -76.099;  -87.822
616.108;    0.809; -225.090; -390.837
616.382;  283.458;  274.913;  402.156
616.656;  278.709; -241.090; -232.837
616.931;  763.697; -785.099; -700.822
617.205; 1598.335; -973.104; -979.813
617.480; 1500.154;  -91.125;    6.225
617.754;  238.551; -396.125; -128.774
618.028;   16.106; -369.129; -382.768
618.302;  148.074;   73.892;  -25.805
618.577;  -68.755; -371.103; -518.815
618.851;  -85.341; -399.109; -600.803
619.125;  -75.560; -335.134; -378.759
619.399;  -58.764; -244.104; -374.813
619.673;  -81.320; -330.115; -515.792
619.947;  -68.098; -333.114; -448.795
620.222;   -6.354; -198.110; -204.801
620.496;   31.410;  -47.121;  -96.782
620.770;   31.397; -187.122;  -93.781
621.044;  353.812;  323.895;  346.190
621.318; 1088.614; -653.120; -614.783
621.592; 1002.311; -430.121; -409.783
621.866;  516.229; -476.112; -572.799
622.140;   39.870; -207.116; -356.791
622.413;  122.235;  138.889;  112.200
622.687;  -65.134; -746.101; -492.817
622.961;   63.074; -130.108; -143.805
623.235;  -75.463; -633.111; -661.800
623.509; -184.378; -816.105; -848.811
623.783;   52.487;  -12.107;   48.193
624.056;  -36.385; -254.120; -280.783
624.330;  128.319;   63.888;   -3.797
624.604;  100.565; -271.116; -355.790
624.877;  199.952;  180.890;   26.198
625.151;   56.494; -249.114; -238.794
625.425;  -70.661; -150.103; -283.814
625.698;  -74.171; -367.119; -374.785
625.972; -144.944; -799.110; -765.802
626.245;  192.268;  685.884;  484.210
626.519;  -80.478; -426.120; -340.784
626.792;  -53.708; -192.107; -380.807
627.066; -160.414; -485.122; -662.779
627.339; -189.550; -736.110; -663.802
627.613;  100.019;  351.880;  148.216
627.886;  148.159;  187.891; -612.803
628.160;  -26.687;  312.880; -161.783
628.433; -146.742; -695.125; -703.775
628.706; -134.978; -517.120; -615.784
628.979;   81.568;  296.876;  117.223
629.253; -162.563; -785.119; -833.786
629.526;  572.435; -334.126; -253.772
629.799;  507.279; -641.123; -479.778
630.072;  247.409; -497.128; -516.769
630.346; -138.832;-1115.116;-1080.790
630.619;  763.694; -467.107; -545.808
630.892; 1053.038;  709.889;  593.200
631.165;  590.736;  790.896;  679.187
631.438; -205.575;-1092.112;-1055.798
631.711;  121.084;  453.877;  257.221
631.984;  -71.539; -523.117; -624.789
632.257; -143.744; -636.117; -681.789
632.530;  -83.170; -412.119; -433.785
632.803;   75.991; -109.115;    7.207
633.076;  -96.526; -360.123; -422.777
633.349;   57.015;  173.872;  121.231
633.622;  -15.772; -187.119; -240.785
633.895; -238.885; -903.120; -823.783
634.167; -107.762; -496.126; -525.773
634.440;  -11.122;  -19.116; -137.792
634.713;   61.735;  -22.119; -120.786
634.986;  187.700;  593.871;  453.233
635.258; -124.312; -507.115; -597.793
635.531;  219.650;  742.882; -343.788
635.804;  -31.341; -303.117; -318.789
636.077; -198.328; -830.116; -852.791
636.349;  -43.815; -586.115; -474.793
636.622;  775.034; 1695.874; 1392.228
636.894;  371.522; -474.120; -909.784
637.167;  190.625; -836.127; -789.771
637.439;   65.420; -278.128; -213.770
637.712;  -42.963; -312.126; -293.772
637.984; -156.927; -635.116; -707.791
638.257;  698.975;  515.877;  488.222
638.529;  829.360; -881.125; -924.776
638.802;  356.308; -508.128; -449.769
639.074; -185.204; -927.122; -952.781
639.346; -228.573; -942.135; -930.757
639.619;   11.330;  -79.142; -319.744
639.891;    1.887;  -83.122; -168.779
640.163; -147.311; -689.122; -756.780
640.435;   78.092;  273.878;  103.220
640.708;   35.895;  -72.122; -132.780
640.980;  -29.002; -366.122; -362.781
641.252;  380.500;  -25.121;  -71.781
641.524; 2884.803;  580.879;  573.219
641.796; 2742.506;-1094.121; -907.782
642.068;  509.509; -191.121; -300.782
642.340;  -71.589; -486.121; -566.783
642.613;  112.414;  294.880;  323.217
642.885; -172.783; -787.120; -878.783
643.157; -106.681; -810.120; -658.784
643.428;  118.122;  170.880;  218.216
643.700; -119.275; -498.120; -425.784
643.972;  -24.372;  -16.119; -133.785
644.244; -130.570; -474.119; -559.785
644.516;  -76.567; -250.119; -114.786
644.788;  157.336;  662.881;  548.214
645.060;    8.139;  -12.119; -124.786
645.332; -186.859; -525.118; -535.787
645.603;  138.544;  479.882;  342.213
645.875; -121.953; -334.118; -369.787
646.147;  378.850; 1487.882; 1242.212
646.418; -115.148; -931.117; -918.788
646.690;  181.955; -714.117; -715.789
646.962;   59.458; -413.117; -451.789
647.233;   10.361;   15.883;   11.211
647.505; -171.337; -595.117; -475.790
647.776;  102.066;  328.884;  229.210
648.048;    0.969; -248.116; -418.790
648.320; -116.228; -752.116; -679.791
648.591; -274.126;-1055.116; -958.791
648.862; -158.923; -505.116; -577.792
649.134;   42.480;  115.885;  198.208
649.405;  -65.518; -661.115; -618.792
649.677;  -98.315; -475.115; -598.793
649.948;   -9.312; -181.115; -296.793
650.219;   41.891;  -37.115; -147.793
650.491; -120.307; -431.114; -520.794
650.762; -192.104; -705.114; -731.794
651.033; -115.901; -437.114; -424.795
651.304; -176.898; -743.114; -728.795
651.576; -137.596; -680.114; -645.795
651.847;  -46.893; -250.113; -140.796
652.118;    7.310;  -32.113; -189.796
652.389; -176.287; -639.113; -722.796
652.660;   11.715; -147.113;  -89.797
652.931; -243.182; -897.112; -871.797
653.202; -145.079; -382.112; -541.798
653.473; -119.876; -633.112; -533.798
653.744;  194.826; -595.112; -590.798
654.015;  225.029; -356.112; -303.799
654.286;  -79.868; -642.111; -663.799
654.557;  -91.965; -586.111; -521.799
654.828; -298.463;-1114.111;-1088.800
655.099; -126.660; -404.111; -291.800
655.370; -134.157; -427.111; -543.801
655.641; -204.755; -656.110; -714.801
655.911; -152.352; -618.110; -638.801
656.182;  160.851;  437.890;  387.198
656.453;  251.454;  830.890;  746.198
656.724; -112.544; -466.110; -426.802
656.994; -143.541; -553.109; -568.803
657.265; -191.538; -862.109; -873.803
657.536; -120.235; -500.109; -377.804
657.806; -191.333; -561.109; -593.804
658.077; -224.930; -866.109; -950.804
658.347; -153.827; -523.108; -598.805
658.618; -216.324; -646.108; -694.805
658.888;   -6.822;  -41.108;  112.195
659.159; -141.119; -432.108; -548.806
659.429;  -28.716; -292.108; -349.806
659.700;   18.887; -435.107; -390.807
659.970;  -16.211; -370.107; -359.807
660.241;   25.492; -754.107; -921.807
660.511;  774.095; -147.107; -174.808
660.781;   98.998; -793.106; -748.808
661.052;  -52.900; -222.106; -381.808
661.322;  -18.497;   21.894;   -9.809
661.592;   69.006;  257.894;  148.191
661.862; -112.192; -369.106; -382.810
662.133; -203.889; -551.105; -502.810
662.403; -211.886; -770.105; -676.810
662.673;  -82.083; -256.105; -213.811
662.943; -165.881; -612.105; -551.811
663.213;   11.922;  -85.105;  -81.811
663.483; -114.975; -593.104; -568.812
663.753;  -78.672; -194.104; -152.812
664.023;  -14.470;   68.896;  -32.813
664.293;  -75.067; -319.104; -126.813
664.563; -147.064; -694.104; -648.813
664.833; -199.761; -743.103; -608.814
665.103; -187.759; -730.103; -793.814
665.373; -222.656; -766.103; -806.814
665.643; -170.753; -863.103; -918.815
665.913;   45.450; -534.103; -714.815
666.182;  199.152; -685.102; -719.816
666.452;  395.555;  -22.102;  -89.816
666.722;  -48.642; -724.102; -784.816
666.992; -249.639; -948.102; -921.817
667.261; -173.237; -824.102; -808.817
667.531;  369.366;  134.899;   45.183
667.801;  799.869; -440.101; -412.818
668.070;  451.771;  714.899;  697.182
668.340; -193.126; -883.101; -840.819
668.609;  216.277;  588.900;  301.181
668.879; -163.420; -490.100; -558.819
669.149; -116.818; -539.100; -516.820
669.418; -173.115; -698.100; -726.820
669.688;  -44.612; -482.100; -666.820
669.957;   78.791; -423.099; -546.821
670.226;  -38.707; -268.099; -331.821
670.496; -168.804; -431.099; -635.822
670.765; -125.701; -418.099; -501.822
671.034; -242.498; -872.099; -828.822
671.304;   23.204;   55.902; -111.823
671.573; -273.593;-1085.098; -957.823
671.842;  102.210; -380.098; -294.823
672.112;   32.613; -692.098; -586.824
672.381;   21.115; -239.098; -214.824
672.650; -251.082;-1005.097;-1021.825
672.919; -161.779; -631.097; -507.825
673.188; -141.976; -681.097; -878.825
673.457; -279.374;-1101.097;-1143.826
673.726; -136.071; -579.096; -646.826
673.995;  -56.368; -533.096; -479.826
674.265;  -35.066; -263.096; -333.827
674.534;   23.037; -183.096; -235.827
674.802;   52.040; -618.096; -703.828
675.071; 1644.343; -886.095; -801.828
675.340; 5832.645; -464.095; -339.828
675.609; 2019.448;  103.905;   82.171
675.878;  100.451; -949.095; -893.829
676.147;   74.054;  -26.095;   -8.829
676.416;  159.256; -210.094; -294.830
676.685; 1225.959; 1000.906; -622.830
676.953;  168.262; -603.094; -452.831
677.222;  -62.735; -193.094; -273.831
677.491;  -24.833;  -24.094; -127.831
677.759;   17.970;   11.907;  172.168
678.028;    8.273; -279.093; -222.832
678.297;    8.576;   71.907;  197.168
678.565; -243.222; -898.093; -944.833
678.834;  -84.519; -311.093; -268.833
679.102; -119.416; -411.092; -391.834
679.371; -280.613; -898.092; -727.834
679.639; -210.611; -797.092; -786.834
679.908; -216.708; -794.092; -724.835
680.176; -282.205; -895.091; -941.835
680.445; -104.603; -346.091; -352.835
680.713;   20.100;  -58.091;  -23.836
680.982; -180.497; -523.091; -525.836
681.250; -172.294; -578.091; -507.837
681.518; -176.692; -534.090; -751.837
681.787;   -8.789; -204.090; -167.837
682.055;  -97.086; -490.090; -422.838
682.323; -258.483; -993.090; -992.838
682.591;   89.219; -216.090; -538.838
682.859;  134.722;    9.911;  -35.839
683.128;   80.725;  232.911;  497.161
683.396; -284.872;-1102.089;-1122.840
683.664;  -66.370; -241.089;   21.160
683.932;   18.933;  144.911;  -76.840
684.200; -123.064; -576.088; -320.841
684.468;  -29.861;  -73.088; -124.841
684.736;   -0.859; -214.088; -175.841
685.004; -218.456;-1024.088; -982.842
685.272; -115.453; -880.088; -774.842
685.540; -105.150; -499.087; -557.843
685.808; -153.548; -651.087; -682.843
686.076; -216.245; -894.087; -969.843
686.343;  -68.042; -601.087; -815.844
686.611;   95.760; -195.087; -224.844
686.879;  824.863; -530.086; -553.844
687.147; 4949.266; -483.086; -480.845
687.414; 1407.569;  -12.086; -169.845
687.682;   15.671; -658.086; -757.846
687.950;  514.374;  259.915;  263.154
688.217;   -6.223; -792.085; -760.846
688.485;   -5.220; -632.085; -636.847
688.753;  813.982;  -11.085; -102.847
689.020;  202.385; -820.085; -851.847
689.288; -184.312; -853.084; -787.848
689.555;  -17.109; -195.084; -148.848
689.823;  -49.007; -241.084; -345.849
690.090; -149.804; -546.084; -651.849
690.358; -277.101; -877.084; -897.849
690.625;   31.202;  120.917;   45.150
690.892; -143.596; -403.083; -369.850
691.160;  -24.393;   72.917;  -35.850
691.427;   51.110;  141.917;  130.149
691.694; -225.487; -855.083; -929.851
691.962; -272.185;-1177.082;-1060.852
692.229;   81.918;  127.918;   56.148
692.496;  135.321;  130.918;  -49.852
692.763;   41.323; -164.082; -201.853
693.031; -117.074; -739.082; -716.853
693.298;  -67.171; -509.081; -368.853
693.565;  587.432; -155.081; -163.854
693.832; 1896.534;   -5.081;   -9.854
694.099;  210.837; -643.081; -642.855
694.366; -138.060; -882.081; -896.855
694.633; -114.757; -920.080; -633.855
694.900; 1588.445; 4367.920; -114.856
695.167;  659.348; -214.080; -380.856
695.434;  126.551; -646.080; -623.856
695.701;  365.054;  121.921;  -61.857
695.968;  736.156; -365.079; -361.857
696.234; 1753.259; -415.079; -646.858
696.501;16471.462; -776.079; -614.858
696.768; 7786.065; -554.079; -617.858
697.035;  485.567; -632.078; -667.859
697.302;   65.770; -448.078; -552.859
697.568;   21.173; -458.078; -497.859
697.835;  -39.124; -683.078; -624.860
698.102;  -34.322; -498.078; -407.860
698.368;  191.881;  384.923;  396.139
698.635;  -53.016;  -47.077; -424.861
698.901;   -6.314; -240.077; -348.861
699.168;  111.589; -534.077; -456.862
699.435;  165.792;  -72.077;  -13.862
699.701; -224.905; -868.076; -764.862
699.968;  -81.903;  144.924; -441.863
700.234; -212.600; -783.076; -822.863
700.500;  -78.997; -448.076; -539.864
700.767;   40.706;   -1.075;   26.136
701.033; -206.292;-1015.075; -963.864
701.299;  -72.989; -450.075; -483.865
701.566;  333.914;  950.925;  763.135
701.832;  106.917;  -31.075;  -76.865
702.098; -207.581;-1054.074;-1034.866
702.365; -201.278;-1098.074;-1030.866
702.631;  -87.175;-1038.074;-1063.867
702.897; 2179.028; -765.074; -676.867
703.163; 3297.430;  348.926;  254.133
703.429;  261.033; -256.073; -273.868
703.695; -102.964; -796.073; -792.868
703.961;   47.039; -214.073; -210.868
704.227;  -96.159; -630.073; -725.869
704.493;  285.444;  613.927;  510.131
704.759;  -49.653; -565.072; -540.870
705.025;   75.049; -203.072; -194.870
705.291;  -32.448; -666.072; -562.870
705.557;  384.555;  719.928;   34.129
705.823;   27.458; -742.072; -694.871
706.089;  200.360; -307.071; -326.871
706.355;  613.263; -315.071; -244.872
706.620; 8833.166; -776.071; -729.872
706.886;11457.069; -309.071; -362.873
707.152;  993.771; -818.070; -973.873
707.418;  -80.826;-1153.070;-1186.873
707.683;   25.177; -550.070; -530.874
707.949;  -76.220; -547.070; -578.874
708.215;    7.782; -129.070; -207.874
708.480;  -29.915; -520.069; -420.875
708.746;  182.188;   68.931;   28.125
709.011; -109.709; -578.069; -612.876
709.277; -115.807; -538.069; -543.876
709.542;  -63.804; -428.069; -387.876
709.808;   43.599;  -59.068;   89.123
710.073; -125.198; -577.068; -695.877
710.339;   -9.396; -242.068; -228.877
710.604;  119.907; -780.068; -845.878
710.869;  459.410; -277.068; -366.878
711.135; -119.288; -715.067; -628.879
711.400; -138.985; -507.067; -608.879
711.665;  -99.182; -404.067; -479.879
711.931; -149.579; -661.067; -677.880
712.196; -224.677; -876.067; -954.880
712.461;  178.126; -402.066; -490.880
712.726;  148.129; -727.066; -771.881
712.991; -163.868; -647.066; -664.881
713.256;  -64.966; -350.066; -332.882
713.521;  -95.463; -417.065; -381.882
713.787;  -85.160; -454.065; -472.882
714.052;  -63.157; -214.065; -400.883
714.317; -197.655;-1045.065; -981.883
714.581; 1663.648; -374.065; -268.883
714.846; 1961.151; -822.064; -888.884
715.111;  257.754;  261.936;  257.116
715.376;  -12.344;  -86.064; -223.885
715.641;   -2.041; -365.064; -367.885
715.906;  411.462;   15.936; -551.885
716.171;  274.065;  221.937;  209.114
716.436;  104.367;  -78.063; -104.886
716.700; -205.130; -818.063; -692.886
716.965; -195.627; -794.063; -807.887
717.230;  -81.625; -339.063; -392.887
717.494;   -7.122;  -40.062; -134.888
717.759; -171.819; -784.062; -640.888
718.024;   81.984;  269.938;  250.112
718.288;  191.186;  685.938;  395.111
718.553; -217.811; -803.062; -977.889
718.817; -262.708; -883.061; -899.889
719.082;  -28.205; -115.061; -125.890
719.346; -251.103;-1000.061; -947.890
719.611;  -63.800; -300.061; -255.891
719.875; -144.297; -568.060; -537.891
720.140;  -66.094; -453.060; -603.891
720.404;   74.908; -136.060; -249.892
720.668; 1297.411; -475.060; -411.892
720.933;  507.314;  146.940;  137.108
721.197; -145.883; -667.059; -600.893
721.461; -223.881; -851.059; -826.893
721.725;    1.022;  -21.059; -250.894
721.990;  -69.275; -284.059; -204.894
722.254;    2.728;  -26.059; -108.894
722.518;  -97.270; -286.058; -442.895
722.782; -124.967; -743.058; -594.895
723.046;  237.336;  614.942;  570.105
723.310;  114.338;  374.942;  210.104
723.574; -159.859; -654.058; -614.896
723.838; -186.456; -576.057; -642.897
724.102;  -28.353; -226.057; -239.897
724.366; -235.051;-1032.057; -978.897
724.630; -184.148; -749.057; -571.898
724.894; -114.845; -722.057; -514.898
725.158;   45.258;   38.944; -295.898
725.422;  -88.940; -394.056; -327.899
725.685; -104.337; -441.056; -349.899
725.949; -144.434; -566.056; -519.900
726.213; -137.331; -732.056; -811.900
726.477;  252.671;-1020.055; -933.900
726.740;  236.574; -274.055; -104.901
727.004;  607.977; -384.055; -510.901
727.268; 5033.680; -442.055; -400.901
727.531; 1171.682; -961.055; -775.902
727.795;  -75.415; -713.054; -673.902
728.059;  -90.012; -552.054; -557.903
728.322; -147.909; -841.054; -669.903
728.586;   13.493; -692.054; -701.903
728.849; -162.404; -695.053; -756.904
729.112; -193.401; -812.053; -912.904
729.376; -210.699; -959.053; -905.904
729.639; -104.196; -536.053; -536.905
729.903; -213.293; -733.053; -699.905
730.166;  -66.590; -437.052; -399.906
730.429;   -6.488; -317.052; -468.906
730.693;  -96.485; -355.052; -894.906
730.956;  438.118;  810.948;  651.093
731.219; 1027.021; -310.052; -103.907
731.482;  162.323;-1003.051; -894.907
731.745;  118.926; -794.051; -935.908
732.009;   88.229;  -30.051;   50.092
732.272; -136.568; -904.051; -771.909
732.535;  -33.566; -300.051; -310.909
732.798; -272.263;-1083.050;-1166.909
733.061; -118.160; -430.050; -456.910
733.324;   78.543;   31.950; -180.910
733.587;  181.045;  290.950;  365.090
733.850; -125.252; -973.049;-1050.911
734.113;  106.851;   33.951;   32.089
734.376;   13.954; -328.049; -447.912
734.639;  483.656; 1188.951; 1011.088
734.901;  134.959; -180.049; -402.912
735.164;  837.662; -883.048; -837.913
735.427; 1871.264; -166.048; -355.913
735.690;  199.367; -205.048; -234.913
735.952;  -99.630; -923.048; -925.914
736.215;  -81.627;-1113.048;-1009.914
736.478;   15.675; -771.047; -774.915
736.740;  341.778;   33.953;  129.085
737.003; 1211.581; -658.047; -672.915
737.266; 6090.684;  -94.047;   46.084
737.528;  661.686; -682.047; -660.916
737.791;  507.289; -316.046; -327.916
738.053; 1411.192;  465.954;  649.083
738.316;17416.195; -162.046; -136.917
738.578;10691.997; -770.046; -736.918
738.841;  689.300; -382.046; -446.918
739.103;  276.203; -875.045; -777.918
739.365;  813.206;   79.955;  -69.919
739.628;   16.608; -884.045; -805.919
739.890;  -36.989; -758.045; -710.919
740.152;  -62.986; -692.044; -754.920
740.414;   10.217; -408.044; -359.920
740.677;  -51.981; -785.044; -634.921
740.939;  -66.978; -587.044; -487.921
741.201;  436.325; -432.044; -572.921
741.463;   42.327; -689.043; -745.922
741.725;   81.830;  -21.043; -199.922
741.987;  142.233;  220.957;  116.078
742.249;    7.036; -751.043; -859.923
742.511;  316.538; -703.043; -794.923
742.773;   41.541; -546.042; -546.924
743.035;  258.344;  796.958;  533.076
743.297;  -46.553; -963.042;-1013.924
743.559; 1119.049; -278.042; -262.925
743.821;   94.052; -735.042; -744.925
744.083;   60.855;  -44.041; -149.925
744.345; -151.142; -869.041; -892.926
744.607;  129.060;   75.959;  122.074
744.868;  -60.437; -490.041; -554.927
745.130; -206.434; -994.041;-1008.927
745.392;  120.669;   -1.040;  -44.927
745.653;   -3.629; -411.040; -378.928
745.915;  344.174;  896.960;  631.072
746.177;  161.977;   35.960;  -43.928
746.438;  -32.220; -428.040; -543.929
746.700; -101.018; -947.039; -988.929
746.961;    4.485; -659.039; -740.930
747.223;  258.088; -190.039;  -74.930
747.484;  144.391; -391.039; -471.930
747.746;  277.893;  -23.038; -106.931
748.007;  166.696; -647.038; -689.931
748.269;  500.899; -468.038; -440.931
748.530;  708.901; -852.038; -638.932
748.791;  388.904; -354.038; -420.932
749.053;  755.907;  286.963;  163.067
749.314;  716.110; -236.037; -169.933
749.575;  791.912; -945.037; -905.933
749.836; 1351.215; -217.037;   86.066
750.098; 4476.018;  -60.037;  -21.934
750.359;54974.821;  414.964;  555.066
750.620;12560.723; -121.036; -220.935
750.881; 1656.526; -585.036; -513.935
751.142; 2235.829; -950.036; -938.936
751.403;26816.032; -789.036; -705.936
751.664;10169.434;-1034.035; -999.936
751.925;  784.137; -175.035; -262.937
752.186;  459.640; -298.035; -278.937
752.447;  227.443; -590.035; -445.937
752.708;   80.145; -532.035; -648.938
752.969;    7.148; -566.034; -576.938
753.230;   38.451; -777.034; -672.939
753.491;  -13.946; -650.034; -631.939
753.751;  146.656;  109.966;   19.061
754.012;  220.759;  258.967;  181.060
754.273;  148.462; -174.033;  -71.940
754.534;   26.664; -487.033; -580.940
754.794; -126.933; -926.033; -911.941
755.055;  389.870; 1051.967;  881.059
755.316;  -64.927; -700.032; -566.942
755.576;  -32.225; -606.032; -576.942
755.837;  -72.422; -527.032; -695.942
756.097;  -68.619; -530.032; -564.943
756.358; -131.416; -725.032; -770.943
756.618;  -64.414; -705.031; -641.943
756.879;   39.689; -254.031; -349.944
757.139; -244.608;-1098.031;-1116.944
757.400;  -93.805; -538.031; -553.945
757.660;   12.997; -365.031; -401.945
757.920;   37.100; -266.030; -228.945
758.181;   -8.097; -468.030; -351.946
758.441; -179.694; -870.030; -809.946
758.701;  -18.392; -308.030; -215.946
758.961;   23.711; -220.030; -278.947
759.222;  -54.786; -574.029; -502.947
759.482; -138.783; -683.029; -723.948
759.742; -133.181; -706.029; -547.948
760.002;   57.522;  -83.029; -143.948
760.262;   84.325;   50.972;  182.051
760.522;  -38.373; -498.028; -574.949
760.782;  -85.470; -738.028; -612.949
761.042;  -55.067; -618.028; -573.950
761.302;  124.236;   55.972;  -18.950
761.562;  141.838; -164.027; -154.951
761.822;  158.441; -710.027; -551.951
762.082;  -36.656;-1104.027;-1093.951
762.342;  133.547; -328.027; -403.952
762.601;  172.849; -567.027; -506.952
762.861;  655.952; -281.026; -207.952
763.121;  817.355; -406.026; -411.953
763.381;13900.658; -499.026; -485.953
763.640;12794.060; -139.026; -307.954
763.900;  634.863; -242.026; -203.954
764.160;  192.466; -458.025; -491.954
764.419;    4.669; -726.025; -782.955
764.679; -133.229; -795.025; -726.955
764.939;   24.074; -124.025; -210.955
765.198; -118.223; -608.025; -563.956
765.458; -124.520; -710.024; -612.956
765.717; -114.718; -454.024; -590.957
765.976;  -69.915; -428.024; -411.957
766.236;  -82.612; -475.024; -610.957
766.495;   63.590;  260.977;   73.042
766.755; -182.807;-1090.023; -987.958
767.014;   15.396; -594.023; -665.958
767.273;  -73.901; -373.023; -397.959
767.533;  -34.899; -228.023; -307.959
767.792;   27.104; -151.022; -188.960
768.051;  -51.293; -228.022; -276.960
768.310; -139.590; -546.022; -650.960
768.569;   32.412; -161.022;    4.039
768.828;   -5.785; -285.022; -363.961
769.088; -199.982;-1050.021; -942.961
769.347; -168.079; -755.021; -599.962
769.606; -159.077; -876.021; -857.962
769.865; -208.574;-1016.021;-1033.963
770.124;   47.629; -411.021; -336.963
770.383;  -54.268; -778.020; -910.963
770.641;  -37.766; -398.020; -400.964
770.900; -123.463; -953.020; -846.964
771.159; -101.060; -851.020; -951.964
771.418;   -3.957; -917.020; -779.965
771.677;  264.145; -224.019; -293.965
771.936;  227.148; -794.019; -865.966
772.194; 4199.551; -465.019; -437.966
772.453;16511.353; -213.019; -391.966
772.712; 1242.056;  416.982;  329.033
772.970;  294.359;   32.982;   63.033
773.229;  200.762;  -22.018;  102.033
773.488; -156.636; -814.018; -770.968
773.746;  142.667;  296.982;  335.032
774.005;   67.370;  190.983;  -22.969
774.263;   75.573;  243.983;  177.031
774.522; -152.225; -422.017; -548.969
774.780;  -99.322; -484.017; -417.970
775.039; -112.619; -551.017; -531.970
775.297;   -9.016; -135.016; -351.970
775.555; -142.114; -489.016; -612.971
775.814; -172.011; -618.016; -570.971
776.072; -181.108; -749.016; -740.971
776.330; -155.905; -630.016; -520.972
776.589; -215.803; -703.015; -721.972
776.847; -223.900; -645.015; -624.973
777.105; -289.497;-1016.015;-1032.973
777.363; -116.694; -459.015; -454.973
777.621; -216.692; -660.015; -717.974
777.879;   53.411;  -42.014;   32.026
778.138; -128.086; -554.014; -717.974
778.396; -180.784; -585.014; -526.975
778.654; -286.481;-1015.014; -970.975
778.912;  -47.078; -269.014; -371.976
779.170; -214.375; -880.013; -803.976
779.427; -250.773; -922.013; -897.976
779.685; -262.470; -880.013; -832.977
779.943; -136.267; -654.013; -593.977
780.201; -255.964; -964.012; -883.978
780.459; -191.162; -651.012; -610.978
780.717; -121.859; -440.012; -390.978
780.974; -146.056; -449.012; -490.979
781.232;  -77.253; -358.012; -338.979
781.490; -119.051; -551.011; -472.979
781.747; -144.348; -555.011; -476.980
782.005;  110.955;  462.989;  254.020
782.263; -263.242; -542.011;-1004.981
782.520; -105.440; -326.011; -501.981
782.778; -303.237;-1013.010;-1051.981
783.035; -281.334; -962.010; -938.982
783.293;  -70.431; -248.010; -206.982
783.550;  -68.329; -134.010; -198.982
783.808; -209.226; -764.010; -776.983
784.065; -273.523; -745.009; -874.983
784.322;    1.279;   25.991;  -86.984
784.580; -224.418; -915.009; -771.984
784.837; -131.615; -392.009; -466.984
785.094; -236.112; -783.009; -762.985
785.352;  -90.010; -304.008; -404.985
785.609; -199.507; -934.008; -839.985
785.866;  -95.004; -345.008; -401.986
786.123; -131.701; -639.008; -583.986
786.380; -187.399; -665.008; -604.987
786.637;  -14.296; -225.007; -380.987
786.895;  -14.093; -456.007; -543.987
787.152;   -4.990; -135.007; -267.988
787.409;  -24.488; -123.007; -225.988
787.666; -123.785; -299.006; -378.988
787.923; -177.782; -616.006; -695.989
788.179; -147.679; -551.006; -584.989
788.436; -153.377; -585.006; -585.990
788.693;   -5.874;  -92.006;  -87.990
788.950;  283.629; -125.005; -112.990
789.207;  332.932; -381.005; -372.991
789.464;  -43.066; -161.005; -301.991
789.720;   57.937;  150.995;  110.009
789.977; -289.560;-1003.005; -671.992
790.234;    3.042;   44.996;  -66.992
790.490; -280.855; -884.004;-1031.993
790.747;   26.048;  -85.004;   22.007
791.004;  -10.149; -426.004; -348.993
791.260; -129.847; -430.004; -560.994
791.517; -146.644; -843.003; -788.994
791.773;  -81.841; -379.003; -342.994
792.030; -180.838; -596.003; -660.995
792.286; -140.036; -686.003; -636.995
792.543;    7.867;  -74.002; -159.995
792.799;  -51.530; -584.002; -382.996
793.055; -261.527;-1179.002;-1210.996
793.312; -151.625; -827.002; -816.997
793.568; -102.522; -746.002; -599.997
793.824;   73.681; -226.001; -284.997
794.081;   84.484; -447.001; -508.998
794.337;  163.586; -664.001; -561.998
794.593; 2766.189; -319.001; -271.999
794.849;10394.392; -746.001; -772.999
795.105;  523.895; -270.000; -261.999
795.361;   52.397; -490.000; -457.000
795.617; -117.800; -875.000; -945.000
795.873;  -38.400; -360.000; -407.000
796.129;  -16.900; -368.000; -306.000
796.385;   19.100; -124.000; -156.000
796.641;  187.100;  412.000;  550.000
796.897; -133.100; -666.000; -635.000
797.153;  204.800;  453.000;  357.000
797.409; -177.000; -785.000; -868.000
797.665; -124.500; -625.000; -732.000
797.921; -150.100; -775.000; -762.000
798.176;  -68.200; -744.000; -747.000
798.432;  -83.400; -824.000; -596.000
798.688; -161.600;-1174.000;-1078.000
798.943;  172.800; -165.000; -147.000
799.199;   -3.100;-1005.000; -959.000
799.455;  419.700;  369.000;  316.000
799.710;  201.600; -813.000; -380.000
799.966;  485.800; -162.000; -160.000
800.221;  764.800; -638.000; -721.000
800.477;18226.200; -743.000; -710.000
800.732;12636.800; -773.000; -800.000
800.988; 1072.500;  205.000;  -19.000
801.243; 3541.900; -454.000; -344.000
801.498;11812.000; -814.000; -739.000
801.754;  695.800; -289.000; -163.000
802.009;  150.000; -257.000; -335.000
802.264;  -90.600; -967.000;-1033.000
802.520;   48.300;  222.000;   -3.000
802.775;  -56.600; -524.000; -359.000
803.030;  149.600;  395.000;  356.000
803.285; -169.100; -840.000; -903.000
803.540;  -60.200; -686.000; -699.000
803.795;  -28.900; -648.000; -583.000
804.051;  -33.600; -279.000; -346.000
804.306;   96.200;  168.000;  128.000
804.561;  302.700;  451.000;  362.000
804.816;  323.600;  714.000;  861.000
805.071;   95.800; -185.000; -280.000
805.325;  325.500; -257.000; -427.000
805.580; -200.600; -841.000; -877.000
805.835;    5.400; -204.000; -297.000
806.090;  -95.500; -760.000; -676.000
806.345;    3.500; -344.000; -264.000
806.600;    2.600; -549.000; -632.000
806.854;    1.000; -408.000; -538.000
807.109;   14.500; -493.000; -577.000
807.364;   41.800; -407.000; -328.000
807.618;   56.800; -415.000; -381.000
807.873;  114.300; -470.000; -494.000
808.128;  204.800; -257.000; -518.000
808.382;  174.100; -224.000; -332.000
808.637;  173.300; -440.000; -511.000
808.891;  327.100; -257.000; -180.000
809.146;  139.300; -902.000; -794.000
809.400;  458.000; -848.000; -923.000
809.654;  539.600; -779.000; -551.000
809.909;  857.100; -841.000; -927.000
810.163;12981.900; -813.000; -651.000
810.418;26005.100; -940.000; -861.000
810.672; 1637.100; -685.000; -690.000
810.926; 1225.700; -993.000; -973.000
811.180; 2640.700; -439.000; -372.000
811.434;56297.300;  240.000;  135.000
811.689;17513.100; -231.000; -365.000
811.943;  954.000; -936.000; -953.000
812.197;  606.900; -893.000; -671.000
812.451;  283.200; -379.000; -514.000
812.705;  -42.100; -809.000; -619.000
812.959;  -55.500; -263.000; -388.000
813.213;   44.300; -283.000; -209.000
813.467;  207.700;  470.000;  253.000
813.721; -133.700; -764.000; -792.000
813.975; -156.000; -826.000; -877.000
814.229;  161.300;  430.000;  353.000
814.482;  -96.400; -517.000; -566.000
814.736; -188.300; -766.000; -744.000
814.990; -214.000; -779.000; -872.000
815.244;  -32.200; -228.000; -285.000
815.497; -131.700; -636.000; -601.000
815.751;   38.800; -141.000;   82.000
816.005; -111.000; -470.000; -586.000
816.258;  -79.100; -510.000; -363.000
816.512; -162.100; -693.000; -610.000
816.766;   35.100;  121.000;  157.000
817.019;   92.500;  148.000;  149.000
817.273; -201.100;-1000.000; -802.000
817.526;  -35.200; -206.000; -173.000
817.779;  -81.700;-1049.000; -960.000
818.033; -149.800; -693.000; -807.000
818.286; -171.200; -725.000; -792.000
818.540; -118.700; -403.000; -403.000
818.793; -112.600; -402.000; -489.000
819.046; -151.900; -582.000; -520.000
819.299;  -54.100; -157.000; -166.000
819.553; -169.800; -552.000; -592.000
819.806; -271.900;-1016.000; -838.000
820.059;  -77.000; -334.000; -354.000
820.312;   77.800;  152.000;  185.000
820.565;   64.200;  110.000;  -27.000
820.818;  -39.500;  -59.000; -173.000
821.071; -265.100;-1041.000; -957.000
821.324; -152.300; -536.000; -540.000
821.577; -158.700; -457.000; -483.000
821.830;  -85.300; -270.000; -172.000
822.083; -185.200; -733.000; -288.000
822.336;  -34.200; -261.000; -167.000
822.589; -206.300; -805.000; -688.000
822.842; -219.900; -875.000; -770.000
823.094; -276.200;-1076.000;-1114.000
823.347; -243.300; -925.000; -729.000
823.600;   85.400;  402.000;  187.000
823.853;  -69.100; -311.000; -267.000
824.105;  -74.300; -331.000; -575.000
824.358; -198.700; -617.000; -716.000
824.611;  105.400;  234.000;   40.000
824.863;  -68.700; -612.000; -591.000
825.116;  109.300;  -33.000;   27.000
825.368;  148.900; -366.000; -372.000
825.621;  256.200; -186.000; -240.000
825.873;   91.700; -704.000; -737.000
826.126; 1133.200; -669.000; -641.000
826.378;19054.400; -389.000; -505.000
826.630; 3430.000; -890.000; -898.000
826.883;   38.400; -754.000; -693.000
827.135;  101.100; -279.000; -270.000
827.387; -185.100; -893.000; -839.000
827.639;  -12.000;  -86.000;   32.000
827.892; -199.600; -742.000; -582.000
828.144; -229.500; -848.000; -804.000
828.396;    5.600;  104.000;  -80.000
828.648; -137.300; -440.000; -333.000
828.900; -240.700; -702.000; -795.000
829.152; -167.400; -684.000; -683.000
829.404;  -74.600; -215.000; -267.000
829.656;   75.700;  321.000;  214.000
829.908;   22.200;  393.000;  229.000
830.160; -277.400;-1064.000;-1047.000
830.412; -132.300; -481.000; -430.000
830.664; -153.300; -557.000; -665.000
830.916;  -89.600; -268.000; -206.000
831.167; -300.600;-1073.000; -951.000
831.419; -174.300; -623.000; -566.000
831.671; -240.000; -764.000; -809.000
831.923; -104.100; -311.000; -447.000
832.174;  -89.800; -273.000; -331.000
832.426; -186.300; -493.000; -582.000
832.678; -288.600;-1043.000;-1091.000
832.929; -310.600; -947.000; -935.000
833.181; -114.700; -575.000; -677.000
833.432;  -55.200;  -59.000; -186.000
833.684;   11.900;  112.000;  -27.000
833.935; -160.700; -610.000; -566.000
834.187; -192.600; -829.000; -823.000
834.438;    6.100;  -58.000;  -25.000
834.689;  -57.300; -255.000; -123.000
834.941;  -57.800; -343.000; -244.000
835.192; -136.700; -590.000; -533.000
835.443; -127.300; -419.000; -506.000
835.695;   57.900;  138.000;  -16.000
835.946; -129.100; -608.000; -378.000
836.197; -163.200; -599.000; -622.000
836.448; -130.900; -528.000; -395.000
836.699;  -67.800; -253.000; -341.000
836.950;   45.900;   72.000;    7.000
837.201; -234.100;-1003.000; -987.000
837.452;  -43.200; -356.000; -170.000
837.703; -150.800; -791.000; -737.000
837.954;  -44.800; -205.000; -365.000
838.205; -139.600;-1029.000;-1008.000
838.456;  274.500; -196.000; -282.000
838.707;   13.300; -423.000; -519.000
838.958;   44.300; -634.000; -647.000
839.209;  511.600;   18.000;   40.000
839.460;  219.900; -439.000; -201.000
839.710;  334.700; -135.000; -297.000
839.961;  782.100;  730.000;  612.000
840.212;  599.700; -382.000; -497.000
840.462; 2119.500; -328.000; -277.000
840.713;30540.900; -571.000; -536.000
840.964; 9278.700;  -62.000; -143.000
841.214;  790.400; -384.000; -624.000
841.465;  981.500; -214.000; -141.000
841.715;  902.000; -417.000; -380.000
841.966; 1116.900; -746.000; -685.000
842.216;19092.000; -330.000; -431.000
842.466;54347.400; -169.000; -313.000
842.717; 2192.700; -964.000; -952.000
842.967;  567.700; -635.000; -641.000
843.217;  527.600;   20.000;   28.000
843.468;  171.000; -104.000; -132.000
843.718;  -30.100; -718.000; -726.000
843.968; -126.600; -837.000; -765.000
844.218;   61.400; -315.000; -262.000
844.469;  -89.000; -577.000; -561.000
844.719; -141.600; -537.000; -682.000
844.969; -151.700; -550.000; -580.000
845.219; -228.900; -814.000; -862.000
845.469;  -98.000; -392.000; -342.000
845.719; -216.300; -792.000; -884.000
845.969;   42.100;  119.000;  174.000
846.219; -184.700; -738.000; -720.000
846.469;  143.100;  464.000;  432.000
846.718;  -41.200; -115.000;   31.000
846.968; -212.100; -827.000; -827.000
847.218;  -43.600; -224.000; -371.000
847.468; -159.800; -586.000; -555.000
847.718; -249.000; -827.000; -798.000
847.967; -254.300; -826.000; -915.000
848.217; -104.500; -449.000; -569.000
848.467; -102.800; -405.000; -376.000
848.716; -140.300; -708.000; -725.000
848.966;   61.000; -372.000; -358.000
849.215;  -62.900; -428.000; -419.000
849.465; -139.700; -785.000; -615.000
849.714; -257.300;-1132.000;-1150.000
849.964;  -87.400; -551.000; -613.000
850.213;  -17.500; -393.000; -355.000
850.463;  177.400;  137.000;  340.000
850.712;   -7.600; -542.000; -567.000
850.961;   36.100; -739.000; -678.000
851.211;  191.100; -513.000; -504.000
851.460;  276.900; -635.000; -650.000
851.709;  991.000;  -25.000;   18.000
851.958;18654.100; -912.000; -750.000
852.208;17473.400; -859.000; -879.000
852.457;  657.900; -181.000;  -13.000
852.706;  117.600; -791.000; -823.000
852.955;   34.700; -507.000; -528.000
853.204;  -88.600; -521.000; -461.000
853.453; -102.000; -418.000; -458.000
853.702; -211.800; -660.000; -750.000
853.951; -160.500; -532.000; -520.000
854.200; -179.300; -613.000; -562.000
854.449; -223.000; -695.000; -661.000
854.698;  -94.400; -340.000; -279.000
854.946;  -71.300; -181.000; -284.000
855.195; -248.000; -843.000; -868.000
855.444; -122.000; -395.000; -420.000
855.693; -172.300; -345.000; -432.000
855.941; -176.400; -387.000; -516.000
856.190;  -81.500; -256.000; -382.000
856.439; -212.300; -652.000; -703.000
856.687;  -41.600;  -99.000;  -72.000
856.936; -177.000; -621.000; -323.000
857.184; -319.800;-1067.000;-1020.000
857.433; -155.500; -423.000; -512.000
857.681; -276.600; -989.000; -953.000
857.930; -106.000; -282.000; -433.000
858.178; -255.000; -856.000; -929.000
858.427; -245.600; -802.000; -781.000
858.675; -164.600; -377.000; -544.000
858.923; -141.300; -527.000; -819.000
859.172; -308.000;-1094.000;-1070.000
859.420;  -95.400; -339.000; -239.000
859.668; -203.400; -624.000; -628.000
859.916;    6.100;  109.000;  115.000
860.164; -133.400; -699.000; -603.000
860.413;  503.100; -878.000; -696.000
860.661;  263.700; -709.000; -577.000
860.909; -116.500; -339.000; -325.000
861.157; -107.100; -277.000; -444.000
861.405; -178.300; -534.000; -670.000
861.653;   71.400;  310.000;  310.000
861.901;  341.900; -543.000; -613.000
862.149;  -64.900; -801.000; -824.000
862.396;  -48.800; -297.000; -187.000
862.644; -124.600; -368.000; -347.000
862.892;    4.600;   98.000;  138.000
863.140; -192.900; -549.000; -530.000
863.388; -262.300; -815.000; -759.000
863.635; -172.000; -642.000; -601.000
863.883;   22.100;  231.000;  190.000
864.131; -130.100; -288.000; -357.000
864.378; -207.400; -675.000; -540.000
864.626; -127.300; -347.000; -415.000
864.873; -190.500; -556.000; -505.000
865.121; -240.400; -714.000; -799.000
865.368;  -32.400; -173.000;   75.000
865.616;  -35.900;  -33.000;  -40.000
865.863; -115.600; -462.000; -506.000
866.111; -209.500; -795.000; -824.000
866.358;   45.200; -426.000; -420.000
866.605; 4095.300;  -64.000; -804.000
866.853; 3032.900; -621.000; -537.000
867.100;  -89.800; -728.000; -775.000
867.347; -147.900; -672.000; -611.000
867.594; -127.900; -740.000; -714.000
867.841;  183.100;   97.000;   17.000
868.089; -226.000; -746.000; -698.000
868.336; -122.200; -477.000; -420.000
868.583; -232.000; -637.000; -741.000
868.830;  -35.000; -131.000; -170.000
869.077; -254.100; -859.000; -787.000
869.324; -179.100; -502.000; -458.000
869.571; -188.900; -398.000; -430.000
869.818; -187.100; -485.000; -439.000
870.065; -141.300; -439.000; -513.000
870.311; -141.100; -456.000; -542.000
870.558; -134.500; -332.000; -311.000
870.805; -122.400; -320.000; -384.000
871.052; -164.700; -494.000; -369.000
871.298;  -59.300; -204.000; -131.000
871.545;  -76.000; -151.000; -185.000
871.792; -109.600; -173.000; -222.000
872.038;  -44.000;   43.000; -126.000
872.285; -192.300; -496.000; -387.000
872.532; -117.500; -357.000; -387.000
872.778;   80.500;  556.000;  403.000
873.025; -119.300; -384.000; -359.000
873.271;  123.000;  501.000;  578.000
873.517;    7.800; -133.000; -209.000
873.764;  -33.800; -193.000;  -80.000
874.010;  -51.200; -143.000; -230.000
874.257;  -33.100;  123.000;   90.000
874.503; -206.600; -579.000; -479.000
874.749;  -39.200;   31.000;  275.000
874.995;  -71.200;  -80.000;  -20.000
875.242; -207.300; -540.000; -478.000
875.488; -108.300; -414.000; -439.000
875.734;  -60.900; -106.000; -234.000
875.980;  383.700; -872.000;-1032.000
876.226;  545.200; -157.000; -255.000
876.472;   36.700;  343.000;  237.000
876.718;   -5.500;  184.000;  158.000
876.964;  -10.500;   56.000;   55.000
877.210; -222.400; -547.000; -677.000
877.456; -249.400; -630.000; -557.000
877.702; -288.800; -821.000; -832.000
877.948; -151.200; -377.000; -497.000
878.193;   85.400;  361.000;  255.000
878.439; -158.300; -487.000; -472.000
878.685; -148.400; -272.000; -343.000
878.931; -186.200; -618.000; -676.000
879.176; -106.200; -201.000; -201.000
879.422; -264.900; -933.000; -820.000
879.668;  212.000;   10.000;   79.000
879.913;  260.500;   53.000;  137.000
880.159;  -55.300; -112.000;  -17.000
880.404;  -26.800; -152.000; -162.000
880.650;   -4.600;   91.000;  141.000
880.895; -241.000; -670.000; -710.000
881.141; -188.000; -454.000; -428.000
881.386; -202.500; -503.000; -658.000
881.631; -113.800; -311.000; -166.000
881.877;   -3.500;  112.000;  -13.000
882.122; -207.500; -684.000; -600.000
882.367; -126.400; -136.000; -186.000
882.612;  -69.600;  -80.000; -176.000
882.858; -290.200; -877.000; -823.000
883.103; -136.200; -297.000; -267.000
883.348; -238.500; -759.000; -852.000
883.593; -230.500; -677.000; -602.000
883.838;  -79.400; -311.000;  -24.000
884.083;  101.500;  353.000;  288.000
884.328; -124.300; -564.000; -545.000
884.573;  -31.800; -196.000; -143.000
884.818;  399.000; -694.000; -531.000
885.063;  265.700; -348.000; -315.000
885.308; -151.400; -475.000; -398.000
885.553;   48.300;  245.000;  325.000
885.797; -167.700; -545.000; -615.000
886.042;  -23.800;    8.000;   58.000
886.287; -118.400; -253.000; -211.000
886.532;   -0.900;   26.000;  204.000
886.776; -146.200; -407.000; -525.000
887.021; -201.900; -621.000; -574.000
887.265; -237.000; -685.000; -689.000
887.510; -231.900; -557.000; -496.000
887.755; -104.700; -194.000; -164.000
887.999; -219.000; -552.000; -575.000
888.244;  -57.800;  -58.000;  161.000
888.488;   43.100;  371.000;  393.000
888.732; -193.800; -368.000; -520.000
888.977; -203.400; -622.000; -567.000
889.221; -245.500; -683.000; -659.000
889.465; -179.300; -422.000; -566.000
889.710;  -68.500;  -56.000; -299.000
889.954;   91.700;  579.000;  467.000
890.198; -247.400; -584.000; -707.000
890.442; -234.500; -716.000; -712.000
890.687; -232.500; -800.000; -753.000
890.931; -143.600; -273.000; -210.000
891.175; -215.100; -502.000; -500.000
891.419;  -77.100; -105.000; -110.000
891.663; -102.600; -239.000; -112.000
891.907; -251.900; -801.000; -545.000
892.151; -282.300; -920.000; -815.000
892.395; -138.600; -274.000; -387.000
892.638;   60.200;  408.000;  291.000
892.882; -306.000; -780.000; -867.000
893.126;  128.700;  758.000;  558.000
893.370;  -95.500; -167.000; -168.000
893.614; -207.600; -714.000; -715.000
893.857; -113.500; -183.000; -197.000
894.101; -193.900; -527.000; -631.000
894.345;  -51.900;  300.000;  150.000
894.588;  118.100;  569.000;  380.000
894.832; -104.000; -178.000;  -84.000
895.075;  -90.600;   15.000;  -92.000
895.319; -199.500; -552.000; -420.000
895.563; -167.600; -413.000; -353.000
895.806; -249.700; -628.000; -741.000
896.049;  -73.300; -576.000; -368.000
896.293;  253.500;  527.000;  405.000
896.536; -105.700; -465.000; -468.000
896.779;  -73.500; -149.000;   -1.000
897.023; -217.500; -751.000; -714.000
897.266;    8.300;  325.000;  269.000
897.509; -302.500; -900.000; -901.000
897.752;  -11.700;  149.000;  171.000
897.996; -318.800; -972.000; -864.000
898.239;    7.600;  168.000;  102.000
898.482; -164.000; -431.000; -453.000
898.725;   -8.400;  101.000;   53.000
898.968; -231.900; -609.000; -744.000
899.211; -161.500; -513.000; -361.000
899.454; -186.700; -633.000; -539.000
899.697;  -51.000;   90.000;  -43.000
899.940; -250.300; -761.000; -757.000
900.182; -129.200; -335.000; -405.000
900.425; -111.400; -150.000; -298.000
900.668;   34.700;  491.000;  350.000
900.911; -137.300; -292.000; -345.000
901.154;  -10.800;  141.000;   -3.000
901.396; -215.300; -407.000; -412.000
901.639; -217.400; -430.000; -496.000
901.882; -302.500; -790.000; -809.000
902.124;  -77.700;  -29.000; -143.000
902.367; -142.300; -315.000; -361.000
902.609; -202.100; -476.000; -453.000
902.852; -114.300; -108.000; -260.000
903.094; -178.500; -458.000; -337.000
903.337;  -47.000;  -26.000;   53.000
903.579; -167.800; -228.000; -441.000
903.821; -248.800; -597.000; -744.000
904.064;  -29.900;   85.000;  127.000
904.306; -108.200; -126.000; -166.000
904.548; -140.400; -152.000; -366.000
904.790; -116.800; -195.000; -340.000
905.033; -216.800; -625.000; -577.000
905.275; -189.100; -513.000; -524.000
905.517;  184.600;  468.000;  256.000
905.759; -136.700; -667.000; -761.000
906.001; -146.300; -322.000; -369.000
906.243;  -46.400; -162.000; -224.000
906.485;  251.500; -265.000; -207.000
906.727;  144.700; -499.000; -542.000
906.969;  -19.000;  -30.000; -135.000
907.211;  247.000; -316.000; -382.000
907.453;  501.700; -188.000; -237.000
907.695;    5.800; -158.000; -385.000
907.936;  152.100;  818.000;  706.000
908.178;  -27.700;   92.000; -135.000
908.420;  -66.300; -111.000; -162.000
908.662; -193.200; -633.000; -682.000
908.903; -119.800; -208.000; -123.000
909.145;  -67.000; -240.000; -305.000
909.386;   58.800;  315.000;  280.000
909.628;  154.700;  363.000;  397.000
909.870;   96.700;   29.000;  264.000
910.111; -188.600; -809.000; -949.000
910.353;   81.500; -123.000; -161.000
910.594;    3.000; -574.000; -606.000
910.835;  185.300; -265.000; -326.000
911.077;  345.600; -503.000; -604.000
911.318;  511.900; -505.000; -471.000
911.559;  813.500; -577.000; -880.000
911.801; 2712.700; -284.000; -280.000
912.042;23305.500;  -50.000; -159.000
912.283;48227.100;  404.000;  371.000
912.524; 5724.800; -396.000; -457.000
912.765;  894.500; -193.000;   79.000
913.006;  496.100; -307.000; -338.000
913.247;  140.800; -270.000; -290.000
913.488;   56.300;  -43.000;   30.000
913.729; -138.600; -373.000; -373.000
913.970;  -57.000;  -96.000; -292.000
914.211;  -62.200; -160.000; -198.000
914.452;  -87.800; -118.000;  -11.000
914.693;  101.300;  510.000;  592.000
914.934;  102.600;  510.000;  440.000
915.175;  -56.200;   53.000;  -95.000
915.415; -102.700; -137.000;   27.000
915.656;  -56.300;  -28.000;  192.000
915.897; -114.000; -252.000;  -82.000
916.137;  -97.800;   74.000;   -9.000
916.378; -200.600; -573.000; -517.000
916.619; -130.200; -159.000;  -63.000
916.859;   -6.100;  303.000;  330.000
917.100;  338.600; 1655.000; 1070.000
917.340;  185.700;  930.000;  728.000
917.581;  164.100;  965.000;  789.000
917.821;   -0.600; -171.000;  143.000
918.061;    4.500; -199.000;  -72.000
918.302;  -69.700; -152.000; -211.000
918.542;   19.500;  -22.000;    3.000
918.782;  130.300;  369.000;  377.000
919.023;  293.800;  360.000;  427.000
919.263; 2808.900; 8131.000;  202.000
919.503; 1720.800; -137.000;  -54.000
919.743; 1138.900;  390.000;  266.000
919.983;  355.000; -134.000;  -26.000
920.223;  165.100;  135.000;   14.000
920.463;  302.100;  631.000;  554.000
920.703;  270.900;   84.000;   39.000
920.943;  331.200; -110.000;   90.000
921.183;  401.700; -414.000; -405.000
921.423;  903.000;  307.000;  546.000
921.663; 1274.200; -174.000; -257.000
921.903; 2805.700;  237.000;  173.000
922.143;17093.800;  372.000;  389.000
922.383;57768.300;  158.000;  115.000
922.622;14969.800; -120.000;  -15.000
922.862; 1889.100;  796.000;  785.000
923.102;  769.100;  -51.000;   33.000
923.341;  318.300;   59.000;   74.000
923.581;  211.300;  450.000;  360.000
923.821;  102.800;  301.000;  398.000
924.060;   95.700;  351.000;  193.000
924.300;  -71.400;  -16.000; -128.000
924.539;   54.700;  584.000;  473.000
924.779;  142.400;  812.000;  597.000
925.018;  -22.800;  247.000;  353.000
925.257;   55.200;  595.000;  666.000
925.497;   -1.200;  447.000;  412.000
925.736; -102.300;  -35.000;  102.000
925.975;   97.200;  687.000;  669.000
926.214;  108.000;  907.000;  850.000
926.454;  158.700;  706.000;  757.000
926.693;    5.600;  419.000;  543.000
926.932;  157.500; 1021.000;  825.000
927.171;  237.100; 1107.000; 1044.000
927.410;  205.500; 1144.000;  967.000
927.649;  116.000;  924.000;  742.000
927.888;   69.000;  590.000;  564.000
928.127;   24.000;  680.000;  678.000
928.366;  117.900;  842.000;  826.000
928.605;  160.000;  831.000;  737.000
928.844;  504.700; 1451.000; 1393.000
929.083; 1118.800;  770.000;  613.000
929.321;  576.500; 1335.000; 1359.000
929.560;  273.000; 1158.000; 1122.000
929.799;    0.000;  574.000;  475.000
930.038;  268.400; 1025.000; 1394.000
930.276;  -11.300;  334.000;  397.000
930.515;   86.600;  827.000;  681.000
930.753;    8.100;  614.000;  589.000
930.992;   36.600;  664.000;  717.000
931.230;  109.100;  847.000;  847.000
931.469;  445.700; 2162.000;  892.000
931.707;  208.100;  840.000;  751.000
931.946;  214.700; 1278.000; 1344.000
932.184;  190.200; 1437.000; 1175.000
932.423;  173.100; 1265.000;  963.000
932.661;  236.000; 1296.000; 1428.000
932.899;  138.000;  987.000;  821.000
933.137;   65.400;  754.000;  564.000
933.376;  357.800; 1664.000; 1335.000
933.614;  385.600; 1759.000; 1196.000
933.852;  202.500; 1357.000; 1171.000
934.090;  324.600; 1722.000; 1747.000
934.328;  288.000; 1252.000; 1457.000
934.566;  255.400; 1431.000; 1110.000
934.804;  311.000; 1263.000; 1309.000
935.042;  903.100; 1861.000; 1850.000
935.280; 3448.600; 2088.000; 2063.000
935.518; 2577.600; 2113.000; 2007.000
935.756;  704.300; 2481.000; 2316.000
935.994;  413.400; 1808.000; 1751.000
936.231;  753.400; 2890.000; 2950.000
936.469;  432.400; 2367.000; 2378.000
936.707;  397.300; 2220.000; 2167.000
936.945;  545.000; 2825.000; 2882.000
937.182;  531.100; 2679.000; 2741.000
937.420;  723.200; 3602.000; 3031.000
937.657;  838.500; 3365.000; 3478.000
937.895;  774.800; 3331.000; 3488.000
938.133;  661.300; 3540.000; 3528.000
938.370;  794.600; 3896.000; 4191.000
938.607;  883.700; 4488.000; 4205.000
938.845; 1230.100; 5587.000; 5549.000
939.082; 1064.000; 5387.000; 5177.000
939.320; 1242.900; 5799.000; 5728.000
939.557; 1384.900; 6549.000; 6491.000
939.794; 1610.600; 7285.000; 7097.000
940.031; 1948.100; 8421.000; 8368.000
940.269; 2232.000; 9552.000; 9107.000
940.506; 2382.900;10901.000;10507.000

