
Integration time [ms]: 100.000
Averaging Nr. [scans]: 40
Smoothing Nr. [pixels]: 0
Data measured with spectrometer [name]: 2101013U2
Wave   ;Sample   ;Dark     ;Reference
[nm]   ;[counts] ;[counts] ;[counts] 

394.013;   62.149; -450.257; -315.536
394.305;  205.722; -461.258; -419.536
394.596; 1081.768; -676.269; -527.514
394.887; 2664.510; -796.268; -654.518
395.178; 1043.941;  145.736;   11.476
395.470;   85.927; -210.263; -356.526
395.761;  221.100;  305.734;  394.479
396.052;  317.317; -545.284; -306.489
396.343;  328.012; -557.276; -454.503
396.634;  137.456; -200.279; -290.497
396.926;  149.057; -618.268; -565.517
397.217;  124.542;   11.725;  -17.504
397.508;   53.208; -366.273; -154.507
397.799;   67.506; -555.279; -571.497
398.090;   18.375; -973.280; -902.495
398.381;  145.891;   11.708;  -11.473
398.672;    1.942; -585.292; -742.473
398.963;   59.312; -348.279; -373.498
399.254;  119.176;   54.709; -209.475
399.545;  -19.503;-1017.266; -883.520
399.836;   90.051; -407.277; -343.501
400.127;   64.817; -205.295; -209.468
400.418;   78.927; -423.274; -392.506
400.709;   61.087; -359.281; -333.493
401.000;   65.105; -268.291; -309.476
401.290;  109.453;  225.698;  115.545
401.581;   81.849; -166.286; -228.485
401.872;   26.789; -542.298; -486.462
402.163;   65.510; -313.296; -252.467
402.454;  103.752; -123.291; -163.475
402.744;  102.326; -844.297; -813.465
403.035;  465.257; -226.293;  -86.471
403.326;  670.970; -366.292; -384.474
403.617;  414.708;  204.701;  165.539
403.907;  275.498; -593.283; -679.490
404.198; 2357.307; -545.307; -599.446
404.489; 6204.878; -618.283; -588.491
404.779; 2157.257; -618.302; -660.456
405.070;  238.910;  -67.304; -174.451
405.360;  339.159; -259.293; -238.472
405.651;  396.518;  125.699;   98.542
405.942;  213.470;  209.714;  127.516
406.232;  326.609; -432.285; -413.487
406.523;  558.752;  641.706;  758.530
406.813;  123.072; -579.286; -644.484
407.104;  402.215;  261.708;  144.527
407.394;  219.460; -604.299; -591.462
407.685;  161.533;  336.715;  222.513
407.975;   80.801; -400.283; -382.490
408.265;  121.867; -134.289; -190.478
408.556;   77.574; -472.291; -459.475
408.846;  170.778;  474.706;  429.530
409.137;  101.175;   -1.288; -216.480
409.427;   58.384; -193.285; -271.487
409.717;   50.461; -776.273; -692.508
410.007;  166.653;    4.715; -170.486
410.298;   99.595; -360.295; -342.469
410.588;   66.931; -495.285; -510.486
410.878;   36.386; -792.287; -873.482
411.168;  128.216; -481.298; -478.463
411.459;  136.471; -295.283; -242.489
411.749;   63.773; -609.292; -507.474
412.039;   69.748; -755.289; -386.480
412.329;  222.219;   40.722;  132.501
412.619;  219.247;  -62.286; -148.485
412.909;  395.145;  639.711;  594.521
413.199;  365.925; -130.280; -251.495
413.490;  427.535;  521.710;  352.523
413.780;  143.579;-1013.279; -913.496
414.070;  335.488;  -46.276;  235.497
414.360;  398.840; -729.278; -666.498
414.650;  425.857; -726.288; -688.482
414.940;  547.429; -538.280; -441.496
415.230;  954.904;   50.712;   74.519
415.520; 6057.567;  155.730;   66.486
415.809;23744.237; -305.281; -125.493
416.099;18499.054; -388.277; -229.501
416.389; 5091.800;  435.726;  236.494
416.679; 3015.581;   91.738;   85.473
416.969;  517.666; -527.287; -503.483
417.259;  621.731;  341.721;  171.503
417.549;  708.835;  522.718;  318.508
417.838; 1649.060; -205.268; -147.518
418.128; 5381.940;  650.710;  492.522
418.418; 4535.243; -491.272; -579.509
418.708; 3057.300;    9.726;  -48.506
418.997;11381.396; -474.275; -480.505
419.287;11865.807; -733.273; -790.507
419.577;11135.670; -160.283; -123.489
419.866;36843.952; -588.277; -498.501
420.156;38226.313; -242.270;  -55.513
420.446; 7021.773; -112.263;  -26.526
420.735;  938.257; -376.271; -446.512
421.025;  885.964; 1830.722;  315.502
421.314;  748.880; -203.271; -226.512
421.604; 1651.302;   89.732;  233.484
421.893;  968.802; -705.271; -602.511
422.183;  234.723; -487.263; -461.526
422.472;  409.753;  -36.271; -107.511
422.762;  489.053; -416.266; -379.521
423.051;  268.339; -916.276; -916.503
423.341;  325.009; -491.273; -439.507
423.630;  437.734; -121.265;   15.477
423.919;  411.920;   58.725;   49.495
424.209;  404.754;  -31.263;   56.473
424.498;  517.207;   68.732;  161.483
424.787; 1086.413; -535.267; -601.518
425.077; 3401.632;   34.735;   29.478
425.366; 4980.360; -734.262; -744.528
425.655; 9856.935;  639.727;  259.493
425.945;20674.315; -313.247; -268.554
426.234;11622.708;  117.741;  300.467
426.523; 5032.388;  -86.259; -350.534
426.812; 6933.698;  107.734;  159.480
427.101;10067.324; -127.269; -323.515
427.390;12910.417;  -55.270;  -86.514
427.680; 3175.758; -624.257; -411.538
427.969;  513.894; -330.255; -301.540
428.258;  344.299; -385.257; -477.536
428.547;  583.047;  449.728;  397.490
428.836; 1418.685; -421.253; -398.543
429.125; 2046.690; -199.259;  -72.534
429.414;  875.108; -330.251; -294.548
429.703; 3085.833; -231.251; -213.548
429.992; 9199.911; -938.250; -828.549
430.281; 6037.566; -397.264; -331.524
430.570;  622.723;  -21.252;   32.454
430.859;  621.837;  279.741;  352.466
431.148;  478.036;  636.752;  631.446
431.437;  297.198;  391.748;  367.454
431.725;  172.176; -544.257; -481.536
432.014;  128.917; -845.253; -756.545
432.303;  408.662; -149.239; -105.569
432.592;  664.123; -460.263; -178.525
432.881; 1070.737; -601.248; -437.554
433.169; 5998.619; -343.255;  -61.540
433.458;12232.521;  445.765;  540.424
433.747; 5251.040; -397.261; -289.529
434.036;  958.138; -275.242; -280.564
434.324; 2091.874; -395.249; -379.551
434.613; 3609.031;   40.757;  159.437
434.902; 1247.927;  333.760;  439.433
435.190;  669.211;   75.761;  295.431
435.479;  381.813;  -52.245;   83.441
435.767;  117.721; -411.244; -427.561
436.056;  239.258; -340.242; -294.563
436.345;  384.079; -372.240; -223.568
436.633;  401.444;   60.750;  383.450
436.922;  289.832;  208.760;  414.432
437.210;  705.286; -194.236;    1.426
437.499; 2347.794; -583.235; -432.576
437.787; 2588.060; -339.236;  -10.574
438.075;  647.516;   56.761;  162.430
438.364;  854.944;  -44.238;  250.429
438.652;  529.249; -286.226; -138.592
438.941;  138.038;    3.770;  269.415
439.229;   29.695; -665.252; -466.545
439.517;   49.602; -160.234;  -85.577
439.806;    6.865; -501.225; -290.595
440.094;  187.135;  377.766;  650.421
440.382;  235.739; -653.233; -302.580
440.670;  254.719; -361.235; -285.576
440.959;   37.108; -347.223; -170.599
441.247;   88.225; -151.229; -109.587
441.535;  129.826; -266.235;   31.423
441.823;   45.057; -497.234; -305.578
442.111;  207.554;  173.771;  327.412
442.400;  633.737; -628.245; -335.559
442.688; 1657.460; -111.234; -620.579
442.976; 1222.621; -786.213; -450.617
443.264;  129.322; -324.224; -364.597
443.552;  122.751; -258.226;   51.408
443.840;  181.650;  602.765;  876.423
444.128;  125.013;  265.767;  269.420
444.416;   10.132; -694.228; -312.588
444.704;   37.213; -465.219;  -92.605
444.992;   87.703;   -0.226;  240.407
445.280;   68.589; -517.230;  -94.585
445.568;   56.650; -694.212; -396.618
445.856;  418.397; -174.221;  357.398
446.143;  902.334;  -54.220;   -7.604
446.431;  740.485;  -25.228;  625.411
446.719;  283.857;  489.783;  675.391
447.007;  202.683;  481.769;  705.416
447.295;  197.005;  597.777;  871.402
447.583;   94.647; -464.229;  -34.587
447.870;  167.694; -434.221; -202.601
448.158;  466.338; -104.230;  129.415
448.446;  379.085; -800.219; -338.604
448.733;  184.448;   13.776;  269.403
449.021;  290.375;   60.788;  341.382
449.309;  204.740; -296.210;  208.379
449.596;  228.828;  128.783;   59.392
449.884;  157.287; -571.222; -325.600
450.172;  164.616; -756.227; -406.590
450.459;  429.254;  645.786;  780.387
450.747; 2303.477; -411.218; -147.608
451.034; 7311.936;  493.772;  889.411
451.322; 6108.633; -413.214; -170.614
451.609;  535.575;  292.777;  508.403
451.897;  587.378; -550.203; -183.634
452.184; 1747.455; -622.223; -400.598
452.472; 1693.361;   97.792;  269.375
452.759;  357.111;  512.781;  864.395
453.047;  134.547; -407.212; -125.617
453.334;   91.244; -732.219; -216.606
453.621;   99.035; -438.214; -161.615
453.909;  128.520;   13.796;  384.368
454.196;  119.866; -299.199; -123.641
454.483;  214.491;  317.798;  540.364
454.771;  154.014; -215.208;  196.374
455.058;   42.768; -316.207;  102.374
455.345;  106.871;   71.807;  344.347
455.632;   81.371; -128.207;  235.373
455.919;   54.238;  -82.196;  182.354
456.207;  -55.880; -774.198; -450.642
456.494;   -6.397; -475.200;  -66.639
456.781;    4.787; -399.202; -198.635
457.068;   67.327; -253.206;  -29.628
457.355;    1.429; -698.206; -401.629
457.642;    0.659; -552.205; -290.630
457.929;    3.262; -778.194; -417.651
458.216;   84.397; -575.212; -354.617
458.503;  235.667; -173.193;  -19.652
458.790;  218.562; -864.208; -630.625
459.077;  254.367;  -77.202;  110.364
459.364;  783.230; -350.195; -210.649
459.651; 1665.025;  -46.206;  220.372
459.938;  787.627; -864.209; -665.623
460.225;  172.845;  132.799;  276.363
460.512;  -37.889; -836.197; -688.645
460.799;  114.151;  -32.218;  320.392
461.086;   85.458; -370.200; -251.640
461.372;   43.146; -509.198; -279.642
461.659;  137.965; -165.196;  108.354
461.946;   61.866; -445.193;  -54.651
462.233;  265.256;  842.800;  888.361
462.519;  353.952; -814.201; -464.639
462.806;  996.236; -768.197; -497.645
463.093;  874.736; -445.191;  -66.656
463.380;  -12.422; -920.186; -824.664
463.666;   65.363; -259.197;  -18.646
463.953;   91.625; -406.195; -243.648
464.239;  187.725; -173.195;  -77.648
464.526;  421.411;  413.806;  743.350
464.813;  352.448; -565.190; -304.658
465.099;  381.567;  606.807;  607.348
465.386;  359.196;  903.807;  921.348
465.672;   28.786; -694.197; -522.645
465.959;   27.566; -598.188; -520.662
466.245;   47.971; -468.193; -359.652
466.532;  116.673; -109.195;   63.352
466.818;   96.303; -357.186; -216.664
467.104;    9.568; -488.182; -415.672
467.391;   -8.825; -628.189; -459.658
467.677;   29.181; -289.186;    9.335
467.964;   37.407; -682.189; -471.660
468.250;   69.884; -331.186; -160.665
468.536;  101.301;   90.811;  180.341
468.822;  -37.679; -821.184; -574.668
469.109;  142.225;  351.827;  471.311
469.395;  210.830;  729.808;  787.346
469.681;  209.179;   46.811;  156.341
469.967; 1236.384; -699.188; -382.660
470.254; 2630.467; -494.188; -306.662
470.540; 1702.513; -601.196; -476.646
470.826;  264.129; -488.181; -397.675
471.112;  310.525;  288.816;  113.331
471.398;   79.804; -253.183;  -58.670
471.684;   42.283; -626.177; -447.680
471.970;   -6.292; -918.180; -981.675
472.256;   30.679; -521.192; -441.654
472.542;   29.761; -499.171; -434.691
472.828;   14.089; -743.182; -607.672
473.114;   41.704; -380.166; -283.700
473.400;   26.725; -504.175; -293.684
473.686;   55.286; -452.166; -400.701
473.972;   60.514; -230.174; -131.687
474.258;  -30.125; -925.173; -843.689
474.544;  184.425; -183.178;   -2.679
474.830;  284.551;  -65.175;   45.316
475.116;  459.525; -123.190; -196.658
475.401;  630.436; -558.180; -467.676
475.687;  186.135; -725.180; -718.676
475.973;   18.497; -673.181; -770.673
476.259;  262.328;  736.825;  764.315
476.544;  346.941; -539.176; -437.682
476.830;  782.857; -398.172; -322.690
477.116;  690.265; -430.177; -336.682
477.401;  137.310;  346.820;  358.324
477.687;  -25.075; -289.175; -405.684
477.973;   33.651;   21.819;   28.326
478.258;    0.506; -448.163; -348.706
478.544;   68.089;   21.815;   61.334
478.829;  -46.784; -818.171; -738.692
479.115;  -38.244; -749.172; -651.690
479.401;  -10.290; -444.174; -449.686
479.686;   22.084; -253.180;  -74.676
479.972;  -29.570; -886.178; -776.680
480.257;   27.931; -258.166;  -65.700
480.542;    3.470; -614.170; -469.693
480.828;  239.923; 1288.824; 1392.317
481.113;  -36.554; -464.176; -426.683
481.399;   -0.245; -236.161; -202.711
481.684;  -55.145; -620.166; -462.700
481.969;    9.344; -158.159;  -73.713
482.255;    0.806; -439.169; -285.695
482.540;    3.305; -569.178; -441.680
482.825;   15.423; -395.187; -404.663
483.110;   89.809;  -85.169; -105.696
483.396;  188.716; -840.157; -652.718
483.681;  501.139;  543.826;  730.313
483.966;  150.538; -696.160; -700.712
484.251;    4.213; -404.174; -310.687
484.536;   18.641; -356.165; -378.703
484.822;   13.791; -205.173; -218.687
485.107;  -22.321; -599.152; -502.726
485.392;  119.797;  662.836;  541.296
485.677;   95.444;  354.832;  163.302
485.962;  112.638;  160.843;  270.283
486.247;  103.089;  -14.162;   -8.707
486.532;   28.407; -178.166; -325.701
486.817;  179.975;  381.839;  431.291
487.102;  126.387; -453.154; -514.722
487.387;  640.667; -637.156; -652.718
487.672; 1111.177; -154.164;  -38.705
487.957;  724.232; -394.160; -286.711
488.241;  193.846; -290.150; -314.729
488.526;  702.130; -280.152; -148.726
488.811; 1136.107; -881.177; -818.680
489.096;  883.315; -666.154; -702.723
489.381;  478.627;    3.847;  162.275
489.666;  371.905; -428.161; -510.710
489.950;  179.818;  558.846;  627.277
490.235;  -26.584; -480.151; -458.728
490.520;  -54.146; -756.161; -723.710
490.804;  -54.406; -827.156; -736.719
491.089;    2.387; -469.149; -299.732
491.374;   37.476; -132.164;  -75.704
491.658;   -5.327; -817.147; -717.735
491.943;  199.660; -657.152; -609.727
492.227;  280.608; -178.155;  -38.721
492.512;   54.788; -294.157; -341.717
492.797;  -59.494; -713.149; -716.731
493.081;  -45.524; -588.147; -598.735
493.366;  -35.419; -751.161; -635.711
493.650;  216.680;  831.859;  917.254
493.935;   35.248; -648.147; -447.734
494.219;  -34.258; -778.142; -687.743
494.503;  -47.624; -585.150; -487.730
494.788;   59.154;   46.842;   74.285
495.072;   92.372;  184.850;  434.271
495.356;  182.790; -463.148; -343.733
495.641;  469.383; -812.146; -736.736
495.925;  481.524; -976.156; -903.719
496.209;   39.411; -599.149; -451.732
496.494;  -29.433; -763.142; -544.744
496.778;   14.812; -364.154; -360.722
497.062;  -59.326; -819.156; -627.719
497.346;  -26.241; -869.160; -640.711
497.631;  164.644;  580.852;  560.266
497.915;   72.243;  -64.145;  175.261
498.199;   70.666; -341.157; -277.718
498.483;   40.679; -562.152; -508.725
498.767;  192.623;  301.850;  300.271
499.051;  190.634; -126.149; -100.732
499.335;   38.232; -693.149; -739.731
499.619;  -29.994; -381.129; -423.767
499.903;   34.781; -272.155;  -65.721
500.187;   35.994; -588.153; -316.724
500.471;   30.609; -796.152; -595.727
500.755;  124.829;   62.839;  -96.710
501.039;   27.682; -270.155; -357.721
501.323;  101.131;  -21.141;  264.254
501.607;   53.357; -447.163; -503.706
501.891;   -3.933; -607.156; -512.718
502.174;  -21.670; -726.144; -585.741
502.458;   70.713;   89.849;  370.273
502.742;   37.280; -180.138; -191.751
503.026;  104.747; -412.147; -254.734
503.310;  171.818; -437.159; -375.713
503.593;  114.624; -464.147; -325.735
503.877;  144.946; -232.133; -156.760
504.161;  192.747;    2.847;  -50.724
504.444;  136.282; -841.158; -710.716
504.728;  436.150; -487.164; -522.704
505.012;  700.745; -257.150;  -76.729
505.295;  542.355; -417.161; -212.711
505.579;  528.249; -256.156; -496.719
505.862;  731.590; -555.145; -333.738
506.146;  709.395; -681.159; -758.714
506.429;  394.771;  568.841;  461.286
506.713;   65.317; -732.151; -667.728
506.996;  312.611;   90.846;  295.278
507.280;  339.495; -633.165; -474.703
507.563;  235.880; -469.155; -261.721
507.847;  102.145; -423.153; -112.724
508.130;   81.156; -665.161; -456.711
508.413;  110.101; -758.167; -577.700
508.697;  226.202; -151.167;   12.300
508.980;  149.546; -422.153; -312.724
509.263;   -6.249; -466.155; -450.720
509.547;   36.345; -124.150;   82.271
509.830;   51.183; -172.160;  140.289
510.113;   97.199;  128.844;  298.281
510.396;   38.552; -530.152; -300.725
510.680;  210.066; -818.145; -812.738
510.963;  741.991;  184.846;  180.277
511.246;  663.453; -493.150; -357.730
511.529;  283.496; -482.145;  -83.739
511.812;  374.192; -250.134;   10.241
512.095;  248.989; -740.151; -396.728
512.378;   68.128; -317.147; -245.736
512.661;   39.063; -703.137; -623.753
512.944;   21.769; -750.142; -637.744
513.227;   57.985; -170.137; -171.752
513.510;   28.904; -479.144; -671.741
513.793;   22.936; -485.140; -435.747
514.076;  143.002;  -43.127;  -39.771
514.359;  105.887; -294.149; -135.732
514.642;   87.622; -442.142; -567.744
514.925;  707.509;  581.860;  561.253
515.208;  963.239; -498.134; -443.758
515.491;  620.503; -276.133; -182.761
515.773;  370.283; -410.143; -337.742
516.056; 1990.719;  249.864;  409.246
516.339; 2757.548; -754.136; -652.755
516.622; 2013.925; -518.150; -488.730
516.904; 1469.740;  882.857;  975.257
517.187;  684.734; -730.138; -523.752
517.470;  423.864; -568.143; -510.743
517.752;  406.801; -624.136; -470.756
518.035;  324.646; -708.139; -725.749
518.318;  352.573; -799.136; -744.755
518.600; 2290.281; -300.132; -325.762
518.883; 3188.671;  310.858;   88.256
519.165; 1550.127; -585.138; -426.751
519.448;  394.881;  -61.132;  -19.762
519.730;  221.235; -573.126; -415.773
520.013;  333.849;  588.867;  664.240
520.295;  995.994;  -94.134;  -15.759
520.578; 2169.844; -335.131; -305.764
520.860; 2455.431; -254.132;   56.238
521.143; 1245.703; -763.135; -584.756
521.425;  487.523; -251.125; -279.775
521.707;  675.603; -622.127; -380.771
521.990; 1700.028; -199.127;  167.229
522.272; 1907.087; -116.140;   -4.748
522.554;  944.509; -237.143; -157.742
522.836;  413.042;  -24.134;   99.241
523.119;  268.421; -496.148; -189.734
523.401;  177.776; -448.130; -314.766
523.683;  104.563; -865.137; -693.753
523.965;  260.357;  408.862;  260.248
524.247;  274.144;   54.878;  170.220
524.529;  189.594; -451.134; -367.759
524.812;  367.003;   -3.130;  191.234
525.094;  817.856; -773.138; -631.751
525.376; 1311.832; -143.124;   78.223
525.658;  792.071; -441.136; -339.754
525.940;   32.666; -805.131; -671.764
526.222;   47.349; -188.136;  -88.755
526.504;  133.464; -190.131;   32.237
526.786;  227.547; -960.133; -647.760
527.068;  378.938; -124.123;  -67.778
527.349;  160.692; -865.137; -774.754
527.631;  150.456; -137.132;   22.238
527.913;  132.677; -664.127; -450.771
528.195;  160.291; -761.125; -639.774
528.477;  235.489;  -93.134;  -30.758
528.759;  128.203; -648.130; -522.766
529.040;   56.261; -569.123; -293.778
529.322;   62.044; -235.125;  -10.774
529.604;  161.730;  -47.130;   93.233
529.886;  154.585; -546.126; -302.773
530.167;  142.272;  232.870;  192.235
530.449;   59.502;    1.853;   63.265
530.731;   31.393; -572.122; -459.779
531.012;   64.614; -513.120; -216.784
531.294;   80.904; -118.116;  -43.792
531.575;  143.898;  290.875;  538.225
531.857;   47.459; -548.135; -266.757
532.138;  115.105; -113.141;   40.254
532.420;  200.205;  294.865;  403.244
532.701;  267.224; -722.133; -751.760
532.983;  393.852;  232.867;  182.239
533.264;  144.108; -243.126;  175.228
533.546;  -47.251; -491.136; -508.755
533.827;   63.670;  173.867;   -1.759
534.109;   46.359; -352.135;  -80.757
534.390;  109.135; -725.132; -582.762
534.671;  271.530; -270.135;  -82.756
534.953;  152.664; -751.123; -611.779
535.234;   21.139; -426.117; -255.789
535.515;  -72.077; -891.119; -735.785
535.796;  -21.827; -431.128; -193.770
536.078; -105.793;-1050.124; -904.777
536.359;    3.915;  -22.123;    3.221
536.640;   -3.283; -480.125; -197.774
536.921;  169.810;  225.871;  143.232
537.202;  381.828;  -87.138;  -16.751
537.483;  444.194;  251.869;  377.236
537.764;  172.072;   17.870;   98.235
538.045;  -53.587; -543.134; -371.758
538.326;  -25.763; -596.129; -447.768
538.607;   20.754; -686.127; -476.771
538.888;  176.830;   98.879;    5.218
539.169;  185.625; -704.122; -535.781
539.450;  349.384;  236.871;   16.233
539.731;  218.359; -361.121; -182.783
540.012;  136.364;  199.880;  412.216
540.293;   94.601;   82.876;  158.224
540.574;   26.199; -895.113; -717.796
540.855;  461.183;  435.879;  377.218
541.136;  548.522;   47.878;  139.220
541.416;  280.603; -161.130; -220.766
541.697;  219.839; -274.131; -170.763
541.978; 1005.182; -270.135; -315.757
542.259; 1262.453; -211.127; -236.771
542.539;  620.122; -191.116; -186.790
542.820;  200.272;  461.875;  480.225
543.101;  130.793;  -52.145;  -77.738
543.381;   37.228; -638.127; -591.771
543.662;  257.676;  159.873; -254.771
543.942;  555.999; -751.127; -830.770
544.223; 1008.549;  193.878;  161.219
544.504;  662.031; -275.124; -182.777
544.784;  584.409; -592.126; -408.773
545.065; 1582.176;  104.884; -254.791
545.345; 1906.698;  227.881;   14.215
545.626; 1217.099;  -14.113; -108.796
545.906;  837.246;   77.869;   98.235
546.186;  342.114;   92.874;  -95.773
546.467;  185.759;   99.877;  -95.778
546.747;  324.497;  264.884;  327.210
547.027;  359.105;   91.876;  111.223
547.308;  315.373; -376.127; -530.770
547.588;  386.488;  299.871;  371.232
547.868;  206.847;  458.870;  588.235
548.149;  195.834;  609.885;  593.207
548.429;  121.252; -347.127; -299.771
548.709;  169.914; -645.120; -461.784
548.989;  472.057;   84.882;   88.213
549.269; 2018.454;   10.868;  139.239
549.550; 4626.213;  215.877;  117.222
549.830; 4101.767; -758.111; -556.799
550.110;  834.974; -468.110; -320.801
550.390;  801.669; -128.122;  -56.779
550.670; 1076.519; -868.114; -783.795
550.950;  770.507; -509.121; -471.782
551.230;  202.704;  549.879;  460.218
551.510;   -4.969; -381.121; -326.782
551.790;   39.457; -173.109; -127.803
552.070;  251.384;  940.877; 1181.223
552.350;  398.177; -492.119; -377.786
552.630;  553.851;   -2.121;   77.219
552.909;  342.302;  181.884;   73.209
553.189;  225.986;  -49.132;   33.237
553.469;  177.901; -703.119; -514.786
553.749;  186.805; -469.127; -357.772
554.029;  157.718;   33.883;  -24.790
554.308;  132.263; -154.115;  -37.794
554.588;   72.822; -196.128; -204.770
554.868;   61.183; -366.121;  -47.782
555.147;  154.285; -114.115;  -46.793
555.427;  582.754; -260.116; -250.792
555.707; 3701.308; -284.115; -200.793
555.986; 4487.095; -719.111; -538.800
556.266; 2396.546;   23.884;   72.210
556.546;  109.756; -888.121; -675.782
556.825;  238.267; -657.114; -556.794
557.105; 1716.070; -125.128;   17.230
557.384; 1985.700;  122.884;  187.209
557.664;  755.328; -717.116; -508.792
557.943;  121.382; -557.121; -411.782
558.222;  149.986; -345.118; -344.788
558.502;  279.011; -116.115;  -76.793
558.781;  458.557;  194.885;  499.208
559.061;  398.660; -232.118; -227.788
559.340;  271.165;  302.883;  353.211
559.619;  677.046;   93.884;  148.210
559.899;  953.192; -239.117; -266.789
560.178;  896.636; -778.115; -593.793
560.457; 3022.119; -623.117; -562.790
560.736; 4180.596; -472.111; -482.800
561.015; 2790.543; -500.128; -502.769
561.295;  400.477;  180.893;  215.193
561.574;  339.333;  119.885;  116.207
561.853;  498.711;  274.891;  303.197
562.132;  472.938;  -45.114;  182.206
562.411;  432.777;  396.879;  553.219
562.690;  131.207; -592.115; -458.792
562.969;  147.856;  472.888;  630.203
563.248;  528.124; 2966.878; 2487.219
563.527;  247.071; -290.111; -408.800
563.806;  353.127; -650.127; -521.771
564.085;  395.167; -297.105; -206.810
564.364;  218.445; -594.117; -405.790
564.643;  493.952; -276.121; -223.781
564.922; 1804.330;  221.890;  397.198
565.201; 1764.509; -640.109; -700.803
565.479;  765.980; -297.115; -219.792
565.758;  322.370; -810.128; -712.770
566.037;  458.135; -155.109; -100.803
566.316;  235.026; -286.116;  -28.791
566.595;   38.283;  -17.115;  -12.793
566.873;  111.373; -166.111;  -79.801
567.152;  -69.595; -490.113; -590.797
567.431;    1.047; -113.116;    6.210
567.709;    5.452; -344.107; -212.807
567.988;  243.992; -810.114; -769.794
568.266;  498.033; -160.115;  -68.793
568.545;  372.565; -644.100; -514.819
568.824;  557.005;  160.885;  356.208
569.102;  523.342; -351.114; -235.794
569.381;  203.504; -492.116; -407.792
569.659;  -39.173; -553.113; -553.796
569.938;   19.698; -743.122; -465.780
570.216;  111.988; -225.109; -225.804
570.494;  -25.255; -632.114; -572.795
570.773;   37.456;  202.879;  114.218
571.051;   -2.313; -373.123; -357.778
571.330;   53.149; -221.113; -174.796
571.608;   32.183; -181.098; -173.823
571.886;  -68.685; -671.111; -581.799
572.164;  -78.717; -739.121; -621.782
572.443;  -39.479; -562.105; -512.811
572.721;  -29.406; -399.117; -289.790
572.999;  -28.438; -280.117; -168.788
573.277;   74.790;  379.894;  620.191
573.555;  283.792;   94.894;   37.190
573.834; 1272.187;  -86.117; -114.788
574.112; 1499.955;  880.893;  811.193
574.390;  442.172; -143.111;  -96.801
574.668;    5.506;  -91.112;  -61.797
574.946;  -17.033; -165.106; -187.810
575.224;   21.734;   71.891;  -16.803
575.502;  -15.226; -200.116; -204.791
575.780;  -90.692; -767.112; -829.798
576.058;  204.521; 1589.889; 1004.200
576.336;  -11.749; -210.110; -129.801
576.614;  -49.092; -511.112; -340.798
576.891;   57.137; -711.115; -823.794
577.169;  452.546; -158.108; -285.805
577.447;  552.604;  169.893;  202.193
577.725;  252.212;  629.888;  854.201
578.003;    8.185;  -71.112; -371.798
578.280;   99.105; -208.104; -242.812
578.558;   74.536; -450.115; -422.793
578.836;  142.795; -210.114; -145.795
579.114;   58.556; -630.112; -670.797
579.391;   82.664;   -6.117;  -18.789
579.669;  -66.012; -595.114; -704.794
579.947;  159.451; -326.107; -127.806
580.224;  296.876; -692.107; -524.806
580.502;  310.055;  127.893;   76.193
580.779;    7.845;  -42.117;   75.210
581.057;  -75.237; -584.109; -470.804
581.334;  -86.005; -726.102; -695.815
581.612;   38.393;   54.895;  511.190
581.889;  -22.842;  -83.101; -129.818
582.167;  -33.102; -298.099; -190.821
582.444;  -88.472; -845.102; -814.817
582.721;   99.729;  657.899;  715.183
582.999;   40.470; -326.100; -167.821
583.276;  472.266; -812.123; -713.779
583.553;  684.398; -364.102; -294.816
583.831;  195.302; -607.104; -631.812
584.108;   53.369;  349.892;  174.195
584.385;    7.094; -122.102;  -98.815
584.662;  -67.377; -651.111; -828.801
584.940;   38.972;  204.889;  204.199
585.217;   -4.374;  -73.113; -303.796
585.494;   16.356;   71.890;  118.198
585.771;  201.939; -250.109; -354.804
586.048;  471.876; -196.113;  -76.796
586.325;  302.000; -721.110; -773.801
586.602;   82.205;  230.896;  213.188
586.879;  -23.659; -499.100; -580.820
587.156;   40.793; -156.105; -331.810
587.433;  -35.549; -701.102; -667.817
587.710;   63.733;  152.888;  234.202
587.987;  285.749; -264.105; -236.811
588.264;  774.610;  315.888;  387.202
588.541; 1330.733;  -61.104;   26.187
588.818; 2587.741;   72.892;  171.196
589.095; 2214.003; -163.104; -174.812
589.371;  353.087; -459.109; -414.804
589.648;   12.130; -581.107; -437.807
589.925;   21.546; -517.114; -621.795
590.202;   21.933; -741.112; -607.798
590.478;   81.801; -166.105;  -73.811
590.755;  251.772; -241.108; -132.806
591.032; 2354.578; -741.110; -699.802
591.308; 3237.398; -732.094; -790.831
591.585; 1676.227; -573.110; -560.802
591.862;  121.902;-1056.102; -950.817
592.138;   55.220; -475.108; -474.805
592.415;  149.631; -486.104; -495.813
592.691; 1440.079;  460.896;  518.188
592.968; 1805.484; -208.098; -123.824
593.244;  891.497; -695.116; -595.790
593.521;   75.878; -105.102;  -42.817
593.797;  -29.155; -810.122; -720.780
594.074;  325.047; -611.096; -588.826
594.350;  647.233;  828.905;  729.172
594.626;  286.398; -303.111; -283.801
594.903;   87.553; -643.101; -645.817
595.179;  189.160;  243.896;  418.187
595.455;   16.631; -136.107; -150.807
595.731;   18.762;  -19.103;  -38.814
596.008;  -46.233; -464.111; -434.800
596.284;   22.844; -187.100; -242.820
596.560;   68.654; -501.093; -493.833
596.836;  211.345; -173.105;  -70.810
597.112;  329.645; -582.108; -437.805
597.388;  270.795;  -49.097;  -48.826
597.665;  115.754;  437.887;  530.203
597.941;  -62.641; -572.089; -658.839
598.217;    4.806; -323.110; -293.802
598.493;  262.890;   61.891; -204.804
598.769;  484.838; -175.100;  -50.819
599.045;  297.073; -490.108; -562.806
599.321;   58.668; -193.100; -261.820
599.597;  121.215; -355.109; -476.804
599.872;  452.983;  409.896;  429.187
600.148;  362.872;  -61.097; -172.826
600.424;  273.478;   91.893;  202.193
600.700;  220.705; -170.107; -280.807
600.976;  107.866; -442.097; -464.825
601.252;  247.336; -226.109; -272.803
601.527;  201.909; -833.104; -840.813
601.803;  133.701; -453.105; -404.812
602.079;  159.963; -124.100; -118.819
602.354;  530.739; -620.092; -531.835
602.630;  792.976; -140.113; -482.796
602.906; 2232.683; -910.101; -863.818
603.181; 6321.202; -627.119; -534.786
603.457; 5441.919;   98.903; -278.826
603.733;  794.385; -605.120; -626.783
604.008;  935.217; -245.106; -164.810
604.284; 2938.055; -636.101; -580.817
604.559; 2517.562;   -3.112;  -42.799
604.835;  436.120; -163.105; -225.810
605.110;  380.673; -732.099; -892.821
605.385;  657.307;  224.907;  267.167
605.661;  621.761; -625.095; -729.829
605.936; 1075.149; -664.108; -737.806
606.211;  935.418;  -17.103; -170.815
606.487;  206.015; -329.114; -376.794
606.762;   10.902; -791.119; -745.786
607.037;  -25.455; -501.105; -433.810
607.313;  -43.771; -589.096; -574.828
607.588;  -11.683; -375.106; -137.810
607.863;   52.908;  -28.101; -143.818
608.138;  188.404;  513.890;  516.198
608.413;   10.502; -576.099; -592.822
608.688;   35.520; -203.108; -267.805
608.964;  186.236; -509.106; -218.809
609.239;  223.393; -107.105; -212.810
609.514;  249.026;  281.895;  240.188
609.789;  616.730; -187.104; -716.812
610.064;  817.403; -435.096; -609.827
610.339;  829.737; -855.109; -799.804
610.614; 1080.668; -131.100; -315.820
610.889;  621.501;  215.895;  107.188
611.163;   33.427; -407.104; -591.812
611.438;   76.092;   81.886; -167.794
611.713;    3.455; -467.101; -499.817
611.988;   52.082; -144.101; -328.818
612.263;  -33.405; -771.102; -717.815
612.538;  213.201;  385.887;  251.204
612.812;  155.270; -832.100; -911.820
613.087;  137.607; -358.098; -338.823
613.362;  -45.794; -497.107; -557.807
613.637;   35.264;  261.897;  138.186
613.911;  -19.785; -256.092; -345.835
614.186;  106.629; -249.107; -292.807
614.460;  627.409; -842.081; -758.854
614.735;  736.732;  -55.087;  -17.843
615.010;  168.222;   43.912;  -82.841
615.284;  233.819;  360.892;  246.195
615.559;  364.214; -792.092; -955.835
615.833;  291.975;  -76.099;  -87.822
616.108;   -1.624; -225.090; -390.837
616.382;  138.659;  274.913;  402.156
616.656;  158.351; -241.090; -232.837
616.931;  473.776; -785.099; -700.822
617.205; 1014.584; -973.104; -979.813
617.480;  925.271;  -91.125;    6.225
617.754;  139.218; -396.125; -128.774
618.028;   14.614; -369.129; -382.768
618.302;   65.943;   73.892;  -25.805
618.577;  -66.434; -371.103; -518.815
618.851;  -75.192; -399.109; -600.803
619.125;  -45.731; -335.134; -378.759
619.399;  -38.865; -244.104; -374.813
619.673;  -42.220; -330.115; -515.792
619.947;  -41.005; -333.114; -448.795
620.222;  -15.176; -198.110; -204.801
620.496;  -10.017;  -47.121;  -96.782
620.770;   17.174; -187.122;  -93.781
621.044;  213.843;  323.895;  346.190
621.318;  713.061; -653.120; -614.783
621.592;  626.558; -430.121; -409.783
621.866;  333.538; -476.112; -572.799
622.140;   32.073; -207.116; -356.791
622.413;   50.792;  138.889;  112.200
622.687;  -36.445; -746.101; -492.817
622.961;    3.743; -130.108; -143.805
623.235;  -50.807; -633.111; -661.800
623.509; -116.975; -816.105; -848.811
623.783;    5.827;  -12.107;   48.193
624.056;  -23.238; -254.120; -280.783
624.330;   43.631;   63.888;   -3.797
624.604;   35.545; -271.116; -355.790
624.877;   84.303;  180.890;   26.198
625.151;   15.264; -249.114; -238.794
625.425;  -31.989; -150.103; -283.814
625.698;  -65.104; -367.119; -374.785
625.972;  -97.369; -799.110; -765.802
626.245;   74.247;  685.884;  484.210
626.519;  -32.259; -426.120; -340.784
626.792;  -37.520; -192.107; -380.807
627.066;  -77.758; -485.122; -662.779
627.339; -106.323; -736.110; -663.802
627.613;   48.514;  351.880;  148.216
627.886;  -63.242;  187.891; -612.803
628.160;   -9.540;  312.880; -161.783
628.433;  -98.577; -695.125; -703.775
628.706;  -85.134; -517.120; -615.784
628.979;   26.380;  296.876;  117.223
629.253;  -75.999; -785.119; -833.786
629.526;  331.758; -334.126; -253.772
629.799;  325.687; -641.123; -479.778
630.072;  147.140; -497.128; -516.769
630.346;  -54.453;-1115.116;-1080.790
630.619;  436.181; -467.107; -545.808
630.892;  617.769;  709.889;  593.200
631.165;  313.059;  790.896;  679.187
631.438;  -81.390;-1092.112;-1055.798
631.711;   52.265;  453.877;  257.221
631.984;  -68.358; -523.117; -624.789
632.257;  -72.361; -636.117; -681.789
632.530;  -40.754; -412.119; -433.785
632.803;   26.137; -109.115;    7.207
633.076;  -52.891; -360.123; -422.777
633.349;    5.594;  173.872;  121.231
633.622;  -39.805; -187.119; -240.785
633.895; -125.738; -903.120; -823.783
634.167;  -55.890; -496.126; -525.773
634.440;   -6.347;  -19.116; -137.792
634.713;    4.500;  -22.119; -120.786
634.986;   72.584;  593.871;  453.233
635.258;  -76.640; -507.115; -597.793
635.531;   89.135;  742.882; -343.788
635.804;  -27.584; -303.117; -318.789
636.077;  -86.575; -830.116; -852.791
636.349;    2.534; -586.115; -474.793
636.622;  390.507; 1695.874; 1392.228
636.894;  232.066; -474.120; -909.784
637.167;  153.701; -836.127; -789.771
637.439;   33.897; -278.128; -213.770
637.712;  -36.941; -312.126; -293.772
637.984;  -74.525; -635.116; -707.791
638.257;  387.809;  515.877;  488.222
638.529;  552.799; -881.125; -924.776
638.802;  231.915; -508.128; -449.769
639.074; -110.701; -927.122; -952.781
639.346; -133.540; -942.135; -930.757
639.619;    2.795;  -79.142; -319.744
639.891;   -8.933;  -83.122; -168.779
640.163;  -66.881; -689.122; -756.780
640.435;   26.221;  273.878;  103.220
640.708;   17.298;  -72.122; -132.780
640.980;  -34.950; -366.122; -362.781
641.252;  195.927;  -25.121;  -71.781
641.524; 1749.378;  580.879;  573.219
641.796; 1777.105;-1094.121; -907.782
642.068;  326.732; -191.121; -300.782
642.340;  -56.541; -486.121; -566.783
642.613;   42.836;  294.880;  323.217
642.885;  -85.187; -787.120; -878.783
643.157;  -50.511; -810.120; -658.784
643.428;   60.941;  170.880;  218.216
643.700;  -69.732; -498.120; -425.784
643.972;  -36.930;  -16.119; -133.785
644.244;  -97.103; -474.119; -559.785
644.516;  -49.576; -250.119; -114.786
644.788;   54.975;  662.881;  548.214
645.060;  -20.323;  -12.119; -124.786
645.332;  -95.021; -525.118; -535.787
645.603;   40.056;  479.882;  342.213
645.875;  -85.742; -334.118; -369.787
646.147;  162.360; 1487.882; 1242.212
646.418;  -76.564; -931.117; -918.788
646.690;  125.188; -714.117; -715.789
646.962;   20.415; -413.117; -451.789
647.233;  -13.683;   15.883;   11.211
647.505; -113.931; -595.117; -475.790
647.776;   32.771;  328.884;  229.210
648.048;  -16.853; -248.116; -418.790
648.320;  -80.851; -752.116; -679.791
648.591; -148.324;-1055.116; -958.791
648.862;  -78.747; -505.116; -577.792
649.134;    6.430;  115.885;  198.208
649.405;  -43.568; -661.115; -618.792
649.677;  -56.541; -475.115; -598.793
649.948;  -15.090; -181.115; -296.793
650.219;  -13.688;  -37.115; -147.793
650.491;  -76.261; -431.114; -520.794
650.762; -124.084; -705.114; -731.794
651.033;  -80.382; -437.114; -424.795
651.304;  -98.030; -743.114; -728.795
651.576;  -70.129; -680.114; -645.795
651.847;  -46.852; -250.113; -140.796
652.118;  -21.175;  -32.113; -189.796
652.389; -119.098; -639.113; -722.796
652.660;  -23.521; -147.113;  -89.797
652.931; -153.069; -897.112; -871.797
653.202;  -85.368; -382.112; -541.798
653.473;  -58.191; -633.112; -533.798
653.744;  147.011; -595.112; -590.798
654.015;  136.863; -356.112; -303.799
654.286;  -70.260; -642.111; -663.799
654.557;  -71.508; -586.111; -521.799
654.828; -153.532;-1114.111;-1088.800
655.099;  -83.330; -404.111; -291.800
655.370;  -93.728; -427.111; -543.801
655.641; -118.651; -656.110; -714.801
655.911; -108.599; -618.110; -638.801
656.182;   57.628;  437.890;  387.198
656.453;  107.004;  830.890;  746.198
656.724;  -78.944; -466.110; -426.802
656.994;  -78.767; -553.109; -568.803
657.265; -110.065; -862.109; -873.803
657.536;  -84.413; -500.109; -377.804
657.806; -113.211; -561.109; -593.804
658.077; -144.210; -866.109; -950.804
658.347;  -88.958; -523.108; -598.805
658.618; -106.681; -646.108; -694.805
658.888;  -18.279;  -41.108;  112.195
659.159;  -71.927; -432.108; -548.806
659.429;  -23.750; -292.108; -349.806
659.700;   12.177; -435.107; -390.807
659.970;  -14.247; -370.107; -359.807
660.241;   12.180; -754.107; -921.807
660.511;  489.407; -147.107; -174.808
660.781;   89.059; -793.106; -748.808
661.052;  -45.239; -222.106; -381.808
661.322;  -22.362;   21.894;   -9.809
661.592;   11.514;  257.894;  148.191
661.862;  -69.259; -369.106; -382.810
662.133;  -94.807; -551.105; -502.810
662.403; -126.430; -770.105; -676.810
662.673;  -58.453; -256.105; -213.811
662.943; -100.126; -612.105; -551.811
663.213;  -18.525;  -85.105;  -81.811
663.483;  -82.598; -593.104; -568.812
663.753;  -53.296; -194.104; -152.812
664.023;   -3.069;   68.896;  -32.813
664.293;  -44.942; -319.104; -126.813
664.563; -109.440; -694.104; -648.813
664.833; -122.264; -743.103; -608.814
665.103; -133.587; -730.103; -793.814
665.373; -109.810; -766.103; -806.814
665.643;  -87.808; -863.103; -918.815
665.913;   25.694; -534.103; -714.815
666.182;  130.521; -685.102; -719.816
666.452;  247.797;  -22.102;  -89.816
666.722;  -23.501; -724.102; -784.816
666.992; -129.149; -948.102; -921.817
667.261;  -94.522; -824.102; -808.817
667.531;  206.430;  134.899;   45.183
667.801;  558.682; -440.101; -412.818
668.070;  225.034;  714.899;  697.182
668.340; -100.640; -883.101; -840.819
668.609;   85.087;  588.900;  301.181
668.879;  -88.511; -490.100; -558.819
669.149;  -70.359; -539.100; -516.820
669.418; -105.882; -698.100; -726.820
669.688;  -28.880; -482.100; -666.820
669.957;   65.021; -423.099; -546.821
670.226;  -22.502; -268.099; -331.821
670.496;  -89.175; -431.099; -635.822
670.765;  -87.498; -418.099; -501.822
671.034; -132.671; -872.099; -828.822
671.304;  -21.819;   55.902; -111.823
671.573; -152.468;-1085.098; -957.823
671.842;   66.934; -380.098; -294.823
672.112;   31.011; -692.098; -586.824
672.381;   -5.437; -239.098; -214.824
672.650; -124.060;-1005.097;-1021.825
672.919;  -87.508; -631.097; -507.825
673.188; -101.982; -681.097; -878.825
673.457; -140.655;-1101.097;-1143.826
673.726;  -73.078; -579.096; -646.826
673.995;  -42.026; -533.096; -479.826
674.265;  -16.424; -263.096; -333.827
674.534;    3.478; -183.096; -235.827
674.802;    7.254; -618.096; -703.828
675.071;  987.106; -886.095; -801.828
675.340; 3715.683; -464.095; -339.828
675.609; 1245.710;  103.905;   82.171
675.878;   75.387; -949.095; -893.829
676.147;   22.064;  -26.095;   -8.829
676.416;   94.315; -210.094; -294.830
676.685;  715.817; 1000.906; -622.830
676.953;  107.644; -603.094; -452.831
677.222;  -37.054; -193.094; -273.831
677.491;   -8.452;  -24.094; -127.831
677.759;  -22.300;   11.907;  172.168
678.028;  -13.498; -279.093; -222.832
678.297;  -11.022;   71.907;  197.168
678.565; -149.320; -898.093; -944.833
678.834;  -64.168; -311.093; -268.833
679.102;  -72.816; -411.092; -391.834
679.371; -147.639; -898.092; -727.834
679.639; -126.487; -797.092; -786.834
679.908; -114.686; -794.092; -724.835
680.176; -154.634; -895.091; -941.835
680.445;  -78.132; -346.091; -352.835
680.713;   -2.180;  -58.091;  -23.836
680.982;  -98.353; -523.091; -525.836
681.250;  -99.201; -578.091; -507.837
681.518;  -97.175; -534.090; -751.837
681.787;  -25.823; -204.090; -167.837
682.055;  -75.346; -490.090; -422.838
682.323; -140.794; -993.090; -992.838
682.591;   14.958; -216.090; -538.838
682.859;   66.235;    9.911;  -35.839
683.128;   12.761;  232.911;  497.161
683.396; -159.312;-1102.089;-1122.840
683.664;  -46.160; -241.089;   21.160
683.932;    3.717;  144.911;  -76.840
684.200;  -84.081; -576.088; -320.841
684.468;  -20.504;  -73.088; -124.841
684.736;  -36.028; -214.088; -175.841
685.004; -117.076;-1024.088; -982.842
685.272;  -60.124; -880.088; -774.842
685.540;  -69.147; -499.087; -557.843
685.808;  -84.520; -651.087; -682.843
686.076; -107.268; -894.087; -969.843
686.343;  -57.592; -601.087; -815.844
686.611;   41.535; -195.087; -224.844
686.879;  465.487; -530.086; -553.844
687.147; 3173.964; -483.086; -480.845
687.414;  896.766;  -12.086; -169.845
687.682;    6.868; -658.086; -757.846
687.950;  299.370;  259.915;  263.154
688.217;    8.021; -792.085; -760.846
688.485;   -7.952; -632.085; -636.847
688.753;  504.175;  -11.085; -102.847
689.020;  141.577; -820.085; -851.847
689.288;  -93.921; -853.084; -787.848
689.555;  -27.269; -195.084; -148.848
689.823;  -40.393; -241.084; -345.849
690.090;  -98.441; -546.084; -651.849
690.358; -133.689; -877.084; -897.849
690.625;    4.538;  120.917;   45.150
690.892;  -74.835; -403.083; -369.850
691.160;  -15.433;   72.917;  -35.850
691.427;   15.093;  141.917;  130.149
691.694; -124.555; -855.083; -929.851
691.962; -141.528;-1177.082;-1060.852
692.229;   -2.451;  127.918;   56.148
692.496;   73.726;  130.918;  -49.852
692.763;    6.103; -164.082; -201.853
693.031;  -72.471; -739.082; -716.853
693.298;  -45.469; -509.081; -368.853
693.565;  328.608; -155.081; -163.854
693.832; 1204.360;   -5.081;   -9.854
694.099;  139.637; -643.081; -642.855
694.366;  -61.061; -882.081; -896.855
694.633;  -45.110; -920.080; -633.855
694.900;  755.317; 4367.920; -114.856
695.167;  408.819; -214.080; -380.856
695.434;   95.971; -646.080; -623.856
695.701;  199.973;  121.921;  -61.857
695.968;  456.450; -365.079; -361.857
696.234; 1045.977; -415.079; -646.858
696.501;10563.503; -776.079; -614.858
696.768; 5251.505; -554.079; -617.858
697.035;  315.132; -632.078; -667.859
697.302;   37.759; -448.078; -552.859
697.568;   -1.189; -458.078; -497.859
697.835;  -41.187; -683.078; -624.860
698.102;   -6.111; -498.078; -407.860
698.368;   80.541;  384.923;  396.139
698.635;  -38.282;  -47.077; -424.861
698.901;  -16.005; -240.077; -348.861
699.168;   50.247; -534.077; -456.862
699.435;   65.374;  -72.077;  -13.862
699.701; -122.275; -868.076; -764.862
699.968;  -23.273;  144.924; -441.863
700.234;  -92.221; -783.076; -822.863
700.500;  -63.544; -448.076; -539.864
700.767;   -9.567;   -1.075;   26.136
701.033; -128.140;-1015.075; -963.864
701.299;  -55.014; -450.075; -483.865
701.566;  112.288;  950.925;  763.135
701.832;   23.890;  -31.075;  -76.865
702.098;  -99.208;-1054.074;-1034.866
702.365;  -90.956;-1098.074;-1030.866
702.631;  -22.154;-1038.074;-1063.867
702.897; 1357.072; -765.074; -676.867
703.163; 2171.349;  348.926;  254.133
703.429;  160.376; -256.073; -273.868
703.695;  -33.822; -796.073; -792.868
703.961;   19.605; -214.073; -210.868
704.227;  -52.968; -630.073; -725.869
704.493;  127.433;  613.927;  510.131
704.759;  -29.290; -565.072; -540.870
705.025;   38.337; -203.072; -194.870
705.291;  -12.486; -666.072; -562.870
705.557;  212.316;  719.928;   34.129
705.823;   31.793; -742.072; -694.871
706.089;  153.195; -307.071; -326.871
706.355;  381.346; -315.071; -244.872
706.620; 5922.198; -776.071; -729.872
706.886; 7881.000; -309.071; -362.873
707.152;  720.327; -818.070; -973.873
707.418;  -17.321;-1153.070;-1186.873
707.683;   13.231; -550.070; -530.874
707.949;  -37.368; -547.070; -578.874
708.215;   -0.741; -129.070; -207.874
708.480;  -17.564; -520.069; -420.875
708.746;   88.538;   68.931;   28.125
709.011;  -65.460; -578.069; -612.876
709.277;  -90.258; -538.069; -543.876
709.542;  -38.157; -428.069; -387.876
709.808;  -21.130;  -59.068;   89.123
710.073;  -75.103; -577.068; -695.877
710.339;  -31.576; -242.068; -228.877
710.604;   75.751; -780.068; -845.878
710.869;  322.678; -277.068; -366.878
711.135;  -79.121; -715.067; -628.879
711.400;  -81.819; -507.067; -608.879
711.665;  -70.092; -404.067; -479.879
711.931; -103.640; -661.067; -677.880
712.196; -120.313; -876.067; -954.880
712.461;  111.739; -402.066; -490.880
712.726;  140.715; -727.066; -771.881
712.991; -103.933; -647.066; -664.881
713.256;  -39.156; -350.066; -332.882
713.521;  -54.179; -417.065; -381.882
713.787;  -60.277; -454.065; -472.882
714.052;  -16.225; -214.065; -400.883
714.317;  -98.173;-1045.065; -981.883
714.581; 1114.903; -374.065; -268.883
714.846; 1437.955; -822.064; -888.884
715.111;  127.007;  261.936;  257.116
715.376;   -4.216;  -86.064; -223.885
715.641;  -11.264; -365.064; -367.885
715.906;  287.938;   15.936; -551.885
716.171;  139.339;  221.937;  209.114
716.436;   40.116;  -78.063; -104.886
716.700; -114.557; -818.063; -692.886
716.965; -116.305; -794.063; -807.887
717.230;  -67.753; -339.063; -392.887
717.494;  -23.976;  -40.062; -134.888
717.759;  -90.500; -784.062; -640.888
718.024;   12.802;  269.938;  250.112
718.288;   65.304;  685.938;  395.111
718.553; -149.894; -803.062; -977.889
718.817; -147.542; -883.061; -899.889
719.082;  -25.040; -115.061; -125.890
719.346; -148.514;-1000.061; -947.890
719.611;  -55.687; -300.061; -255.891
719.875; -103.835; -568.060; -537.891
720.140;  -60.133; -453.060; -603.891
720.404;   33.069; -136.060; -249.892
720.668;  813.546; -475.060; -411.892
720.933;  302.672;  146.940;  137.108
721.197;  -99.301; -667.059; -600.893
721.461; -147.524; -851.059; -826.893
721.725;   -4.297;  -21.059; -250.894
721.990;  -42.345; -284.059; -204.894
722.254;  -30.893;  -26.059; -108.894
722.518;  -75.142; -286.058; -442.895
722.782;  -82.965; -743.058; -594.895
723.046;  115.037;  614.942;  570.105
723.310;   27.364;  374.942;  210.104
723.574; -100.284; -654.058; -614.896
723.838; -108.057; -576.057; -642.897
724.102;  -46.705; -226.057; -239.897
724.366; -137.854;-1032.057; -978.897
724.630; -107.177; -749.057; -571.898
724.894;  -71.400; -722.057; -514.898
725.158;   -3.648;   38.944; -295.898
725.422;  -51.946; -394.056; -327.899
725.685;  -61.319; -441.056; -349.899
725.949;  -74.768; -566.056; -519.900
726.213;  -79.666; -732.056; -811.900
726.477;  158.786;-1020.055; -933.900
726.740;  140.188; -274.055; -104.901
727.004;  348.290; -384.055; -510.901
727.268; 3454.017; -442.055; -400.901
727.531;  910.643; -961.055; -775.902
727.795;  -47.605; -713.054; -673.902
728.059;  -58.953; -552.054; -557.903
728.322;  -93.501; -841.054; -669.903
728.586;   26.001; -692.054; -701.903
728.849;  -93.472; -695.053; -756.904
729.112; -124.371; -812.053; -912.904
729.376; -122.419; -959.053; -905.904
729.639;  -68.817; -536.053; -536.905
729.903; -113.565; -733.053; -699.905
730.166;  -45.788; -437.052; -399.906
730.429;  -35.811; -317.052; -468.906
730.693;  -64.710; -355.052; -894.906
730.956;  216.267;  810.948;  651.093
731.219;  680.669; -310.052; -103.907
731.482;  112.896;-1003.051; -894.907
731.745;   86.323; -794.051; -935.908
732.009;   21.200;  -30.051;   50.092
732.272;  -89.099; -904.051; -771.909
732.535;  -49.472; -300.051; -310.909
732.798; -163.445;-1083.050;-1166.909
733.061;  -49.443; -430.050; -456.910
733.324;    2.109;   31.950; -180.910
733.587;   71.186;  290.950;  365.090
733.850;  -70.062; -973.049;-1050.911
734.113;   29.339;   33.951;   32.089
734.376;    4.516; -328.049; -447.912
734.639;  213.518; 1188.951; 1011.088
734.901;   73.345; -180.049; -402.912
735.164;  487.072; -883.048; -837.913
735.427; 1244.624; -166.048; -355.913
735.690;  122.200; -205.048; -234.913
735.952;  -29.998; -923.048; -925.914
736.215;  -22.496;-1113.048;-1009.914
736.478;   29.131; -771.047; -774.915
736.740;  208.008;   33.953;  129.085
737.003;  692.560; -658.047; -672.915
737.266; 3919.661;  -94.047;   46.084
737.528;  425.138; -682.047; -660.916
737.791;  308.440; -316.046; -327.916
738.053;  829.892;  465.954;  649.083
738.316;11283.319; -162.046; -136.917
738.578; 7569.646; -770.046; -736.918
738.841;  444.472; -382.046; -446.918
739.103;  174.424; -875.045; -777.918
739.365;  484.051;   79.955;  -69.919
739.628;   -7.622; -884.045; -805.919
739.890;  -34.945; -758.045; -710.919
740.152;  -44.318; -692.044; -754.920
740.414;  -22.192; -408.044; -359.920
740.677;  -43.740; -785.044; -634.921
740.939;  -41.213; -587.044; -487.921
741.201;  263.614; -432.044; -572.921
741.463;   17.841; -689.043; -745.922
741.725;   18.343;  -21.043; -199.922
741.987;   39.220;  220.957;  116.078
742.249;  -16.754; -751.043; -859.923
742.511;  207.948; -703.043; -794.923
742.773;    4.825; -546.042; -546.924
743.035;  128.777;  796.958;  533.076
743.297;  -30.796; -963.042;-1013.924
743.559;  742.781; -278.042; -262.925
743.821;   53.007; -735.042; -744.925
744.083;    3.834;  -44.041; -149.925
744.345;  -93.464; -869.041; -892.926
744.607;   23.388;   75.959;  122.074
744.868;  -44.210; -490.041; -554.927
745.130; -120.933; -994.041;-1008.927
745.392;   33.743;   -1.040;  -44.927
745.653;  -15.605; -411.040; -378.928
745.915;  169.272;  896.960;  631.072
746.177;   53.699;   35.960;  -43.928
746.438;   -6.899; -428.040; -543.929
746.700;  -60.472; -947.039; -988.929
746.961;   -8.846; -659.039; -740.930
747.223;  139.556; -190.039;  -74.930
747.484;   91.158; -391.039; -471.930
747.746;  145.585;  -23.038; -106.931
748.007;  120.862; -647.038; -689.931
748.269;  308.789; -468.038; -440.931
748.530;  454.415; -852.038; -638.932
748.791;  257.517; -354.038; -420.932
749.053;  434.669;  286.963;  163.067
749.314;  449.146; -236.037; -169.933
749.575;  494.398; -945.037; -905.933
749.836;  838.875; -217.037;   86.066
750.098; 2517.326;  -60.037;  -21.934
750.359;36648.578;  414.964;  555.066
750.620; 8884.030; -121.036; -220.935
750.881; 1017.832; -585.036; -513.935
751.142; 1372.234; -950.036; -938.936
751.403;17193.411; -789.036; -705.936
751.664; 7143.988;-1034.035; -999.936
751.925;  493.864; -175.035; -262.937
752.186;  267.091; -298.035; -278.937
752.447;  130.118; -590.035; -445.937
752.708;   55.545; -532.035; -648.938
752.969;    2.322; -566.034; -576.938
753.230;   -3.826; -777.034; -672.939
753.491;  -10.850; -650.034; -631.939
753.751;   50.502;  109.966;   19.061
754.012;   95.654;  258.967;  181.060
754.273;   57.531; -174.033;  -71.940
754.534;   -4.467; -487.033; -580.940
754.794;  -73.365; -926.033; -911.941
755.055;  152.211; 1051.967;  881.059
755.316;  -32.662; -700.032; -566.942
755.576;  -33.810; -606.032; -576.942
755.837;  -64.908; -527.032; -695.942
756.097;  -40.581; -530.032; -564.943
756.358;  -58.929; -725.032; -770.943
756.618;  -51.753; -705.031; -641.943
756.879;    4.424; -254.031; -349.944
757.139; -125.274;-1098.031;-1116.944
757.400;  -62.922; -538.031; -553.945
757.660;  -29.570; -365.031; -401.945
757.920;   10.907; -266.030; -228.945
758.181;  -24.917; -468.030; -351.946
758.441;  -94.390; -870.030; -809.946
758.701;  -38.363; -308.030; -215.946
758.961;  -30.711; -220.030; -278.947
759.222;  -51.084; -574.029; -502.947
759.482;  -73.232; -683.029; -723.948
759.742;  -86.956; -706.029; -547.948
760.002;   13.771;  -83.029; -143.948
760.262;   24.748;   50.972;  182.051
760.522;  -36.175; -498.028; -574.949
760.782;  -63.898; -738.028; -612.949
761.042;  -36.846; -618.028; -573.950
761.302;   50.881;   55.972;  -18.950
761.562;   55.482; -164.027; -154.951
761.822;   84.209; -710.027; -551.951
762.082;  -43.714;-1104.027;-1093.951
762.342;   69.038; -328.027; -403.952
762.601;   89.065; -567.027; -506.952
762.861;  358.942; -281.026; -207.952
763.121;  411.593; -406.026; -411.953
763.381; 7667.945; -499.026; -485.953
763.640; 7953.247; -139.026; -307.954
763.900;  349.799; -242.026; -203.954
764.160;   73.451; -458.025; -491.954
764.419;  -16.072; -726.025; -782.955
764.679;  -59.321; -795.025; -726.955
764.939;   -3.294; -124.025; -210.955
765.198;  -91.692; -608.025; -563.956
765.458;  -95.540; -710.024; -612.956
765.717;  -79.013; -454.024; -590.957
765.976;  -62.611; -428.024; -411.957
766.236;  -74.385; -475.024; -610.957
766.495;   24.342;  260.977;   73.042
766.755;  -87.906;-1090.023; -987.958
767.014;    1.121; -594.023; -665.958
767.273;  -54.877; -373.023; -397.959
767.533;  -61.425; -228.023; -307.959
767.792;  -26.549; -151.022; -188.960
768.051;  -59.022; -228.022; -276.960
768.310;  -89.145; -546.022; -650.960
768.569;  -12.018; -161.022;    4.039
768.828;  -25.041; -285.022; -363.961
769.088; -121.889;-1050.021; -942.961
769.347;  -85.037; -755.021; -599.962
769.606; -107.911; -876.021; -857.962
769.865; -122.584;-1016.021;-1033.963
770.124;    0.268; -411.021; -336.963
770.383;  -47.105; -778.020; -910.963
770.641;   -5.503; -398.020; -400.964
770.900;  -59.351; -953.020; -846.964
771.159;  -51.475; -851.020; -951.964
771.418;    0.052; -917.020; -779.965
771.677;  144.479; -224.019; -293.965
771.936;  153.381; -794.019; -865.966
772.194; 2418.758; -465.019; -437.966
772.453;11267.735; -213.019; -391.966
772.712;  768.311;  416.982;  329.033
772.970;  131.063;   32.982;   63.033
773.229;   80.140;  -22.018;  102.033
773.488;  -84.533; -814.018; -770.968
773.746;   55.119;  296.982;  335.032
774.005;    4.071;  190.983;  -22.969
774.263;   25.847;  243.983;  177.031
774.522;  -91.026; -422.017; -548.969
774.780;  -88.224; -484.017; -417.970
775.039;  -91.822; -551.017; -531.970
775.297;  -24.445; -135.016; -351.970
775.555;  -89.543; -489.016; -612.971
775.814; -129.117; -618.016; -570.971
776.072; -121.190; -749.016; -740.971
776.330; -108.238; -630.016; -520.972
776.589; -121.411; -703.015; -721.972
776.847; -116.384; -645.015; -624.973
777.105; -166.982;-1016.015;-1032.973
777.363;  -82.931; -459.015; -454.973
777.621; -142.329; -660.015; -717.974
777.879;   -9.302;  -42.014;   32.026
778.138; -105.175; -554.014; -717.974
778.396;  -97.273; -585.014; -526.975
778.654; -153.321;-1015.014; -970.975
778.912;  -75.394; -269.014; -371.976
779.170; -138.218; -880.013; -803.976
779.427; -151.641; -922.013; -897.976
779.685; -143.289; -880.013; -832.977
779.943;  -88.462; -654.013; -593.977
780.201; -167.460; -964.012; -883.978
780.459; -122.083; -651.012; -610.978
780.717;  -88.732; -440.012; -390.978
780.974; -104.555; -449.012; -490.979
781.232;  -65.278; -358.012; -338.979
781.490;  -83.226; -551.011; -472.979
781.747; -102.999; -555.011; -476.980
782.005;   25.128;  462.989;  254.020
782.263; -167.996; -542.011;-1004.981
782.520;  -84.369; -326.011; -501.981
782.778; -170.892;-1013.010;-1051.981
783.035; -166.140; -962.010; -938.982
783.293;  -56.788; -248.010; -206.982
783.550;  -59.136; -134.010; -198.982
783.808; -132.535; -764.010; -776.983
784.065; -163.208; -745.009; -874.983
784.322;  -47.806;   25.991;  -86.984
784.580; -150.479; -915.009; -771.984
784.837;  -91.377; -392.009; -466.984
785.094; -137.125; -783.009; -762.985
785.352;  -69.424; -304.008; -404.985
785.609; -100.947; -934.008; -839.985
785.866;  -84.095; -345.008; -401.986
786.123;  -84.243; -639.008; -583.986
786.380; -106.241; -665.008; -604.987
786.637;  -39.789; -225.007; -380.987
786.895;  -24.762; -456.007; -543.987
787.152;  -50.136; -135.007; -267.988
787.409;  -47.709; -123.007; -225.988
787.666;  -84.332; -299.006; -378.988
787.923; -109.980; -616.006; -695.989
788.179; -106.203; -551.006; -584.989
788.436;  -98.626; -585.006; -585.990
788.693;  -31.375;  -92.006;  -87.990
788.950;  141.427; -125.005; -112.990
789.207;  201.329; -381.005; -372.991
789.464;  -50.894; -161.005; -301.991
789.720;   -5.792;  150.995;  110.009
789.977; -157.865;-1003.005; -671.992
790.234;  -32.664;   44.996;  -66.992
790.490; -148.762; -884.004;-1031.993
790.747;  -22.435;  -85.004;   22.007
791.004;  -21.533; -426.004; -348.993
791.260;  -75.931; -430.004; -560.994
791.517; -102.504; -843.003; -788.994
791.773;  -54.478; -379.003; -342.994
792.030; -104.976; -596.003; -660.995
792.286; -107.299; -686.003; -636.995
792.543;  -12.697;  -74.002; -159.995
792.799;  -56.845; -584.002; -382.996
793.055; -158.043;-1179.002;-1210.996
793.312;  -99.467; -827.002; -816.997
793.568;  -54.815; -746.002; -599.997
793.824;   11.562; -226.001; -284.997
794.081;    6.189; -447.001; -508.998
794.337;   50.166; -664.001; -561.998
794.593; 1418.968; -319.001; -271.999
794.849; 6498.469; -746.001; -772.999
795.105;  321.771; -270.000; -261.999
795.361;    5.198; -490.000; -457.000
795.617;  -65.400; -875.000; -945.000
795.873;  -53.250; -360.000; -407.000
796.129;  -39.725; -368.000; -306.000
796.385;  -15.700; -124.000; -156.000
796.641;   69.175;  412.000;  550.000
796.897; -101.100; -666.000; -635.000
797.153;   68.175;  453.000;  357.000
797.409; -108.475; -785.000; -868.000
797.665;  -78.900; -625.000; -732.000
797.921;  -78.925; -775.000; -762.000
798.176;  -68.875; -744.000; -747.000
798.432;  -58.750; -824.000; -596.000
798.688;  -73.600;-1174.000;-1078.000
798.943;   68.650; -165.000; -147.000
799.199;   10.725;-1005.000; -959.000
799.455;  215.125;  369.000;  316.000
799.710;  133.750; -813.000; -380.000
799.966;  303.500; -162.000; -160.000
800.221;  521.950; -638.000; -721.000
800.477;11032.450; -743.000; -710.000
800.732; 9149.600; -773.000; -800.000
800.988;  648.150;  205.000;  -19.000
801.243; 2017.325; -454.000; -344.000
801.498; 8072.000; -814.000; -739.000
801.754;  435.625; -289.000; -163.000
802.009;   83.475; -257.000; -335.000
802.264;  -47.625; -967.000;-1033.000
802.520;    8.850;  222.000;   -3.000
802.775;  -44.525; -524.000; -359.000
803.030;   51.075;  395.000;  356.000
803.285; -102.050; -840.000; -903.000
803.540;  -64.025; -686.000; -699.000
803.795;  -51.600; -648.000; -583.000
804.051;  -51.225; -279.000; -346.000
804.306;   19.425;  168.000;  128.000
804.561;  135.600;  451.000;  362.000
804.816;  143.975;  714.000;  861.000
805.071;    1.250; -185.000; -280.000
805.325;  195.100; -257.000; -427.000
805.580; -112.100; -841.000; -877.000
805.835;  -18.125; -204.000; -297.000
806.090;  -80.925; -760.000; -676.000
806.345;  -17.700; -344.000; -264.000
806.600;  -29.225; -549.000; -632.000
806.854;  -29.975; -408.000; -538.000
807.109;  -13.325; -493.000; -577.000
807.364;    6.575; -407.000; -328.000
807.618;    5.425; -415.000; -381.000
807.873;   47.075; -470.000; -494.000
808.128;   89.750; -257.000; -518.000
808.382;  111.150; -224.000; -332.000
808.637;   64.275; -440.000; -511.000
808.891;  201.400; -257.000; -180.000
809.146;   98.725; -902.000; -794.000
809.400;  250.325; -848.000; -923.000
809.654;  326.500; -779.000; -551.000
809.909;  490.750; -841.000; -927.000
810.163; 6855.675; -813.000; -651.000
810.418;16541.250; -940.000; -861.000
810.672;  992.650; -685.000; -690.000
810.926;  729.950; -993.000; -973.000
811.180; 1459.500; -439.000; -372.000
811.434;33150.975;  240.000;  135.000
811.689;12358.250; -231.000; -365.000
811.943;  623.150; -936.000; -953.000
812.197;  316.775; -893.000; -671.000
812.451;  125.000; -379.000; -514.000
812.705;  -23.350; -809.000; -619.000
812.959;    1.000; -263.000; -388.000
813.213;   -4.225; -283.000; -209.000
813.467;   76.900;  470.000;  253.000
813.721; -110.450; -764.000; -792.000
813.975; -118.325; -826.000; -877.000
814.229;   53.725;  430.000;  353.000
814.482;  -68.500; -517.000; -566.000
814.736; -121.900; -766.000; -744.000
814.990; -134.600; -779.000; -872.000
815.244;  -47.725; -228.000; -285.000
815.497;  -92.925; -636.000; -601.000
815.751;  -26.675; -141.000;   82.000
816.005;  -96.950; -470.000; -586.000
816.258;  -67.825; -510.000; -363.000
816.512; -110.725; -693.000; -610.000
816.766;   -1.075;  121.000;  157.000
817.019;   22.575;  148.000;  149.000
817.273; -120.525;-1000.000; -802.000
817.526;  -21.200; -206.000; -173.000
817.779;  -44.025;-1049.000; -960.000
818.033;  -71.550; -693.000; -807.000
818.286; -136.925; -725.000; -792.000
818.540;  -99.975; -403.000; -403.000
818.793;  -82.050; -402.000; -489.000
819.046; -117.650; -582.000; -520.000
819.299;  -64.175; -157.000; -166.000
819.553; -108.950; -552.000; -592.000
819.806; -185.400;-1016.000; -838.000
820.059;  -72.900; -334.000; -354.000
820.312;   11.400;  152.000;  185.000
820.565;  -15.925;  110.000;  -27.000
820.818;  -62.850;  -59.000; -173.000
821.071; -173.825;-1041.000; -957.000
821.324; -111.400; -536.000; -540.000
821.577; -101.375; -457.000; -483.000
821.830;  -72.225; -270.000; -172.000
822.083; -125.950; -733.000; -288.000
822.336;  -55.850; -261.000; -167.000
822.589; -128.250; -805.000; -688.000
822.842; -155.275; -875.000; -770.000
823.094; -170.975;-1076.000;-1114.000
823.347; -138.225; -925.000; -729.000
823.600;   20.625;  402.000;  187.000
823.853;  -54.250; -311.000; -267.000
824.105;  -72.550; -331.000; -575.000
824.358; -115.025; -617.000; -716.000
824.611;   28.925;  234.000;   40.000
824.863;  -47.575; -612.000; -591.000
825.116;   41.900;  -33.000;   27.000
825.368;   62.325; -366.000; -372.000
825.621;  161.225; -186.000; -240.000
825.873;   80.475; -704.000; -737.000
826.126;  620.125; -669.000; -641.000
826.378;11883.075; -389.000; -505.000
826.630; 2670.275; -890.000; -898.000
826.883;   32.450; -754.000; -693.000
827.135;   33.225; -279.000; -270.000
827.387; -105.975; -893.000; -839.000
827.639;  -28.850;  -86.000;   32.000
827.892; -143.200; -742.000; -582.000
828.144; -141.325; -848.000; -804.000
828.396;  -28.750;  104.000;  -80.000
828.648; -101.925; -440.000; -333.000
828.900; -141.450; -702.000; -795.000
829.152; -123.700; -684.000; -683.000
829.404;  -67.450; -215.000; -267.000
829.656;    1.875;  321.000;  214.000
829.908;  -29.725;  393.000;  229.000
830.160; -166.425;-1064.000;-1047.000
830.412; -102.350; -481.000; -430.000
830.664; -118.075; -557.000; -665.000
830.916;  -83.075; -268.000; -206.000
831.167; -183.550;-1073.000; -951.000
831.419; -118.050; -623.000; -566.000
831.671; -142.900; -764.000; -809.000
831.923;  -81.925; -311.000; -447.000
832.174;  -88.450; -273.000; -331.000
832.426; -121.850; -493.000; -582.000
832.678; -191.200;-1043.000;-1091.000
832.929; -172.375; -947.000; -935.000
833.181;  -65.300; -575.000; -677.000
833.432;  -66.700;  -59.000; -186.000
833.684;  -18.800;  112.000;  -27.000
833.935; -114.925; -610.000; -566.000
834.187; -127.875; -829.000; -823.000
834.438;  -51.850;  -58.000;  -25.000
834.689;  -53.650; -255.000; -123.000
834.941;  -49.850; -343.000; -244.000
835.192;  -96.475; -590.000; -533.000
835.443; -105.100; -419.000; -506.000
835.695;   -9.125;  138.000;  -16.000
835.946;  -97.200; -608.000; -378.000
836.197; -113.150; -599.000; -622.000
836.448;  -86.075; -528.000; -395.000
836.699;  -68.250; -253.000; -341.000
836.950;  -17.550;   72.000;    7.000
837.201; -140.475;-1003.000; -987.000
837.452;  -60.900; -356.000; -170.000
837.703; -117.450; -791.000; -737.000
837.954;  -38.525; -205.000; -365.000
838.205;  -78.275;-1029.000;-1008.000
838.456;  167.900; -196.000; -282.000
838.707;    3.350; -423.000; -519.000
838.958;    5.075; -634.000; -647.000
839.209;  281.075;   18.000;   40.000
839.460;  111.900; -439.000; -201.000
839.710;  170.425; -135.000; -297.000
839.961;  422.125;  730.000;  612.000
840.212;  345.775; -382.000; -497.000
840.462; 1175.550; -328.000; -277.000
840.713;18563.375; -571.000; -536.000
840.964; 6897.075;  -62.000; -143.000
841.214;  476.825; -384.000; -624.000
841.465;  531.700; -214.000; -141.000
841.715;  505.000; -417.000; -380.000
841.966;  630.425; -746.000; -685.000
842.216; 9416.700; -330.000; -431.000
842.466;33328.775; -169.000; -313.000
842.717; 1673.050; -964.000; -952.000
842.967;  290.625; -635.000; -641.000
843.217;  266.200;   20.000;   28.000
843.468;   70.525; -104.000; -132.000
843.718;  -40.625; -718.000; -726.000
843.968; -108.975; -837.000; -765.000
844.218;   16.575; -315.000; -262.000
844.469;  -58.975; -577.000; -561.000
844.719; -107.875; -537.000; -682.000
844.969;  -99.525; -550.000; -580.000
845.219; -139.200; -814.000; -862.000
845.469;  -95.125; -392.000; -342.000
845.719; -158.275; -792.000; -884.000
845.969;  -22.850;  119.000;  174.000
846.219; -120.550; -738.000; -720.000
846.469;   26.425;  464.000;  432.000
846.718;  -51.525; -115.000;   31.000
846.968; -144.000; -827.000; -827.000
847.218;  -49.875; -224.000; -371.000
847.468;    0.975; -586.000; -555.000
847.718; -141.700; -827.000; -798.000
847.967; -141.300; -826.000; -915.000
848.217;  -94.275; -449.000; -569.000
848.467;  -81.850; -405.000; -376.000
848.716; -102.425; -708.000; -725.000
848.966;   -9.400; -372.000; -358.000
849.215;  -62.250; -428.000; -419.000
849.465; -107.850; -785.000; -615.000
849.714; -140.950;-1132.000;-1150.000
849.964;  -78.325; -551.000; -613.000
850.213;  -23.450; -393.000; -355.000
850.463;   79.225;  137.000;  340.000
850.712;   -5.475; -542.000; -567.000
850.961;   17.475; -739.000; -678.000
851.211;   93.150; -513.000; -504.000
851.460;  168.725; -635.000; -650.000
851.709;  587.325;  -25.000;   18.000
851.958;10864.525; -912.000; -750.000
852.208;12359.575; -859.000; -879.000
852.457;  445.675; -181.000;  -13.000
852.706;   66.150; -791.000; -823.000
852.955;   11.725; -507.000; -528.000
853.204;  -66.350; -521.000; -461.000
853.453;  -77.050; -418.000; -458.000
853.702; -131.050; -660.000; -750.000
853.951; -106.775; -532.000; -520.000
854.200; -124.475; -613.000; -562.000
854.449; -141.300; -695.000; -661.000
854.698; -108.800; -340.000; -279.000
854.946;  -80.950; -181.000; -284.000
855.195; -156.500; -843.000; -868.000
855.444; -103.400; -395.000; -420.000
855.693; -114.600; -345.000; -432.000
855.941; -105.100; -387.000; -516.000
856.190;  -52.800; -256.000; -382.000
856.439; -133.050; -652.000; -703.000
856.687;  -51.625;  -99.000;  -72.000
856.936; -106.125; -621.000; -323.000
857.184; -179.500;-1067.000;-1020.000
857.433; -108.950; -423.000; -512.000
857.681; -166.450; -989.000; -953.000
857.930;  -92.975; -282.000; -433.000
858.178; -163.275; -856.000; -929.000
858.427; -161.425; -802.000; -781.000
858.675; -121.925; -377.000; -544.000
858.923; -116.475; -527.000; -819.000
859.172; -194.775;-1094.000;-1070.000
859.420;  -95.950; -339.000; -239.000
859.668; -140.925; -624.000; -628.000
859.916;  -31.975;  109.000;  115.000
860.164; -110.825; -699.000; -603.000
860.413;  281.050; -878.000; -696.000
860.661;  187.900; -709.000; -577.000
860.909;  -90.575; -339.000; -325.000
861.157;  -90.900; -277.000; -444.000
861.405; -135.675; -534.000; -670.000
861.653;   10.200;  310.000;  310.000
861.901;  171.725; -543.000; -613.000
862.149;  -20.625; -801.000; -824.000
862.396;  -91.550; -297.000; -187.000
862.644;  -92.800; -368.000; -347.000
862.892;  -41.200;   98.000;  138.000
863.140; -113.125; -549.000; -530.000
863.388; -170.000; -815.000; -759.000
863.635; -141.875; -642.000; -601.000
863.883;  -18.550;  231.000;  190.000
864.131; -101.800; -288.000; -357.000
864.378; -142.025; -675.000; -540.000
864.626;  -95.700; -347.000; -415.000
864.873; -126.850; -556.000; -505.000
865.121; -156.950; -714.000; -799.000
865.368;  -39.975; -173.000;   75.000
865.616;  -23.125;  -33.000;  -40.000
865.863;  -84.550; -462.000; -506.000
866.111; -116.375; -795.000; -824.000
866.358;   42.775; -426.000; -420.000
866.605; 2520.100;  -64.000; -804.000
866.853; 2352.050; -621.000; -537.000
867.100;  -40.625; -728.000; -775.000
867.347; -116.300; -672.000; -611.000
867.594;  -86.500; -740.000; -714.000
867.841;   72.525;   97.000;   17.000
868.089; -151.225; -746.000; -698.000
868.336; -113.800; -477.000; -420.000
868.583; -136.375; -637.000; -741.000
868.830;  -66.025; -131.000; -170.000
869.077; -177.475; -859.000; -787.000
869.324; -138.800; -502.000; -458.000
869.571; -132.150; -398.000; -430.000
869.818; -139.625; -485.000; -439.000
870.065; -108.050; -439.000; -513.000
870.311; -114.175; -456.000; -542.000
870.558; -103.275; -332.000; -311.000
870.805;  -96.550; -320.000; -384.000
871.052;  -98.075; -494.000; -369.000
871.298;  -76.675; -204.000; -131.000
871.545;  -71.300; -151.000; -185.000
871.792;  -88.775; -173.000; -222.000
872.038;  -63.850;   43.000; -126.000
872.285; -131.000; -496.000; -387.000
872.532; -106.300; -357.000; -387.000
872.778;   -5.725;  556.000;  403.000
873.025;  -96.100; -384.000; -359.000
873.271;   10.575;  501.000;  578.000
873.517;  -21.825; -133.000; -209.000
873.764;  -26.975; -193.000;  -80.000
874.010;  -65.000; -143.000; -230.000
874.257;  -48.325;  123.000;   90.000
874.503; -144.025; -579.000; -479.000
874.749;  -77.400;   31.000;  275.000
874.995;  -73.025;  -80.000;  -20.000
875.242; -133.175; -540.000; -478.000
875.488; -117.600; -414.000; -439.000
875.734;  -64.850; -106.000; -234.000
875.980;  177.400; -872.000;-1032.000
876.226;  324.525; -157.000; -255.000
876.472;   -0.550;  343.000;  237.000
876.718;  -46.875;  184.000;  158.000
876.964;  -58.050;   56.000;   55.000
877.210; -167.325; -547.000; -677.000
877.456; -134.875; -630.000; -557.000
877.702; -177.375; -821.000; -832.000
877.948; -118.025; -377.000; -497.000
878.193;    4.050;  361.000;  255.000
878.439; -107.750; -487.000; -472.000
878.685; -112.900; -272.000; -343.000
878.931; -128.500; -618.000; -676.000
879.176;  -93.600; -201.000; -201.000
879.422; -179.775; -933.000; -820.000
879.668;   55.375;   10.000;   79.000
879.913;  140.250;   53.000;  137.000
880.159;  -69.725; -112.000;  -17.000
880.404;  -74.000; -152.000; -162.000
880.650;  -41.275;   91.000;  141.000
880.895; -158.450; -670.000; -710.000
881.141; -137.050; -454.000; -428.000
881.386; -145.775; -503.000; -658.000
881.631;  -91.950; -311.000; -166.000
881.877;  -52.150;  112.000;  -13.000
882.122; -135.000; -684.000; -600.000
882.367;  -93.175; -136.000; -186.000
882.612;  -87.000;  -80.000; -176.000
882.858; -171.350; -877.000; -823.000
883.103; -111.750; -297.000; -267.000
883.348; -157.800; -759.000; -852.000
883.593; -143.350; -677.000; -602.000
883.838;  -64.625; -311.000;  -24.000
884.083;   29.050;  353.000;  288.000
884.328;  -98.150; -564.000; -545.000
884.573;  -63.575; -196.000; -143.000
884.818;  196.525; -694.000; -531.000
885.063;  148.200; -348.000; -315.000
885.308;  -95.750; -475.000; -398.000
885.553;  -19.775;  245.000;  325.000
885.797; -133.725; -545.000; -615.000
886.042;  -58.500;    8.000;   58.000
886.287;  -95.675; -253.000; -211.000
886.532;  -55.825;   26.000;  204.000
886.776;  -93.250; -407.000; -525.000
887.021; -148.925; -621.000; -574.000
887.265; -162.050; -685.000; -689.000
887.510; -145.050; -557.000; -496.000
887.755;  -85.125; -194.000; -164.000
887.999; -143.425; -552.000; -575.000
888.244;  -52.300;  -58.000;  161.000
888.488;  -26.000;  371.000;  393.000
888.732; -119.200; -368.000; -520.000
888.977; -133.825; -622.000; -567.000
889.221; -155.375; -683.000; -659.000
889.465; -135.825; -422.000; -566.000
889.710;  -86.400;  -56.000; -299.000
889.954;  -14.075;  579.000;  467.000
890.198; -154.425; -584.000; -707.000
890.442; -157.625; -716.000; -712.000
890.687; -160.375; -800.000; -753.000
890.931;  -97.375; -273.000; -210.000
891.175; -144.675; -502.000; -500.000
891.419;  -80.525; -105.000; -110.000
891.663;  -88.250; -239.000; -112.000
891.907; -169.725; -801.000; -545.000
892.151; -186.100; -920.000; -815.000
892.395; -122.775; -274.000; -387.000
892.638;  -33.625;  408.000;  291.000
892.882; -191.125; -780.000; -867.000
893.126;   15.800;  758.000;  558.000
893.370;  -98.850; -167.000; -168.000
893.614; -150.400; -714.000; -715.000
893.857; -110.150; -183.000; -197.000
894.101; -139.125; -527.000; -631.000
894.345;  -81.550;  300.000;  150.000
894.588;   27.875;  569.000;  380.000
894.832;  -89.850; -178.000;  -84.000
895.075;  -81.125;   15.000;  -92.000
895.319; -147.275; -552.000; -420.000
895.563; -105.650; -413.000; -353.000
895.806; -156.500; -628.000; -741.000
896.049;  -86.800; -576.000; -368.000
896.293;   86.275;  527.000;  405.000
896.536;  -91.750; -465.000; -468.000
896.779;  -81.825; -149.000;   -1.000
897.023; -160.275; -751.000; -714.000
897.266;  -47.875;  325.000;  269.000
897.509; -189.875; -900.000; -901.000
897.752;  -55.550;  149.000;  171.000
897.996; -181.900; -972.000; -864.000
898.239;  -53.750;  168.000;  102.000
898.482; -126.875; -431.000; -453.000
898.725;  -41.950;  101.000;   53.000
898.968; -163.675; -609.000; -744.000
899.211; -120.975; -513.000; -361.000
899.454; -128.775; -633.000; -539.000
899.697;  -78.525;   90.000;  -43.000
899.940; -168.575; -761.000; -757.000
900.182; -116.550; -335.000; -405.000
900.425;  -99.475; -150.000; -298.000
900.668;  -28.525;  491.000;  350.000
900.911;  -96.850; -292.000; -345.000
901.154;  -62.900;  141.000;   -3.000
901.396; -137.825; -407.000; -412.000
901.639; -142.500; -430.000; -496.000
901.882; -181.900; -790.000; -809.000
902.124;  -92.750;  -29.000; -143.000
902.367; -128.300; -315.000; -361.000
902.609; -143.850; -476.000; -453.000
902.852;  -95.500; -108.000; -260.000
903.094; -140.650; -458.000; -337.000
903.337;  -56.175;  -26.000;   53.000
903.579; -134.200; -228.000; -441.000
903.821; -169.375; -597.000; -744.000
904.064;  -58.575;   85.000;  127.000
904.306;  -89.825; -126.000; -166.000
904.548; -115.125; -152.000; -366.000
904.790; -104.725; -195.000; -340.000
905.033; -142.525; -625.000; -577.000
905.275; -128.950; -513.000; -524.000
905.517;   26.750;  468.000;  256.000
905.759;  -68.700; -667.000; -761.000
906.001; -117.625; -322.000; -369.000
906.243;  -57.650; -162.000; -224.000
906.485;  113.850; -265.000; -207.000
906.727;   89.000; -499.000; -542.000
906.969;  -39.375;  -30.000; -135.000
907.211;  112.600; -316.000; -382.000
907.453;  253.000; -188.000; -237.000
907.695;    3.300; -158.000; -385.000
907.936;   28.925;  818.000;  706.000
908.178;  -55.100;   92.000; -135.000
908.420;  -82.825; -111.000; -162.000
908.662; -142.125; -633.000; -682.000
908.903;  -81.225; -208.000; -123.000
909.145;  -71.525; -240.000; -305.000
909.386;   -0.325;  315.000;  280.000
909.628;   38.925;  363.000;  397.000
909.870;    1.425;   29.000;  264.000
910.111; -100.600; -809.000; -949.000
910.353;    5.975; -123.000; -161.000
910.594;    2.675; -574.000; -606.000
910.835;   76.650; -265.000; -326.000
911.077;  137.675; -503.000; -604.000
911.318;  300.050; -505.000; -471.000
911.559;  465.850; -577.000; -880.000
911.801; 1374.775; -284.000; -280.000
912.042;10962.625;  -50.000; -159.000
912.283;26826.300;  404.000;  371.000
912.524; 3834.100; -396.000; -457.000
912.765;  464.175; -193.000;   79.000
913.006;  249.675; -307.000; -338.000
913.247;   39.950; -270.000; -290.000
913.488;  -11.650;  -43.000;   30.000
913.729;  -85.400; -373.000; -373.000
913.970;  -66.350;  -96.000; -292.000
914.211;  -89.750; -160.000; -198.000
914.452;  -58.950; -118.000;  -11.000
914.693;   10.425;  510.000;  592.000
914.934;   18.100;  510.000;  440.000
915.175;  -70.775;   53.000;  -95.000
915.415;  -84.125; -137.000;   27.000
915.656;  -82.725;  -28.000;  192.000
915.897;  -91.100; -252.000;  -82.000
916.137;  -75.525;   74.000;   -9.000
916.378; -132.850; -573.000; -517.000
916.619;  -94.500; -159.000;  -63.000
916.859;  -18.500;  303.000;  330.000
917.100;  133.325; 1655.000; 1070.000
917.340;   34.475;  930.000;  728.000
917.581;   44.425;  965.000;  789.000
917.821;  -41.675; -171.000;  143.000
918.061;    0.225; -199.000;  -72.000
918.302;  -43.425; -152.000; -211.000
918.542;  -44.025;  -22.000;    3.000
918.782;   31.525;  369.000;  377.000
919.023;  123.500;  360.000;  427.000
919.263; 1809.700; 8131.000;  202.000
919.503; 1080.225; -137.000;  -54.000
919.743;  586.700;  390.000;  266.000
919.983;  234.550; -134.000;  -26.000
920.223;   60.350;  135.000;   14.000
920.463;  156.200;  631.000;  554.000
920.703;  124.600;   84.000;   39.000
920.943;  173.350; -110.000;   90.000
921.183;  248.375; -414.000; -405.000
921.423;  517.425;  307.000;  546.000
921.663;  751.725; -174.000; -257.000
921.903; 1650.075;  237.000;  173.000
922.143; 9305.175;  372.000;  389.000
922.383;34726.500;  158.000;  115.000
922.622;10880.525; -120.000;  -15.000
922.862; 1193.950;  796.000;  785.000
923.102;  471.600;  -51.000;   33.000
923.341;  181.725;   59.000;   74.000
923.581;   89.950;  450.000;  360.000
923.821;   13.625;  301.000;  398.000
924.060;   19.600;  351.000;  193.000
924.300;  -49.800;  -16.000; -128.000
924.539;   -9.325;  584.000;  473.000
924.779;    2.425;  812.000;  597.000
925.018;  -44.200;  247.000;  353.000
925.257;   -6.525;  595.000;  666.000
925.497;  -35.525;  447.000;  412.000
925.736;  -83.025;  -35.000;  102.000
925.975;   -2.900;  687.000;  669.000
926.214;   23.675;  907.000;  850.000
926.454;   23.275;  706.000;  757.000
926.693;  -47.350;  419.000;  543.000
926.932;   33.275; 1021.000;  825.000
927.171;   58.425; 1107.000; 1044.000
927.410;   75.150; 1144.000;  967.000
927.649;   20.850;  924.000;  742.000
927.888;   -3.200;  590.000;  564.000
928.127;  -25.500;  680.000;  678.000
928.366;   30.950;  842.000;  826.000
928.605;   45.275;  831.000;  737.000
928.844;  226.300; 1451.000; 1393.000
929.083;  608.100;  770.000;  613.000
929.321;  309.025; 1335.000; 1359.000
929.560;   88.475; 1158.000; 1122.000
929.799;  -39.050;  574.000;  475.000
930.038;   89.700; 1025.000; 1394.000
930.276;  -41.900;  334.000;  397.000
930.515;    2.125;  827.000;  681.000
930.753;  -23.850;  614.000;  589.000
930.992;  -34.650;  664.000;  717.000
931.230;   -7.975;  847.000;  847.000
931.469;  168.525; 2162.000;  892.000
931.707;   60.050;  840.000;  751.000
931.946;   56.525; 1278.000; 1344.000
932.184;   67.950; 1437.000; 1175.000
932.423;   44.625; 1265.000;  963.000
932.661;   98.900; 1296.000; 1428.000
932.899;   14.050;  987.000;  821.000
933.137;   12.225;  754.000;  564.000
933.376;  144.775; 1664.000; 1335.000
933.614;  160.050; 1759.000; 1196.000
933.852;   53.150; 1357.000; 1171.000
934.090;  135.350; 1722.000; 1747.000
934.328;  106.275; 1252.000; 1457.000
934.566;   93.100; 1431.000; 1110.000
934.804;  137.800; 1263.000; 1309.000
935.042;  491.500; 1861.000; 1850.000
935.280; 1974.600; 2088.000; 2063.000
935.518; 1765.125; 2113.000; 2007.000
935.756;  353.950; 2481.000; 2316.000
935.994;  173.500; 1808.000; 1751.000
936.231;  332.675; 2890.000; 2950.000
936.469;  200.500; 2367.000; 2378.000
936.707;  166.650; 2220.000; 2167.000
936.945;  242.050; 2825.000; 2882.000
937.182;  204.375; 2679.000; 2741.000
937.420;  310.525; 3602.000; 3031.000
937.657;  417.050; 3365.000; 3478.000
937.895;  354.625; 3331.000; 3488.000
938.133;  315.225; 3540.000; 3528.000
938.370;  345.700; 3896.000; 4191.000
938.607;  395.800; 4488.000; 4205.000
938.845;  550.100; 5587.000; 5549.000
939.082;  481.050; 5387.000; 5177.000
939.320;  543.025; 5799.000; 5728.000
939.557;  648.600; 6549.000; 6491.000
939.794;  705.950; 7285.000; 7097.000
940.031;  907.525; 8421.000; 8368.000
940.269; 1135.175; 9552.000; 9107.000
940.506; 1139.775;10901.000;10507.000

