
Integration time [ms]: 100.000
Averaging Nr. [scans]: 40
Smoothing Nr. [pixels]: 0
Data measured with spectrometer [name]: 2101013U2
Wave   ;Sample   ;Dark     ;Reference
[nm]   ;[counts] ;[counts] ;[counts] 

394.013;   65.640; -450.257; -315.536
394.305;  224.163; -461.258; -419.536
394.596; 1066.660; -676.269; -527.514
394.887; 2628.702; -796.268; -654.518
395.178; 1020.907;  145.736;   11.476
395.470;   84.843; -210.263; -356.526
395.761;  210.791;  305.734;  394.479
396.052;  320.709; -545.284; -306.489
396.343;  329.929; -557.276; -454.503
396.634;  133.323; -200.279; -290.497
396.926;  138.374; -618.268; -565.517
397.217;  134.309;   11.725;  -17.504
397.508;   69.375; -366.273; -154.507
397.799;   66.098; -555.279; -571.497
398.090;    5.617; -973.280; -902.495
398.381;  142.809;   11.708;  -11.473
398.672;   -3.140; -585.292; -742.473
398.963;   67.154; -348.279; -373.498
399.254;  145.669;   54.709; -209.475
399.545;  -11.912;-1017.266; -883.520
399.836;   67.718; -407.277; -343.501
400.127;   62.935; -205.295; -209.468
400.418;   55.244; -423.274; -392.506
400.709;   82.629; -359.281; -333.493
401.000;   53.623; -268.291; -309.476
401.290;  104.997;  225.698;  115.545
401.581;   84.717; -166.286; -228.485
401.872;   42.607; -542.298; -486.462
402.163;   58.253; -313.296; -252.467
402.454;   94.870; -123.291; -163.475
402.744;   92.519; -844.297; -813.465
403.035;  498.625; -226.293;  -86.471
403.326;  631.438; -366.292; -384.474
403.617;  403.552;  204.701;  165.539
403.907;  253.590; -593.283; -679.490
404.198; 2349.026; -545.307; -599.446
404.489; 6147.995; -618.283; -588.491
404.779; 2121.800; -618.302; -660.456
405.070;  232.779;  -67.304; -174.451
405.360;  350.902; -259.293; -238.472
405.651;  367.587;  125.699;   98.542
405.942;  209.437;  209.714;  127.516
406.232;  312.227; -432.285; -413.487
406.523;  524.270;  641.706;  758.530
406.813;   97.090; -579.286; -644.484
407.104;  374.083;  261.708;  144.527
407.394;  211.053; -604.299; -591.462
407.685;  166.351;  336.715;  222.513
407.975;   61.869; -400.283; -382.490
408.265;  135.910; -134.289; -190.478
408.556;   69.117; -472.291; -459.475
408.846;  168.171;  474.706;  429.530
409.137;   98.343;   -1.288; -216.480
409.427;   71.002; -193.285; -271.487
409.717;   24.853; -776.273; -692.508
410.007;  149.245;    4.715; -170.486
410.298;   99.613; -360.295; -342.469
410.588;   77.724; -495.285; -510.486
410.878;   41.004; -792.287; -873.482
411.168;  146.260; -481.298; -478.463
411.459;  111.863; -295.283; -242.489
411.749;   72.041; -609.292; -507.474
412.039;   63.166; -755.289; -386.480
412.329;  221.511;   40.722;  132.501
412.619;  217.865;  -62.286; -148.485
412.909;  388.537;  639.711;  594.521
413.199;  358.668; -130.280; -251.495
413.490;  428.228;  521.710;  352.523
413.780;  141.197;-1013.279; -913.496
414.070;  336.680;  -46.276;  235.497
414.360;  384.032; -729.278; -666.498
414.650;  433.100; -726.288; -688.482
414.940;  539.646; -538.280; -441.496
415.230;  933.672;   50.712;   74.519
415.520; 6026.434;  155.730;   66.486
415.809;23611.204; -305.281; -125.493
416.099;18209.096; -388.277; -229.501
416.389; 5047.667;  435.726;  236.494
416.679; 2979.522;   91.738;   85.473
416.969;  542.709; -527.287; -503.483
417.259;  470.498;  341.721;  171.503
417.549;  678.253;  522.718;  318.508
417.838; 1630.901; -205.268; -147.518
418.128; 5332.983;  650.710;  492.522
418.418; 4453.809; -491.272; -579.509
418.708; 3038.542;    9.726;  -48.506
418.997;11297.288; -474.275; -480.505
419.287;11805.324; -733.273; -790.507
419.577;10981.213; -160.283; -123.489
419.866;36630.819; -588.277; -498.501
420.156;37838.030; -242.270;  -55.513
420.446; 6906.814; -112.263;  -26.526
420.735;  913.349; -376.271; -446.512
421.025;  875.832; 1830.722;  315.502
421.314;  736.747; -203.271; -226.512
421.604; 1605.569;   89.732;  233.484
421.893;  939.768; -705.271; -602.511
422.183;  249.565; -487.263; -461.526
422.472;  390.870;  -36.271; -107.511
422.762;  474.244; -416.266; -379.521
423.051;  254.956; -916.276; -916.503
423.341;  331.701; -491.273; -439.507
423.630;  438.675; -121.265;   15.477
423.919;  389.887;   58.725;   49.495
424.209;  369.945;  -31.263;   56.473
424.498;  507.423;   68.732;  161.483
424.787; 1077.555; -535.267; -601.518
425.077; 3376.774;   34.735;   29.478
425.366; 4868.801; -734.262; -744.528
425.655; 9759.527;  639.727;  259.493
425.945;20490.905; -313.247; -268.554
426.234;11483.574;  117.741;  300.467
426.523; 5017.979;  -86.259; -350.534
426.812; 6852.690;  107.734;  159.480
427.101;10018.190; -127.269; -323.515
427.390;12793.109;  -55.270;  -86.514
427.680; 3080.123; -624.257; -411.538
427.969;  510.809; -330.255; -301.540
428.258;  331.690; -385.257; -477.536
428.547;  577.214;  449.728;  397.490
428.836; 1377.425; -421.253; -398.543
429.125; 1992.456; -199.259;  -72.534
429.414;  856.773; -330.251; -294.548
429.703; 3095.598; -231.251; -213.548
429.992; 9190.352; -938.250; -828.549
430.281; 6058.407; -397.264; -331.524
430.570;  611.464;  -21.252;   32.454
430.859;  622.603;  279.741;  352.466
431.148;  472.801;  636.752;  631.446
431.437;  319.038;  391.748;  367.454
431.725;  153.092; -544.257; -481.536
432.014;  142.808; -845.253; -756.545
432.303;  396.652; -149.239; -105.569
432.592;  660.739; -460.263; -178.525
432.881; 1052.577; -601.248; -437.554
433.169; 5967.410; -343.255;  -61.540
433.458;12236.411;  445.765;  540.424
433.747; 5186.681; -397.261; -289.529
434.036;  941.703; -275.242; -280.564
434.324; 2062.914; -395.249; -379.551
434.613; 3587.021;   40.757;  159.437
434.902; 1243.817;  333.760;  439.433
435.190;  650.875;   75.761;  295.431
435.479;  372.628;  -52.245;   83.441
435.767;  125.561; -411.244; -427.561
436.056;  248.123; -340.242; -294.563
436.345;  376.494; -372.240; -223.568
436.633;  404.909;   60.750;  383.450
436.922;  280.546;  208.760;  414.432
437.210;  696.800; -194.236;    1.426
437.499; 2257.809; -583.235; -432.576
437.787; 2513.700; -339.236;  -10.574
438.075;  615.506;   56.761;  162.430
438.364;  848.759;  -44.238;  250.429
438.652;  496.138; -286.226; -138.592
438.941;  166.777;    3.770;  269.415
439.229;   18.936; -665.252; -466.545
439.517;   51.642; -160.234;  -85.577
439.806;    0.229; -501.225; -290.595
440.094;  208.725;  377.766;  650.421
440.382;  214.103; -653.233; -302.580
440.670;  244.158; -361.235; -285.576
440.959;   38.847; -347.223; -170.599
441.247;   83.539; -151.229; -109.587
441.535;  127.590; -266.235;   31.423
441.823;   46.422; -497.234; -305.578
442.111;  196.193;  173.771;  327.412
442.400;  613.877; -628.245; -335.559
442.688; 1628.749; -111.234; -620.579
442.976; 1207.234; -786.213; -450.617
443.264;  118.511; -324.224; -364.597
443.552;  113.690; -258.226;   51.408
443.840;  182.989;  602.765;  876.423
444.128;  108.178;  265.767;  269.420
444.416;    8.746; -694.228; -312.588
444.704;   43.151; -465.219;  -92.605
444.992;   85.592;   -0.226;  240.407
445.280;   80.828; -517.230;  -94.585
445.568;   62.113; -694.212; -396.618
445.856;  395.285; -174.221;  357.398
446.143;  862.148;  -54.220;   -7.604
446.431;  712.024;  -25.228;  625.411
446.719;  254.421;  489.783;  675.391
447.007;  194.647;  481.769;  705.416
447.295;  184.144;  597.777;  871.402
447.583;   99.787; -464.229;  -34.587
447.870;  178.357; -434.221; -202.601
448.158;  456.652; -104.230;  129.415
448.446;  360.099; -800.219; -338.604
448.733;  186.512;   13.776;  269.403
449.021;  284.638;   60.788;  341.382
449.309;  190.503; -296.210;  208.379
449.596;  230.467;  128.783;   59.392
449.884;  166.176; -571.222; -325.600
450.172;  146.430; -756.227; -406.590
450.459;  421.268;  645.786;  780.387
450.747; 2289.590; -411.218; -147.608
451.034; 7312.126;  493.772;  889.411
451.322; 6043.196; -413.214; -170.614
451.609;  533.789;  292.777;  508.403
451.897;  574.291; -550.203; -183.634
452.184; 1757.994; -622.223; -400.598
452.472; 1648.824;   97.792;  269.375
452.759;  360.524;  512.781;  864.395
453.047;  125.610; -407.212; -125.617
453.334;   97.082; -732.219; -216.606
453.621;   86.773; -438.214; -161.615
453.909;  135.033;   13.796;  384.368
454.196;  124.403; -299.199; -123.641
454.483;  216.404;  317.798;  540.364
454.771;  139.177; -215.208;  196.374
455.058;   55.455; -316.207;  102.374
455.345;  110.408;   71.807;  344.347
455.632;   90.009; -128.207;  235.373
455.919;   39.601;  -82.196;  182.354
456.207;  -54.067; -774.198; -450.642
456.494;  -14.359; -475.200;  -66.639
456.781;   20.299; -399.202; -198.635
457.068;   64.690; -253.206;  -29.628
457.355;   14.241; -698.206; -401.629
457.642;   -0.053; -552.205; -290.630
457.929;   16.899; -778.194; -417.651
458.216;   59.760; -575.212; -354.617
458.503;  237.679; -173.193;  -19.652
458.790;  225.250; -864.208; -630.625
459.077;  278.854;  -77.202;  110.364
459.364;  775.142; -350.195; -210.649
459.651; 1654.438;  -46.206;  220.372
459.938;  762.140; -864.209; -665.623
460.225;  160.832;  132.799;  276.363
460.512;  -48.402; -836.197; -688.645
460.799;  119.664;  -32.218;  320.392
461.086;   67.645; -370.200; -251.640
461.372;   56.733; -509.198; -279.642
461.659;  126.277; -165.196;  108.354
461.946;   68.828; -445.193;  -54.651
462.233;  237.518;  842.800;  888.361
462.519;  345.015; -814.201; -464.639
462.806;  971.923; -768.197; -497.645
463.093;  869.173; -445.191;  -66.656
463.380;  -16.685; -920.186; -824.664
463.666;   43.175; -259.197;  -18.646
463.953;   95.137; -406.195; -243.648
464.239;  194.337; -173.195;  -77.648
464.526;  404.198;  413.806;  743.350
464.813;  379.060; -565.190; -304.658
465.099;  386.504;  606.807;  607.348
465.386;  357.608;  903.807;  921.348
465.672;   50.623; -694.197; -522.645
465.959;   30.478; -598.188; -520.662
466.245;   16.083; -468.193; -359.652
466.532;  109.185; -109.195;   63.352
466.818;   95.364; -357.186; -216.664
467.104;   10.354; -488.182; -415.672
467.391;  -20.738; -628.189; -459.658
467.677;   33.568; -289.186;    9.335
467.964;   16.443; -682.189; -471.660
468.250;   82.546; -331.186; -160.665
468.536;   87.363;   90.811;  180.341
468.822;  -29.743; -821.184; -574.668
469.109;  149.185;  351.827;  471.311
469.395;  203.242;  729.808;  787.346
469.681;  195.641;   46.811;  156.341
469.967; 1198.346; -699.188; -382.660
470.254; 2645.379; -494.188; -306.662
470.540; 1683.025; -601.196; -476.646
470.826;  255.541; -488.181; -397.675
471.112;  300.861;  288.816;  113.331
471.398;   83.916; -253.183;  -58.670
471.684;   54.444; -626.177; -447.680
471.970;   11.819; -918.180; -981.675
472.256;   36.191; -521.192; -441.654
472.542;   15.396; -499.171; -434.691
472.828;   22.900; -743.182; -607.672
473.114;   40.740; -380.166; -283.700
473.400;   27.235; -504.175; -293.684
473.686;   41.946; -452.166; -400.701
473.972;   53.775; -230.174; -131.687
474.258;  -40.840; -925.173; -843.689
474.544;  198.036; -183.178;   -2.679
474.830;  305.862;  -65.175;   45.316
475.116;  456.411; -123.190; -196.658
475.401;  622.822; -558.180; -467.676
475.687;  200.321; -725.180; -718.676
475.973;    2.308; -673.181; -770.673
476.259;  262.814;  736.825;  764.315
476.544;  357.277; -539.176; -437.682
476.830;  782.342; -398.172; -322.690
477.116;  678.601; -430.177; -336.682
477.401;  148.571;  346.820;  358.324
477.687;  -10.739; -289.175; -405.684
477.973;   40.487;   21.819;   28.326
478.258;   -6.734; -448.163; -348.706
478.544;   51.726;   21.815;   61.334
478.829;  -53.673; -818.171; -738.692
479.115;  -35.458; -749.172; -651.690
479.401;   -8.329; -444.174; -449.686
479.686;   25.345; -253.180;  -74.676
479.972;  -33.834; -886.178; -776.680
480.257;   32.591; -258.166;  -65.700
480.542;   -2.269; -614.170; -469.693
480.828;  249.509; 1288.824; 1392.317
481.113;  -38.118; -464.176; -426.683
481.399;    2.990; -236.161; -202.711
481.684;  -51.184; -620.166; -462.700
481.969;   21.654; -158.159;  -73.713
482.255;   14.316; -439.169; -285.695
482.540;    5.291; -569.178; -441.680
482.825;   -5.140; -395.187; -404.663
483.110;  109.770;  -85.169; -105.696
483.396;  180.250; -840.157; -652.718
483.681;  483.850;  543.826;  730.313
483.966;  138.973; -696.160; -700.712
484.251;    7.049; -404.174; -310.687
484.536;    3.076; -356.165; -378.703
484.822;   13.377; -205.173; -218.687
485.107;  -43.812; -599.152; -502.726
485.392;  138.657;  662.836;  541.296
485.677;   73.304;  354.832;  163.302
485.962;  109.623;  160.843;  270.283
486.247;   95.824;  -14.162;   -8.707
486.532;   56.842; -178.166; -325.701
486.817;  155.460;  381.839;  431.291
487.102;  113.671; -453.154; -514.722
487.387;  635.427; -637.156; -652.718
487.672; 1084.587; -154.164;  -38.705
487.957;  705.642; -394.160; -286.711
488.241;  205.105; -290.150; -314.729
488.526;  707.890; -280.152; -148.726
488.811; 1154.018; -881.177; -818.680
489.096;  846.374; -666.154; -702.723
489.381;  470.811;    3.847;  162.275
489.666;  366.690; -428.161; -510.710
489.950;  174.927;  558.846;  627.277
490.235;  -27.325; -480.151; -458.728
490.520;  -36.211; -756.161; -723.710
490.804;  -51.046; -827.156; -736.719
491.089;   -3.079; -469.149; -299.732
491.374;   38.986; -132.164;  -75.704
491.658;   -5.168; -817.147; -717.735
491.943;  173.319; -657.152; -609.727
492.227;  291.067; -178.155;  -38.721
492.512;   54.047; -294.157; -341.717
492.797;  -63.435; -713.149; -716.731
493.081;  -49.090; -588.147; -598.735
493.366;  -32.284; -751.161; -635.711
493.650;  209.138;  831.859;  917.254
493.935;   23.757; -648.147; -447.734
494.219;  -48.600; -778.142; -687.743
494.503;  -46.890; -585.150; -487.730
494.788;   49.689;   46.842;   74.285
495.072;  111.556;  184.850;  434.271
495.356;  156.274; -463.148; -343.733
495.641;  474.792; -812.146; -736.736
495.925;  450.634; -976.156; -903.719
496.209;   60.345; -599.149; -451.732
496.494;  -36.274; -763.142; -544.744
496.778;   21.147; -364.154; -360.722
497.062;  -52.791; -819.156; -627.719
497.346;  -29.181; -869.160; -640.711
497.631;  137.253;  580.852;  560.266
497.915;   88.477;  -64.145;  175.261
498.199;   56.825; -341.157; -277.718
498.483;   44.063; -562.152; -508.725
498.767;  184.458;  301.850;  300.271
499.051;  182.518; -126.149; -100.732
499.335;   18.691; -693.149; -739.731
499.619;  -37.536; -381.129; -423.767
499.903;   28.616; -272.155;  -65.721
500.187;   25.104; -588.153; -316.724
500.471;   27.668; -796.152; -595.727
500.755;  124.589;   62.839;  -96.710
501.039;   32.691; -270.155; -357.721
501.323;  105.940;  -21.141;  264.254
501.607;   37.242; -447.163; -503.706
501.891;    8.177; -607.156; -512.718
502.174;  -27.262; -726.144; -585.741
502.458;   70.447;   89.849;  370.273
502.742;   34.514; -180.138; -191.751
503.026;   98.456; -412.147; -254.734
503.310;  161.703; -437.159; -375.713
503.593;  123.208; -464.147; -325.735
503.877;  123.854; -232.133; -156.760
504.161;  174.681;    2.847;  -50.724
504.444;  136.316; -841.158; -710.716
504.728;  426.410; -487.164; -522.704
505.012;  667.179; -257.150;  -76.729
505.295;  538.465; -417.161; -212.711
505.579;  510.758; -256.156; -496.719
505.862;  717.998; -555.145; -333.738
506.146;  697.230; -681.159; -758.714
506.429;  396.356;  568.841;  461.286
506.713;   62.002; -732.151; -667.728
506.996;  315.171;   90.846;  295.278
507.280;  313.330; -633.165; -474.703
507.563;  240.965; -469.155; -261.721
507.847;   84.654; -423.153; -112.724
508.130;  100.741; -665.161; -456.711
508.413;  107.187; -758.167; -577.700
508.697;  245.287; -151.167;   12.300
508.980;  143.656; -422.153; -312.724
509.263;  -10.164; -466.155; -450.720
509.547;   35.229; -124.150;   82.271
509.830;   65.368; -172.160;  140.289
510.113;   96.933;  128.844;  298.281
510.396;   44.037; -530.152; -300.725
510.680;  195.850; -818.145; -812.738
510.963;  737.475;  184.846;  180.277
511.246;  640.087; -493.150; -357.730
511.529;  280.755; -482.145;  -83.739
511.812;  350.176; -250.134;   10.241
512.095;  245.749; -740.151; -396.728
512.378;   59.637; -317.147; -245.736
512.661;   35.321; -703.137; -623.753
512.944;   29.978; -750.142; -637.744
513.227;   62.994; -170.137; -171.752
513.510;   21.488; -479.144; -671.741
513.793;   35.569; -485.140; -435.747
514.076;  156.085;  -43.127;  -39.771
514.359;  109.971; -294.149; -135.732
514.642;   70.455; -442.142; -567.744
514.925;  727.618;  581.860;  561.253
515.208;  936.247; -498.134; -443.758
515.491;  619.836; -276.133; -182.761
515.773;  352.067; -410.143; -337.742
516.056; 1945.428;  249.864;  409.246
516.339; 2695.032; -754.136; -652.755
516.622; 1986.810; -518.150; -488.730
516.904; 1419.724;  882.857;  975.257
517.187;  673.317; -730.138; -523.752
517.470;  421.148; -568.143; -510.743
517.752;  432.910; -624.136; -470.756
518.035;  319.580; -708.139; -725.749
518.318;  346.582; -799.136; -744.755
518.600; 2275.064; -300.132; -325.762
518.883; 3132.330;  310.858;   88.256
519.165; 1518.460; -585.138; -426.751
519.448;  419.164;  -61.132;  -19.762
519.730;  222.193; -573.126; -415.773
520.013;  339.957;  588.867;  664.240
520.295;  955.602;  -94.134;  -15.759
520.578; 2153.327; -335.131; -305.764
520.860; 2393.514; -254.132;   56.238
521.143; 1228.012; -763.135; -584.756
521.425;  488.181; -251.125; -279.775
521.707;  655.986; -622.127; -380.771
521.990; 1718.236; -199.127;  167.229
522.272; 1916.071; -116.140;   -4.748
522.554;  903.143; -237.143; -157.742
522.836;  415.075;  -24.134;   99.241
523.119;  234.730; -496.148; -189.734
523.401;  167.709; -448.130; -314.766
523.683;  103.647; -865.137; -693.753
523.965;  287.215;  408.862;  260.248
524.247;  252.527;   54.878;  170.220
524.529;  192.302; -451.134; -367.759
524.812;  353.361;   -3.130;  191.234
525.094;  818.915; -773.138; -631.751
525.376; 1298.890; -143.124;   78.223
525.658;  787.104; -441.136; -339.754
525.940;   19.999; -805.131; -671.764
526.222;   53.008; -188.136;  -88.755
526.504;  147.672; -190.131;   32.237
526.786;  229.055; -960.133; -647.760
527.068;  349.245; -124.123;  -67.778
527.349;  157.976; -865.137; -774.754
527.631;  123.214; -137.132;   22.238
527.913;  138.960; -664.127; -450.771
528.195;  152.674; -761.125; -639.774
528.477;  233.797;  -93.134;  -30.758
528.759;  133.036; -648.130; -522.766
529.040;   59.669; -569.123; -293.778
529.322;   67.251; -235.125;  -10.774
529.604;  159.563;  -47.130;   93.233
529.886;  137.717; -546.126; -302.773
530.167;  150.155;  232.870;  192.235
530.449;   43.236;    1.853;   63.265
530.731;   13.451; -572.122; -459.779
531.012;   62.897; -513.120; -216.784
531.294;   69.211; -118.116;  -43.792
531.575;  152.781;  290.875;  538.225
531.857;   56.867; -548.135; -266.757
532.138;   94.414; -113.141;   40.254
532.420;  185.288;  294.865;  403.244
532.701;  236.632; -722.133; -751.760
532.983;  392.710;  232.867;  182.239
533.264;  139.840; -243.126;  175.228
533.546;  -26.243; -491.136; -508.755
533.827;   57.704;  173.867;   -1.759
534.109;   66.017; -352.135;  -80.757
534.390;  107.718; -725.132; -582.762
534.671;  247.713; -270.135;  -82.756
534.953;  131.297; -751.123; -611.779
535.234;   31.196; -426.117; -255.789
535.515;  -71.995; -891.119; -735.785
535.796;  -15.994; -431.128; -193.770
536.078; -123.986;-1050.124; -904.777
536.359;   11.172;  -22.123;    3.221
536.640;   -4.250; -480.125; -197.774
536.921;  164.168;  225.871;  143.232
537.202;  359.912;  -87.138;  -16.751
537.483;  450.902;  251.869;  377.236
537.764;  164.180;   17.870;   98.235
538.045;  -36.029; -543.134; -371.758
538.326;  -24.830; -596.129; -447.768
538.607;   16.386; -686.127; -476.771
538.888;  173.613;   98.879;    5.218
539.169;  187.157; -704.122; -535.781
539.450;  328.367;  236.871;   16.233
539.731;  225.792; -361.121; -182.783
540.012;  133.022;  199.880;  412.216
540.293;   85.059;   82.876;  158.224
540.574;   16.906; -895.113; -717.796
540.855;  487.015;  435.879;  377.218
541.136;  521.580;   47.878;  139.220
541.416;  287.661; -161.130; -220.766
541.697;  200.122; -274.131; -170.763
541.978;  992.965; -270.135; -315.757
542.259; 1243.386; -211.127; -236.771
542.539;  616.380; -191.116; -186.790
542.820;  187.505;  461.875;  480.225
543.101;  130.027;  -52.145;  -77.738
543.381;   28.136; -638.127; -591.771
543.662;  272.284;  159.873; -254.771
543.942;  558.282; -751.127; -830.770
544.223; 1014.006;  193.878;  161.219
544.504;  633.939; -275.124; -182.777
544.784;  581.067; -592.126; -408.773
545.065; 1565.233;  104.884; -254.791
545.345; 1883.430;  227.881;   14.215
545.626; 1221.931;  -14.113; -108.796
545.906;  832.729;   77.869;   98.235
546.186;  346.622;   92.874;  -95.773
546.467;  193.217;   99.877;  -95.778
546.747;  323.504;  264.884;  327.210
547.027;  335.913;   91.876;  111.223
547.308;  315.206; -376.127; -530.770
547.588;  397.171;  299.871;  371.232
547.868;  198.580;  458.870;  588.235
548.149;  184.041;  609.885;  593.207
548.429;  114.809; -347.127; -299.771
548.709;  173.671; -645.120; -461.784
548.989;  447.540;   84.882;   88.213
549.269; 1996.288;   10.868;  139.239
549.550; 4539.896;  215.877;  117.222
549.830; 4111.074; -758.111; -556.799
550.110;  836.056; -468.110; -320.801
550.390;  815.651; -128.122;  -56.779
550.670; 1075.251; -868.114; -783.795
550.950;  758.065; -509.121; -471.782
551.230;  188.986;  549.879;  460.218
551.510;   -5.511; -381.121; -326.782
551.790;   27.764; -173.109; -127.803
552.070;  270.042;  940.877; 1181.223
552.350;  373.734; -492.119; -377.786
552.630;  557.959;   -2.121;   77.219
552.909;  281.159;  181.884;   73.209
553.189;  223.369;  -49.132;   33.237
553.469;  165.709; -703.119; -514.786
553.749;  183.363; -469.127; -357.772
554.029;  147.775;   33.883;  -24.790
554.308;  131.270; -154.115;  -37.794
554.588;   47.430; -196.128; -204.770
554.868;   69.891; -366.121;  -47.782
555.147;  145.092; -114.115;  -46.793
555.427;  569.811; -260.116; -250.792
555.707; 3692.115; -284.115; -200.793
555.986; 4435.852; -719.111; -538.800
556.266; 2331.428;   23.884;   72.210
556.546;  102.889; -888.121; -675.782
556.825;  240.824; -657.114; -556.794
557.105; 1700.678; -125.128;   17.230
557.384; 2000.933;  122.884;  187.209
557.664;  755.735; -717.116; -508.792
557.943;  111.815; -557.121; -411.782
558.222;  167.743; -345.118; -344.788
558.502;  279.743; -116.115;  -76.793
558.781;  467.189;  194.885;  499.208
559.061;  380.943; -232.118; -227.788
559.340;  289.022;  302.883;  353.211
559.619;  661.528;   93.884;  148.210
559.899;  962.174; -239.117; -266.789
560.178;  874.193; -778.115; -593.793
560.457; 3001.551; -623.117; -562.790
560.736; 4153.578; -472.111; -482.800
561.015; 2747.625; -500.128; -502.769
561.295;  377.509;  180.893;  215.193
561.574;  332.266;  119.885;  116.207
561.853;  485.293;  274.891;  303.197
562.132;  475.621;  -45.114;  182.206
562.411;  416.284;  396.879;  553.219
562.690;  131.364; -592.115; -458.792
562.969;  146.438;  472.888;  630.203
563.248;  469.582; 2966.878; 2487.219
563.527;  252.252; -290.111; -408.800
563.806;  360.759; -650.127; -521.771
564.085;  394.574; -297.105; -206.810
564.364;  230.702; -594.117; -405.790
564.643;  460.360; -276.121; -223.781
564.922; 1799.012;  221.890;  397.198
565.201; 1777.216; -640.109; -700.803
565.479;  771.837; -297.115; -219.792
565.758;  298.353; -810.128; -712.770
566.037;  444.717; -155.109; -100.803
566.316;  221.908; -286.116;  -28.791
566.595;   51.515;  -17.115;  -12.793
566.873;   85.154; -166.111;  -79.801
567.152;  -49.338; -490.113; -590.797
567.431;    3.729; -113.116;    6.210
567.709;   24.284; -344.107; -212.807
567.988;  237.574; -810.114; -769.794
568.266;  509.265; -160.115;  -68.793
568.545;  342.621; -644.100; -514.819
568.824;  552.862;  160.885;  356.208
569.102;  515.374; -351.114; -235.794
569.381;  211.636; -492.116; -407.792
569.659;  -50.766; -553.113; -553.796
569.938;   36.180; -743.122; -465.780
570.216;  117.669; -225.109; -225.804
570.494;  -16.048; -632.114; -572.795
570.773;   33.063;  202.879;  114.218
571.051;   -1.306; -373.123; -357.778
571.330;   43.581; -221.113; -174.796
571.608;   32.914; -181.098; -173.823
571.886;  -87.503; -671.111; -581.799
572.164;  -65.809; -739.121; -621.782
572.443;  -42.622; -562.105; -512.811
572.721;  -28.374; -399.117; -289.790
572.999;  -28.655; -280.117; -168.788
573.277;  101.246;  379.894;  620.191
573.555;  272.273;   94.894;   37.190
573.834; 1256.919;  -86.117; -114.788
574.112; 1491.211;  880.893;  811.193
574.390;  459.453; -143.111;  -96.801
574.668;   -8.887;  -91.112;  -61.797
574.946;   -6.177; -165.106; -187.810
575.224;    6.716;   71.891;  -16.803
575.502;   -9.119; -200.116; -204.791
575.780;  -85.861; -767.112; -829.798
576.058;  217.703; 1589.889; 1004.200
576.336;  -17.117; -210.110; -129.801
576.614;  -49.110; -511.112; -340.798
576.891;   37.245; -711.115; -823.794
577.169;  443.302; -158.108; -285.805
577.447;  534.461;  169.893;  202.193
577.725;  258.219;  629.888;  854.201
578.003;   11.592;  -71.112; -371.798
578.280;   85.061; -208.104; -242.812
578.558;   68.293; -450.115; -422.793
578.836;  127.427; -210.114; -145.795
579.114;   55.513; -630.112; -670.797
579.391;   91.246;   -6.117;  -18.789
579.669;  -89.680; -595.114; -704.794
579.947;  165.982; -326.107; -127.806
580.224;  288.257; -692.107; -524.806
580.502;  312.436;  127.893;   76.193
580.779;   17.702;  -42.117;   75.210
581.057;  -69.255; -584.109; -470.804
581.334; -110.424; -726.102; -695.815
581.612;   40.524;   54.895;  511.190
581.889;  -17.535;  -83.101; -129.818
582.167;  -33.771; -298.099; -190.821
582.444; -103.016; -845.102; -814.817
582.721;  102.910;  657.899;  715.183
582.999;   61.176; -326.100; -167.821
583.276;  460.124; -812.123; -713.779
583.553;  657.655; -364.102; -294.816
583.831;  209.833; -607.104; -631.812
584.108;   48.000;  349.892;  174.195
584.385;    7.126; -122.102;  -98.815
584.662;  -70.345; -651.111; -828.801
584.940;   23.179;  204.889;  204.199
585.217;  -18.242;  -73.113; -303.796
585.494;   34.613;   71.890;  118.198
585.771;  183.771; -250.109; -354.804
586.048;  480.583; -196.113;  -76.796
586.325;  286.982; -721.110; -773.801
586.602;   87.437;  230.896;  213.188
586.879;  -26.902; -499.100; -580.820
587.156;   34.075; -156.105; -331.810
587.433;  -55.568; -701.102; -667.817
587.710;   60.890;  152.888;  234.202
587.987;  279.905; -264.105; -236.811
588.264;  748.942;  315.888;  387.202
588.541; 1333.039;  -61.104;   26.187
588.818; 2572.548;   72.892;  171.196
589.095; 2207.010; -163.104; -174.812
589.371;  368.718; -459.109; -414.804
589.648;   11.086; -581.107; -437.807
589.925;   17.853; -517.114; -621.795
590.202;   -9.560; -741.112; -607.798
590.478;   97.857; -166.105;  -73.811
590.755;  238.654; -241.108; -132.806
591.032; 2356.384; -741.110; -699.802
591.308; 3187.729; -732.094; -790.831
591.585; 1661.134; -573.110; -560.802
591.862;  127.659;-1056.102; -950.817
592.138;   47.526; -475.108; -474.805
592.415;  134.838; -486.104; -495.813
592.691; 1374.110;  460.896;  518.188
592.968; 1785.916; -208.098; -123.824
593.244;  858.229; -695.116; -595.790
593.521;   66.409; -105.102;  -42.817
593.797;  -22.473; -810.122; -720.780
594.074;  322.403; -611.096; -588.826
594.350;  630.214;  828.905;  729.172
594.626;  284.880; -303.111; -283.801
594.903;   92.635; -643.101; -645.817
595.179;  179.316;  243.896;  418.187
595.455;    0.987; -136.107; -150.807
595.731;   -7.557;  -19.103;  -38.814
596.008;  -33.801; -464.111; -434.800
596.284;   20.700; -187.100; -242.820
596.560;   52.735; -501.093; -493.833
596.836;  175.402; -173.105;  -70.810
597.112;  315.677; -582.108; -437.805
597.388;  261.251;  -49.097;  -48.826
597.665;  113.461;  437.887;  530.203
597.941;  -66.411; -572.089; -658.839
598.217;   15.063; -323.110; -293.802
598.493;  240.122;   61.891; -204.804
598.769;  477.244; -175.100;  -50.819
599.045;  275.080; -490.108; -562.806
599.321;   60.874; -193.100; -261.820
599.597;  124.146; -355.109; -476.804
599.872;  460.614;  409.896;  429.187
600.148;  352.927;  -61.097; -172.826
600.424;  281.510;   91.893;  202.193
600.700;  222.137; -170.107; -280.807
600.976;  101.072; -442.097; -464.825
601.252;  233.493; -226.109; -272.803
601.527;  189.215; -833.104; -840.813
601.803;  134.032; -453.105; -404.812
602.079;  179.119; -124.100; -118.819
602.354;  526.320; -620.092; -531.835
602.630;  775.058; -140.113; -482.796
602.906; 2189.890; -910.101; -863.818
603.181; 6270.359; -627.119; -534.786
603.457; 5321.225;   98.903; -278.826
603.733;  786.267; -605.120; -626.783
604.008;  908.799; -245.106; -164.810
604.284; 2916.186; -636.101; -580.817
604.559; 2509.219;   -3.112;  -42.799
604.835;  464.777; -163.105; -225.810
605.110;  370.404; -732.099; -892.821
605.385;  655.913;  224.907;  267.167
605.661;  616.667; -625.095; -729.829
605.936; 1087.305; -664.108; -737.806
606.211;  944.650;  -17.103; -170.815
606.487;  192.047; -329.114; -376.794
606.762;    0.134; -791.119; -745.786
607.037;  -30.923; -501.105; -433.810
607.313;  -53.815; -589.096; -574.828
607.588;   -6.877; -375.106; -137.810
607.863;   15.614;  -28.101; -143.818
608.138;  179.786;  513.890;  516.198
608.413;   19.658; -576.099; -592.822
608.688;   46.852; -203.108; -267.805
608.964;  184.568; -509.106; -218.809
609.239;  246.349; -107.105; -212.810
609.514;  236.032;  281.895;  240.188
609.789;  625.437; -187.104; -716.812
610.064;  812.309; -435.096; -609.827
610.339;  823.993; -855.109; -799.804
610.614; 1104.624; -131.100; -315.820
610.889;  613.107;  215.895;  107.188
611.163;   33.558; -407.104; -591.812
611.438;   68.874;   81.886; -167.794
611.713;   -7.464; -467.101; -499.817
611.988;   49.088; -144.101; -328.818
612.263;  -39.299; -771.102; -717.815
612.538;  222.308;  385.887;  251.204
612.812;  144.626; -832.100; -911.820
613.087;  114.088; -358.098; -338.823
613.362;  -51.688; -497.107; -557.807
613.637;   56.821;  261.897;  138.186
613.911;  -24.879; -256.092; -345.835
614.186;  114.686; -249.107; -292.807
614.460;  617.989; -842.081; -758.854
614.735;  739.488;  -55.087;  -17.843
615.010;  144.053;   43.912;  -82.841
615.284;  244.801;  360.892;  246.195
615.559;  345.669; -792.092; -955.835
615.833;  286.631;  -76.099;  -87.822
616.108;   -1.994; -225.090; -390.837
616.382;  132.339;  274.913;  402.156
616.656;  149.432; -241.090; -232.837
616.931;  490.107; -785.099; -700.822
617.205; 1003.841; -973.104; -979.813
617.480;  910.978;  -91.125;    6.225
617.754;  148.326; -396.125; -128.774
618.028;    1.272; -369.129; -382.768
618.302;   59.600;   73.892;  -25.805
618.577;  -54.778; -371.103; -518.815
618.851;  -59.460; -399.109; -600.803
619.125;  -48.073; -335.134; -378.759
619.399;  -35.084; -244.104; -374.813
619.673;  -47.088; -330.115; -515.792
619.947;  -48.298; -333.114; -448.795
620.222;   -9.544; -198.110; -204.801
620.496;   -6.510;  -47.121;  -96.782
620.770;   14.257; -187.122;  -93.781
621.044;  185.400;  323.895;  346.190
621.318;  701.293; -653.120; -614.783
621.592;  620.741; -430.121; -409.783
621.866;  319.545; -476.112; -572.799
622.140;   26.956; -207.116; -356.791
622.413;   59.599;  138.889;  112.200
622.687;  -46.189; -746.101; -492.817
622.961;   23.225; -130.108; -143.805
623.235;  -68.550; -633.111; -661.800
623.509;  -79.668; -816.105; -848.811
623.783;   10.633;  -12.107;   48.193
624.056;  -12.806; -254.120; -280.783
624.330;   33.313;   63.888;   -3.797
624.604;   50.927; -271.116; -355.790
624.877;   57.910;  180.890;   26.198
625.151;   49.796; -249.114; -238.794
625.425;  -44.782; -150.103; -283.814
625.698;  -48.572; -367.119; -374.785
625.972; -101.587; -799.110; -765.802
626.245;   78.779;  685.884;  484.210
626.519;  -60.402; -426.120; -340.784
626.792;  -29.213; -192.107; -380.807
627.066;  -84.750; -485.122; -662.779
627.339; -103.366; -736.110; -663.802
627.613;   29.897;  351.880;  148.216
627.886;   56.490;  187.891; -612.803
628.160;  -18.807;  312.880; -161.783
628.433;  -88.819; -695.125; -703.775
628.706;  -83.802; -517.120; -615.784
628.979;   27.163;  296.876;  117.223
629.253;  -89.567; -785.119; -833.786
629.526;  338.141; -334.126; -253.772
629.799;  304.445; -641.123; -479.778
630.072;  152.048; -497.128; -516.769
630.346;  -75.146;-1115.116;-1080.790
630.619;  446.338; -467.107; -545.808
630.892;  575.926;  709.889;  593.200
631.165;  331.641;  790.896;  679.187
631.438;  -94.533;-1092.112;-1055.798
631.711;   54.623;  453.877;  257.221
631.984;  -52.125; -523.117; -624.789
632.257;  -74.904; -636.117; -681.789
632.530;  -51.696; -412.119; -433.785
632.803;   34.794; -109.115;    7.207
633.076;  -77.634; -360.123; -422.777
633.349;   12.727;  173.872;  121.231
633.622;  -52.247; -187.119; -240.785
633.895; -128.131; -903.120; -823.783
634.167;  -69.132; -496.126; -525.773
634.440;   -9.289;  -19.116; -137.792
634.713;   -7.368;  -22.119; -120.786
634.986;   73.717;  593.871;  453.233
635.258;  -95.983; -507.115; -597.793
635.531;  104.867;  742.882; -343.788
635.804;  -16.377; -303.117; -318.789
636.077;  -84.518; -830.116; -852.791
636.349;  -15.759; -586.115; -474.793
636.622;  396.940; 1695.874; 1392.228
636.894;  243.148; -474.120; -909.784
637.167;  120.559; -836.127; -789.771
637.439;    8.580; -278.128; -213.770
637.712;  -49.008; -312.126; -293.772
637.984;  -96.893; -635.116; -707.791
638.257;  382.792;  515.877;  488.222
638.529;  520.282; -881.125; -924.776
638.802;  226.173; -508.128; -449.769
639.074; -121.569; -927.122; -952.781
639.346; -119.581; -942.135; -930.757
639.619;   -6.771;  -79.142; -319.744
639.891;    1.950;  -83.122; -168.779
640.163;  -82.173; -689.122; -756.780
640.435;   42.354;  273.878;  103.220
640.708;   10.405;  -72.122; -132.780
640.980;  -35.293; -366.122; -362.781
641.252;  182.509;  -25.121;  -71.781
641.524; 1730.111;  580.879;  573.219
641.796; 1745.213;-1094.121; -907.782
642.068;  308.814; -191.121; -300.782
642.340;  -59.984; -486.121; -566.783
642.613;   39.743;  294.880;  323.217
642.885; -115.080; -787.120; -878.783
643.157;  -45.928; -810.120; -658.784
643.428;   46.574;  170.880;  218.216
643.700;  -67.400; -498.120; -425.784
643.972;  -31.973;  -16.119; -133.785
644.244;  -89.071; -474.119; -559.785
644.516;  -47.344; -250.119; -114.786
644.788;   67.633;  662.881;  548.214
645.060;  -18.640;  -12.119; -124.786
645.332; -100.764; -525.118; -535.787
645.603;   32.713;  479.882;  342.213
645.875;  -78.910; -334.118; -369.787
646.147;  175.342; 1487.882; 1242.212
646.418;  -77.081; -931.117; -918.788
646.690;  119.896; -714.117; -715.789
646.962;   35.797; -413.117; -451.789
647.233;  -22.951;   15.883;   11.211
647.505; -107.024; -595.117; -475.790
647.776;   17.553;  328.884;  229.210
648.048;  -13.170; -248.116; -418.790
648.320;  -88.144; -752.116; -679.791
648.591; -144.692;-1055.116; -958.791
648.862;  -82.090; -505.116; -577.792
649.134;   20.487;  115.885;  198.208
649.405;  -56.311; -661.115; -618.792
649.677;  -57.184; -475.115; -598.793
649.948;  -13.983; -181.115; -296.793
650.219;   -3.556;  -37.115; -147.793
650.491;  -74.229; -431.114; -520.794
650.762; -124.552; -705.114; -731.794
651.033;  -90.750; -437.114; -424.795
651.304;  -89.773; -743.114; -728.795
651.576;  -70.097; -680.114; -645.795
651.847;  -32.520; -250.113; -140.796
652.118;  -28.018;  -32.113; -189.796
652.389; -111.791; -639.113; -722.796
652.660;  -31.164; -147.113;  -89.797
652.931; -129.137; -897.112; -871.797
653.202;  -83.236; -382.112; -541.798
653.473;  -58.959; -633.112; -533.798
653.744;  158.093; -595.112; -590.798
654.015;  122.845; -356.112; -303.799
654.286;  -84.028; -642.111; -663.799
654.557;  -62.127; -586.111; -521.799
654.828; -164.825;-1114.111;-1088.800
655.099;  -80.298; -404.111; -291.800
655.370;  -92.171; -427.111; -543.801
655.641; -113.569; -656.110; -714.801
655.911; -111.417; -618.110; -638.801
656.182;   55.584;  437.890;  387.198
656.453;   90.811;  830.890;  746.198
656.724;  -67.687; -466.110; -426.802
656.994;  -79.135; -553.109; -568.803
657.265; -110.258; -862.109; -873.803
657.536;  -69.631; -500.109; -377.804
657.806; -108.780; -561.109; -593.804
658.077; -133.978; -866.109; -950.804
658.347;  -87.051; -523.108; -598.805
658.618; -101.224; -646.108; -694.805
658.888;  -25.772;  -41.108;  112.195
659.159;  -81.471; -432.108; -548.806
659.429;  -18.994; -292.108; -349.806
659.700;   -1.792; -435.107; -390.807
659.970;   -6.015; -370.107; -359.807
660.241;    7.612; -754.107; -921.807
660.511;  483.989; -147.107; -174.808
660.781;   86.215; -793.106; -748.808
661.052;  -49.458; -222.106; -381.808
661.322;  -30.306;   21.894;   -9.809
661.592;   23.571;  257.894;  148.191
661.862;  -73.277; -369.106; -382.810
662.133;  -86.925; -551.105; -502.810
662.403; -137.574; -770.105; -676.810
662.673;  -44.597; -256.105; -213.811
662.943; -102.320; -612.105; -551.811
663.213;    1.457;  -85.105;  -81.811
663.483;  -81.091; -593.104; -568.812
663.753;  -47.664; -194.104; -152.812
664.023;  -21.163;   68.896;  -32.813
664.293;  -60.486; -319.104; -126.813
664.563; -115.234; -694.104; -648.813
664.833; -127.557; -743.103; -608.814
665.103; -116.505; -730.103; -793.814
665.373; -111.429; -766.103; -806.814
665.643;  -82.552; -863.103; -918.815
665.913;   20.250; -534.103; -714.815
666.182;  116.227; -685.102; -719.816
666.452;  234.929;  -22.102;  -89.816
666.722;  -39.694; -724.102; -784.816
666.992; -133.418; -948.102; -921.817
667.261; -103.066; -824.102; -808.817
667.531;  210.011;  134.899;   45.183
667.801;  540.963; -440.101; -412.818
668.070;  244.790;  714.899;  697.182
668.340; -106.958; -883.101; -840.819
668.609;   88.843;  588.900;  301.181
668.879;  -88.155; -490.100; -558.819
669.149;  -78.803; -539.100; -516.820
669.418; -117.501; -698.100; -726.820
669.688;  -28.324; -482.100; -666.820
669.957;   61.778; -423.099; -546.821
670.226;  -33.221; -268.099; -331.821
670.496;  -90.069; -431.099; -635.822
670.765;  -76.267; -418.099; -501.822
671.034; -139.215; -872.099; -828.822
671.304;  -10.363;   55.902; -111.823
671.573; -160.137;-1085.098; -957.823
671.842;   79.590; -380.098; -294.823
672.112;    8.367; -692.098; -586.824
672.381;   -6.981; -239.098; -214.824
672.650; -130.029;-1005.097;-1021.825
672.919;  -93.802; -631.097; -507.825
673.188;  -99.626; -681.097; -878.825
673.457; -153.449;-1101.097;-1143.826
673.726;  -76.597; -579.096; -646.826
673.995;  -37.945; -533.096; -479.826
674.265;  -27.993; -263.096; -333.827
674.534;    0.384; -183.096; -235.827
674.802;   -2.815; -618.096; -703.828
675.071;  947.162; -886.095; -801.828
675.340; 3685.339; -464.095; -339.828
675.609; 1239.841;  103.905;   82.171
675.878;   54.718; -949.095; -893.829
676.147;   37.194;  -26.095;   -8.829
676.416;   67.146; -210.094; -294.830
676.685;  695.523; 1000.906; -622.830
676.953;   82.650; -603.094; -452.831
677.222;  -35.673; -193.094; -273.831
677.491;  -29.871;  -24.094; -127.831
677.759;  -11.970;   11.907;  172.168
678.028;  -30.418; -279.093; -222.832
678.297;   -7.166;   71.907;  197.168
678.565; -140.964; -898.093; -944.833
678.834;  -52.337; -311.093; -268.833
679.102;  -84.535; -411.092; -391.834
679.371; -135.634; -898.092; -727.834
679.639; -124.982; -797.092; -786.834
679.908; -117.730; -794.092; -724.835
680.176; -158.678; -895.091; -941.835
680.445;  -74.726; -346.091; -352.835
680.713;  -21.049;  -58.091;  -23.836
680.982;  -89.098; -523.091; -525.836
681.250; -105.171; -578.091; -507.837
681.518;  -94.494; -534.090; -751.837
681.787;  -37.817; -204.090; -167.837
682.055;  -67.240; -490.090; -422.838
682.323; -138.814; -993.090; -992.838
682.591;   23.263; -216.090; -538.838
682.859;   71.740;    9.911;  -35.839
683.128;   16.492;  232.911;  497.161
683.396; -172.856;-1102.089;-1122.840
683.664;  -30.304; -241.089;   21.160
683.932;   -5.803;  144.911;  -76.840
684.200;  -74.076; -576.088; -320.841
684.468;  -24.949;  -73.088; -124.841
684.736;  -36.497; -214.088; -175.841
685.004; -130.170;-1024.088; -982.842
685.272;  -55.043; -880.088; -774.842
685.540;  -63.642; -499.087; -557.843
685.808;  -92.615; -651.087; -682.843
686.076; -108.738; -894.087; -969.843
686.343;  -65.511; -601.087; -815.844
686.611;   18.891; -195.087; -224.844
686.879;  434.217; -530.086; -553.844
687.147; 3130.769; -483.086; -480.845
687.414;  898.946;  -12.086; -169.845
687.682;   -2.602; -658.086; -757.846
687.950;  291.275;  259.915;  263.154
688.217;    4.952; -792.085; -760.846
688.485;   -3.122; -632.085; -636.847
688.753;  490.005;  -11.085; -102.847
689.020;  149.107; -820.085; -851.847
689.288; -104.441; -853.084; -787.848
689.555;  -37.189; -195.084; -148.848
689.823;  -47.312; -241.084; -345.849
690.090;  -81.211; -546.084; -651.849
690.358; -156.859; -877.084; -897.849
690.625;    3.768;  120.917;   45.150
690.892;  -83.455; -403.083; -369.850
691.160;  -13.628;   72.917;  -35.850
691.427;   -5.651;  141.917;  130.149
691.694; -130.025; -855.083; -929.851
691.962; -144.948;-1177.082;-1060.852
692.229;   11.004;  127.918;   56.148
692.496;   61.606;  130.918;  -49.852
692.763;   10.633; -164.082; -201.853
693.031;  -74.366; -739.082; -716.853
693.298;  -38.664; -509.081; -368.853
693.565;  284.038; -155.081; -163.854
693.832; 1202.640;   -5.081;   -9.854
694.099;  127.117; -643.081; -642.855
694.366;  -59.881; -882.081; -896.855
694.633;  -64.805; -920.080; -633.855
694.900;  767.197; 4367.920; -114.856
695.167;  394.049; -214.080; -380.856
695.434;   92.551; -646.080; -623.856
695.701;  183.803;  121.921;  -61.857
695.968;  454.880; -365.079; -361.857
696.234; 1017.956; -415.079; -646.858
696.501;10457.683; -776.079; -614.858
696.768; 5283.185; -554.079; -617.858
697.035;  336.537; -632.078; -667.859
697.302;   22.114; -448.078; -552.859
697.568;    7.641; -458.078; -497.859
697.835;  -42.283; -683.078; -624.860
698.102;  -23.181; -498.078; -407.860
698.368;   60.371;  384.923;  396.139
698.635;  -42.402;  -47.077; -424.861
698.901;  -28.375; -240.077; -348.861
699.168;   65.351; -534.077; -456.862
699.435;   63.103;  -72.077;  -13.862
699.701; -100.620; -868.076; -764.862
699.968;   25.032;  144.924; -441.863
700.234;  -88.491; -783.076; -822.863
700.500;  -60.339; -448.076; -539.864
700.767;    6.512;   -1.075;   26.136
701.033; -130.661;-1015.075; -963.864
701.299;  -49.359; -450.075; -483.865
701.566;  108.568;  950.925;  763.135
701.832;   19.320;  -31.075;  -76.865
702.098; -109.978;-1054.074;-1034.866
702.365;  -83.227;-1098.074;-1030.866
702.631;  -47.475;-1038.074;-1063.867
702.897; 1348.127; -765.074; -676.867
703.163; 2189.854;  348.926;  254.133
703.429;  155.306; -256.073; -273.868
703.695;  -40.843; -796.073; -792.868
703.961;   31.159; -214.073; -210.868
704.227;  -52.239; -630.073; -725.869
704.493;  135.388;  613.927;  510.131
704.759;  -28.760; -565.072; -540.870
705.025;   28.442; -203.072; -194.870
705.291;  -11.157; -666.072; -562.870
705.557;  202.920;  719.928;   34.129
705.823;   26.172; -742.072; -694.871
706.089;  144.574; -307.071; -326.871
706.355;  388.076; -315.071; -244.872
706.620; 5812.603; -776.071; -729.872
706.886; 7888.829; -309.071; -362.873
707.152;  713.406; -818.070; -973.873
707.418;  -16.992;-1153.070;-1186.873
707.683;    6.160; -550.070; -530.874
707.949;  -56.963; -547.070; -578.874
708.215;    0.389; -129.070; -207.874
708.480;  -23.235; -520.069; -420.875
708.746;   99.992;   68.931;   28.125
709.011;  -82.306; -578.069; -612.876
709.277;  -73.529; -538.069; -543.876
709.542;  -52.202; -428.069; -387.876
709.808;   -1.251;  -59.068;   89.123
710.073;  -90.274; -577.068; -695.877
710.339;  -14.222; -242.068; -228.877
710.604;   57.455; -780.068; -845.878
710.869;  300.532; -277.068; -366.878
711.135;  -62.266; -715.067; -628.879
711.400;  -84.215; -507.067; -608.879
711.665;  -69.638; -404.067; -479.879
711.931; -104.561; -661.067; -677.880
712.196; -124.809; -876.067; -954.880
712.461;   93.443; -402.066; -490.880
712.726;  104.845; -727.066; -771.881
712.991;  -79.304; -647.066; -664.881
713.256;  -45.502; -350.066; -332.882
713.521;  -47.100; -417.065; -381.882
713.787;  -74.773; -454.065; -472.882
714.052;  -43.596; -214.065; -400.883
714.317; -106.944;-1045.065; -981.883
714.581; 1040.932; -374.065; -268.883
714.846; 1430.909; -822.064; -888.884
715.111;  142.686;  261.936;  257.116
715.376;  -27.137;  -86.064; -223.885
715.641;  -13.310; -365.064; -367.885
715.906;  281.116;   15.936; -551.885
716.171;  131.268;  221.937;  209.114
716.436;   25.920;  -78.063; -104.886
716.700; -106.353; -818.063; -692.886
716.965; -131.426; -794.063; -807.887
717.230;  -74.424; -339.063; -392.887
717.494;  -34.598;  -40.062; -134.888
717.759;  -85.196; -784.062; -640.888
718.024;   -4.619;  269.938;  250.112
718.288;   62.633;  685.938;  395.111
718.553; -146.565; -803.062; -977.889
718.817; -138.538; -883.061; -899.889
719.082;  -29.112; -115.061; -125.890
719.346; -144.435;-1000.061; -947.890
719.611;  -62.683; -300.061; -255.891
719.875;  -96.431; -568.060; -537.891
720.140;  -54.304; -453.060; -603.891
720.404;   46.422; -136.060; -249.892
720.668;  813.299; -475.060; -411.892
720.933;  321.201;  146.940;  137.108
721.197;  -95.972; -667.059; -600.893
721.461; -141.245; -851.059; -826.893
721.725;  -20.118;  -21.059; -250.894
721.990;  -57.267; -284.059; -204.894
722.254;  -37.265;  -26.059; -108.894
722.518;  -67.888; -286.058; -442.895
722.782;  -93.386; -743.058; -594.895
723.046;  118.541;  614.942;  570.105
723.310;   29.318;  374.942;  210.104
723.574;  -86.031; -654.058; -614.896
723.838; -105.979; -576.057; -642.897
724.102;  -35.077; -226.057; -239.897
724.366; -146.100;-1032.057; -978.897
724.630; -121.923; -749.057; -571.898
724.894;  -95.371; -722.057; -514.898
725.158;  -13.620;   38.944; -295.898
725.422;  -52.318; -394.056; -327.899
725.685;  -63.866; -441.056; -349.899
725.949;  -89.839; -566.056; -519.900
726.213;  -67.787; -732.056; -811.900
726.477;  150.114;-1020.055; -933.900
726.740;  142.966; -274.055; -104.901
727.004;  335.193; -384.055; -510.901
727.268; 3392.720; -442.055; -400.901
727.531;  900.972; -961.055; -775.902
727.795;  -29.576; -713.054; -673.902
728.059;  -72.025; -552.054; -557.903
728.322;  -72.498; -841.054; -669.903
728.586;    5.629; -692.054; -701.903
728.849;  -79.369; -695.053; -756.904
729.112; -120.842; -812.053; -912.904
729.376; -139.815; -959.053; -905.904
729.639;  -81.014; -536.053; -536.905
729.903; -112.512; -733.053; -699.905
730.166;  -59.610; -437.052; -399.906
730.429;  -25.658; -317.052; -468.906
730.693;  -72.181; -355.052; -894.906
730.956;  199.920;  810.948;  651.093
731.219;  688.772; -310.052; -103.907
731.482;  109.949;-1003.051; -894.907
731.745;   67.051; -794.051; -935.908
732.009;   25.378;  -30.051;   50.092
732.272; -101.745; -904.051; -771.909
732.535;  -33.644; -300.051; -310.909
732.798; -152.842;-1083.050;-1166.909
733.061;  -51.040; -430.050; -456.910
733.324;   17.337;   31.950; -180.910
733.587;   71.789;  290.950;  365.090
733.850;  -87.659; -973.049;-1050.911
734.113;   32.842;   33.951;   32.089
734.376;   -7.556; -328.049; -447.912
734.639;  215.221; 1188.951; 1011.088
734.901;   58.148; -180.049; -402.912
735.164;  484.375; -883.048; -837.913
735.427; 1251.202; -166.048; -355.913
735.690;  119.303; -205.048; -234.913
735.952;  -37.945; -923.048; -925.914
736.215;  -34.468;-1113.048;-1009.914
736.478;   25.834; -771.047; -774.915
736.740;  206.011;   33.953;  129.085
737.003;  661.737; -658.047; -672.915
737.266; 3895.364;  -94.047;   46.084
737.528;  410.241; -682.047; -660.916
737.791;  313.843; -316.046; -327.916
738.053;  818.670;  465.954;  649.083
738.316;11037.147; -162.046; -136.917
738.578; 7546.998; -770.046; -736.918
738.841;  430.450; -382.046; -446.918
739.103;  182.052; -875.045; -777.918
739.365;  491.379;   79.955;  -69.919
739.628;   -6.344; -884.045; -805.919
739.890;  -33.992; -758.045; -710.919
740.152;  -44.066; -692.044; -754.920
740.414;  -12.664; -408.044; -359.920
740.677;  -60.212; -785.044; -634.921
740.939;  -48.410; -587.044; -487.921
741.201;  260.917; -432.044; -572.921
741.463;   22.319; -689.043; -745.922
741.725;   -3.980;  -21.043; -199.922
741.987;   38.297;  220.957;  116.078
742.249;  -17.576; -751.043; -859.923
742.511;  212.376; -703.043; -794.923
742.773;   -2.097; -546.042; -546.924
743.035;  146.154;  796.958;  533.076
743.297;  -62.419; -963.042;-1013.924
743.559;  710.883; -278.042; -262.925
743.821;   68.260; -735.042; -744.925
744.083;   12.837;  -44.041; -149.925
744.345;  -99.586; -869.041; -892.926
744.607;   38.865;   75.959;  122.074
744.868;  -62.033; -490.041; -554.927
745.130; -108.531; -994.041;-1008.927
745.392;   33.671;   -1.040;  -44.927
745.653;   -3.902; -411.040; -378.928
745.915;  144.325;  896.960;  631.072
746.177;   64.626;   35.960;  -43.928
746.438;   -7.947; -428.040; -543.929
746.700;  -48.045; -947.039; -988.929
746.961;   -4.693; -659.039; -740.930
747.223;  142.684; -190.039;  -74.930
747.484;   67.110; -391.039; -471.930
747.746;  153.587;  -23.038; -106.931
748.007;  106.989; -647.038; -689.931
748.269;  299.166; -468.038; -440.931
748.530;  457.793; -852.038; -638.932
748.791;  256.495; -354.038; -420.932
749.053;  426.246;  286.963;  163.067
749.314;  468.748; -236.037; -169.933
749.575;  493.600; -945.037; -905.933
749.836;  837.827; -217.037;   86.066
750.098; 2425.229;  -60.037;  -21.934
750.359;36103.231;  414.964;  555.066
750.620; 8995.732; -121.036; -220.935
750.881; 1019.934; -585.036; -513.935
751.142; 1321.611; -950.036; -938.936
751.403;16873.663; -789.036; -705.936
751.664; 7250.165;-1034.035; -999.936
751.925;  504.092; -175.035; -262.937
752.186;  263.118; -298.035; -278.937
752.447;  132.370; -590.035; -445.937
752.708;   38.797; -532.035; -648.938
752.969;   16.074; -566.034; -576.938
753.230;   -3.024; -777.034; -672.939
753.491;    4.527; -650.034; -631.939
753.751;   56.929;  109.966;   19.061
754.012;   83.556;  258.967;  181.060
754.273;   51.183; -174.033;  -71.940
754.534;    0.860; -487.033; -580.940
754.794;  -90.788; -926.033; -911.941
755.055;  153.013; 1051.967;  881.059
755.316;  -60.410; -700.032; -566.942
755.576;  -33.158; -606.032; -576.942
755.837;  -52.481; -527.032; -695.942
756.097;  -39.404; -530.032; -564.943
756.358;  -76.702; -725.032; -770.943
756.618;  -40.926; -705.031; -641.943
756.879;  -12.874; -254.031; -349.944
757.139; -133.197;-1098.031;-1116.944
757.400;  -64.920; -538.031; -553.945
757.660;  -25.993; -365.031; -401.945
757.920;    2.759; -266.030; -228.945
758.181;  -20.765; -468.030; -351.946
758.441; -102.788; -870.030; -809.946
758.701;  -37.311; -308.030; -215.946
758.961;  -26.534; -220.030; -278.947
759.222;  -55.332; -574.029; -502.947
759.482;  -75.381; -683.029; -723.948
759.742;  -97.979; -706.029; -547.948
760.002;  -10.077;  -83.029; -143.948
760.262;   20.475;   50.972;  182.051
760.522;  -49.023; -498.028; -574.949
760.782;  -48.971; -738.028; -612.949
761.042;  -48.645; -618.028; -573.950
761.302;   33.532;   55.972;  -18.950
761.562;   42.584; -164.027; -154.951
761.822;   81.461; -710.027; -551.951
762.082;  -38.212;-1104.027;-1093.951
762.342;   73.615; -328.027; -403.952
762.601;   77.216; -567.027; -506.952
762.861;  360.418; -281.026; -207.952
763.121;  397.095; -406.026; -411.953
763.381; 7530.547; -499.026; -485.953
763.640; 8064.899; -139.026; -307.954
763.900;  350.975; -242.026; -203.954
764.160;   92.552; -458.025; -491.954
764.419;   -3.096; -726.025; -782.955
764.679;  -70.969; -795.025; -726.955
764.939;   -9.467; -124.025; -210.955
765.198;  -73.615; -608.025; -563.956
765.458;  -81.664; -710.024; -612.956
765.717;  -76.737; -454.024; -590.957
765.976;  -47.360; -428.024; -411.957
766.236;  -84.083; -475.024; -610.957
766.495;   28.444;  260.977;   73.042
766.755; -107.254;-1090.023; -987.958
767.014;    5.147; -594.023; -665.958
767.273;  -52.626; -373.023; -397.959
767.533;  -53.849; -228.023; -307.959
767.792;  -36.722; -151.022; -188.960
768.051;  -55.770; -228.022; -276.960
768.310;  -92.218; -546.022; -650.960
768.569;    3.483; -161.022;    4.039
768.828;  -36.190; -285.022; -363.961
769.088; -126.413;-1050.021; -942.961
769.347;  -83.136; -755.021; -599.962
769.606; -104.159; -876.021; -857.962
769.865; -109.508;-1016.021;-1033.963
770.124;    1.469; -411.021; -336.963
770.383;  -45.704; -778.020; -910.963
770.641;   -0.252; -398.020; -400.964
770.900;  -75.325; -953.020; -846.964
771.159;  -40.623; -851.020; -951.964
771.418;  -16.472; -917.020; -779.965
771.677;  134.430; -224.019; -293.965
771.936;  146.482; -794.019; -865.966
772.194; 2326.559; -465.019; -437.966
772.453;11142.011; -213.019; -391.966
772.712;  760.063;  416.982;  329.033
772.970;  115.539;   32.982;   63.033
773.229;   84.341;  -22.018;  102.033
773.488;  -95.557; -814.018; -770.968
773.746;   64.545;  296.982;  335.032
774.005;   14.247;  190.983;  -22.969
774.263;   11.998;  243.983;  177.031
774.522;  -38.700; -422.017; -548.969
774.780;  -76.448; -484.017; -417.970
775.039;  -83.996; -551.017; -531.970
775.297;  -32.069; -135.016; -351.970
775.555;  -91.817; -489.016; -612.971
775.814; -114.041; -618.016; -570.971
776.072; -124.164; -749.016; -740.971
776.330; -103.487; -630.016; -520.972
776.589; -125.610; -703.015; -721.972
776.847; -123.308; -645.015; -624.973
777.105; -181.381;-1016.015;-1032.973
777.363;  -86.330; -459.015; -454.973
777.621; -137.403; -660.015; -717.974
777.879;  -18.551;  -42.014;   32.026
778.138; -104.224; -554.014; -717.974
778.396; -102.347; -585.014; -526.975
778.654; -159.170;-1015.014; -970.975
778.912;  -53.644; -269.014; -371.976
779.170; -144.167; -880.013; -803.976
779.427; -166.615; -922.013; -897.976
779.685; -143.188; -880.013; -832.977
779.943;  -81.761; -654.013; -593.977
780.201; -170.285; -964.012; -883.978
780.459; -125.658; -651.012; -610.978
780.717;  -90.081; -440.012; -390.978
780.974;  -93.679; -449.012; -490.979
781.232;  -79.102; -358.012; -338.979
781.490;  -70.750; -551.011; -472.979
781.747; -114.524; -555.011; -476.980
782.005;   21.028;  462.989;  254.020
782.263; -159.745; -542.011;-1004.981
782.520;  -82.243; -326.011; -501.981
782.778; -163.816;-1013.010;-1051.981
783.035; -171.464; -962.010; -938.982
783.293;  -68.713; -248.010; -206.982
783.550;  -55.361; -134.010; -198.982
783.808; -133.459; -764.010; -776.983
784.065; -170.882; -745.009; -874.983
784.322;  -36.430;   25.991;  -86.984
784.580; -135.653; -915.009; -771.984
784.837; -102.677; -392.009; -466.984
785.094; -121.575; -783.009; -762.985
785.352;  -96.248; -304.008; -404.985
785.609; -115.771; -934.008; -839.985
785.866;  -90.819; -345.008; -401.986
786.123;  -66.143; -639.008; -583.986
786.380; -108.166; -665.008; -604.987
786.637;  -46.064; -225.007; -380.987
786.895;  -26.187; -456.007; -543.987
787.152;  -34.435; -135.007; -267.988
787.409;  -58.733; -123.007; -225.988
787.666;  -71.332; -299.006; -378.988
787.923; -119.380; -616.006; -695.989
788.179;  -99.078; -551.006; -584.989
788.436; -134.326; -585.006; -585.990
788.693;  -26.124;  -92.006;  -87.990
788.950;  118.703; -125.005; -112.990
789.207;  200.054; -381.005; -372.991
789.464;  -48.919; -161.005; -301.991
789.720;   -8.517;  150.995;  110.009
789.977; -168.490;-1003.005; -671.992
790.234;  -30.238;   44.996;  -66.992
790.490; -161.962; -884.004;-1031.993
790.747;  -24.385;  -85.004;   22.007
791.004;  -24.658; -426.004; -348.993
791.260;  -71.881; -430.004; -560.994
791.517; -119.704; -843.003; -788.994
791.773;  -36.527; -379.003; -342.994
792.030; -110.151; -596.003; -660.995
792.286;  -94.224; -686.003; -636.995
792.543;  -19.597;  -74.002; -159.995
792.799;  -46.295; -584.002; -382.996
793.055; -147.818;-1179.002;-1210.996
793.312; -101.466; -827.002; -816.997
793.568;  -64.640; -746.002; -599.997
793.824;   16.437; -226.001; -284.997
794.081;   17.014; -447.001; -508.998
794.337;   61.491; -664.001; -561.998
794.593; 1351.643; -319.001; -271.999
794.849; 6464.220; -746.001; -772.999
795.105;  321.921; -270.000; -261.999
795.361;   -5.627; -490.000; -457.000
795.617;  -71.625; -875.000; -945.000
795.873;  -63.075; -360.000; -407.000
796.129;  -29.225; -368.000; -306.000
796.385;  -20.050; -124.000; -156.000
796.641;   44.650;  412.000;  550.000
796.897;  -89.225; -666.000; -635.000
797.153;   63.600;  453.000;  357.000
797.409; -106.525; -785.000; -868.000
797.665;  -75.300; -625.000; -732.000
797.921;  -89.725; -775.000; -762.000
798.176;  -55.750; -744.000; -747.000
798.432;  -41.350; -824.000; -596.000
798.688;  -86.075;-1174.000;-1078.000
798.943;   95.825; -165.000; -147.000
799.199;   -6.425;-1005.000; -959.000
799.455;  224.800;  369.000;  316.000
799.710;  138.450; -813.000; -380.000
799.966;  303.425; -162.000; -160.000
800.221;  480.125; -638.000; -721.000
800.477;10747.050; -743.000; -710.000
800.732; 9279.550; -773.000; -800.000
800.988;  639.525;  205.000;  -19.000
801.243; 1920.275; -454.000; -344.000
801.498; 8137.200; -814.000; -739.000
801.754;  464.675; -289.000; -163.000
802.009;   83.025; -257.000; -335.000
802.264;  -46.750; -967.000;-1033.000
802.520;   10.800;  222.000;   -3.000
802.775;  -48.325; -524.000; -359.000
803.030;   44.375;  395.000;  356.000
803.285; -129.400; -840.000; -903.000
803.540;  -51.775; -686.000; -699.000
803.795;  -42.800; -648.000; -583.000
804.051;  -44.350; -279.000; -346.000
804.306;    6.425;  168.000;  128.000
804.561;  131.325;  451.000;  362.000
804.816;  129.300;  714.000;  861.000
805.071;   17.275; -185.000; -280.000
805.325;  194.000; -257.000; -427.000
805.580; -105.000; -841.000; -877.000
805.835;  -34.300; -204.000; -297.000
806.090;  -75.100; -760.000; -676.000
806.345;  -17.400; -344.000; -264.000
806.600;  -28.200; -549.000; -632.000
806.854;  -44.850; -408.000; -538.000
807.109;  -18.900; -493.000; -577.000
807.364;   -6.925; -407.000; -328.000
807.618;   -9.100; -415.000; -381.000
807.873;   55.525; -470.000; -494.000
808.128;   98.625; -257.000; -518.000
808.382;   97.075; -224.000; -332.000
808.637;   68.975; -440.000; -511.000
808.891;  173.575; -257.000; -180.000
809.146;   85.050; -902.000; -794.000
809.400;  241.000; -848.000; -923.000
809.654;  340.000; -779.000; -551.000
809.909;  472.875; -841.000; -927.000
810.163; 6630.425; -813.000; -651.000
810.418;16694.075; -940.000; -861.000
810.672; 1018.850; -685.000; -690.000
810.926;  722.750; -993.000; -973.000
811.180; 1425.650; -439.000; -372.000
811.434;32443.750;  240.000;  135.000
811.689;12744.100; -231.000; -365.000
811.943;  633.375; -936.000; -953.000
812.197;  340.300; -893.000; -671.000
812.451;  122.125; -379.000; -514.000
812.705;  -31.100; -809.000; -619.000
812.959;   -0.050; -263.000; -388.000
813.213;    5.650; -283.000; -209.000
813.467;   68.950;  470.000;  253.000
813.721;  -93.800; -764.000; -792.000
813.975; -112.500; -826.000; -877.000
814.229;   37.650;  430.000;  353.000
814.482;  -80.025; -517.000; -566.000
814.736; -123.325; -766.000; -744.000
814.990; -135.500; -779.000; -872.000
815.244;  -49.325; -228.000; -285.000
815.497; -107.050; -636.000; -601.000
815.751;  -25.875; -141.000;   82.000
816.005;  -81.250; -470.000; -586.000
816.258;  -62.325; -510.000; -363.000
816.512; -110.250; -693.000; -610.000
816.766;    2.125;  121.000;  157.000
817.019;   10.275;  148.000;  149.000
817.273; -114.800;-1000.000; -802.000
817.526;  -35.900; -206.000; -173.000
817.779;  -46.450;-1049.000; -960.000
818.033;  -82.550; -693.000; -807.000
818.286; -134.325; -725.000; -792.000
818.540; -101.775; -403.000; -403.000
818.793;  -80.275; -402.000; -489.000
819.046; -104.975; -582.000; -520.000
819.299;  -52.900; -157.000; -166.000
819.553; -117.525; -552.000; -592.000
819.806; -164.950;-1016.000; -838.000
820.059;  -70.850; -334.000; -354.000
820.312;    5.125;  152.000;  185.000
820.565;  -23.825;  110.000;  -27.000
820.818;  -36.750;  -59.000; -173.000
821.071; -181.200;-1041.000; -957.000
821.324; -113.675; -536.000; -540.000
821.577;  -97.800; -457.000; -483.000
821.830;  -69.075; -270.000; -172.000
822.083; -127.300; -733.000; -288.000
822.336;  -53.575; -261.000; -167.000
822.589; -136.475; -805.000; -688.000
822.842; -150.550; -875.000; -770.000
823.094; -182.250;-1076.000;-1114.000
823.347; -121.225; -925.000; -729.000
823.600;   -1.925;  402.000;  187.000
823.853;  -58.975; -311.000; -267.000
824.105;  -73.800; -331.000; -575.000
824.358; -108.725; -617.000; -716.000
824.611;   30.875;  234.000;   40.000
824.863;  -55.975; -612.000; -591.000
825.116;   43.025;  -33.000;   27.000
825.368;   87.375; -366.000; -372.000
825.621;  148.875; -186.000; -240.000
825.873;   85.350; -704.000; -737.000
826.126;  588.350; -669.000; -641.000
826.378;11680.750; -389.000; -505.000
826.630; 2755.950; -890.000; -898.000
826.883;   40.000; -754.000; -693.000
827.135;   26.225; -279.000; -270.000
827.387; -101.675; -893.000; -839.000
827.639;  -39.400;  -86.000;   32.000
827.892; -131.675; -742.000; -582.000
828.144; -151.375; -848.000; -804.000
828.396;  -35.550;  104.000;  -80.000
828.648; -104.450; -440.000; -333.000
828.900; -147.050; -702.000; -795.000
829.152; -119.500; -684.000; -683.000
829.404;  -69.275; -215.000; -267.000
829.656;  -57.200;  321.000;  214.000
829.908;  -22.900;  393.000;  229.000
830.160; -181.275;-1064.000;-1047.000
830.412; -103.925; -481.000; -430.000
830.664; -127.375; -557.000; -665.000
830.916;  -83.150; -268.000; -206.000
831.167; -190.725;-1073.000; -951.000
831.419; -106.575; -623.000; -566.000
831.671; -152.050; -764.000; -809.000
831.923;  -88.275; -311.000; -447.000
832.174;  -86.925; -273.000; -331.000
832.426; -110.650; -493.000; -582.000
832.678; -199.500;-1043.000;-1091.000
832.929; -165.125; -947.000; -935.000
833.181;  -67.425; -575.000; -677.000
833.432;  -47.050;  -59.000; -186.000
833.684;  -39.675;  112.000;  -27.000
833.935; -120.400; -610.000; -566.000
834.187; -137.250; -829.000; -823.000
834.438;  -54.875;  -58.000;  -25.000
834.689;  -61.575; -255.000; -123.000
834.941;  -52.075; -343.000; -244.000
835.192; -100.275; -590.000; -533.000
835.443; -102.200; -419.000; -506.000
835.695;  -30.775;  138.000;  -16.000
835.946;  -97.275; -608.000; -378.000
836.197; -108.900; -599.000; -622.000
836.448;  -92.625; -528.000; -395.000
836.699;  -66.425; -253.000; -341.000
836.950;  -11.750;   72.000;    7.000
837.201; -149.225;-1003.000; -987.000
837.452;  -44.600; -356.000; -170.000
837.703; -121.925; -791.000; -737.000
837.954;  -34.850; -205.000; -365.000
838.205;  -84.550;-1029.000;-1008.000
838.456;  144.200; -196.000; -282.000
838.707;    3.650; -423.000; -519.000
838.958;    9.500; -634.000; -647.000
839.209;  259.825;   18.000;   40.000
839.460;  123.525; -439.000; -201.000
839.710;  150.975; -135.000; -297.000
839.961;  410.700;  730.000;  612.000
840.212;  318.150; -382.000; -497.000
840.462; 1142.575; -328.000; -277.000
840.713;18084.275; -571.000; -536.000
840.964; 7099.525;  -62.000; -143.000
841.214;  480.825; -384.000; -624.000
841.465;  546.900; -214.000; -141.000
841.715;  487.075; -417.000; -380.000
841.966;  640.500; -746.000; -685.000
842.216; 8877.425; -330.000; -431.000
842.466;33330.450; -169.000; -313.000
842.717; 1750.075; -964.000; -952.000
842.967;  314.525; -635.000; -641.000
843.217;  246.550;   20.000;   28.000
843.468;   68.125; -104.000; -132.000
843.718;  -49.225; -718.000; -726.000
843.968;  -92.725; -837.000; -765.000
844.218;   18.275; -315.000; -262.000
844.469;  -48.350; -577.000; -561.000
844.719; -116.400; -537.000; -682.000
844.969;  -96.825; -550.000; -580.000
845.219; -145.650; -814.000; -862.000
845.469;  -77.325; -392.000; -342.000
845.719; -148.400; -792.000; -884.000
845.969;   -0.500;  119.000;  174.000
846.219; -134.050; -738.000; -720.000
846.469;   16.975;  464.000;  432.000
846.718;  -52.275; -115.000;   31.000
846.968; -131.875; -827.000; -827.000
847.218;  -61.875; -224.000; -371.000
847.468;    4.175; -586.000; -555.000
847.718; -160.150; -827.000; -798.000
847.967; -142.225; -826.000; -915.000
848.217;  -89.100; -449.000; -569.000
848.467;  -50.000; -405.000; -376.000
848.716; -118.275; -708.000; -725.000
848.966;   11.700; -372.000; -358.000
849.215;  -66.825; -428.000; -419.000
849.465;  -89.625; -785.000; -615.000
849.714; -142.825;-1132.000;-1150.000
849.964;  -74.325; -551.000; -613.000
850.213;  -27.450; -393.000; -355.000
850.463;   76.900;  137.000;  340.000
850.712;   -2.875; -542.000; -567.000
850.961;   10.475; -739.000; -678.000
851.211;   89.650; -513.000; -504.000
851.460;  168.100; -635.000; -650.000
851.709;  564.050;  -25.000;   18.000
851.958;10491.825; -912.000; -750.000
852.208;12595.400; -859.000; -879.000
852.457;  474.325; -181.000;  -13.000
852.706;   69.325; -791.000; -823.000
852.955;   26.550; -507.000; -528.000
853.204;  -66.550; -521.000; -461.000
853.453;  -81.550; -418.000; -458.000
853.702; -135.800; -660.000; -750.000
853.951; -109.550; -532.000; -520.000
854.200; -137.725; -613.000; -562.000
854.449; -143.600; -695.000; -661.000
854.698;  -83.700; -340.000; -279.000
854.946;  -66.950; -181.000; -284.000
855.195; -146.300; -843.000; -868.000
855.444;  -96.800; -395.000; -420.000
855.693; -139.000; -345.000; -432.000
855.941; -101.825; -387.000; -516.000
856.190;  -67.625; -256.000; -382.000
856.439; -132.825; -652.000; -703.000
856.687;  -58.125;  -99.000;  -72.000
856.936; -113.075; -621.000; -323.000
857.184; -199.150;-1067.000;-1020.000
857.433; -102.925; -423.000; -512.000
857.681; -172.975; -989.000; -953.000
857.930;  -72.725; -282.000; -433.000
858.178; -169.775; -856.000; -929.000
858.427; -158.250; -802.000; -781.000
858.675; -131.400; -377.000; -544.000
858.923; -114.025; -527.000; -819.000
859.172; -187.925;-1094.000;-1070.000
859.420;  -84.550; -339.000; -239.000
859.668; -137.950; -624.000; -628.000
859.916;  -17.250;  109.000;  115.000
860.164; -123.175; -699.000; -603.000
860.413;  267.975; -878.000; -696.000
860.661;  198.925; -709.000; -577.000
860.909;  -86.800; -339.000; -325.000
861.157;  -98.125; -277.000; -444.000
861.405; -137.125; -534.000; -670.000
861.653;    7.350;  310.000;  310.000
861.901;  166.725; -543.000; -613.000
862.149;  -21.575; -801.000; -824.000
862.396;  -73.800; -297.000; -187.000
862.644;  -90.850; -368.000; -347.000
862.892;  -38.450;   98.000;  138.000
863.140; -120.875; -549.000; -530.000
863.388; -155.675; -815.000; -759.000
863.635; -135.225; -642.000; -601.000
863.883;   -9.075;  231.000;  190.000
864.131; -104.200; -288.000; -357.000
864.378; -130.650; -675.000; -540.000
864.626; -103.600; -347.000; -415.000
864.873; -117.200; -556.000; -505.000
865.121; -150.250; -714.000; -799.000
865.368;  -49.075; -173.000;   75.000
865.616;  -42.200;  -33.000;  -40.000
865.863;  -66.525; -462.000; -506.000
866.111; -111.250; -795.000; -824.000
866.358;   42.825; -426.000; -420.000
866.605; 2433.125;  -64.000; -804.000
866.853; 2404.450; -621.000; -537.000
867.100;  -37.475; -728.000; -775.000
867.347; -110.950; -672.000; -611.000
867.594;  -90.075; -740.000; -714.000
867.841;   79.400;   97.000;   17.000
868.089; -156.500; -746.000; -698.000
868.336; -108.725; -477.000; -420.000
868.583; -141.000; -637.000; -741.000
868.830;  -49.075; -131.000; -170.000
869.077; -168.650; -859.000; -787.000
869.324; -144.450; -502.000; -458.000
869.571; -133.800; -398.000; -430.000
869.818; -125.975; -485.000; -439.000
870.065; -108.600; -439.000; -513.000
870.311; -112.950; -456.000; -542.000
870.558; -102.325; -332.000; -311.000
870.805;  -77.675; -320.000; -384.000
871.052; -109.275; -494.000; -369.000
871.298;  -56.125; -204.000; -131.000
871.545;  -76.750; -151.000; -185.000
871.792;  -90.625; -173.000; -222.000
872.038;  -67.425;   43.000; -126.000
872.285; -121.000; -496.000; -387.000
872.532; -102.725; -357.000; -387.000
872.778;   -7.675;  556.000;  403.000
873.025; -100.400; -384.000; -359.000
873.271;   20.375;  501.000;  578.000
873.517;  -32.275; -133.000; -209.000
873.764;  -38.900; -193.000;  -80.000
874.010;  -81.475; -143.000; -230.000
874.257;  -39.925;  123.000;   90.000
874.503; -132.400; -579.000; -479.000
874.749;  -64.400;   31.000;  275.000
874.995;  -73.100;  -80.000;  -20.000
875.242; -128.375; -540.000; -478.000
875.488; -116.175; -414.000; -439.000
875.734;  -56.650; -106.000; -234.000
875.980;  164.025; -872.000;-1032.000
876.226;  328.175; -157.000; -255.000
876.472;  -14.150;  343.000;  237.000
876.718;  -52.300;  184.000;  158.000
876.964;  -54.400;   56.000;   55.000
877.210; -148.000; -547.000; -677.000
877.456; -141.575; -630.000; -557.000
877.702; -174.750; -821.000; -832.000
877.948; -108.725; -377.000; -497.000
878.193;    6.600;  361.000;  255.000
878.439; -103.725; -487.000; -472.000
878.685;  -90.750; -272.000; -343.000
878.931; -138.125; -618.000; -676.000
879.176;  -87.000; -201.000; -201.000
879.422; -183.925; -933.000; -820.000
879.668;   52.550;   10.000;   79.000
879.913;  129.575;   53.000;  137.000
880.159;  -61.125; -112.000;  -17.000
880.404;  -71.300; -152.000; -162.000
880.650;  -47.675;   91.000;  141.000
880.895; -169.300; -670.000; -710.000
881.141; -128.500; -454.000; -428.000
881.386; -156.225; -503.000; -658.000
881.631;  -99.600; -311.000; -166.000
881.877;  -47.725;  112.000;  -13.000
882.122; -142.825; -684.000; -600.000
882.367;  -85.750; -136.000; -186.000
882.612;  -73.950;  -80.000; -176.000
882.858; -177.000; -877.000; -823.000
883.103;  -95.850; -297.000; -267.000
883.348; -157.950; -759.000; -852.000
883.593; -144.425; -677.000; -602.000
883.838;  -65.950; -311.000;  -24.000
884.083;   17.325;  353.000;  288.000
884.328; -108.150; -564.000; -545.000
884.573;  -55.625; -196.000; -143.000
884.818;  167.000; -694.000; -531.000
885.063;  178.125; -348.000; -315.000
885.308; -117.550; -475.000; -398.000
885.553;   -9.250;  245.000;  325.000
885.797; -134.075; -545.000; -615.000
886.042;  -57.350;    8.000;   58.000
886.287;  -92.050; -253.000; -211.000
886.532;  -67.500;   26.000;  204.000
886.776; -110.275; -407.000; -525.000
887.021; -132.050; -621.000; -574.000
887.265; -165.150; -685.000; -689.000
887.510; -124.200; -557.000; -496.000
887.755;  -87.975; -194.000; -164.000
887.999; -137.475; -552.000; -575.000
888.244;  -62.300;  -58.000;  161.000
888.488;   -1.250;  371.000;  393.000
888.732; -130.225; -368.000; -520.000
888.977; -136.425; -622.000; -567.000
889.221; -172.375; -683.000; -659.000
889.465; -132.425; -422.000; -566.000
889.710;  -87.000;  -56.000; -299.000
889.954;   -1.075;  579.000;  467.000
890.198; -156.050; -584.000; -707.000
890.442; -157.525; -716.000; -712.000
890.687; -170.200; -800.000; -753.000
890.931;  -95.700; -273.000; -210.000
891.175; -144.475; -502.000; -500.000
891.419;  -88.550; -105.000; -110.000
891.663; -106.825; -239.000; -112.000
891.907; -160.875; -801.000; -545.000
892.151; -182.350; -920.000; -815.000
892.395; -114.000; -274.000; -387.000
892.638;  -28.375;  408.000;  291.000
892.882; -192.075; -780.000; -867.000
893.126;   10.250;  758.000;  558.000
893.370;  -83.175; -167.000; -168.000
893.614; -154.125; -714.000; -715.000
893.857; -108.175; -183.000; -197.000
894.101; -155.525; -527.000; -631.000
894.345;  -46.975;  300.000;  150.000
894.588;    9.350;  569.000;  380.000
894.832;  -80.950; -178.000;  -84.000
895.075;  -93.450;   15.000;  -92.000
895.319; -141.300; -552.000; -420.000
895.563; -128.950; -413.000; -353.000
895.806; -149.725; -628.000; -741.000
896.049;  -71.550; -576.000; -368.000
896.293;   83.850;  527.000;  405.000
896.536;  -85.975; -465.000; -468.000
896.779;  -60.950; -149.000;   -1.000
897.023; -149.650; -751.000; -714.000
897.266;  -41.800;  325.000;  269.000
897.509; -179.275; -900.000; -901.000
897.752;  -58.975;  149.000;  171.000
897.996; -203.325; -972.000; -864.000
898.239;  -45.675;  168.000;  102.000
898.482; -131.375; -431.000; -453.000
898.725;  -40.100;  101.000;   53.000
898.968; -160.475; -609.000; -744.000
899.211; -105.675; -513.000; -361.000
899.454; -135.375; -633.000; -539.000
899.697;  -84.550;   90.000;  -43.000
899.940; -165.350; -761.000; -757.000
900.182; -115.275; -335.000; -405.000
900.425; -108.450; -150.000; -298.000
900.668;  -19.050;  491.000;  350.000
900.911; -114.025; -292.000; -345.000
901.154;  -46.075;  141.000;   -3.000
901.396; -140.175; -407.000; -412.000
901.639; -143.900; -430.000; -496.000
901.882; -194.475; -790.000; -809.000
902.124;  -87.150;  -29.000; -143.000
902.367; -128.125; -315.000; -361.000
902.609; -134.775; -476.000; -453.000
902.852;  -98.550; -108.000; -260.000
903.094; -123.975; -458.000; -337.000
903.337;  -59.250;  -26.000;   53.000
903.579; -120.900; -228.000; -441.000
903.821; -167.525; -597.000; -744.000
904.064;  -69.075;   85.000;  127.000
904.306; -106.125; -126.000; -166.000
904.548;  -97.950; -152.000; -366.000
904.790; -107.000; -195.000; -340.000
905.033; -141.175; -625.000; -577.000
905.275; -137.600; -513.000; -524.000
905.517;   47.200;  468.000;  256.000
905.759;  -64.675; -667.000; -761.000
906.001;  -93.450; -322.000; -369.000
906.243;  -78.825; -162.000; -224.000
906.485;  112.325; -265.000; -207.000
906.727;   90.400; -499.000; -542.000
906.969;  -32.875;  -30.000; -135.000
907.211;  104.075; -316.000; -382.000
907.453;  254.625; -188.000; -237.000
907.695;  -16.900; -158.000; -385.000
907.936;   48.900;  818.000;  706.000
908.178;  -66.575;   92.000; -135.000
908.420;  -69.500; -111.000; -162.000
908.662; -147.300; -633.000; -682.000
908.903;  -92.700; -208.000; -123.000
909.145;  -75.075; -240.000; -305.000
909.386;   -3.475;  315.000;  280.000
909.628;   34.950;  363.000;  397.000
909.870;  -13.225;   29.000;  264.000
910.111; -106.400; -809.000; -949.000
910.353;   14.250; -123.000; -161.000
910.594;   -3.425; -574.000; -606.000
910.835;   73.650; -265.000; -326.000
911.077;  148.025; -503.000; -604.000
911.318;  295.850; -505.000; -471.000
911.559;  447.200; -577.000; -880.000
911.801; 1381.700; -284.000; -280.000
912.042;10654.725;  -50.000; -159.000
912.283;26890.000;  404.000;  371.000
912.524; 3999.575; -396.000; -457.000
912.765;  464.025; -193.000;   79.000
913.006;  241.700; -307.000; -338.000
913.247;   38.425; -270.000; -290.000
913.488;  -13.025;  -43.000;   30.000
913.729;  -90.750; -373.000; -373.000
913.970;  -69.575;  -96.000; -292.000
914.211;  -63.125; -160.000; -198.000
914.452;  -72.500; -118.000;  -11.000
914.693;   10.375;  510.000;  592.000
914.934;    6.175;  510.000;  440.000
915.175;  -68.450;   53.000;  -95.000
915.415;  -81.950; -137.000;   27.000
915.656;  -73.400;  -28.000;  192.000
915.897;  -95.175; -252.000;  -82.000
916.137;  -61.050;   74.000;   -9.000
916.378; -144.450; -573.000; -517.000
916.619;  -85.775; -159.000;  -63.000
916.859;  -32.225;  303.000;  330.000
917.100;  132.775; 1655.000; 1070.000
917.340;   46.900;  930.000;  728.000
917.581;   36.950;  965.000;  789.000
917.821;  -37.850; -171.000;  143.000
918.061;    6.300; -199.000;  -72.000
918.302;  -72.675; -152.000; -211.000
918.542;  -25.850;  -22.000;    3.000
918.782;   27.725;  369.000;  377.000
919.023;  117.700;  360.000;  427.000
919.263; 1358.775; 8131.000;  202.000
919.503; 1074.450; -137.000;  -54.000
919.743;  586.025;  390.000;  266.000
919.983;  239.500; -134.000;  -26.000
920.223;   80.325;  135.000;   14.000
920.463;  154.150;  631.000;  554.000
920.703;  136.450;   84.000;   39.000
920.943;  160.425; -110.000;   90.000
921.183;  226.600; -414.000; -405.000
921.423;  501.350;  307.000;  546.000
921.663;  735.775; -174.000; -257.000
921.903; 1613.200;  237.000;  173.000
922.143; 8986.650;  372.000;  389.000
922.383;34332.575;  158.000;  115.000
922.622;11280.150; -120.000;  -15.000
922.862; 1205.825;  796.000;  785.000
923.102;  462.200;  -51.000;   33.000
923.341;  180.500;   59.000;   74.000
923.581;   66.200;  450.000;  360.000
923.821;   12.350;  301.000;  398.000
924.060;   -2.800;  351.000;  193.000
924.300;  -75.775;  -16.000; -128.000
924.539;  -26.600;  584.000;  473.000
924.779;   25.125;  812.000;  597.000
925.018;  -41.850;  247.000;  353.000
925.257;    6.875;  595.000;  666.000
925.497;  -50.200;  447.000;  412.000
925.736;  -63.675;  -35.000;  102.000
925.975;   -9.075;  687.000;  669.000
926.214;   29.650;  907.000;  850.000
926.454;   26.025;  706.000;  757.000
926.693;  -37.800;  419.000;  543.000
926.932;   31.475; 1021.000;  825.000
927.171;   74.250; 1107.000; 1044.000
927.410;   52.825; 1144.000;  967.000
927.649;   35.000;  924.000;  742.000
927.888;  -16.575;  590.000;  564.000
928.127;  -12.325;  680.000;  678.000
928.366;   27.450;  842.000;  826.000
928.605;   45.400;  831.000;  737.000
928.844;  225.900; 1451.000; 1393.000
929.083;  583.650;  770.000;  613.000
929.321;  315.625; 1335.000; 1359.000
929.560;   77.625; 1158.000; 1122.000
929.799;  -35.825;  574.000;  475.000
930.038;   77.475; 1025.000; 1394.000
930.276;  -56.400;  334.000;  397.000
930.515;  -15.575;  827.000;  681.000
930.753;  -30.600;  614.000;  589.000
930.992;   -8.825;  664.000;  717.000
931.230;   -2.675;  847.000;  847.000
931.469;  166.600; 2162.000;  892.000
931.707;   65.575;  840.000;  751.000
931.946;   55.625; 1278.000; 1344.000
932.184;   55.450; 1437.000; 1175.000
932.423;   45.725; 1265.000;  963.000
932.661;   70.650; 1296.000; 1428.000
932.899;   18.525;  987.000;  821.000
933.137;   19.750;  754.000;  564.000
933.376;  134.300; 1664.000; 1335.000
933.614;  148.775; 1759.000; 1196.000
933.852;   63.975; 1357.000; 1171.000
934.090;  138.000; 1722.000; 1747.000
934.328;  112.750; 1252.000; 1457.000
934.566;  106.600; 1431.000; 1110.000
934.804;  131.325; 1263.000; 1309.000
935.042;  497.800; 1861.000; 1850.000
935.280; 1924.250; 2088.000; 2063.000
935.518; 1799.850; 2113.000; 2007.000
935.756;  379.800; 2481.000; 2316.000
935.994;  164.800; 1808.000; 1751.000
936.231;  357.825; 2890.000; 2950.000
936.469;  193.725; 2367.000; 2378.000
936.707;  156.200; 2220.000; 2167.000
936.945;  230.375; 2825.000; 2882.000
937.182;  200.600; 2679.000; 2741.000
937.420;  308.525; 3602.000; 3031.000
937.657;  408.850; 3365.000; 3478.000
937.895;  347.550; 3331.000; 3488.000
938.133;  326.075; 3540.000; 3528.000
938.370;  342.300; 3896.000; 4191.000
938.607;  404.800; 4488.000; 4205.000
938.845;  541.025; 5587.000; 5549.000
939.082;  495.825; 5387.000; 5177.000
939.320;  535.425; 5799.000; 5728.000
939.557;  620.725; 6549.000; 6491.000
939.794;  712.800; 7285.000; 7097.000
940.031;  928.725; 8421.000; 8368.000
940.269; 1084.625; 9552.000; 9107.000
940.506; 1125.100;10901.000;10507.000

