
Integration time [ms]: 100.000
Averaging Nr. [scans]: 40
Smoothing Nr. [pixels]: 0
Data measured with spectrometer [name]: 2101013U2
Wave   ;Sample   ;Dark     ;Reference
[nm]   ;[counts] ;[counts] ;[counts] 

394.013;   59.930; -450.257; -315.536
394.305;  149.752; -461.258; -419.536
394.596; 1565.404; -676.269; -527.514
394.887; 4115.449; -796.268; -654.518
395.178; 1481.561;  145.736;   11.476
395.470;   74.724; -210.263; -356.526
395.761;  149.792;  305.734;  394.479
396.052;  106.030; -545.284; -306.489
396.343;   92.338; -557.276; -454.503
396.634;   19.801; -200.279; -290.497
396.926;   20.946; -618.268; -565.517
397.217;   66.443;   11.725;  -17.504
397.508;   19.637; -366.273; -154.507
397.799;   16.376; -555.279; -571.497
398.090;   -7.506; -973.280; -902.495
398.381;   85.465;   11.708;  -11.473
398.672;  -33.809; -585.292; -742.473
398.963;   15.033; -348.279; -373.498
399.254;   75.802;   54.709; -209.475
399.545;  -30.187;-1017.266; -883.520
399.836;   41.750; -407.277; -343.501
400.127;   48.436; -205.295; -209.468
400.418;   34.331; -423.274; -392.506
400.709;   18.528; -359.281; -333.493
401.000;   27.332; -268.291; -309.476
401.290;   97.861;  225.698;  115.545
401.581;   62.259; -166.286; -228.485
401.872;   22.728; -542.298; -486.462
402.163;   54.652; -313.296; -252.467
402.454;   95.428; -123.291; -163.475
402.744;   31.467; -844.297; -813.465
403.035;  229.779; -226.293;  -86.471
403.326;  327.620; -366.292; -384.474
403.617;  302.571;  204.701;  165.539
403.907;  344.436; -593.283; -679.490
404.198; 3554.881; -545.307; -599.446
404.489; 9052.467; -618.283; -588.491
404.779; 2522.765; -618.302; -660.456
405.070;  265.689;  -67.304; -174.451
405.360;  476.657; -259.293; -238.472
405.651;  457.603;  125.699;   98.542
405.942;  154.853;  209.714;  127.516
406.232;   75.046; -432.285; -413.487
406.523;  233.198;  641.706;  758.530
406.813;   42.131; -579.286; -644.484
407.104;  185.364;  261.708;  144.527
407.394;   53.998; -604.299; -591.462
407.685;  119.795;  336.715;  222.513
407.975;   43.240; -400.283; -382.490
408.265;  105.095; -134.289; -190.478
408.556;   60.349; -472.291; -459.475
408.846;  161.849;  474.706;  429.530
409.137;  105.830;   -1.288; -216.480
409.427;   62.920; -193.285; -271.487
409.717;   40.366; -776.273; -692.508
410.007;  129.238;    4.715; -170.486
410.298;   96.740; -360.295; -342.469
410.588;   83.842; -495.285; -510.486
410.878;   34.193; -792.287; -873.482
411.168;  113.606; -481.298; -478.463
411.459;  137.034; -295.283; -242.489
411.749;   75.197; -609.292; -507.474
412.039;   78.578; -755.289; -386.480
412.329;  214.866;   40.722;  132.501
412.619;  204.981;  -62.286; -148.485
412.909;  360.298;  639.711;  594.521
413.199;  304.319; -130.280; -251.495
413.490;  386.012;  521.710;  352.523
413.780;  210.199;-1013.279; -913.496
414.070;  388.864;  -46.276;  235.497
414.360;  396.637; -729.278; -666.498
414.650;  514.539; -726.288; -688.482
414.940;  737.823; -538.280; -441.496
415.230; 1200.760;   50.712;   74.519
415.520; 8439.978;  155.730;   66.486
415.809;33918.953; -305.281; -125.493
416.099;25558.678; -388.277; -229.501
416.389; 7655.853;  435.726;  236.494
416.679; 4432.553;   91.738;   85.473
416.969;  748.399; -527.287; -503.483
417.259;  627.626;  341.721;  171.503
417.549;  851.652;  522.718;  318.508
417.838; 2358.048; -205.268; -147.518
418.128; 8216.318;  650.710;  492.522
418.418; 6711.099; -491.272; -579.509
418.708; 4463.453;    9.726;  -48.506
418.997;17516.873; -474.275; -480.505
419.287;17977.911; -733.273; -790.507
419.577;17615.233; -160.283; -123.489
419.866;56349.875; -588.277; -498.501
420.156;54680.048; -242.270;  -55.513
420.446; 9097.644; -112.263;  -26.526
420.735;  871.741; -376.271; -446.512
421.025;  867.911; 1830.722;  315.502
421.314;  535.939; -203.271; -226.512
421.604;  650.265;   89.732;  233.484
421.893;  412.085; -705.271; -602.511
422.183;  262.445; -487.263; -461.526
422.472;  411.136;  -36.271; -107.511
422.762;  406.695; -416.266; -379.521
423.051;  261.990; -916.276; -916.503
423.341;  311.114; -491.273; -439.507
423.630;  394.677; -121.265;   15.477
423.919;  419.472;   58.725;   49.495
424.209;  482.226;  -31.263;   56.473
424.498;  635.895;   68.732;  161.483
424.787; 1454.578; -535.267; -601.518
425.077; 4272.550;   34.735;   29.478
425.366; 4758.733; -734.262; -744.528
425.655;13525.814;  639.727;  259.493
425.945;34913.412; -313.247; -268.554
426.234;18403.410;  117.741;  300.467
426.523; 7174.116;  -86.259; -350.534
426.812; 9766.265;  107.734;  159.480
427.101;14883.460; -127.269; -323.515
427.390;17317.878;  -55.270;  -86.514
427.680; 2525.215; -624.257; -411.538
427.969;  499.928; -330.255; -301.540
428.258;  338.730; -385.257; -477.536
428.547;  491.979;  449.728;  397.490
428.836;  729.072; -421.253; -398.543
429.125;  980.043; -199.259;  -72.534
429.414;  786.124; -330.251; -294.548
429.703; 4478.424; -231.251; -213.548
429.992;13850.128; -938.250; -828.549
430.281; 8770.461; -397.264; -331.524
430.570;  606.438;  -21.252;   32.454
430.859;  414.790;  279.741;  352.466
431.148;  403.157;  636.752;  631.446
431.437;  296.612;  391.748;  367.454
431.725;  189.356; -544.257; -481.536
432.014;  209.356; -845.253; -756.545
432.303;  405.997; -149.239; -105.569
432.592;  557.494; -460.263; -178.525
432.881; 1412.783; -601.248; -437.554
433.169; 9484.228; -343.255;  -61.540
433.458;19167.563;  445.765;  540.424
433.747; 7491.089; -397.261; -289.529
434.036;  926.544; -275.242; -280.564
434.324; 2853.318; -395.249; -379.551
434.613; 5246.061;   40.757;  159.437
434.902; 1480.511;  333.760;  439.433
435.190;  277.396;   75.761;  295.431
435.479;  154.514;  -52.245;   83.441
435.767;   68.299; -411.244; -427.561
436.056;  194.738; -340.242; -294.563
436.345;  475.613; -372.240; -223.568
436.633;  433.112;   60.750;  383.450
436.922;  184.691;  208.760;  414.432
437.210;  181.226; -194.236;    1.426
437.499;  449.085; -583.235; -432.576
437.787;  525.900; -339.236;  -10.574
438.075;  180.128;   56.761;  162.430
438.364;  195.406;  -44.238;  250.429
438.652;  107.056; -286.226; -138.592
438.941;   71.238;    3.770;  269.415
439.229;  -16.841; -665.252; -466.545
439.517;   17.595; -160.234;  -85.577
439.806;  -17.551; -501.225; -290.595
440.094;  128.705;  377.766;  650.421
440.382;   29.359; -653.233; -302.580
440.670;   40.435; -361.235; -285.576
440.959;    9.570; -347.223; -170.599
441.247;   33.601; -151.229; -109.587
441.535;   40.343; -266.235;   31.423
441.823;   -8.074; -497.234; -305.578
442.111;  147.756;  173.771;  327.412
442.400;  296.563; -628.245; -335.559
442.688;  509.529; -111.234; -620.579
442.976;  233.000; -786.213; -450.617
443.264;   36.757; -324.224; -364.597
443.552;   54.507; -258.226;   51.408
443.840;  137.992;  602.765;  876.423
444.128;   78.433;  265.767;  269.420
444.416;  -30.240; -694.228; -312.588
444.704;   14.056; -465.219;  -92.605
444.992;   50.360;   -0.226;  240.407
445.280;   16.214; -517.230;  -94.585
445.568;  -11.496; -694.212; -396.618
445.856;  124.962; -174.221;  357.398
446.143;  241.576;  -54.220;   -7.604
446.431;  216.864;  -25.228;  625.411
446.719;  140.704;  489.783;  675.391
447.007;  136.132;  481.769;  705.416
447.295;  164.992;  597.777;  871.402
447.583;   66.849; -464.229;  -34.587
447.870;   94.708; -434.221; -202.601
448.158;  220.962; -104.230;  129.415
448.446;  141.177; -800.219; -338.604
448.733;  132.284;   13.776;  269.403
449.021;  177.904;   60.788;  341.382
449.309;  147.022; -296.210;  208.379
449.596;  226.374;  128.783;   59.392
449.884;  189.275; -571.222; -325.600
450.172;  258.770; -756.227; -406.590
450.459;  632.280;  645.786;  780.387
450.747; 3761.872; -411.218; -147.608
451.034;12169.965;  493.772;  889.411
451.322; 9828.084; -413.214; -170.614
451.609;  734.286;  292.777;  508.403
451.897;  888.072; -550.203; -183.634
452.184; 2703.967; -622.223; -400.598
452.472; 2394.697;   97.792;  269.375
452.759;  327.228;  512.781;  864.395
453.047;   81.151; -407.212; -125.617
453.334;   22.737; -732.219; -216.606
453.621;   30.161; -438.214; -161.615
453.909;   91.687;   13.796;  384.368
454.196;  101.266; -299.199; -123.641
454.483;  223.737;  317.798;  540.364
454.771;  134.926; -215.208;  196.374
455.058;   42.780; -316.207;  102.374
455.345;  151.007;   71.807;  344.347
455.632;  118.584; -128.207;  235.373
455.919;   63.443;  -82.196;  182.354
456.207;  -59.803; -774.198; -450.642
456.494;  -13.848; -475.200;  -66.639
456.781;   14.957; -399.202; -198.635
457.068;   57.266; -253.206;  -29.628
457.355;   -6.207; -698.206; -401.629
457.642;    8.624; -552.205; -290.630
457.929;   18.697; -778.194; -417.651
458.216;  122.801; -575.212; -354.617
458.503;  375.952; -173.193;  -19.652
458.790;  407.048; -864.208; -630.625
459.077;  381.313;  -77.202;  110.364
459.364; 1174.663; -350.195; -210.649
459.651; 2526.539;  -46.206;  220.372
459.938; 1130.412; -864.209; -665.623
460.225;   99.542;  132.799;  276.363
460.512;  -53.460; -836.197; -688.645
460.799;  121.621;  -32.218;  320.392
461.086;   89.307; -370.200; -251.640
461.372;    7.322; -509.198; -279.642
461.659;   64.595; -165.196;  108.354
461.946;   32.076; -445.193;  -54.651
462.233;  196.879;  842.800;  888.361
462.519;  472.101; -814.201; -464.639
462.806; 1511.165; -768.197; -497.645
463.093; 1251.725; -445.191;  -66.656
463.380;    7.274; -920.186; -824.664
463.666;   50.493; -259.197;  -18.646
463.953;  116.732; -406.195; -243.648
464.239;  267.857; -173.195;  -77.648
464.526;  400.070;  413.806;  743.350
464.813;  328.064; -565.190; -304.658
465.099;  340.202;  606.807;  607.348
465.386;  257.081;  903.807;  921.348
465.672;    2.891; -694.197; -522.645
465.959;   28.660; -598.188; -520.662
466.245;    3.881; -468.193; -359.652
466.532;   41.154; -109.195;   63.352
466.818;   30.624; -357.186; -216.664
467.104;  -20.303; -488.182; -415.672
467.391;  -18.559; -628.189; -459.658
467.677;   13.503; -289.186;    9.335
467.964;  -16.901; -682.189; -471.660
468.250;   34.157; -331.186; -160.665
468.536;   72.718;   90.811;  180.341
468.822;  -21.429; -821.184; -574.668
469.109;  135.943;  351.827;  471.311
469.395;  185.243;  729.808;  787.346
469.681;  210.871;   46.811;  156.341
469.967; 1790.102; -699.188; -382.660
470.254; 3978.361; -494.188; -306.662
470.540; 2469.468; -601.196; -476.646
470.826;  379.435; -488.181; -397.675
471.112;  418.700;  288.816;  113.331
471.398;   83.480; -253.183;  -58.670
471.684;   41.844; -626.177; -447.680
471.970;   26.990; -918.180; -981.675
472.256;   50.042; -521.192; -441.654
472.542;   24.381; -499.171; -434.691
472.828;   16.042; -743.182; -607.672
473.114;   22.933; -380.166; -283.700
473.400;    3.364; -504.175; -293.684
473.686;   36.866; -452.166; -400.701
473.972;   50.356; -230.174; -131.687
474.258;    1.893; -925.173; -843.689
474.544;  336.259; -183.178;   -2.679
474.830;  511.141;  -65.175;   45.316
475.116;  824.441; -123.190; -196.658
475.401; 1112.893; -558.180; -467.676
475.687;  290.916; -725.180; -718.676
475.973;   -1.323; -673.181; -770.673
476.259;  221.043;  736.825;  764.315
476.544;  553.954; -539.176; -437.682
476.830; 1374.777; -398.172; -322.690
477.116; 1214.277; -430.177; -336.682
477.401;  170.217;  346.820;  358.324
477.687;  -21.086; -289.175; -405.684
477.973;   51.081;   21.819;   28.326
478.258;   -8.385; -448.163; -348.706
478.544;   43.313;   21.815;   61.334
478.829;  -62.537; -818.171; -738.692
479.115;  -44.924; -749.172; -651.690
479.401;   -6.174; -444.174; -449.686
479.686;   59.391; -253.180;  -74.676
479.972;    1.915; -886.178; -776.680
480.257;   44.660; -258.166;  -65.700
480.542;   15.543; -614.170; -469.693
480.828;  240.137; 1288.824; 1392.317
481.113;  -26.716; -464.176; -426.683
481.399;  -17.506; -236.161; -202.711
481.684;  -53.366; -620.166; -462.700
481.969;   14.760; -158.159;  -73.713
482.255;  -20.995; -439.169; -285.695
482.540;    3.241; -569.178; -441.680
482.825;   31.168; -395.187; -404.663
483.110;  142.284;  -85.169; -105.696
483.396;  364.035; -840.157; -652.718
483.681;  733.931;  543.826;  730.313
483.966;  304.177; -696.160; -700.712
484.251;   -2.470; -404.174; -310.687
484.536;    4.672; -356.165; -378.703
484.822;   32.284; -205.173; -218.687
485.107;  -20.244; -599.152; -502.726
485.392;  115.829;  662.836;  541.296
485.677;   68.771;  354.832;  163.302
485.962;  112.132;  160.843;  270.283
486.247;  111.575;  -14.162;   -8.707
486.532;   63.811; -178.166; -325.701
486.817;  177.237;  381.839;  431.291
487.102;  136.436; -453.154; -514.722
487.387; 1082.363; -637.156; -652.718
487.672; 1949.985; -154.164;  -38.705
487.957; 1213.045; -394.160; -286.711
488.241;  322.876; -290.150; -314.729
488.526; 1194.483; -280.152; -148.726
488.811; 1989.218; -881.177; -818.680
489.096; 1386.664; -666.154; -702.723
489.381;  695.628;    3.847;  162.275
489.666;  661.668; -428.161; -510.710
489.950;  199.567;  558.846;  627.277
490.235;  -24.455; -480.151; -458.728
490.520;  -43.658; -756.161; -723.710
490.804;  -31.510; -827.156; -736.719
491.089;   12.795; -469.149; -299.732
491.374;   33.008; -132.164;  -75.704
491.658;  -15.642; -817.147; -717.735
491.943;  134.513; -657.152; -609.727
492.227;  200.806; -178.155;  -38.721
492.512;   34.107; -294.157; -341.717
492.797;  -57.738; -713.149; -716.731
493.081;  -60.563; -588.147; -598.735
493.366;  -33.656; -751.161; -635.711
493.650;  219.300;  831.859;  917.254
493.935;   58.533; -648.147; -447.734
494.219;  -26.390; -778.142; -687.743
494.503;  -27.119; -585.150; -487.730
494.788;   64.947;   46.842;   74.285
495.072;  118.377;  184.850;  434.271
495.356;  222.448; -463.148; -343.733
495.641;  524.119; -812.146; -736.736
495.925;  459.121; -976.156; -903.719
496.209;   13.844; -599.149; -451.732
496.494;  -43.515; -763.142; -544.744
496.778;  -17.239; -364.154; -360.722
497.062;  -41.055; -819.156; -627.719
497.346;   10.648; -869.160; -640.711
497.631;  167.178;  580.852;  560.266
497.915;   85.707;  -64.145;  175.261
498.199;   29.335; -341.157; -277.718
498.483;   39.256; -562.152; -508.725
498.767;  265.404;  301.850;  300.271
499.051;  291.516; -126.149; -100.732
499.335;   97.464; -693.149; -739.731
499.619;  -47.279; -381.129; -423.767
499.903;   14.454; -272.155;  -65.721
500.187;   21.494; -588.153; -316.724
500.471;   37.612; -796.152; -595.727
500.755;   99.042;   62.839;  -96.710
501.039;    6.730; -270.155; -357.721
501.323;   64.377;  -21.141;  264.254
501.607;    8.816; -447.163; -503.706
501.891;   11.062; -607.156; -512.718
502.174;  -31.330; -726.144; -585.741
502.458;   61.316;   89.849;  370.273
502.742;   49.706; -180.138; -191.751
503.026;  188.882; -412.147; -254.734
503.310;  323.583; -437.159; -375.713
503.593;  209.759; -464.147; -325.735
503.877;  141.579; -232.133; -156.760
504.161;  170.947;    2.847;  -50.724
504.444;  196.125; -841.158; -710.716
504.728;  747.407; -487.164; -522.704
505.012; 1111.050; -257.150;  -76.729
505.295;  803.069; -417.161; -212.711
505.579;  829.420; -256.156; -496.719
505.862; 1274.678; -555.145; -333.738
506.146; 1270.311; -681.159; -758.714
506.429;  574.512;  568.841;  461.286
506.713;  127.772; -732.151; -667.728
506.996;  485.335;   90.846;  295.278
507.280;  555.402; -633.165; -474.703
507.563;  385.377; -469.155; -261.721
507.847;  190.970; -423.153; -112.724
508.130;  164.170; -665.161; -456.711
508.413;  224.055; -758.167; -577.700
508.697;  407.030; -151.167;   12.300
508.980;  272.872; -422.153; -312.724
509.263;   17.173; -466.155; -450.720
509.547;   43.750; -124.150;   82.271
509.830;   49.172; -172.160;  140.289
510.113;   98.745;  128.844;  298.281
510.396;   48.654; -530.152; -300.725
510.680;   53.129; -818.145; -812.738
510.963;  177.990;  184.846;  180.277
511.246;  123.984; -493.150; -357.730
511.529;  293.610; -482.145;  -83.739
511.812;  613.699; -250.134;   10.241
512.095;  481.243; -740.151; -396.728
512.378;   94.764; -317.147; -245.736
512.661;   79.340; -703.137; -623.753
512.944;   84.337; -750.142; -637.744
513.227;   91.786; -170.137; -171.752
513.510;   60.270; -479.144; -671.741
513.793;   42.682; -485.140; -435.747
514.076;  158.820;  -43.127;  -39.771
514.359;  158.170; -294.149; -135.732
514.642;  150.141; -442.142; -567.744
514.925; 1104.930;  581.860;  561.253
515.208; 1660.845; -498.134; -443.758
515.491; 1033.062; -276.133; -182.761
515.773;  588.375; -410.143; -337.742
516.056; 3289.297;  249.864;  409.246
516.339; 4311.677; -754.136; -652.755
516.622; 2023.006; -518.150; -488.730
516.904;  539.933;  882.857;  975.257
517.187;  204.285; -730.138; -523.752
517.470;  429.332; -568.143; -510.743
517.752;  717.205; -624.136; -470.756
518.035;  589.170; -708.139; -725.749
518.318;  615.052; -799.136; -744.755
518.600; 4054.666; -300.132; -325.762
518.883; 5544.390;  310.858;   88.256
519.165; 2526.676; -585.138; -426.751
519.448;  426.490;  -61.132;  -19.762
519.730;  208.254; -573.126; -415.773
520.013;  234.482;  588.867;  664.240
520.295;  299.701;  -94.134;  -15.759
520.578;  622.931; -335.131; -305.764
520.860;  878.966; -254.132;   56.238
521.143;  637.183; -763.135; -584.756
521.425;  582.995; -251.125; -279.775
521.707;  989.896; -622.127; -380.771
521.990; 2803.321; -199.127;  167.229
522.272; 3255.059; -116.140;   -4.748
522.554; 1191.925; -237.143; -157.742
522.836;  251.949;  -24.134;   99.241
523.119;  182.081; -496.148; -189.734
523.401;  178.764; -448.130; -314.766
523.683;  145.740; -865.137; -693.753
523.965;  437.457;  408.862;  260.248
524.247;  440.845;   54.878;  170.220
524.529;  293.051; -451.134; -367.759
524.812;  488.941;   -3.130;  191.234
525.094; 1408.006; -773.138; -631.751
525.376; 2220.980; -143.124;   78.223
525.658; 1352.549; -441.136; -339.754
525.940;   88.202; -805.131; -671.764
526.222;   31.228; -188.136;  -88.755
526.504;   58.974; -190.131;   32.237
526.786;   28.579; -960.133; -647.760
527.068;   99.462; -124.123;  -67.778
527.349;   -3.530; -865.137; -774.754
527.631;  133.190; -137.132;   22.238
527.913;  229.445; -664.127; -450.771
528.195;  326.661; -761.125; -639.774
528.477;  367.470;  -93.134;  -30.758
528.759;  276.666; -648.130; -522.766
529.040;  141.011; -569.123; -293.778
529.322;   91.765; -235.125;  -10.774
529.604;  106.544;  -47.130;   93.233
529.886;   51.679; -546.126; -302.773
530.167;   67.559;  232.870;  192.235
530.449;   43.038;    1.853;   63.265
530.731;   77.344; -572.122; -459.779
531.012;  139.219; -513.120; -216.784
531.294;  144.165; -118.116;  -43.792
531.575;  203.145;  290.875;  538.225
531.857;  147.064; -548.135; -266.757
532.138;  108.675; -113.141;   40.254
532.420;  122.060;  294.865;  403.244
532.701;   70.507; -722.133; -751.760
532.983;  190.011;  232.867;  182.239
533.264;   62.102; -243.126;  175.228
533.546;  -45.672; -491.136; -508.755
533.827;   12.078;  173.867;   -1.759
534.109;   10.514; -352.135;  -80.757
534.390;   98.970; -725.132; -582.762
534.671;  286.784; -270.135;  -82.756
534.953;  195.489; -751.123; -611.779
535.234;   45.747; -426.117; -255.789
535.515;  -49.471; -891.119; -735.785
535.796;   -5.460; -431.128; -193.770
536.078; -101.270;-1050.124; -904.777
536.359;   11.615;  -22.123;    3.221
536.640;  -14.812; -480.125; -197.774
536.921;  173.825;  225.871;  143.232
537.202;  555.628;  -87.138;  -16.751
537.483;  695.530;  251.869;  377.236
537.764;  268.084;   17.870;   98.235
538.045;  -36.656; -543.134; -371.758
538.326;  -26.098; -596.129; -447.768
538.607;   64.697; -686.127; -476.771
538.888;  264.533;   98.879;    5.218
539.169;  308.427; -704.122; -535.781
539.450;  426.524;  236.871;   16.233
539.731;  249.788; -361.121; -182.783
540.012;  149.794;  199.880;  412.216
540.293;   90.499;   82.876;  158.224
540.574;   -6.610; -895.113; -717.796
540.855;  515.761;  435.879;  377.218
541.136;  673.798;   47.878;  139.220
541.416;  385.767; -161.130; -220.766
541.697;  315.875; -274.131; -170.763
541.978; 1654.087; -270.135; -315.757
542.259; 2110.047; -211.127; -236.771
542.539;  969.158; -191.116; -186.790
542.820;  216.644;  461.875;  480.225
543.101;  147.981;  -52.145;  -77.738
543.381;   46.371; -638.127; -591.771
543.662;  348.718;  159.873; -254.771
543.942;  980.666; -751.127; -830.770
544.223; 1681.050;  193.878;  161.219
544.504; 1087.180; -275.124; -182.777
544.784;  889.654; -592.126; -408.773
545.065; 2518.662;  104.884; -254.791
545.345; 2979.354;  227.881;   14.215
545.626; 1977.539;  -14.113; -108.796
545.906; 1400.883;   77.869;   98.235
546.186;  563.809;   92.874;  -95.773
546.467;  299.083;   99.877;  -95.778
546.747;  521.733;  264.884;  327.210
547.027;  596.428;   91.876;  111.223
547.308;  547.315; -376.127; -530.770
547.588;  584.803;  299.871;  371.232
547.868;  259.835;  458.870;  588.235
548.149;  265.771;  609.885;  593.207
548.429;  247.844; -347.127; -299.771
548.709;  364.268; -645.120; -461.784
548.989;  778.640;   84.882;   88.213
549.269; 3335.639;   10.868;  139.239
549.550; 7809.513;  215.877;  117.222
549.830; 6976.785; -758.111; -556.799
550.110; 1381.419; -468.110; -320.801
550.390; 1313.094; -128.122;  -56.779
550.670; 1921.559; -868.114; -783.795
550.950; 1316.210; -509.121; -471.782
551.230;  242.056;  549.879;  460.218
551.510;   26.209; -381.121; -326.782
551.790;   75.729; -173.109; -127.803
552.070;  332.483;  940.877; 1181.223
552.350;  716.008; -492.119; -377.786
552.630;  973.528;   -2.121;   77.219
552.909;  585.813;  181.884;   73.209
553.189;  389.421;  -49.132;   33.237
553.469;  387.358; -703.119; -514.786
553.749;  371.923; -469.127; -357.772
554.029;  277.427;   33.883;  -24.790
554.308;  265.476; -154.115;  -37.794
554.588;  131.414; -196.128; -204.770
554.868;  143.961; -366.121;  -47.782
555.147;  268.623; -114.115;  -46.793
555.427;  957.691; -260.116; -250.792
555.707; 6285.395; -284.115; -200.793
555.986; 7752.764; -719.111; -538.800
556.266; 3942.706;   23.884;   72.210
556.546;  258.759; -888.121; -675.782
556.825;  464.631; -657.114; -556.794
557.105; 2907.211; -125.128;   17.230
557.384; 3457.162;  122.884;  187.209
557.664; 1335.215; -717.116; -508.792
557.943;  233.511; -557.121; -411.782
558.222;  323.969; -345.118; -344.788
558.502;  421.849; -116.115;  -76.793
558.781;  739.869;  194.885;  499.208
559.061;  679.544; -232.118; -227.788
559.340;  472.524;  302.883;  353.211
559.619; 1201.406;   93.884;  148.210
559.899; 1749.702; -239.117; -266.789
560.178; 1549.424; -778.115; -593.793
560.457; 4857.804; -623.117; -562.790
560.736; 6889.066; -472.111; -482.800
561.015; 4492.484; -500.128; -502.769
561.295;  570.002;  180.893;  215.193
561.574;  448.596;  119.885;  116.207
561.853;  690.009;  274.891;  303.197
562.132;  784.452;  -45.114;  182.206
562.411;  671.479;  396.879;  553.219
562.690;  292.869; -592.115; -458.792
562.969;  182.398;  472.888;  630.203
563.248;  563.301; 2966.878; 2487.219
563.527;  483.815; -290.111; -408.800
563.806;  679.069; -650.127; -521.771
564.085;  702.545; -297.105; -206.810
564.364;  444.105; -594.117; -405.790
564.643;  839.329; -276.121; -223.781
564.922; 3014.152;  221.890;  397.198
565.201; 3175.506; -640.109; -700.803
565.479; 1334.242; -297.115; -219.792
565.758;  588.287; -810.128; -712.770
566.037;  750.507; -155.109; -100.803
566.316;  386.737; -286.116;  -28.791
566.595;   73.496;  -17.115;  -12.793
566.873;  116.317; -166.111;  -79.801
567.152;  -38.228; -490.113; -590.797
567.431;   47.607; -113.116;    6.210
567.709;   58.803; -344.107; -212.807
567.988;  493.856; -810.114; -769.794
568.266;  862.070; -160.115;  -68.793
568.545;  658.326; -644.100; -514.819
568.824;  974.217;  160.885;  356.208
569.102;  967.006; -351.114; -235.794
569.381;  435.566; -492.116; -407.792
569.659;   -3.307; -553.113; -553.796
569.938;  129.249; -743.122; -465.780
570.216;  209.160; -225.109; -225.804
570.494;   24.210; -632.114; -572.795
570.773;   40.159;  202.879;  114.218
571.051;   38.961; -373.123; -357.778
571.330;  131.465; -221.113; -174.796
571.608;   93.823; -181.098; -173.823
571.886;  -30.517; -671.111; -581.799
572.164;  -42.364; -739.121; -621.782
572.443;  -27.625; -562.105; -512.811
572.721;   -4.596; -399.117; -289.790
572.999;   -6.879; -280.117; -168.788
573.277;  107.492;  379.894;  620.191
573.555;  476.145;   94.894;   37.190
573.834; 2270.971;  -86.117; -114.788
574.112; 2564.605;  880.893;  811.193
574.390;  783.591; -143.111;  -96.801
574.668;   27.648;  -91.112;  -61.797
574.946;    9.520; -165.106; -187.810
575.224;   21.556;   71.891;  -16.803
575.502;  -15.466; -200.116; -204.791
575.780;  -68.150; -767.112; -829.798
576.058;  226.715; 1589.889; 1004.200
576.336;  -10.553; -210.110; -129.801
576.614;  -40.400; -511.112; -340.798
576.891;  154.026; -711.115; -823.794
577.169;  820.470; -158.108; -285.805
577.447;  927.455;  169.893;  202.193
577.725;  361.755;  629.888;  854.201
578.003;   42.053;  -71.112; -371.798
578.280;  146.710; -208.104; -242.812
578.558;   99.799; -450.115; -422.793
578.836;  161.084; -210.114; -145.795
579.114;  101.298; -630.112; -670.797
579.391;   81.548;   -6.117;  -18.789
579.669;  -49.298; -595.114; -704.794
579.947;  293.126; -326.107; -127.806
580.224;  588.776; -692.107; -524.806
580.502;  517.481;  127.893;   76.193
580.779;   39.930;  -42.117;   75.210
581.057;  -64.189; -584.109; -470.804
581.334;  -90.997; -726.102; -695.815
581.612;   40.921;   54.895;  511.190
581.889;  -22.081;  -83.101; -129.818
582.167;  -19.964; -298.099; -190.821
582.444;  -84.288; -845.102; -814.817
582.721;   96.388;  657.899;  715.183
582.999;   92.583; -326.100; -167.821
583.276;  942.666; -812.123; -713.779
583.553; 1257.557; -364.102; -294.816
583.831;  453.007; -607.104; -631.812
584.108;   71.217;  349.892;  174.195
584.385;   38.702; -122.102;  -98.815
584.662;  -31.757; -651.111; -828.801
584.940;   39.392;  204.889;  204.199
585.217;    2.717;  -73.113; -303.796
585.494;   40.278;   71.890;  118.198
585.771;  329.962; -250.109; -354.804
586.048;  784.542; -196.113;  -76.796
586.325;  519.696; -721.110; -773.801
586.602;  127.961;  230.896;  213.188
586.879;   42.529; -499.100; -580.820
587.156;  113.047; -156.105; -331.810
587.433;    2.735; -701.102; -667.817
587.710;  109.851;  152.888;  234.202
587.987;  466.853; -264.105; -236.811
588.264; 1170.677;  315.888;  387.202
588.541; 1956.439;  -61.104;   26.187
588.818; 4015.539;   72.892;  171.196
589.095; 3414.233; -163.104; -174.812
589.371;  557.184; -459.109; -414.804
589.648;   59.830; -581.107; -437.807
589.925;   84.185; -517.114; -621.795
590.202;   98.550; -741.112; -607.798
590.478;  158.555; -166.105;  -73.811
590.755;  419.046; -241.108; -132.806
591.032; 3857.698; -741.110; -699.802
591.308; 5445.320; -732.094; -790.831
591.585; 2788.573; -573.110; -560.802
591.862;  322.462;-1056.102; -950.817
592.138;  129.244; -475.108; -474.805
592.415;  262.512; -486.104; -495.813
592.691; 2155.109;  460.896;  518.188
592.968; 2890.950; -208.098; -123.824
593.244; 1390.582; -695.116; -595.790
593.521;  118.712; -105.102;  -42.817
593.797;   31.771; -810.122; -720.780
594.074;  533.465; -611.096; -588.826
594.350;  956.103;  828.905;  729.172
594.626;  477.418; -303.111; -283.801
594.903;  238.163; -643.101; -645.817
595.179;  272.316;  243.896;  418.187
595.455;   25.532; -136.107; -150.807
595.731;   29.568;  -19.103;  -38.814
596.008;  -12.914; -464.111; -434.800
596.284;   90.831; -187.100; -242.820
596.560;  138.078; -501.093; -493.833
596.836;  350.124; -173.105;  -70.810
597.112;  572.194; -582.108; -437.805
597.388;  461.562;  -49.097;  -48.826
597.665;  146.970;  437.887;  530.203
597.941;  -28.837; -572.089; -658.839
598.217;   60.277; -323.110; -293.802
598.493;  439.013;   61.891; -204.804
598.769;  819.975; -175.100;  -50.819
599.045;  527.248; -490.108; -562.806
599.321;  122.105; -193.100; -261.820
599.597;  269.963; -355.109; -476.804
599.872;  739.589;  409.896;  429.187
600.148;  605.339;  -61.097; -172.826
600.424;  445.454;   91.893;  202.193
600.700;  397.131; -170.107; -280.807
600.976;  232.832; -442.097; -464.825
601.252;  413.284; -226.109; -272.803
601.527;  424.440; -833.104; -840.813
601.803;  265.506; -453.105; -404.812
602.079;  284.250; -124.100; -118.819
602.354;  910.890; -620.092; -531.835
602.630; 1313.667; -140.113; -482.796
602.906; 3498.844; -910.101; -863.818
603.181;10677.158; -627.119; -534.786
603.457; 8900.536;   98.903; -278.826
603.733; 1347.214; -605.120; -626.783
604.008; 1446.595; -245.106; -164.810
604.284; 4788.490; -636.101; -580.817
604.559; 4135.055;   -3.112;  -42.799
604.835;  772.024; -163.105; -225.810
605.110;  694.186; -732.099; -892.821
605.385; 1067.181;  224.907;  267.167
605.661; 1082.906; -625.095; -729.829
605.936; 1977.823; -664.108; -737.806
606.211; 1604.901;  -17.103; -170.815
606.487;  362.329; -329.114; -376.794
606.762;  104.559; -791.119; -745.786
607.037;    7.449; -501.105; -433.810
607.313;   -8.777; -589.096; -574.828
607.588;   20.620; -375.106; -137.810
607.863;  104.568;  -28.101; -143.818
608.138;  247.076;  513.890;  516.198
608.413;  110.016; -576.099; -592.822
608.688;  124.469; -203.108; -267.805
608.964;  369.963; -509.106; -218.809
609.239;  431.746; -107.105; -212.810
609.514;  376.680;  281.895;  240.188
609.789; 1025.585; -187.104; -716.812
610.064; 1372.172; -435.096; -609.827
610.339; 1466.259; -855.109; -799.804
610.614; 2016.381; -131.100; -315.820
610.889; 1075.831;  215.895;  107.188
611.163;  115.856; -407.104; -591.812
611.438;  156.481;   81.886; -167.794
611.713;   76.490; -467.101; -499.817
611.988;  129.367; -144.101; -328.818
612.263;   45.678; -771.102; -717.815
612.538;  313.741;  385.887;  251.204
612.812;  375.482; -832.100; -911.820
613.087;  272.897; -358.098; -338.823
613.362;  -19.893; -497.107; -557.807
613.637;   67.196;  261.897;  138.186
613.911;   20.091; -256.092; -345.835
614.186;  227.230; -249.107; -292.807
614.460; 1213.202; -842.081; -758.854
614.735; 1302.816;  -55.087;  -17.843
615.010;  272.704;   43.912;  -82.841
615.284;  345.518;  360.892;  246.195
615.559;  647.589; -792.092; -955.835
615.833;  456.064;  -76.099;  -87.822
616.108;   55.053; -225.090; -390.837
616.382;  209.018;  274.913;  402.156
616.656;  272.179; -241.090; -232.837
616.931;  822.464; -785.099; -700.822
617.205; 1710.040; -973.104; -979.813
617.480; 1564.592;  -91.125;    6.225
617.754;  296.239; -396.125; -128.774
618.028;   70.129; -369.129; -382.768
618.302;  115.517;   73.892;  -25.805
618.577;  -15.252; -371.103; -518.815
618.851;  -37.970; -399.109; -600.803
619.125;  -44.724; -335.134; -378.759
619.399;  -13.409; -244.104; -374.813
619.673;  -18.808; -330.115; -515.792
619.947;  -14.491; -333.114; -448.795
620.222;   23.119; -198.110; -204.801
620.496;   27.736;  -47.121;  -96.782
620.770;   48.451; -187.122;  -93.781
621.044;  289.997;  323.895;  346.190
621.318; 1160.489; -653.120; -614.783
621.592; 1088.337; -430.121; -409.783
621.866;  669.256; -476.112; -572.799
622.140;   73.809; -207.116; -356.791
622.413;   77.311;  138.889;  112.200
622.687;  -14.960; -746.101; -492.817
622.961;   36.917; -130.108; -143.805
623.235;  -28.338; -633.111; -661.800
623.509;  -82.020; -816.105; -848.811
623.783;   14.302;  -12.107;   48.193
624.056;   -1.159; -254.120; -280.783
624.330;   88.348;   63.888;   -3.797
624.604;  104.155; -271.116; -355.790
624.877;  129.074;  180.890;   26.198
625.151;  107.928; -249.114; -238.794
625.425;  -17.307; -150.103; -283.814
625.698;  -49.823; -367.119; -374.785
625.972;  -73.098; -799.110; -765.802
626.245;   80.983;  685.884;  484.210
626.519;  -36.079; -426.120; -340.784
626.792;  -21.794; -192.107; -380.807
627.066;  -60.632; -485.122; -662.779
627.339;  -86.203; -736.110; -663.802
627.613;   47.194;  351.880;  148.216
627.886;   68.429;  187.891; -612.803
628.160;    4.689;  312.880; -161.783
628.433;  -73.780; -695.125; -703.775
628.706;  -60.854; -517.120; -615.784
628.979;   33.878;  296.876;  117.223
629.253;  -46.367; -785.119; -833.786
629.526;  622.252; -334.126; -253.772
629.799;  663.262; -641.123; -479.778
630.072;  319.181; -497.128; -516.769
630.346;   15.058;-1115.116;-1080.790
630.619;  759.982; -467.107; -545.808
630.892;  943.138;  709.889;  593.200
631.165;  471.616;  790.896;  679.187
631.438;  -14.547;-1092.112;-1055.798
631.711;   59.715;  453.877;  257.221
631.984;  -31.773; -523.117; -624.789
632.257;  -52.152; -636.117; -681.789
632.530;  -21.673; -412.119; -433.785
632.803;   36.375; -109.115;    7.207
633.076;  -45.267; -360.123; -422.777
633.349;   25.436;  173.872;  121.231
633.622;   -8.249; -187.119; -240.785
633.895; -109.984; -903.120; -823.783
634.167;  -56.146; -496.126; -525.773
634.440;   -5.985;  -19.116; -137.792
634.713;   17.306;  -22.119; -120.786
634.986;   89.674;  593.871;  453.233
635.258;  -63.577; -507.115; -597.793
635.531;   86.093;  742.882; -343.788
635.804;  -30.675; -303.117; -318.789
636.077;  -86.014; -830.116; -852.791
636.349;   52.421; -586.115; -474.793
636.622;  467.676; 1695.874; 1392.228
636.894;  417.146; -474.120; -909.784
637.167;  311.394; -836.127; -789.771
637.439;   78.464; -278.128; -213.770
637.712;  -39.572; -312.126; -293.772
637.984;  -63.539; -635.116; -707.791
638.257;  478.308;  515.877;  488.222
638.529;  922.347; -881.125; -924.776
638.802;  395.431; -508.128; -449.769
639.074;  -93.350; -927.122; -952.781
639.346; -119.059; -942.135; -930.757
639.619;    9.314;  -79.142; -319.744
639.891;   -0.582;  -83.122; -168.779
640.163;  -77.755; -689.122; -756.780
640.435;   46.847;  273.878;  103.220
640.708;   27.224;  -72.122; -132.780
640.980;   -5.874; -366.122; -362.781
641.252;  244.054;  -25.121;  -71.781
641.524; 2436.006;  580.879;  573.219
641.796; 2645.933;-1094.121; -907.782
642.068;  488.060; -191.121; -300.782
642.340;  -37.938; -486.121; -566.783
642.613;   45.090;  294.880;  323.217
642.885;  -83.783; -787.120; -878.783
643.157;   -6.956; -810.120; -658.784
643.428;   65.771;  170.880;  218.216
643.700;  -59.852; -498.120; -425.784
643.972;  -23.575;  -16.119; -133.785
644.244;  -80.047; -474.119; -559.785
644.516;  -47.120; -250.119; -114.786
644.788;   52.607;  662.881;  548.214
645.060;   -9.841;  -12.119; -124.786
645.332;  -88.089; -525.118; -535.787
645.603;   31.113;  479.882;  342.213
645.875;  -71.709; -334.118; -369.787
646.147;  180.618; 1487.882; 1242.212
646.418;   -9.055; -931.117; -918.788
646.690;  347.697; -714.117; -715.789
646.962;  112.949; -413.117; -451.789
647.233;  -16.948;   15.883;   11.211
647.505;  -98.746; -595.117; -475.790
647.776;   24.056;  328.884;  229.210
648.048;   25.533; -248.116; -418.790
648.320;  -37.790; -752.116; -679.791
648.591; -151.963;-1055.116; -958.791
648.862;  -73.085; -505.116; -577.792
649.134;   23.167;  115.885;  198.208
649.405;   -1.206; -661.115; -618.792
649.677;  -22.579; -475.115; -598.793
649.948;   31.998; -181.115; -296.793
650.219;   11.825;  -37.115; -147.793
650.491;  -77.047; -431.114; -520.794
650.762; -115.920; -705.114; -731.794
651.033;  -71.068; -437.114; -424.795
651.304;  -73.766; -743.114; -728.795
651.576;  -30.414; -680.114; -645.795
651.847;  -40.511; -250.113; -140.796
652.118;  -23.659;  -32.113; -189.796
652.389; -103.457; -639.113; -722.796
652.660;  -32.955; -147.113;  -89.797
652.931; -133.103; -897.112; -871.797
653.202;  -59.601; -382.112; -541.798
653.473;  -52.573; -633.112; -533.798
653.744;  275.204; -595.112; -590.798
654.015;  261.006; -356.112; -303.799
654.286;  -39.192; -642.111; -663.799
654.557;  -13.240; -586.111; -521.799
654.828; -128.413;-1114.111;-1088.800
655.099;  -68.660; -404.111; -291.800
655.370;  -90.633; -427.111; -543.801
655.641; -110.956; -656.110; -714.801
655.911; -101.754; -618.110; -638.801
656.182;   21.223;  437.890;  387.198
656.453;   93.301;  830.890;  746.198
656.724;  -68.072; -466.110; -426.802
656.994;  -77.870; -553.109; -568.803
657.265;  -87.418; -862.109; -873.803
657.536;  -79.166; -500.109; -377.804
657.806; -104.639; -561.109; -593.804
658.077; -124.411; -866.109; -950.804
658.347;  -76.784; -523.108; -598.805
658.618; -110.357; -646.108; -694.805
658.888;  -17.480;  -41.108;  112.195
659.159;  -77.403; -432.108; -548.806
659.429;    5.199; -292.108; -349.806
659.700;   71.102; -435.107; -390.807
659.970;   22.679; -370.107; -359.807
660.241;   84.331; -754.107; -921.807
660.511;  812.433; -147.107; -174.808
660.781;  211.285; -793.106; -748.808
661.052;  -21.687; -222.106; -381.808
661.322;  -18.985;   21.894;   -9.809
661.592;    5.092;  257.894;  148.191
661.862;  -70.231; -369.106; -382.810
662.133;  -80.954; -551.105; -502.810
662.403;  -97.727; -770.105; -676.810
662.673;  -59.674; -256.105; -213.811
662.943;  -91.422; -612.105; -551.811
663.213;    8.380;  -85.105;  -81.811
663.483;  -63.268; -593.104; -568.812
663.753;  -46.716; -194.104; -152.812
664.023;  -12.214;   68.896;  -32.813
664.293;  -48.411; -319.104; -126.813
664.563;  -97.684; -694.104; -648.813
664.833; -114.107; -743.103; -608.814
665.103; -117.330; -730.103; -793.814
665.373; -104.278; -766.103; -806.814
665.643;  -34.975; -863.103; -918.815
665.913;  104.602; -534.103; -714.815
666.182;  275.929; -685.102; -719.816
666.452;  431.456;  -22.102;  -89.816
666.722;   38.508; -724.102; -784.816
666.992; -116.290; -948.102; -921.817
667.261;  -61.562; -824.102; -808.817
667.531;  282.490;  134.899;   45.183
667.801;  803.217; -440.101; -412.818
668.070;  288.219;  714.899;  697.182
668.340;  -66.304; -883.101; -840.819
668.609;  108.699;  588.900;  301.181
668.879;  -50.649; -490.100; -558.819
669.149;  -55.647; -539.100; -516.820
669.418;  -90.770; -698.100; -726.820
669.688;    1.057; -482.100; -666.820
669.957;  173.734; -423.099; -546.821
670.226;  -14.988; -268.099; -331.821
670.496;  -81.886; -431.099; -635.822
670.765;  -70.784; -418.099; -501.822
671.034; -123.632; -872.099; -828.822
671.304;   -6.930;   55.902; -111.823
671.573; -121.178;-1085.098; -957.823
671.842;  165.100; -380.098; -294.823
672.112;  103.952; -692.098; -586.824
672.381;   21.054; -239.098; -214.824
672.650; -114.594;-1005.097;-1021.825
672.919;  -70.642; -631.097; -507.825
673.188;  -86.814; -681.097; -878.825
673.457; -126.587;-1101.097;-1143.826
673.726;  -53.885; -579.096; -646.826
673.995;   -9.583; -533.096; -479.826
674.265;   11.819; -263.096; -333.827
674.534;   48.021; -183.096; -235.827
674.802;   68.249; -618.096; -703.828
675.071; 1470.851; -886.095; -801.828
675.340; 6213.453; -464.095; -339.828
675.609; 2032.055;  103.905;   82.171
675.878;  215.357; -949.095; -893.829
676.147;   70.784;  -26.095;   -8.829
676.416;  141.837; -210.094; -294.830
676.685; 1053.639; 1000.906; -622.830
676.953;  217.141; -603.094; -452.831
677.222;  -13.932; -193.094; -273.831
677.491;  -17.855;  -24.094; -127.831
677.759;   -4.752;   11.907;  172.168
678.028;    1.625; -279.093; -222.832
678.297;    4.702;   71.907;  197.168
678.565; -127.046; -898.093; -944.833
678.834;  -50.069; -311.093; -268.833
679.102;  -64.467; -411.092; -391.834
679.371; -120.214; -898.092; -727.834
679.639; -122.337; -797.092; -786.834
679.908; -109.435; -794.092; -724.835
680.176; -149.483; -895.091; -941.835
680.445;  -67.156; -346.091; -352.835
680.713;  -11.304;  -58.091;  -23.836
680.982;  -72.876; -523.091; -525.836
681.250; -101.949; -578.091; -507.837
681.518;  -84.197; -534.090; -751.837
681.787;    1.280; -204.090; -167.837
682.055;  -43.468; -490.090; -422.838
682.323; -135.990; -993.090; -992.838
682.591;   80.237; -216.090; -538.838
682.859;  158.589;    9.911;  -35.839
683.128;   25.191;  232.911;  497.161
683.396; -145.707;-1102.089;-1122.840
683.664;  -36.180; -241.089;   21.160
683.932;    7.998;  144.911;  -76.840
684.200;  -71.625; -576.088; -320.841
684.468;  -13.298;  -73.088; -124.841
684.736;  -17.771; -214.088; -175.841
685.004;  -96.819;-1024.088; -982.842
685.272;   -4.792; -880.088; -774.842
685.540;  -33.714; -499.087; -557.843
685.808;  -72.237; -651.087; -682.843
686.076;  -69.810; -894.087; -969.843
686.343;  -29.433; -601.087; -815.844
686.611;   92.494; -195.087; -224.844
686.879;  647.297; -530.086; -553.844
687.147; 4955.924; -483.086; -480.845
687.414; 1466.601;  -12.086; -169.845
687.682;   70.478; -658.086; -757.846
687.950;  475.980;  259.915;  263.154
688.217;   98.332; -792.085; -760.846
688.485;   54.010; -632.085; -636.847
688.753;  845.937;  -11.085; -102.847
689.020;  362.489; -820.085; -851.847
689.288;  -64.559; -853.084; -787.848
689.555;   -7.757; -195.084; -148.848
689.823;  -33.755; -241.084; -345.849
690.090;  -63.102; -546.084; -651.849
690.358; -133.925; -877.084; -897.849
690.625;   15.452;  120.917;   45.150
690.892;  -62.696; -403.083; -369.850
691.160;  -11.719;   72.917;  -35.850
691.427;    6.209;  141.917;  130.149
691.694; -115.889; -855.083; -929.851
691.962; -107.112;-1177.082;-1060.852
692.229;   32.515;  127.918;   56.148
692.496;  128.442;  130.918;  -49.852
692.763;   49.294; -164.082; -201.853
693.031;  -37.178; -739.082; -716.853
693.298;   -8.351; -509.081; -368.853
693.565;  435.201; -155.081; -163.854
693.832; 2044.703;   -5.081;   -9.854
694.099;  292.055; -643.081; -642.855
694.366;  -23.018; -882.081; -896.855
694.633;  -19.665; -920.080; -633.855
694.900;  747.312; 4367.920; -114.856
695.167;  636.364; -214.080; -380.856
695.434;  171.016; -646.080; -623.856
695.701;  229.443;  121.921;  -61.857
695.968;  660.071; -365.079; -361.857
696.234; 1178.073; -415.079; -646.858
696.501;11975.475; -776.079; -614.858
696.768; 6554.202; -554.079; -617.858
697.035;  394.429; -632.078; -667.859
697.302;   76.806; -448.078; -552.859
697.568;   42.434; -458.078; -497.859
697.835;  -24.189; -683.078; -624.860
698.102;  -11.462; -498.078; -407.860
698.368;   93.690;  384.923;  396.139
698.635;  -10.208;  -47.077; -424.861
698.901;  -17.930; -240.077; -348.861
699.168;  144.597; -534.077; -456.862
699.435;  131.324;  -72.077;  -13.862
699.701;  -79.224; -868.076; -764.862
699.968;   20.278;  144.924; -441.863
700.234;  -86.720; -783.076; -822.863
700.500;  -25.642; -448.076; -539.864
700.767;   11.960;   -1.075;   26.136
701.033; -108.238;-1015.075; -963.864
701.299;  -34.011; -450.075; -483.865
701.566;  138.766;  950.925;  763.135
701.832;   48.618;  -31.075;  -76.865
702.098;  -66.004;-1054.074;-1034.866
702.365;  -42.002;-1098.074;-1030.866
702.631;   27.125;-1038.074;-1063.867
702.897; 1779.077; -765.074; -676.867
703.163; 3249.279;  348.926;  254.133
703.429;  237.957; -256.073; -273.868
703.695;   -5.766; -796.073; -792.868
703.961;   49.261; -214.073; -210.868
704.227;  -32.187; -630.073; -725.869
704.493;  158.365;  613.927;  510.131
704.759;    5.292; -565.072; -540.870
705.025;   54.845; -203.072; -194.870
705.291;   14.097; -666.072; -562.870
705.557;  207.499;  719.928;   34.129
705.823;   67.601; -742.072; -694.871
706.089;  197.253; -307.071; -326.871
706.355;  399.905; -315.071; -244.872
706.620; 5932.433; -776.071; -729.872
706.886; 9770.460; -309.071; -362.873
707.152; 1041.837; -818.070; -973.873
707.418;   40.289;-1153.070;-1186.873
707.683;   26.066; -550.070; -530.874
707.949;    5.444; -547.070; -578.874
708.215;   14.546; -129.070; -207.874
708.480;   13.548; -520.069; -420.875
708.746;  163.300;   68.931;   28.125
709.011;  -42.623; -578.069; -612.876
709.277;  -63.146; -538.069; -543.876
709.542;  -26.293; -428.069; -387.876
709.808;   -2.541;  -59.068;   89.123
710.073;  -58.089; -577.068; -695.877
710.339;  -17.437; -242.068; -228.877
710.604;  133.440; -780.068; -845.878
710.869;  519.967; -277.068; -366.878
711.135;  -42.505; -715.067; -628.879
711.400;  -62.003; -507.067; -608.879
711.665;  -52.176; -404.067; -479.879
711.931;  -87.099; -661.067; -677.880
712.196;  -94.972; -876.067; -954.880
712.461;  176.581; -402.066; -490.880
712.726;  313.333; -727.066; -771.881
712.991;  -66.765; -647.066; -664.881
713.256;  -34.963; -350.066; -332.882
713.521;  -61.236; -417.065; -381.882
713.787;  -47.859; -454.065; -472.882
714.052;  -29.831; -214.065; -400.883
714.317;  -67.329;-1045.065; -981.883
714.581; 1171.923; -374.065; -268.883
714.846; 1878.625; -822.064; -888.884
715.111;  173.727;  261.936;  257.116
715.376;   -0.896;  -86.064; -223.885
715.641;    5.557; -365.064; -367.885
715.906;  461.309;   15.936; -551.885
716.171;  203.486;  221.937;  209.114
716.436;   71.788;  -78.063; -104.886
716.700;  -94.360; -818.063; -692.886
716.965; -115.507; -794.063; -807.887
717.230;  -65.655; -339.063; -392.887
717.494;  -20.528;  -40.062; -134.888
717.759;  -74.401; -784.062; -640.888
718.024;   10.801;  269.938;  250.112
718.288;   78.703;  685.938;  395.111
718.553; -137.844; -803.062; -977.889
718.817; -124.392; -883.061; -899.889
719.082;  -24.215; -115.061; -125.890
719.346; -131.413;-1000.061; -947.890
719.611;  -34.961; -300.061; -255.891
719.875;  -87.209; -568.060; -537.891
720.140;  -39.506; -453.060; -603.891
720.404;   73.696; -136.060; -249.892
720.668; 1269.198; -475.060; -411.892
720.933;  558.375;  146.940;  137.108
721.197;  -74.173; -667.059; -600.893
721.461; -110.245; -851.059; -826.893
721.725;  -15.118;  -21.059; -250.894
721.990;  -49.091; -284.059; -204.894
722.254;  -11.914;  -26.059; -108.894
722.518;  -75.637; -286.058; -442.895
722.782;  -84.435; -743.058; -594.895
723.046;  150.593;  614.942;  570.105
723.310;   23.045;  374.942;  210.104
723.574;  -98.453; -654.058; -614.896
723.838;  -91.926; -576.057; -642.897
724.102;  -39.324; -226.057; -239.897
724.366; -122.722;-1032.057; -978.897
724.630;  -84.594; -749.057; -571.898
724.894;  -53.942; -722.057; -514.898
725.158;   -2.965;   38.944; -295.898
725.422;  -36.638; -394.056; -327.899
725.685;  -53.436; -441.056; -349.899
725.949;  -62.408; -566.056; -519.900
726.213;  -44.631; -732.056; -811.900
726.477;  330.996;-1020.055; -933.900
726.740;  255.398; -274.055; -104.901
727.004;  439.825; -384.055; -510.901
727.268; 4115.327; -442.055; -400.901
727.531; 1332.205; -961.055; -775.902
727.795;   -4.143; -713.054; -673.902
728.059;  -29.816; -552.054; -557.903
728.322;  -52.689; -841.054; -669.903
728.586;  102.013; -692.054; -701.903
728.849;  -41.959; -695.053; -756.904
729.112;  -92.707; -812.053; -912.904
729.376; -105.830; -959.053; -905.904
729.639;  -51.853; -536.053; -536.905
729.903;  -92.526; -733.053; -699.905
730.166;  -29.199; -437.052; -399.906
730.429;  -31.271; -317.052; -468.906
730.693;  -44.494; -355.052; -894.906
730.956;  229.658;  810.948;  651.093
731.219; 1036.485; -310.052; -103.907
731.482;  246.012;-1003.051; -894.907
731.745;  253.139; -794.051; -935.908
732.009;   36.167;  -30.051;   50.092
732.272;  -79.231; -904.051; -771.909
732.535;  -42.629; -300.051; -310.909
732.798; -129.102;-1083.050;-1166.909
733.061;  -37.600; -430.050; -456.910
733.324;   14.803;   31.950; -180.910
733.587;   87.855;  290.950;  365.090
733.850;  -26.993; -973.049;-1050.911
734.113;   39.484;   33.951;   32.089
734.376;   41.161; -328.049; -447.912
734.639;  252.888; 1188.951; 1011.088
734.901;  128.691; -180.049; -402.912
735.164;  724.193; -883.048; -837.913
735.427; 2033.570; -166.048; -355.913
735.690;  198.372; -205.048; -234.913
735.952;   38.049; -923.048; -925.914
736.215;   39.926;-1113.048;-1009.914
736.478;  118.704; -771.047; -774.915
736.740;  319.306;   33.953;  129.085
737.003;  901.683; -658.047; -672.915
737.266; 6098.610;  -94.047;   46.084
737.528;  703.212; -682.047; -660.916
737.791;  449.990; -316.046; -327.916
738.053;  946.742;  465.954;  649.083
738.316;12783.144; -162.046; -136.917
738.578;10662.121; -770.046; -736.918
738.841;  641.198; -382.046; -446.918
739.103;  279.825; -875.045; -777.918
739.365;  729.678;   79.955;  -69.919
739.628;   70.405; -884.045; -805.919
739.890;    1.457; -758.045; -710.919
740.152;    7.359; -692.044; -754.920
740.414;   22.011; -408.044; -359.920
740.677;  -12.337; -785.044; -634.921
740.939;  -11.434; -587.044; -487.921
741.201;  433.743; -432.044; -572.921
741.463;  138.170; -689.043; -745.922
741.725;   46.222;  -21.043; -199.922
741.987;   78.349;  220.957;  116.078
742.249;   80.902; -751.043; -859.923
742.511;  374.204; -703.043; -794.923
742.773;   74.181; -546.042; -546.924
743.035;  143.458;  796.958;  533.076
743.297;    9.935; -963.042;-1013.924
743.559; 1061.962; -278.042; -262.925
743.821;  191.015; -735.042; -744.925
744.083;   48.742;  -44.041; -149.925
744.345;  -55.481; -869.041; -892.926
744.607;   64.821;   75.959;  122.074
744.868;  -21.627; -490.041; -554.927
745.130;  -86.825; -994.041;-1008.927
745.392;   60.603;   -1.040;  -44.927
745.653;   11.655; -411.040; -378.928
745.915;  181.632;  896.960;  631.072
746.177;   87.984;   35.960;  -43.928
746.438;   47.211; -428.040; -543.929
746.700;   20.739; -947.039; -988.929
746.961;   74.741; -659.039; -740.930
747.223;  218.143; -190.039;  -74.930
747.484;  167.420; -391.039; -471.930
747.746;  227.997;  -23.038; -106.931
748.007;  225.399; -647.038; -689.931
748.269;  445.327; -468.038; -440.931
748.530;  798.504; -852.038; -638.932
748.791;  416.206; -354.038; -420.932
749.053;  627.758;  286.963;  163.067
749.314;  692.435; -236.037; -169.933
749.575;  802.837; -945.037; -905.933
749.836; 1216.165; -217.037;   86.066
750.098; 3101.292;  -60.037;  -21.934
750.359;49692.519;  414.964;  555.066
750.620;15180.721; -121.036; -220.935
750.881; 1510.823; -585.036; -513.935
751.142; 1909.776; -950.036; -938.936
751.403;20927.703; -789.036; -705.936
751.664;11280.555;-1034.035; -999.936
751.925;  738.707; -175.035; -262.937
752.186;  425.909; -298.035; -278.937
752.447;  229.086; -590.035; -445.937
752.708;  115.864; -532.035; -648.938
752.969;   66.516; -566.034; -576.938
753.230;   47.743; -777.034; -672.939
753.491;   46.945; -650.034; -631.939
753.751;  102.572;  109.966;   19.061
754.012;  140.050;  258.967;  181.060
754.273;  110.427; -174.033;  -71.940
754.534;   61.354; -487.033; -580.940
754.794;  -43.494; -926.033; -911.941
755.055;  166.533; 1051.967;  881.059
755.316;   -5.240; -700.032; -566.942
755.576;   -0.987; -606.032; -576.942
755.837;  -13.560; -527.032; -695.942
756.097;    5.992; -530.032; -564.943
756.358;  -44.306; -725.032; -770.943
756.618;  -19.654; -705.031; -641.943
756.879;   36.898; -254.031; -349.944
757.139;  -97.949;-1098.031;-1116.944
757.400;  -42.172; -538.031; -553.945
757.660;   17.355; -365.031; -401.945
757.920;   49.957; -266.030; -228.945
758.181;   21.859; -468.030; -351.946
758.441;  -64.438; -870.030; -809.946
758.701;  -11.661; -308.030; -215.946
758.961;    0.516; -220.030; -278.947
759.222;  -35.382; -574.029; -502.947
759.482;  -69.330; -683.029; -723.948
759.742;  -61.703; -706.029; -547.948
760.002;   12.850;  -83.029; -143.948
760.262;   22.527;   50.972;  182.051
760.522;  -17.771; -498.028; -574.949
760.782;  -44.594; -738.028; -612.949
761.042;  -39.267; -618.028; -573.950
761.302;   67.510;   55.972;  -18.950
761.562;   57.388; -164.027; -154.951
761.822;  144.240; -710.027; -551.951
762.082;  -14.733;-1104.027;-1093.951
762.342;   81.369; -328.027; -403.952
762.601;   92.146; -567.027; -506.952
762.861;  462.524; -281.026; -207.952
763.121;  417.676; -406.026; -411.953
763.381; 6653.278; -499.026; -485.953
763.640; 9052.955; -139.026; -307.954
763.900;  384.007; -242.026; -203.954
764.160;  109.459; -458.025; -491.954
764.419;    2.312; -726.025; -782.955
764.679;  -43.786; -795.025; -726.955
764.939;   -2.809; -124.025; -210.955
765.198;  -63.257; -608.025; -563.956
765.458;  -92.180; -710.024; -612.956
765.717;  -85.953; -454.024; -590.957
765.976;  -53.350; -428.024; -411.957
766.236;  -66.648; -475.024; -610.957
766.495;   19.954;  260.977;   73.042
766.755;  -50.819;-1090.023; -987.958
767.014;   69.333; -594.023; -665.958
767.273;  -48.239; -373.023; -397.959
767.533;  -42.987; -228.023; -307.959
767.792;   -8.760; -151.022; -188.960
768.051;  -57.808; -228.022; -276.960
768.310;  -78.006; -546.022; -650.960
768.569;   -6.279; -161.022;    4.039
768.828;  -16.951; -285.022; -363.961
769.088;  -89.099;-1050.021; -942.961
769.347;  -61.622; -755.021; -599.962
769.606;  -60.395; -876.021; -857.962
769.865;  -96.668;-1016.021;-1033.963
770.124;    3.534; -411.021; -336.963
770.383;  -23.088; -778.020; -910.963
770.641;   43.764; -398.020; -400.964
770.900;  -45.459; -953.020; -846.964
771.159;  -25.207; -851.020; -951.964
771.418;    4.570; -917.020; -779.965
771.677;  141.148; -224.019; -293.965
771.936;  174.850; -794.019; -865.966
772.194; 1973.102; -465.019; -437.966
772.453;12720.154; -213.019; -391.966
772.712;  996.681;  416.982;  329.033
772.970;  144.433;   32.982;   63.033
773.229;   96.836;  -22.018;  102.033
773.488;  -76.962; -814.018; -770.968
773.746;   62.290;  296.982;  335.032
774.005;    9.417;  190.983;  -22.969
774.263;   12.844;  243.983;  177.031
774.522;  -37.654; -422.017; -548.969
774.780;  -65.776; -484.017; -417.970
775.039;  -84.849; -551.017; -531.970
775.297;  -30.922; -135.016; -351.970
775.555; -102.820; -489.016; -612.971
775.814; -116.368; -618.016; -570.971
776.072; -111.340; -749.016; -740.971
776.330; -108.588; -630.016; -520.972
776.589; -111.536; -703.015; -721.972
776.847; -121.434; -645.015; -624.973
777.105; -160.932;-1016.015;-1032.973
777.363;  -80.205; -459.015; -454.973
777.621; -123.477; -660.015; -717.974
777.879;  -17.725;  -42.014;   32.026
778.138;  -94.923; -554.014; -717.974
778.396; -101.471; -585.014; -526.975
778.654; -158.344;-1015.014; -970.975
778.912;  -87.867; -269.014; -371.976
779.170; -123.864; -880.013; -803.976
779.427; -147.687; -922.013; -897.976
779.685; -111.585; -880.013; -832.977
779.943;  -54.933; -654.013; -593.977
780.201; -140.606; -964.012; -883.978
780.459;  -98.878; -651.012; -610.978
780.717;  -77.451; -440.012; -390.978
780.974;  -96.249; -449.012; -490.979
781.232;  -64.647; -358.012; -338.979
781.490;  -53.895; -551.011; -472.979
781.747;  -85.868; -555.011; -476.980
782.005;   22.110;  462.989;  254.020
782.263; -151.713; -542.011;-1004.981
782.520;  -70.361; -326.011; -501.981
782.778; -148.284;-1013.010;-1051.981
783.035; -160.432; -962.010; -938.982
783.293;  -55.779; -248.010; -206.982
783.550;  -67.652; -134.010; -198.982
783.808; -121.750; -764.010; -776.983
784.065; -153.598; -745.009; -874.983
784.322;  -35.496;   25.991;  -86.984
784.580; -127.294; -915.009; -771.984
784.837;  -84.616; -392.009; -466.984
785.094; -119.789; -783.009; -762.985
785.352;  -65.087; -304.008; -404.985
785.609;  -74.060; -934.008; -839.985
785.866;  -69.233; -345.008; -401.986
786.123;  -38.281; -639.008; -583.986
786.380;  -82.978; -665.008; -604.987
786.637;  -35.326; -225.007; -380.987
786.895;   28.726; -456.007; -543.987
787.152;  -35.022; -135.007; -267.988
787.409;  -45.670; -123.007; -225.988
787.666;  -73.067; -299.006; -378.988
787.923;  -89.165; -616.006; -695.989
788.179;  -97.413; -551.006; -584.989
788.436;  -95.386; -585.006; -585.990
788.693;  -39.084;  -92.006;  -87.990
788.950;  198.843; -125.005; -112.990
789.207;  429.671; -381.005; -372.991
789.464;  -29.202; -161.005; -301.991
789.720;   -7.275;  150.995;  110.009
789.977; -139.823;-1003.005; -671.992
790.234;  -38.646;   44.996;  -66.992
790.490; -133.594; -884.004;-1031.993
790.747;  -15.841;  -85.004;   22.007
791.004;   -7.914; -426.004; -348.993
791.260;  -58.837; -430.004; -560.994
791.517;  -84.660; -843.003; -788.994
791.773;  -26.183; -379.003; -342.994
792.030;  -92.680; -596.003; -660.995
792.286;  -86.378; -686.003; -636.995
792.543;  -15.751;  -74.002; -159.995
792.799;  -42.874; -584.002; -382.996
793.055; -127.697;-1179.002;-1210.996
793.312;  -80.870; -827.002; -816.997
793.568;  -58.592; -746.002; -599.997
793.824;    7.435; -226.001; -284.997
794.081;   22.387; -447.001; -508.998
794.337;   83.214; -664.001; -561.998
794.593; 1135.366; -319.001; -271.999
794.849; 7435.743; -746.001; -772.999
795.105;  478.796; -270.000; -261.999
795.361;   25.073; -490.000; -457.000
795.617;  -44.675; -875.000; -945.000
795.873;  -47.300; -360.000; -407.000
796.129;  -26.200; -368.000; -306.000
796.385;   -3.625; -124.000; -156.000
796.641;   70.500;  412.000;  550.000
796.897;  -77.450; -666.000; -635.000
797.153;   61.950;  453.000;  357.000
797.409;  -88.975; -785.000; -868.000
797.665;  -57.975; -625.000; -732.000
797.921;  -54.025; -775.000; -762.000
798.176;  -34.000; -744.000; -747.000
798.432;  -26.250; -824.000; -596.000
798.688;  -48.250;-1174.000;-1078.000
798.943;   95.775; -165.000; -147.000
799.199;   42.000;-1005.000; -959.000
799.455;  254.675;  369.000;  316.000
799.710;  185.775; -813.000; -380.000
799.966;  352.100; -162.000; -160.000
800.221;  559.650; -638.000; -721.000
800.477;10976.100; -743.000; -710.000
800.732;12731.050; -773.000; -800.000
800.988;  761.500;  205.000;  -19.000
801.243; 1445.800; -454.000; -344.000
801.498; 7898.400; -814.000; -739.000
801.754;  554.850; -289.000; -163.000
802.009;   99.700; -257.000; -335.000
802.264;  -17.925; -967.000;-1033.000
802.520;   39.650;  222.000;   -3.000
802.775;  -42.900; -524.000; -359.000
803.030;   43.125;  395.000;  356.000
803.285;  -95.450; -840.000; -903.000
803.540;  -46.975; -686.000; -699.000
803.795;   -8.200; -648.000; -583.000
804.051;  -42.425; -279.000; -346.000
804.306;   34.100;  168.000;  128.000
804.561;  196.875;  451.000;  362.000
804.816;  135.425;  714.000;  861.000
805.071;   12.425; -185.000; -280.000
805.325;  353.875; -257.000; -427.000
805.580;  -73.550; -841.000; -877.000
805.835;  -18.250; -204.000; -297.000
806.090;  -62.075; -760.000; -676.000
806.345;   -6.575; -344.000; -264.000
806.600;   -6.500; -549.000; -632.000
806.854;   -7.175; -408.000; -538.000
807.109;   -2.950; -493.000; -577.000
807.364;   15.475; -407.000; -328.000
807.618;   17.000; -415.000; -381.000
807.873;   96.650; -470.000; -494.000
808.128;  149.050; -257.000; -518.000
808.382;  170.225; -224.000; -332.000
808.637;  116.350; -440.000; -511.000
808.891;  228.375; -257.000; -180.000
809.146;  147.025; -902.000; -794.000
809.400;  358.600; -848.000; -923.000
809.654;  421.075; -779.000; -551.000
809.909;  589.950; -841.000; -927.000
810.163; 7003.675; -813.000; -651.000
810.418;23905.875; -940.000; -861.000
810.672; 1452.575; -685.000; -690.000
810.926;  744.875; -993.000; -973.000
811.180; 1282.175; -439.000; -372.000
811.434;26694.550;  240.000;  135.000
811.689;14241.300; -231.000; -365.000
811.943;  738.250; -936.000; -953.000
812.197;  333.000; -893.000; -671.000
812.451;  141.925; -379.000; -514.000
812.705;  -14.625; -809.000; -619.000
812.959;   -7.050; -263.000; -388.000
813.213;    2.875; -283.000; -209.000
813.467;   74.575;  470.000;  253.000
813.721;  -86.825; -764.000; -792.000
813.975;  -96.250; -826.000; -877.000
814.229;   51.300;  430.000;  353.000
814.482;  -52.150; -517.000; -566.000
814.736; -118.050; -766.000; -744.000
814.990; -117.025; -779.000; -872.000
815.244;  -47.150; -228.000; -285.000
815.497;  -80.800; -636.000; -601.000
815.751;  -15.525; -141.000;   82.000
816.005;  -72.475; -470.000; -586.000
816.258;  -62.675; -510.000; -363.000
816.512;  -98.275; -693.000; -610.000
816.766;    1.100;  121.000;  157.000
817.019;   30.300;  148.000;  149.000
817.273;  -89.275;-1000.000; -802.000
817.526;  -22.950; -206.000; -173.000
817.779;   16.550;-1049.000; -960.000
818.033;   -6.650; -693.000; -807.000
818.286; -105.775; -725.000; -792.000
818.540;  -80.325; -403.000; -403.000
818.793;  -83.150; -402.000; -489.000
819.046;  -94.475; -582.000; -520.000
819.299;  -36.425; -157.000; -166.000
819.553; -106.350; -552.000; -592.000
819.806; -154.925;-1016.000; -838.000
820.059;  -58.500; -334.000; -354.000
820.312;   29.600;  152.000;  185.000
820.565;   -0.250;  110.000;  -27.000
820.818;  -45.000;  -59.000; -173.000
821.071; -146.525;-1041.000; -957.000
821.324; -106.650; -536.000; -540.000
821.577; -103.600; -457.000; -483.000
821.830;  -58.775; -270.000; -172.000
822.083; -121.875; -733.000; -288.000
822.336;  -45.975; -261.000; -167.000
822.589; -116.300; -805.000; -688.000
822.842; -141.050; -875.000; -770.000
823.094; -167.825;-1076.000;-1114.000
823.347; -120.600; -925.000; -729.000
823.600;   21.200;  402.000;  187.000
823.853;  -53.375; -311.000; -267.000
824.105;  -64.000; -331.000; -575.000
824.358;  -95.100; -617.000; -716.000
824.611;   55.525;  234.000;   40.000
824.863;  -32.150; -612.000; -591.000
825.116;   70.725;  -33.000;   27.000
825.368;  135.650; -366.000; -372.000
825.621;  271.100; -186.000; -240.000
825.873;  162.100; -704.000; -737.000
826.126;  641.050; -669.000; -641.000
826.378;13872.050; -389.000; -505.000
826.630; 4726.800; -890.000; -898.000
826.883;  131.350; -754.000; -693.000
827.135;   96.725; -279.000; -270.000
827.387; -101.150; -893.000; -839.000
827.639;  -13.450;  -86.000;   32.000
827.892; -110.175; -742.000; -582.000
828.144; -130.350; -848.000; -804.000
828.396;  -30.475;  104.000;  -80.000
828.648;  -84.825; -440.000; -333.000
828.900; -141.000; -702.000; -795.000
829.152; -102.325; -684.000; -683.000
829.404;  -69.800; -215.000; -267.000
829.656;  -11.725;  321.000;  214.000
829.908;  -17.350;  393.000;  229.000
830.160; -160.525;-1064.000;-1047.000
830.412;  -83.400; -481.000; -430.000
830.664; -114.550; -557.000; -665.000
830.916;  -81.225; -268.000; -206.000
831.167; -165.475;-1073.000; -951.000
831.419; -103.775; -623.000; -566.000
831.671; -135.975; -764.000; -809.000
831.923;  -88.300; -311.000; -447.000
832.174;  -69.575; -273.000; -331.000
832.426; -110.550; -493.000; -582.000
832.678; -163.800;-1043.000;-1091.000
832.929; -162.150; -947.000; -935.000
833.181;  -19.425; -575.000; -677.000
833.432;  -48.000;  -59.000; -186.000
833.684;  -20.225;  112.000;  -27.000
833.935; -114.725; -610.000; -566.000
834.187; -118.625; -829.000; -823.000
834.438;  -48.750;  -58.000;  -25.000
834.689;  -60.375; -255.000; -123.000
834.941;  -50.775; -343.000; -244.000
835.192;  -85.450; -590.000; -533.000
835.443;  -89.425; -419.000; -506.000
835.695;   -5.850;  138.000;  -16.000
835.946;  -97.175; -608.000; -378.000
836.197; -101.125; -599.000; -622.000
836.448;  -75.250; -528.000; -395.000
836.699;  -55.300; -253.000; -341.000
836.950;    9.075;   72.000;    7.000
837.201; -132.825;-1003.000; -987.000
837.452;  -31.125; -356.000; -170.000
837.703;  -86.875; -791.000; -737.000
837.954;  -24.725; -205.000; -365.000
838.205;  -39.975;-1029.000;-1008.000
838.456;  284.625; -196.000; -282.000
838.707;   46.350; -423.000; -519.000
838.958;   59.550; -634.000; -647.000
839.209;  412.850;   18.000;   40.000
839.460;  181.500; -439.000; -201.000
839.710;  235.800; -135.000; -297.000
839.961;  546.375;  730.000;  612.000
840.212;  469.575; -382.000; -497.000
840.462; 1333.250; -328.000; -277.000
840.713;20568.675; -571.000; -536.000
840.964;11159.900;  -62.000; -143.000
841.214;  742.500; -384.000; -624.000
841.465;  747.975; -214.000; -141.000
841.715;  685.625; -417.000; -380.000
841.966;  894.350; -746.000; -685.000
842.216; 9440.400; -330.000; -431.000
842.466;46575.650; -169.000; -313.000
842.717; 3610.150; -964.000; -952.000
842.967;  458.025; -635.000; -641.000
843.217;  397.825;   20.000;   28.000
843.468;  112.750; -104.000; -132.000
843.718;   13.225; -718.000; -726.000
843.968;  -55.650; -837.000; -765.000
844.218;   63.950; -315.000; -262.000
844.469;   -5.525; -577.000; -561.000
844.719;  -76.050; -537.000; -682.000
844.969;  -81.100; -550.000; -580.000
845.219; -126.425; -814.000; -862.000
845.469;  -62.025; -392.000; -342.000
845.719; -131.200; -792.000; -884.000
845.969;  -18.150;  119.000;  174.000
846.219; -111.025; -738.000; -720.000
846.469;   17.975;  464.000;  432.000
846.718;  -40.925; -115.000;   31.000
846.968; -133.150; -827.000; -827.000
847.218;  -49.800; -224.000; -371.000
847.468;    5.950; -586.000; -555.000
847.718; -130.000; -827.000; -798.000
847.967; -124.425; -826.000; -915.000
848.217;  -64.625; -449.000; -569.000
848.467;  -47.775; -405.000; -376.000
848.716;  -86.000; -708.000; -725.000
848.966;   44.750; -372.000; -358.000
849.215;  -40.925; -428.000; -419.000
849.465;  -77.225; -785.000; -615.000
849.714; -114.875;-1132.000;-1150.000
849.964;  -45.850; -551.000; -613.000
850.213;   -4.925; -393.000; -355.000
850.463;   96.850;  137.000;  340.000
850.712;   37.325; -542.000; -567.000
850.961;   73.875; -739.000; -678.000
851.211;  181.725; -513.000; -504.000
851.460;  258.725; -635.000; -650.000
851.709;  685.525;  -25.000;   18.000
851.958;11360.575; -912.000; -750.000
852.208;18667.350; -859.000; -879.000
852.457;  782.275; -181.000;  -13.000
852.706;  137.250; -791.000; -823.000
852.955;   74.125; -507.000; -528.000
853.204;  -40.375; -521.000; -461.000
853.453;  -60.825; -418.000; -458.000
853.702; -110.850; -660.000; -750.000
853.951; -100.425; -532.000; -520.000
854.200; -106.400; -613.000; -562.000
854.449; -113.825; -695.000; -661.000
854.698;  -89.475; -340.000; -279.000
854.946;  -66.775; -181.000; -284.000
855.195; -131.150; -843.000; -868.000
855.444;  -88.425; -395.000; -420.000
855.693; -108.375; -345.000; -432.000
855.941;  -91.825; -387.000; -516.000
856.190;  -41.050; -256.000; -382.000
856.439; -114.850; -652.000; -703.000
856.687;  -55.600;  -99.000;  -72.000
856.936; -125.600; -621.000; -323.000
857.184; -169.325;-1067.000;-1020.000
857.433;  -98.200; -423.000; -512.000
857.681; -160.850; -989.000; -953.000
857.930;  -68.150; -282.000; -433.000
858.178; -161.600; -856.000; -929.000
858.427; -143.575; -802.000; -781.000
858.675; -113.825; -377.000; -544.000
858.923; -111.625; -527.000; -819.000
859.172; -175.500;-1094.000;-1070.000
859.420;  -97.850; -339.000; -239.000
859.668; -125.450; -624.000; -628.000
859.916;  -16.625;  109.000;  115.000
860.164;  -95.225; -699.000; -603.000
860.413;  440.625; -878.000; -696.000
860.661;  504.250; -709.000; -577.000
860.909;  -68.700; -339.000; -325.000
861.157;  -71.275; -277.000; -444.000
861.405; -121.925; -534.000; -670.000
861.653;   22.100;  310.000;  310.000
861.901;  273.275; -543.000; -613.000
862.149;  128.700; -801.000; -824.000
862.396;  -63.500; -297.000; -187.000
862.644;  -82.750; -368.000; -347.000
862.892;  -54.850;   98.000;  138.000
863.140; -104.175; -549.000; -530.000
863.388; -140.225; -815.000; -759.000
863.635; -130.375; -642.000; -601.000
863.883;  -12.425;  231.000;  190.000
864.131;  -91.650; -288.000; -357.000
864.378; -130.975; -675.000; -540.000
864.626;  -84.500; -347.000; -415.000
864.873; -120.875; -556.000; -505.000
865.121; -126.050; -714.000; -799.000
865.368;  -68.475; -173.000;   75.000
865.616;  -34.550;  -33.000;  -40.000
865.863;  -70.725; -462.000; -506.000
866.111; -103.500; -795.000; -824.000
866.358;   34.625; -426.000; -420.000
866.605; 2112.875;  -64.000; -804.000
866.853; 2915.825; -621.000; -537.000
867.100;    3.775; -728.000; -775.000
867.347;  -76.300; -672.000; -611.000
867.594;  -66.500; -740.000; -714.000
867.841;  145.300;   97.000;   17.000
868.089; -135.350; -746.000; -698.000
868.336; -111.850; -477.000; -420.000
868.583; -146.400; -637.000; -741.000
868.830;  -58.325; -131.000; -170.000
869.077; -140.750; -859.000; -787.000
869.324; -126.200; -502.000; -458.000
869.571; -113.950; -398.000; -430.000
869.818; -114.900; -485.000; -439.000
870.065;  -86.400; -439.000; -513.000
870.311; -107.075; -456.000; -542.000
870.558; -107.850; -332.000; -311.000
870.805;  -93.675; -320.000; -384.000
871.052; -102.950; -494.000; -369.000
871.298;  -46.675; -204.000; -131.000
871.545;  -63.950; -151.000; -185.000
871.792;  -89.275; -173.000; -222.000
872.038;  -67.825;   43.000; -126.000
872.285; -127.475; -496.000; -387.000
872.532; -111.075; -357.000; -387.000
872.778;   -3.275;  556.000;  403.000
873.025;  -98.600; -384.000; -359.000
873.271;   18.575;  501.000;  578.000
873.517;   -5.625; -133.000; -209.000
873.764;  -15.700; -193.000;  -80.000
874.010;  -57.125; -143.000; -230.000
874.257;  -43.825;  123.000;   90.000
874.503; -129.175; -579.000; -479.000
874.749;  -73.550;   31.000;  275.000
874.995;  -70.200;  -80.000;  -20.000
875.242; -127.500; -540.000; -478.000
875.488;  -99.675; -414.000; -439.000
875.734;  -48.675; -106.000; -234.000
875.980;  306.275; -872.000;-1032.000
876.226;  687.925; -157.000; -255.000
876.472;   10.400;  343.000;  237.000
876.718;  -44.475;  184.000;  158.000
876.964;  -39.500;   56.000;   55.000
877.210; -137.525; -547.000; -677.000
877.456; -124.925; -630.000; -557.000
877.702; -164.775; -821.000; -832.000
877.948; -110.775; -377.000; -497.000
878.193;   13.750;  361.000;  255.000
878.439;  -63.750; -487.000; -472.000
878.685; -100.150; -272.000; -343.000
878.931; -126.575; -618.000; -676.000
879.176;  -88.600; -201.000; -201.000
879.422; -168.025; -933.000; -820.000
879.668;   44.700;   10.000;   79.000
879.913;  254.200;   53.000;  137.000
880.159;  -55.525; -112.000;  -17.000
880.404;  -46.950; -152.000; -162.000
880.650;  -23.275;   91.000;  141.000
880.895; -147.350; -670.000; -710.000
881.141; -110.725; -454.000; -428.000
881.386; -147.400; -503.000; -658.000
881.631;  -86.950; -311.000; -166.000
881.877;  -38.600;  112.000;  -13.000
882.122; -126.800; -684.000; -600.000
882.367;  -92.900; -136.000; -186.000
882.612;  -70.775;  -80.000; -176.000
882.858; -164.625; -877.000; -823.000
883.103; -101.325; -297.000; -267.000
883.348; -146.175; -759.000; -852.000
883.593; -151.575; -677.000; -602.000
883.838;  -63.600; -311.000;  -24.000
884.083;   60.525;  353.000;  288.000
884.328;  -88.050; -564.000; -545.000
884.573;  -52.900; -196.000; -143.000
884.818;  294.650; -694.000; -531.000
885.063;  400.575; -348.000; -315.000
885.308;  -83.075; -475.000; -398.000
885.553;   -5.150;  245.000;  325.000
885.797; -134.975; -545.000; -615.000
886.042;  -61.675;    8.000;   58.000
886.287;  -81.850; -253.000; -211.000
886.532;  -53.725;   26.000;  204.000
886.776;  -99.450; -407.000; -525.000
887.021; -138.800; -621.000; -574.000
887.265; -148.050; -685.000; -689.000
887.510; -126.250; -557.000; -496.000
887.755;  -82.025; -194.000; -164.000
887.999; -141.375; -552.000; -575.000
888.244;  -69.550;  -58.000;  161.000
888.488;  -23.375;  371.000;  393.000
888.732; -129.275; -368.000; -520.000
888.977; -134.800; -622.000; -567.000
889.221; -139.150; -683.000; -659.000
889.465; -128.650; -422.000; -566.000
889.710;  -77.900;  -56.000; -299.000
889.954;   -4.250;  579.000;  467.000
890.198; -135.150; -584.000; -707.000
890.442; -158.025; -716.000; -712.000
890.687; -168.800; -800.000; -753.000
890.931;  -86.800; -273.000; -210.000
891.175; -132.775; -502.000; -500.000
891.419;  -74.650; -105.000; -110.000
891.663; -101.825; -239.000; -112.000
891.907; -170.600; -801.000; -545.000
892.151; -170.850; -920.000; -815.000
892.395; -115.100; -274.000; -387.000
892.638;  -40.100;  408.000;  291.000
892.882; -179.350; -780.000; -867.000
893.126;   10.400;  758.000;  558.000
893.370;  -95.325; -167.000; -168.000
893.614; -138.925; -714.000; -715.000
893.857; -115.300; -183.000; -197.000
894.101; -123.175; -527.000; -631.000
894.345;  -53.450;  300.000;  150.000
894.588;   15.550;  569.000;  380.000
894.832;  -81.775; -178.000;  -84.000
895.075;  -88.125;   15.000;  -92.000
895.319; -143.900; -552.000; -420.000
895.563; -120.125; -413.000; -353.000
895.806; -135.325; -628.000; -741.000
896.049;  -44.125; -576.000; -368.000
896.293;  147.800;  527.000;  405.000
896.536;  -16.075; -465.000; -468.000
896.779;  -44.900; -149.000;   -1.000
897.023; -118.750; -751.000; -714.000
897.266;  -43.925;  325.000;  269.000
897.509; -183.225; -900.000; -901.000
897.752;  -62.775;  149.000;  171.000
897.996; -189.975; -972.000; -864.000
898.239;  -48.750;  168.000;  102.000
898.482; -131.325; -431.000; -453.000
898.725;  -37.475;  101.000;   53.000
898.968; -149.150; -609.000; -744.000
899.211; -104.200; -513.000; -361.000
899.454;  -91.375; -633.000; -539.000
899.697;  -60.375;   90.000;  -43.000
899.940; -159.225; -761.000; -757.000
900.182; -102.450; -335.000; -405.000
900.425;  -91.750; -150.000; -298.000
900.668;  -29.950;  491.000;  350.000
900.911; -107.825; -292.000; -345.000
901.154;  -60.950;  141.000;   -3.000
901.396; -130.400; -407.000; -412.000
901.639; -138.075; -430.000; -496.000
901.882; -179.375; -790.000; -809.000
902.124;  -77.775;  -29.000; -143.000
902.367; -125.125; -315.000; -361.000
902.609; -141.000; -476.000; -453.000
902.852;  -92.000; -108.000; -260.000
903.094; -126.175; -458.000; -337.000
903.337;  -59.425;  -26.000;   53.000
903.579; -120.575; -228.000; -441.000
903.821; -151.175; -597.000; -744.000
904.064;  -62.100;   85.000;  127.000
904.306;  -79.925; -126.000; -166.000
904.548;  -97.925; -152.000; -366.000
904.790;  -95.975; -195.000; -340.000
905.033; -112.575; -625.000; -577.000
905.275; -130.300; -513.000; -524.000
905.517;   44.675;  468.000;  256.000
905.759;  -12.500; -667.000; -761.000
906.001;  -79.275; -322.000; -369.000
906.243;  -32.500; -162.000; -224.000
906.485;  193.000; -265.000; -207.000
906.727;  258.725; -499.000; -542.000
906.969;    7.700;  -30.000; -135.000
907.211;  223.300; -316.000; -382.000
907.453;  467.875; -188.000; -237.000
907.695;   97.625; -158.000; -385.000
907.936;   52.225;  818.000;  706.000
908.178;  -43.150;   92.000; -135.000
908.420;  -69.550; -111.000; -162.000
908.662; -138.150; -633.000; -682.000
908.903;  -91.075; -208.000; -123.000
909.145;  -57.475; -240.000; -305.000
909.386;   -1.225;  315.000;  280.000
909.628;   35.125;  363.000;  397.000
909.870;   -4.350;   29.000;  264.000
910.111;  -87.000; -809.000; -949.000
910.353;   25.900; -123.000; -161.000
910.594;    9.200; -574.000; -606.000
910.835;   83.200; -265.000; -326.000
911.077;  170.550; -503.000; -604.000
911.318;  295.225; -505.000; -471.000
911.559;  483.700; -577.000; -880.000
911.801; 1252.850; -284.000; -280.000
912.042; 9210.575;  -50.000; -159.000
912.283;28672.150;  404.000;  371.000
912.524; 5752.825; -396.000; -457.000
912.765;  590.100; -193.000;   79.000
913.006;  291.600; -307.000; -338.000
913.247;   73.825; -270.000; -290.000
913.488;    9.000;  -43.000;   30.000
913.729;  -74.675; -373.000; -373.000
913.970;  -50.750;  -96.000; -292.000
914.211;  -70.175; -160.000; -198.000
914.452;  -57.000; -118.000;  -11.000
914.693;   10.725;  510.000;  592.000
914.934;    6.775;  510.000;  440.000
915.175;  -68.075;   53.000;  -95.000
915.415;  -63.050; -137.000;   27.000
915.656;  -58.925;  -28.000;  192.000
915.897;  -91.325; -252.000;  -82.000
916.137;  -72.350;   74.000;   -9.000
916.378; -128.525; -573.000; -517.000
916.619;  -94.925; -159.000;  -63.000
916.859;  -34.675;  303.000;  330.000
917.100;  117.300; 1655.000; 1070.000
917.340;   46.775;  930.000;  728.000
917.581;   45.150;  965.000;  789.000
917.821;  -10.200; -171.000;  143.000
918.061;   61.475; -199.000;  -72.000
918.302;  -40.975; -152.000; -211.000
918.542;  -22.850;  -22.000;    3.000
918.782;   54.525;  369.000;  377.000
919.023;  187.075;  360.000;  427.000
919.263; 1467.650; 8131.000;  202.000
919.503; 1711.825; -137.000;  -54.000
919.743;  934.350;  390.000;  266.000
919.983;  499.275; -134.000;  -26.000
920.223;  130.175;  135.000;   14.000
920.463;  170.725;  631.000;  554.000
920.703;  172.650;   84.000;   39.000
920.943;  221.950; -110.000;   90.000
921.183;  295.575; -414.000; -405.000
921.423;  582.750;  307.000;  546.000
921.663;  878.025; -174.000; -257.000
921.903; 1767.650;  237.000;  173.000
922.143; 9145.900;  372.000;  389.000
922.383;38270.975;  158.000;  115.000
922.622;16942.025; -120.000;  -15.000
922.862; 1748.525;  796.000;  785.000
923.102;  622.175;  -51.000;   33.000
923.341;  272.600;   59.000;   74.000
923.581;  105.550;  450.000;  360.000
923.821;   30.500;  301.000;  398.000
924.060;   25.275;  351.000;  193.000
924.300;  -31.550;  -16.000; -128.000
924.539;   -5.425;  584.000;  473.000
924.779;   18.550;  812.000;  597.000
925.018;  -39.600;  247.000;  353.000
925.257;   -4.875;  595.000;  666.000
925.497;  -38.325;  447.000;  412.000
925.736;  -65.575;  -35.000;  102.000
925.975;   16.350;  687.000;  669.000
926.214;   32.875;  907.000;  850.000
926.454;   30.675;  706.000;  757.000
926.693;  -40.550;  419.000;  543.000
926.932;   31.450; 1021.000;  825.000
927.171;   66.525; 1107.000; 1044.000
927.410;   57.925; 1144.000;  967.000
927.649;   24.850;  924.000;  742.000
927.888;    2.950;  590.000;  564.000
928.127;    1.125;  680.000;  678.000
928.366;   32.525;  842.000;  826.000
928.605;   42.975;  831.000;  737.000
928.844;  264.550; 1451.000; 1393.000
929.083;  802.025;  770.000;  613.000
929.321;  486.600; 1335.000; 1359.000
929.560;  102.950; 1158.000; 1122.000
929.799;  -26.050;  574.000;  475.000
930.038;   78.575; 1025.000; 1394.000
930.276;  -43.925;  334.000;  397.000
930.515;   -0.950;  827.000;  681.000
930.753;   -4.850;  614.000;  589.000
930.992;  -16.275;  664.000;  717.000
931.230;   13.350;  847.000;  847.000
931.469;  167.750; 2162.000;  892.000
931.707;   69.225;  840.000;  751.000
931.946;   67.500; 1278.000; 1344.000
932.184;   62.200; 1437.000; 1175.000
932.423;   61.300; 1265.000;  963.000
932.661;   99.600; 1296.000; 1428.000
932.899;   44.300;  987.000;  821.000
933.137;   30.450;  754.000;  564.000
933.376;  174.250; 1664.000; 1335.000
933.614;  189.500; 1759.000; 1196.000
933.852;   53.825; 1357.000; 1171.000
934.090;  128.100; 1722.000; 1747.000
934.328;  113.650; 1252.000; 1457.000
934.566;   93.350; 1431.000; 1110.000
934.804;  158.850; 1263.000; 1309.000
935.042;  475.050; 1861.000; 1850.000
935.280; 1877.325; 2088.000; 2063.000
935.518; 2150.100; 2113.000; 2007.000
935.756;  470.400; 2481.000; 2316.000
935.994;  210.150; 1808.000; 1751.000
936.231;  391.400; 2890.000; 2950.000
936.469;  214.175; 2367.000; 2378.000
936.707;  172.200; 2220.000; 2167.000
936.945;  230.975; 2825.000; 2882.000
937.182;  199.000; 2679.000; 2741.000
937.420;  312.975; 3602.000; 3031.000
937.657;  453.425; 3365.000; 3478.000
937.895;  411.425; 3331.000; 3488.000
938.133;  313.000; 3540.000; 3528.000
938.370;  318.375; 3896.000; 4191.000
938.607;  387.450; 4488.000; 4205.000
938.845;  521.525; 5587.000; 5549.000
939.082;  479.525; 5387.000; 5177.000
939.320;  542.475; 5799.000; 5728.000
939.557;  635.550; 6549.000; 6491.000
939.794;  720.700; 7285.000; 7097.000
940.031;  909.350; 8421.000; 8368.000
940.269; 1197.475; 9552.000; 9107.000
940.506; 1151.825;10901.000;10507.000

