
Integration time [ms]: 100.000
Averaging Nr. [scans]: 40
Smoothing Nr. [pixels]: 0
Data measured with spectrometer [name]: 2101013U2
Wave   ;Sample   ;Dark     ;Reference
[nm]   ;[counts] ;[counts] ;[counts] 

394.013;   59.900; -450.257; -315.536
394.305;  221.948; -461.258; -419.536
394.596; 1047.596; -676.269; -527.514
394.887; 2602.563; -796.268; -654.518
395.178;  996.968;  145.736;   11.476
395.470;   64.829; -210.263; -356.526
395.761;  222.353;  305.734;  394.479
396.052;  318.273; -545.284; -306.489
396.343;  332.667; -557.276; -454.503
396.634;  118.186; -200.279; -290.497
396.926;  123.535; -618.268; -565.517
397.217;  134.321;   11.725;  -17.504
397.508;   62.312; -366.273; -154.507
397.799;   57.636; -555.279; -571.497
398.090;    5.155; -973.280; -902.495
398.381;  137.999;   11.708;  -11.473
398.672;   -1.625; -585.292; -742.473
398.963;   49.242; -348.279; -373.498
399.254;  110.834;   54.709; -209.475
399.545;  -24.126;-1017.266; -883.520
399.836;   65.731; -407.277; -343.501
400.127;   50.325; -205.295; -209.468
400.418;   65.731; -423.274; -392.506
400.709;   61.793; -359.281; -333.493
401.000;   52.188; -268.291; -309.476
401.290;   94.913;  225.698;  115.545
401.581;   66.031; -166.286; -228.485
401.872;   46.373; -542.298; -486.462
402.163;   63.093; -313.296; -252.467
402.454;  108.635; -123.291; -163.475
402.744;   92.109; -844.297; -813.465
403.035;  500.140; -226.293;  -86.471
403.326;  662.478; -366.292; -384.474
403.617;  411.192;  204.701;  165.539
403.907;  255.554; -593.283; -679.490
404.198; 2315.968; -545.307; -599.446
404.489; 6051.358; -618.283; -588.491
404.779; 2109.766; -618.302; -660.456
405.070;  218.195;  -67.304; -174.451
405.360;  326.917; -259.293; -238.472
405.651;  362.902;  125.699;   98.542
405.942;  173.776;  209.714;  127.516
406.232;  306.491; -432.285; -413.487
406.523;  521.110;  641.706;  758.530
406.813;  112.978; -579.286; -644.484
407.104;  382.548;  261.708;  144.527
407.394;  206.569; -604.299; -591.462
407.685;  161.690;  336.715;  222.513
407.975;   70.807; -400.283; -382.490
408.265;  114.924; -134.289; -190.478
408.556;   78.982; -472.291; -459.475
408.846;  154.086;  474.706;  429.530
409.137;   95.857;   -1.288; -216.480
409.427;   50.490; -193.285; -271.487
409.717;   38.715; -776.273; -692.508
410.007;  130.759;    4.715; -170.486
410.298;   96.053; -360.295; -342.469
410.588;   65.838; -495.285; -510.486
410.878;   27.218; -792.287; -873.482
411.168;  116.675; -481.298; -478.463
411.459;  125.527; -295.283; -242.489
411.749;   70.205; -609.292; -507.474
412.039;   67.006; -755.289; -386.480
412.329;  210.849;   40.722;  132.501
412.619;  200.354;  -62.286; -148.485
412.909;  366.827;  639.711;  594.521
413.199;  358.756; -130.280; -251.495
413.490;  422.142;  521.710;  352.523
413.780;  142.460;-1013.279; -913.496
414.070;  327.693;  -46.276;  235.497
414.360;  408.345; -729.278; -666.498
414.650;  414.214; -726.288; -688.482
414.940;  532.109; -538.280; -441.496
415.230;  914.761;   50.712;   74.519
415.520; 5904.121;  155.730;   66.486
415.809;23331.592; -305.281; -125.493
416.099;17938.983; -388.277; -229.501
416.389; 4913.129;  435.726;  236.494
416.679; 2900.358;   91.738;   85.473
416.969;  509.223; -527.287; -503.483
417.259;  457.386;  341.721;  171.503
417.549;  695.491;  522.718;  318.508
417.838; 1598.687; -205.268; -147.518
418.128; 5224.048;  650.710;  492.522
418.418; 4371.771; -491.272; -579.509
418.708; 2981.129;    9.726;  -48.506
418.997;11096.200; -474.275; -480.505
419.287;11451.286; -733.273; -790.507
419.577;10761.401; -160.283; -123.489
419.866;35788.956; -588.277; -498.501
420.156;37080.842; -242.270;  -55.513
420.446; 6721.650; -112.263;  -26.526
420.735;  907.736; -376.271; -446.512
421.025;  853.844; 1830.722;  315.502
421.314;  730.984; -203.271; -226.512
421.604; 1647.155;   89.732;  233.484
421.893;  933.530; -705.271; -602.511
422.183;  239.850; -487.263; -461.526
422.472;  394.457;  -36.271; -107.511
422.762;  462.480; -416.266; -379.521
423.051;  252.443; -916.276; -916.503
423.341;  328.888; -491.273; -439.507
423.630;  431.186; -121.265;   15.477
423.919;  384.550;   58.725;   49.495
424.209;  357.556;  -31.263;   56.473
424.498;  492.760;   68.732;  161.483
424.787; 1084.266; -535.267; -601.518
425.077; 3293.985;   34.735;   29.478
425.366; 4820.186; -734.262; -744.528
425.655; 9599.139;  639.727;  259.493
425.945;19919.389; -313.247; -268.554
426.234;11171.159;  117.741;  300.467
426.523; 4944.314;  -86.259; -350.534
426.812; 6770.751;  107.734;  159.480
427.101; 9857.377; -127.269; -323.515
427.390;12551.521;  -55.270;  -86.514
427.680; 3041.308; -624.257; -411.538
427.969;  522.119; -330.255; -301.540
428.258;  306.625; -385.257; -477.536
428.547;  570.125;  449.728;  397.490
428.836; 1370.160; -421.253; -398.543
429.125; 1984.341; -199.259;  -72.534
429.414;  842.257; -330.251; -294.548
429.703; 3007.557; -231.251; -213.548
429.992; 8970.761; -938.250; -828.549
430.281; 5904.093; -397.264; -331.524
430.570;  594.673;  -21.252;   32.454
430.859;  606.688;  279.741;  352.466
431.148;  461.485;  636.752;  631.446
431.437;  309.397;  391.748;  367.454
431.725;  161.176; -544.257; -481.536
432.014;  120.817; -845.253; -756.545
432.303;  389.609; -149.239; -105.569
432.592;  661.750; -460.263; -178.525
432.881; 1036.286; -601.248; -437.554
433.169; 5873.345; -343.255;  -61.540
433.458;11986.092;  445.765;  540.424
433.747; 5072.617; -397.261; -289.529
434.036;  946.810; -275.242; -280.564
434.324; 2052.348; -395.249; -379.551
434.613; 3531.679;   40.757;  159.437
434.902; 1199.999;  333.760;  439.433
435.190;  663.233;   75.761;  295.431
435.479;  384.886;  -52.245;   83.441
435.767;  128.569; -411.244; -427.561
436.056;  228.006; -340.242; -294.563
436.345;  377.752; -372.240; -223.568
436.633;  391.768;   60.750;  383.450
436.922;  310.479;  208.760;  414.432
437.210;  705.933; -194.236;    1.426
437.499; 2337.941; -583.235; -432.576
437.787; 2568.607; -339.236;  -10.574
438.075;  626.138;   56.761;  162.430
438.364;  822.641;  -44.238;  250.429
438.652;  521.769; -286.226; -138.592
438.941;  161.559;    3.770;  269.415
439.229;   15.970; -665.252; -466.545
439.517;   53.124; -160.234;  -85.577
439.806;    0.685; -501.225; -290.595
440.094;  186.806;  377.766;  650.421
440.382;  215.560; -653.233; -302.580
440.670;  245.515; -361.235; -285.576
440.959;   43.502; -347.223; -170.599
441.247;   81.870; -151.229; -109.587
441.535;  121.847; -266.235;   31.423
441.823;   43.779; -497.234; -305.578
442.111;  194.149;  173.771;  327.412
442.400;  582.710; -628.245; -335.559
442.688; 1639.281; -111.234; -620.579
442.976; 1218.288; -786.213; -450.617
443.264;  117.941; -324.224; -364.597
443.552;  104.420; -258.226;   51.408
443.840;  185.646;  602.765;  876.423
444.128;  125.459;  265.767;  269.420
444.416;   18.727; -694.228; -312.588
444.704;   18.356; -465.219;  -92.605
444.992;   88.498;   -0.226;  240.407
445.280;   55.184; -517.230;  -94.585
445.568;   57.492; -694.212; -396.618
445.856;  393.590; -174.221;  357.398
446.143;  927.202;  -54.220;   -7.604
446.431;  739.580;  -25.228;  625.411
446.719;  268.575;  489.783;  675.391
447.007;  193.954;  481.769;  705.416
447.295;  189.349;  597.777;  871.402
447.583;   97.268; -464.229;  -34.587
447.870;  166.437; -434.221; -202.601
448.158;  457.108; -104.230;  129.415
448.446;  367.703; -800.219; -338.604
448.733;  172.793;   13.776;  269.403
449.021;  273.291;   60.788;  341.382
449.309;  192.006; -296.210;  208.379
449.596;  203.546;  128.783;   59.392
449.884;  148.381; -571.222; -325.600
450.172;  142.361; -756.227; -406.590
450.459;  419.772;  645.786;  780.387
450.747; 2246.120; -411.218; -147.608
451.034; 7170.931;  493.772;  889.411
451.322; 5882.750; -413.214; -170.614
451.609;  512.419;  292.777;  508.403
451.897;  570.843; -550.203; -183.634
452.184; 1697.499; -622.223; -400.598
452.472; 1646.402;   97.792;  269.375
452.759;  364.804;  512.781;  864.395
453.047;  118.489; -407.212; -125.617
453.334;   93.937; -732.219; -216.606
453.621;  103.302; -438.214; -161.615
453.909;  114.560;   13.796;  384.368
454.196;  116.455; -299.199; -123.641
454.483;  215.556;  317.798;  540.364
454.771;  128.430; -215.208;  196.374
455.058;   31.009; -316.207;  102.374
455.345;   92.134;   71.807;  344.347
455.632;   85.412; -128.207;  235.373
455.919;   61.377;  -82.196;  182.354
456.207;  -49.715; -774.198; -450.642
456.494;   -3.007; -475.200;  -66.639
456.781;    8.377; -399.202; -198.635
457.068;   67.143; -253.206;  -29.628
457.355;   -0.031; -698.206; -401.629
457.642;    2.575; -552.205; -290.630
457.929;   11.451; -778.194; -417.651
458.216;   48.989; -575.212; -354.617
458.503;  230.030; -173.193;  -19.652
458.790;  207.028; -864.208; -630.625
459.077;  261.032;  -77.202;  110.364
459.364;  770.344; -350.195; -210.649
459.651; 1605.866;  -46.206;  220.372
459.938;  743.769; -864.209; -665.623
460.225;  157.435;  132.799;  276.363
460.512;  -35.326; -836.197; -688.645
460.799;  110.894;  -32.218;  320.392
461.086;   74.947; -370.200; -251.640
461.372;   44.835; -509.198; -279.642
461.659;  125.228; -165.196;  108.354
461.946;   60.879; -445.193;  -54.651
462.233;  250.370;  842.800;  888.361
462.519;  339.892; -814.201; -464.639
462.806;  980.050; -768.197; -497.645
463.093;  843.224; -445.191;  -66.656
463.380;  -29.460; -920.186; -824.664
463.666;   49.902; -259.197;  -18.646
463.953;  102.714; -406.195; -243.648
464.239;  189.889; -173.195;  -77.648
464.526;  401.024;  413.806;  743.350
464.813;  357.936; -565.190; -304.658
465.099;  363.855;  606.807;  607.348
465.386;  344.059;  903.807;  921.348
465.672;   41.000; -694.197; -522.645
465.959;   31.378; -598.188; -520.662
466.245;   12.709; -468.193; -359.652
466.532;  102.786; -109.195;   63.352
466.818;   63.190; -357.186; -216.664
467.104;    4.804; -488.182; -415.672
467.391;  -18.363; -628.189; -459.658
467.677;   40.693; -289.186;    9.335
467.964;    3.194; -682.189; -471.660
468.250;   77.896; -331.186; -160.665
468.536;   89.139;   90.811;  180.341
468.822;  -35.318; -821.184; -574.668
469.109;  156.234;  351.827;  471.311
469.395;  191.593;  729.808;  787.346
469.681;  190.317;   46.811;  156.341
469.967; 1167.096; -699.188; -382.660
470.254; 2578.329; -494.188; -306.662
470.540; 1660.052; -601.196; -476.646
470.826;  231.415; -488.181; -397.675
471.112;  281.011;  288.816;  113.331
471.398;   79.490; -253.183;  -58.670
471.684;   44.568; -626.177; -447.680
471.970;  -11.806; -918.180; -981.675
472.256;   23.942; -521.192; -441.654
472.542;   31.494; -499.171; -434.691
472.828;   10.725; -743.182; -607.672
473.114;   20.487; -380.166; -283.700
473.400;   15.959; -504.175; -293.684
473.686;   28.194; -452.166; -400.701
473.972;   64.524; -230.174; -131.687
474.258;  -46.366; -925.173; -843.689
474.544;  170.560; -183.178;   -2.679
474.830;  288.486;  -65.175;   45.316
475.116;  420.837; -123.190; -196.658
475.401;  599.146; -558.180; -467.676
475.687;  191.545; -725.180; -718.676
475.973;   20.283; -673.181; -770.673
476.259;  239.763;  736.825;  764.315
476.544;  349.751; -539.176; -437.682
476.830;  761.141; -398.172; -322.690
477.116;  651.400; -430.177; -336.682
477.401;  128.321;  346.820;  358.324
477.687;  -12.566; -289.175; -405.684
477.973;   29.186;   21.819;   28.326
478.258;   -2.436; -448.163; -348.706
478.544;   59.401;   21.815;   61.334
478.829;  -39.625; -818.171; -738.692
479.115;  -35.810; -749.172; -651.690
479.401;   -0.906; -444.174; -449.686
479.686;   39.369; -253.180;  -74.676
479.972;  -27.185; -886.178; -776.680
480.257;   24.689; -258.166;  -65.700
480.542;   -4.346; -614.170; -469.693
480.828;  227.033; 1288.824; 1392.317
481.113;  -44.620; -464.176; -426.683
481.399;   -5.663; -236.161; -202.711
481.684;  -42.512; -620.166; -462.700
481.969;   14.150; -158.159;  -73.713
482.255;   -6.461; -439.169; -285.695
482.540;   13.165; -569.178; -441.680
482.825;   -1.265; -395.187; -404.663
483.110;   96.442;  -85.169; -105.696
483.396;  168.522; -840.157; -652.718
483.681;  458.774;  543.826;  730.313
483.966;  143.269; -696.160; -700.712
484.251;   17.098; -404.174; -310.687
484.536;   10.749; -356.165; -378.703
484.822;   13.526; -205.173; -218.687
485.107;  -40.291; -599.152; -502.726
485.392;  121.404;  662.836;  541.296
485.677;   83.627;  354.832;  163.302
485.962;  110.244;  160.843;  270.283
486.247;  100.996;  -14.162;   -8.707
486.532;   46.565; -178.166; -325.701
486.817;  166.381;  381.839;  431.291
487.102;  120.992; -453.154; -514.722
487.387;  603.198; -637.156; -652.718
487.672; 1062.909; -154.164;  -38.705
487.957;  678.414; -394.160; -286.711
488.241;  223.101; -290.150; -314.729
488.526;  688.535; -280.152; -148.726
488.811; 1112.167; -881.177; -818.680
489.096;  824.270; -666.154; -702.723
489.381;  460.857;    3.847;  162.275
489.666;  353.212; -428.161; -510.710
489.950;  167.173;  558.846;  627.277
490.235;  -23.379; -480.151; -458.728
490.520;  -40.539; -756.161; -723.710
490.804;  -72.475; -827.156; -736.719
491.089;   -3.834; -469.149; -299.732
491.374;   32.733; -132.164;  -75.704
491.658;   -3.198; -817.147; -717.735
491.943;  197.265; -657.152; -609.727
492.227;  287.363; -178.155;  -38.721
492.512;   70.794; -294.157; -341.717
492.797;  -60.490; -713.149; -716.731
493.081;  -54.470; -588.147; -598.735
493.366;  -48.138; -751.161; -635.711
493.650;  196.307;  831.859;  917.254
493.935;   15.402; -648.147; -447.734
494.219;  -26.330; -778.142; -687.743
494.503;  -40.670; -585.150; -487.730
494.788;   53.235;   46.842;   74.285
495.072;   98.577;  184.850;  434.271
495.356;  146.044; -463.148; -343.733
495.641;  466.637; -812.146; -736.736
495.925;  451.430; -976.156; -903.719
496.209;   32.190; -599.149; -451.732
496.494;  -42.855; -763.142; -544.744
496.778;   15.592; -364.154; -360.722
497.062;  -59.495; -819.156; -627.719
497.346;  -40.035; -869.160; -640.711
497.631;  130.548;  580.852;  560.266
497.915;   71.772;  -64.145;  175.261
498.199;   55.597; -341.157; -277.718
498.483;   23.609; -562.152; -508.725
498.767;  176.803;  301.850;  300.271
499.051;  172.113; -126.149; -100.732
499.335;   26.986; -693.149; -739.731
499.619;  -31.493; -381.129; -423.767
499.903;   35.662; -272.155;  -65.721
500.187;   35.774; -588.153; -316.724
500.471;   28.264; -796.152; -595.727
500.755;  110.036;   62.839;  -96.710
501.039;   23.862; -270.155; -357.721
501.323;   91.334;  -21.141;  264.254
501.607;   34.764; -447.163; -503.706
501.891;    1.773; -607.156; -512.718
502.174;  -20.317; -726.144; -585.741
502.458;   78.068;   89.849;  370.273
502.742;   45.058; -180.138; -191.751
503.026;   98.801; -412.147; -254.734
503.310;  159.924; -437.159; -375.713
503.593;  101.928; -464.147; -325.735
503.877;  123.272; -232.133; -156.760
504.161;  190.377;    2.847;  -50.724
504.444;  129.513; -841.158; -710.716
504.728;  415.607; -487.164; -522.704
505.012;  666.000; -257.150;  -76.729
505.295;  532.337; -417.161; -212.711
505.579;  499.680; -256.156; -496.719
505.862;  673.593; -555.145; -333.738
506.146;  676.902; -681.159; -758.714
506.429;  380.427;  568.841;  461.286
506.713;   49.722; -732.151; -667.728
506.996;  297.767;   90.846;  295.278
507.280;  311.102; -633.165; -474.703
507.563;  211.811; -469.155; -261.721
507.847;   81.950; -423.153; -112.724
508.130;   78.913; -665.161; -456.711
508.413;   99.459; -758.167; -577.700
508.697;  210.785; -151.167;   12.300
508.980;  123.077; -422.153; -312.724
509.263;    7.082; -466.155; -450.720
509.547;   31.050; -124.150;   82.271
509.830;   38.290; -172.160;  140.289
510.113;   96.179;  128.844;  298.281
510.396;   38.857; -530.152; -300.725
510.680;  190.945; -818.145; -812.738
510.963;  757.596;  184.846;  180.277
511.246;  654.082; -493.150; -357.730
511.529;  274.474; -482.145;  -83.739
511.812;  362.819; -250.134;   10.241
512.095;  244.119; -740.151; -396.728
512.378;   72.957; -317.147; -245.736
512.661;   21.815; -703.137; -623.753
512.944;   24.172; -750.142; -637.744
513.227;   62.462; -170.137; -171.752
513.510;   21.458; -479.144; -671.741
513.793;   40.038; -485.140; -435.747
514.076;  125.452;  -43.127;  -39.771
514.359;  101.466; -294.149; -135.732
514.642;   68.550; -442.142; -567.744
514.925;  688.312;  581.860;  561.253
515.208;  925.015; -498.134; -443.758
515.491;  606.254; -276.133; -182.761
515.773;  336.761; -410.143; -337.742
516.056; 1941.571;  249.864;  409.246
516.339; 2646.800; -754.136; -652.755
516.622; 1972.405; -518.150; -488.730
516.904; 1437.568;  882.857;  975.257
517.187;  672.336; -730.138; -523.752
517.470;  398.242; -568.143; -510.743
517.752;  414.378; -624.136; -470.756
518.035;  305.724; -708.139; -725.749
518.318;  339.450; -799.136; -744.755
518.600; 2198.482; -300.132; -325.762
518.883; 3060.624;  310.858;   88.256
519.165; 1465.354; -585.138; -426.751
519.448;  400.857;  -61.132;  -19.762
519.730;  210.885; -573.126; -415.773
520.013;  310.625;  588.867;  664.240
520.295;  975.971;  -94.134;  -15.759
520.578; 2175.245; -335.131; -305.764
520.860; 2415.757; -254.132;   56.238
521.143; 1229.180; -763.135; -584.756
521.425;  478.572; -251.125; -279.775
521.707;  643.953; -622.127; -380.771
521.990; 1670.653; -199.127;  167.229
522.272; 1874.490; -116.140;   -4.748
522.554;  896.762; -237.143; -157.742
522.836;  398.368;  -24.134;   99.241
523.119;  244.700; -496.148; -189.734
523.401;  155.352; -448.130; -314.766
523.683;   91.716; -865.137; -693.753
523.965;  260.684;  408.862;  260.248
524.247;  276.868;   54.878;  170.220
524.529;  189.470; -451.134; -367.759
524.812;  348.278;   -3.130;  191.234
525.094;  795.008; -773.138; -631.751
525.376; 1238.181; -143.124;   78.223
525.658;  757.323; -441.136; -339.754
525.940;   -2.233; -805.131; -671.764
526.222;   35.626; -188.136;  -88.755
526.504;  129.315; -190.131;   32.237
526.786;  215.773; -960.133; -647.760
527.068;  353.687; -124.123;  -67.778
527.349;  154.069; -865.137; -774.754
527.631;  146.307; -137.132;   22.238
527.913;  112.127; -664.127; -450.771
528.195;  150.641; -761.125; -639.774
528.477;  220.865;  -93.134;  -30.758
528.759;   99.503; -648.130; -522.766
529.040;   42.636; -569.123; -293.778
529.322;   55.518; -235.125;  -10.774
529.604;  158.331;  -47.130;   93.233
529.886;  157.610; -546.126; -302.773
530.167;  139.197;  232.870;  192.235
530.449;   38.006;    1.853;   63.265
530.731;    7.592; -572.122; -459.779
531.012;   55.913; -513.120; -216.784
531.294;   52.951; -118.116;  -43.792
531.575;  136.272;  290.875;  538.225
531.857;   39.410; -548.135; -266.757
532.138;   99.558; -113.141;   40.254
532.420;  176.557;  294.865;  403.244
532.701;  241.775; -722.133; -751.760
532.983;  386.003;  232.867;  182.239
533.264;  143.783; -243.126;  175.228
533.546;  -27.549; -491.136; -508.755
533.827;   49.947;  173.867;   -1.759
534.109;   61.885; -352.135;  -80.757
534.390;   95.711; -725.132; -582.762
534.671;  245.031; -270.135;  -82.756
534.953;  137.363; -751.123; -611.779
535.234;   17.887; -426.117; -255.789
535.515;  -85.179; -891.119; -735.785
535.796;  -14.452; -431.128; -193.770
536.078; -115.694;-1050.124; -904.777
536.359;    0.239;  -22.123;    3.221
536.640;  -19.833; -480.125; -197.774
536.921;  148.711;  225.871;  143.232
537.202;  354.105;  -87.138;  -16.751
537.483;  432.569;  251.869;  377.236
537.764;  161.047;   17.870;   98.235
538.045;  -38.460; -543.134; -371.758
538.326;  -32.513; -596.129; -447.768
538.607;   -0.496; -686.127; -476.771
538.888;  156.129;   98.879;    5.218
539.169;  165.149; -704.122; -535.781
539.450;  308.460;  236.871;   16.233
539.731;  225.533; -361.121; -182.783
540.012;  122.438;  199.880;  412.216
540.293;   90.876;   82.876;  158.224
540.574;   15.872; -895.113; -717.796
540.855;  450.932;  435.879;  377.218
541.136;  529.746;   47.878;  139.220
541.416;  257.604; -161.130; -220.766
541.697;  181.390; -274.131; -170.763
541.978;  958.884; -270.135; -315.757
542.259; 1235.953; -211.127; -236.771
542.539;  598.520; -191.116; -186.790
542.820;  198.547;  461.875;  480.225
543.101;  132.571;  -52.145;  -77.738
543.381;   37.378; -638.127; -591.771
543.662;  271.226;  159.873; -254.771
543.942;  539.774; -751.127; -830.770
544.223;  944.573;  193.878;  161.219
544.504;  648.356; -275.124; -182.777
544.784;  540.909; -592.126; -408.773
545.065; 1557.049;  104.884; -254.791
545.345; 1820.946;  227.881;   14.215
545.626; 1195.821;  -14.113; -108.796
545.906;  825.547;   77.869;   98.235
546.186;  334.464;   92.874;  -95.773
546.467;  171.733;   99.877;  -95.778
546.747;  310.445;  264.884;  327.210
547.027;  349.254;   91.876;  111.223
547.308;  293.673; -376.127; -530.770
547.588;  367.938;  299.871;  371.232
547.868;  187.198;  458.870;  588.235
548.149;  196.181;  609.885;  593.207
548.429;  118.652; -347.127; -299.771
548.709;  159.888; -645.120; -461.784
548.989;  439.881;   84.882;   88.213
549.269; 1932.256;   10.868;  139.239
549.550; 4423.112;  215.877;  117.222
549.830; 3960.964; -758.111; -556.799
550.110;  789.121; -468.110; -320.801
550.390;  771.668; -128.122;  -56.779
550.670; 1046.042; -868.114; -783.795
550.950;  734.756; -509.121; -471.782
551.230;  173.902;  549.879;  460.218
551.510;  -11.520; -381.121; -326.782
551.790;   30.379; -173.109; -127.803
552.070;  240.833;  940.877; 1181.223
552.350;  361.225; -492.119; -377.786
552.630;  540.175;   -2.121;   77.219
552.909;  341.200;  181.884;   73.209
553.189;  199.812;  -49.132;   33.237
553.469;  166.175; -703.119; -514.786
553.749;  170.180; -469.127; -357.772
554.029;  150.616;   33.883;  -24.790
554.308;  111.985; -154.115;  -37.794
554.588;   43.272; -196.128; -204.770
554.868;   49.332; -366.121;  -47.782
555.147;  138.158; -114.115;  -46.793
555.427;  529.577; -260.116; -250.792
555.707; 3572.981; -284.115; -200.793
555.986; 4243.342; -719.111; -538.800
556.266; 2281.744;   23.884;   72.210
556.546;   94.980; -888.121; -675.782
556.825;  229.640; -657.114; -556.794
557.105; 1625.845; -125.128;   17.230
557.384; 1880.198;  122.884;  187.209
557.664;  736.876; -717.116; -508.792
557.943;  107.806; -557.121; -411.782
558.222;  153.559; -345.118; -344.788
558.502;  254.009; -116.115;  -76.793
558.781;  450.630;  194.885;  499.208
559.061;  359.558; -232.118; -227.788
559.340;  265.413;  302.883;  353.211
559.619;  647.694;   93.884;  148.210
559.899;  934.840; -239.117; -266.789
560.178;  842.159; -778.115; -593.793
560.457; 2878.092; -623.117; -562.790
560.736; 4049.918; -472.111; -482.800
561.015; 2676.968; -500.128; -502.769
561.295;  342.873;  180.893;  215.193
561.574;  328.531;  119.885;  116.207
561.853;  463.883;  274.891;  303.197
562.132;  465.736;  -45.114;  182.206
562.411;  385.501;  396.879;  553.219
562.690;   99.429; -592.115; -458.792
562.969;  142.728;  472.888;  630.203
563.248;  503.223; 2966.878; 2487.219
563.527;  246.292; -290.111; -408.800
563.806;  340.577; -650.127; -521.771
564.085;  379.363; -297.105; -206.810
564.364;  204.943; -594.117; -405.790
564.643;  453.001; -276.121; -223.781
564.922; 1709.052;  221.890;  397.198
565.201; 1698.431; -640.109; -700.803
565.479;  731.653; -297.115; -219.792
565.758;  297.895; -810.128; -712.770
566.037;  441.207; -155.109; -100.803
566.316;  215.999; -286.116;  -28.791
566.595;   47.081;  -17.115;  -12.793
566.873;   91.344; -166.111;  -79.801
567.152;  -76.023; -490.113; -590.797
567.431;    2.520; -113.116;    6.210
567.709;   12.999; -344.107; -212.807
567.988;  224.739; -810.114; -769.794
568.266;  498.256; -160.115;  -68.793
568.545;  333.884; -644.100; -514.819
568.824;  543.877;  160.885;  356.208
569.102;  492.664; -351.114; -235.794
569.381;  194.752; -492.116; -407.792
569.659;  -37.226; -553.113; -553.796
569.938;   38.497; -743.122; -465.780
570.216;   91.384; -225.109; -225.804
570.494;  -38.958; -632.114; -572.795
570.773;   20.705;  202.879;  114.218
571.051;   14.636; -373.123; -357.778
571.330;   55.272; -221.113; -174.796
571.608;   19.277; -181.098; -173.823
571.886;  -65.588; -671.111; -581.799
572.164;  -68.543; -739.121; -621.782
572.443;  -52.283; -562.105; -512.811
572.721;  -34.358; -399.117; -289.790
572.999;  -28.439; -280.117; -168.788
573.277;   81.810;  379.894;  620.191
573.555;  261.762;   94.894;   37.190
573.834; 1213.185;  -86.117; -114.788
574.112; 1412.226;  880.893;  811.193
574.390;  416.194; -143.111;  -96.801
574.668;   -3.371;  -91.112;  -61.797
574.946;  -16.237; -165.106; -187.810
575.224;    5.930;   71.891;  -16.803
575.502;  -20.078; -200.116; -204.791
575.780;  -88.170; -767.112; -829.798
576.058;   90.368; 1589.889; 1004.200
576.336;  -16.052; -210.110; -129.801
576.614;  -51.770; -511.112; -340.798
576.891;   34.735; -711.115; -823.794
577.169;  441.767; -158.108; -285.805
577.447;  523.425;  169.893;  202.193
577.725;  260.134;  629.888;  854.201
578.003;    3.932;  -71.112; -371.798
578.280;   76.126; -208.104; -242.812
578.558;   54.634; -450.115; -422.793
578.836;  123.767; -210.114; -145.795
579.114;   37.078; -630.112; -670.797
579.391;   74.762;   -6.117;  -18.789
579.669;  -67.439; -595.114; -704.794
579.947;  158.922; -326.107; -127.806
580.224;  296.122; -692.107; -524.806
580.502;  285.176;  127.893;   76.193
580.779;   23.518;  -42.117;   75.210
581.057;  -75.740; -584.109; -470.804
581.334; -100.635; -726.102; -695.815
581.612;   46.388;   54.895;  511.190
581.889;  -28.722;  -83.101; -129.818
582.167;  -33.883; -298.099; -190.821
582.444; -103.527; -845.102; -814.817
582.721;   97.349;  657.899;  715.183
582.999;   51.315; -326.100; -167.821
583.276;  456.965; -812.123; -713.779
583.553;  637.243; -364.102; -294.816
583.831;  210.197; -607.104; -631.812
584.108;   50.240;  349.892;  174.195
584.385;   -1.185; -122.102;  -98.815
584.662;  -76.555; -651.111; -828.801
584.940;   38.569;  204.889;  204.199
585.217;  -21.076;  -73.113; -303.796
585.494;   31.428;   71.890;  118.198
585.771;  193.635; -250.109; -354.804
586.048;  464.998; -196.113;  -76.796
586.325;  275.947; -721.110; -773.801
586.602;   82.526;  230.896;  213.188
586.879;  -17.614; -499.100; -580.820
587.156;   32.214; -156.105; -331.810
587.433;  -40.954; -701.102; -667.817
587.710;   58.580;  152.888;  234.202
587.987;  273.969; -264.105; -236.811
588.264;  740.982;  315.888;  387.202
588.541; 1266.178;  -61.104;   26.187
588.818; 2518.962;   72.892;  171.196
589.095; 2172.124; -163.104; -174.812
589.371;  349.358; -459.109; -414.804
589.648;    2.551; -581.107; -437.807
589.925;   24.968; -517.114; -621.795
590.202;    6.155; -741.112; -607.798
590.478;   76.746; -166.105;  -73.811
590.755;  225.343; -241.108; -132.806
591.032; 2222.524; -741.110; -699.802
591.308; 3108.966; -732.094; -790.831
591.585; 1630.349; -573.110; -560.802
591.862;  118.547;-1056.102; -950.817
592.138;   63.216; -475.108; -474.805
592.415;  125.552; -486.104; -495.813
592.691; 1358.425;  460.896;  518.188
592.968; 1754.554; -208.098; -123.824
593.244;  824.295; -695.116; -595.790
593.521;   67.248; -105.102;  -42.817
593.797;  -27.581; -810.122; -720.780
594.074;  296.241; -611.096; -588.826
594.350;  613.577;  828.905;  729.172
594.626;  275.045; -303.111; -283.801
594.903;   98.423; -643.101; -645.817
595.179;  181.855;  243.896;  418.187
595.455;    4.877; -136.107; -150.807
595.731;    1.707;  -19.103;  -38.814
596.008;  -43.261; -464.111; -434.800
596.284;   17.939; -187.100; -242.820
596.560;   40.198; -501.093; -493.833
596.836;  180.991; -173.105;  -70.810
597.112;  307.892; -582.108; -437.805
597.388;  249.814;  -49.097;  -48.826
597.665;  108.676;  437.887;  530.203
597.941;  -59.799; -572.089; -658.839
598.217;   -1.548; -323.110; -293.802
598.493;  237.737;   61.891; -204.804
598.769;  472.658; -175.100;  -50.819
599.045;  268.095; -490.108; -562.806
599.321;   35.413; -193.100; -261.820
599.597;  119.886; -355.109; -476.804
599.872;  447.303;  409.896;  429.187
600.148;  329.116;  -61.097; -172.826
600.424;  266.624;   91.893;  202.193
600.700;  218.677; -170.107; -280.807
600.976;  105.710; -442.097; -464.825
601.252;  221.383; -226.109; -272.803
601.527;  168.929; -833.104; -840.813
601.803;  143.022; -453.105; -404.812
602.079;  171.758; -124.100; -118.819
602.354;  510.482; -620.092; -531.835
602.630;  767.699; -140.113; -482.796
602.906; 2126.053; -910.101; -863.818
603.181; 6135.425; -627.119; -534.786
603.457; 5180.988;   98.903; -278.826
603.733;  755.284; -605.120; -626.783
604.008;  880.913; -245.106; -164.810
604.284; 2820.800; -636.101; -580.817
604.559; 2453.384;   -3.112;  -42.799
604.835;  440.066; -163.105; -225.810
605.110;  359.143; -732.099; -892.821
605.385;  642.275;  224.907;  267.167
605.661;  589.705; -625.095; -729.829
605.936; 1058.970; -664.108; -737.806
606.211;  887.464;  -17.103; -170.815
606.487;  179.813; -329.114; -376.794
606.762;   -9.300; -791.119; -745.786
607.037;  -20.434; -501.105; -433.810
607.313;  -51.877; -589.096; -574.828
607.588;   -3.312; -375.106; -137.810
607.863;   18.878;  -28.101; -143.818
608.138;  172.726;  513.890;  516.198
608.413;   25.272; -576.099; -592.822
608.688;   29.691; -203.108; -267.805
608.964;  177.807; -509.106; -218.809
609.239;  226.239; -107.105; -212.810
609.514;  234.521;  281.895;  240.188
609.789;  598.576; -187.104; -716.812
610.064;  799.472; -435.096; -609.827
610.339;  777.033; -855.109; -799.804
610.614; 1071.588; -131.100; -315.820
610.889;  604.122;  215.895;  107.188
611.163;   33.247; -407.104; -591.812
611.438;   65.614;   81.886; -167.794
611.713;    1.100; -467.101; -499.817
611.988;   40.652; -144.101; -328.818
612.263;  -44.185; -771.102; -717.815
612.538;  184.673;  385.887;  251.204
612.812;  148.239; -832.100; -911.820
613.087;  114.402; -358.098; -338.823
613.362;  -62.548; -497.107; -557.807
613.637;   32.860;  261.897;  138.186
613.911;  -13.042; -256.092; -345.835
614.186;  113.225; -249.107; -292.807
614.460;  609.750; -842.081; -758.854
614.735;  701.899;  -55.087;  -17.843
615.010;  141.964;   43.912;  -82.841
615.284;  233.066;  360.892;  246.195
615.559;  320.982; -792.092; -955.835
615.833;  254.770;  -76.099;  -87.822
616.108;   -0.307; -225.090; -390.837
616.382;  130.876;  274.913;  402.156
616.656;  126.819; -241.090; -232.837
616.931;  457.095; -785.099; -700.822
617.205;  964.205; -973.104; -979.813
617.480;  874.295;  -91.125;    6.225
617.754;  127.943; -396.125; -128.774
618.028;   -2.511; -369.129; -382.768
618.302;   53.439;   73.892;  -25.805
618.577;  -57.689; -371.103; -518.815
618.851;  -53.745; -399.109; -600.803
619.125;  -64.080; -335.134; -378.759
619.399;  -35.345; -244.104; -374.813
619.673;  -56.372; -330.115; -515.792
619.947;  -57.858; -333.114; -448.795
620.222;  -16.204; -198.110; -204.801
620.496;   -0.918;  -47.121;  -96.782
620.770;   -8.627; -187.122;  -93.781
621.044;  202.189;  323.895;  346.190
621.318;  662.484; -653.120; -614.783
621.592;  587.607; -430.121; -409.783
621.866;  297.010; -476.112; -572.799
622.140;   16.596; -207.116; -356.791
622.413;   68.214;  138.889;  112.200
622.687;  -59.075; -746.101; -492.817
622.961;    0.564; -130.108; -143.805
623.235;  -65.360; -633.111; -661.800
623.509; -105.204; -816.105; -848.811
623.783;  -10.377;  -12.107;   48.193
624.056;  -20.815; -254.120; -280.783
624.330;   55.604;   63.888;   -3.797
624.604;   33.393; -271.116; -355.790
624.877;   63.125;  180.890;   26.198
625.151;   14.687; -249.114; -238.794
625.425;  -46.168; -150.103; -283.814
625.698;  -50.480; -367.119; -374.785
625.972; -102.472; -799.110; -765.802
626.245;   65.820;  685.884;  484.210
626.519;  -54.211; -426.120; -340.784
626.792;  -36.349; -192.107; -380.807
627.066;  -97.684; -485.122; -662.779
627.339; -110.826; -736.110; -663.802
627.613;   35.013;  351.880;  148.216
627.886;   36.254;  187.891; -612.803
628.160;  -27.491;  312.880; -161.783
628.433;  -96.727; -695.125; -703.775
628.706;  -87.136; -517.120; -615.784
628.979;   19.654;  296.876;  117.223
629.253;  -99.126; -785.119; -833.786
629.526;  317.833; -334.126; -253.772
629.799;  298.511; -641.123; -479.778
630.072;  140.390; -497.128; -516.769
630.346;  -74.055;-1115.116;-1080.790
630.619;  398.652; -467.107; -545.808
630.892;  571.266;  709.889;  593.200
631.165;  307.080;  790.896;  679.187
631.438;  -88.718;-1092.112;-1055.798
631.711;   46.090;  453.877;  257.221
631.984;  -49.835; -523.117; -624.789
632.257;  -75.238; -636.117; -681.789
632.530;  -61.630; -412.119; -433.785
632.803;   19.885; -109.115;    7.207
633.076;  -67.992; -360.123; -422.777
633.349;    5.169;  173.872;  121.231
633.622;  -39.931; -187.119; -240.785
633.895; -137.940; -903.120; -823.783
634.167;  -73.490; -496.126; -525.773
634.440;  -20.674;  -19.116; -137.792
634.713;  -24.502;  -22.119; -120.786
634.986;   70.534;  593.871;  453.233
635.258;  -85.717; -507.115; -597.793
635.531;   90.583;  742.882; -343.788
635.804;  -24.086; -303.117; -318.789
636.077;  -89.077; -830.116; -852.791
636.349;  -20.594; -586.115; -474.793
636.622;  378.182; 1695.874; 1392.228
636.894;  208.465; -474.120; -909.784
637.167;  136.701; -836.127; -789.771
637.439;   28.148; -278.128; -213.770
637.712;  -56.141; -312.126; -293.772
637.984;  -89.777; -635.116; -707.791
638.257;  373.184;  515.877;  488.222
638.529;  514.599; -881.125; -924.776
638.802;  239.965; -508.128; -449.769
639.074; -119.327; -927.122; -952.781
639.346; -124.263; -942.135; -930.757
639.619;    4.173;  -79.142; -319.744
639.891;  -13.708;  -83.122; -168.779
640.163;  -83.757; -689.122; -756.780
640.435;   26.145;  273.878;  103.220
640.708;   -8.803;  -72.122; -132.780
640.980;  -35.176; -366.122; -362.781
641.252;  176.776;  -25.121;  -71.781
641.524; 1711.252;  580.879;  573.219
641.796; 1707.204;-1094.121; -907.782
642.068;  297.881; -191.121; -300.782
642.340;  -68.817; -486.121; -566.783
642.613;   29.785;  294.880;  323.217
642.885; -102.589; -787.120; -878.783
643.157;  -51.562; -810.120; -658.784
643.428;   57.115;  170.880;  218.216
643.700;  -82.608; -498.120; -425.784
643.972;  -39.882;  -16.119; -133.785
644.244;  -91.255; -474.119; -559.785
644.516;  -56.128; -250.119; -114.786
644.788;   56.149;  662.881;  548.214
645.060;  -31.924;  -12.119; -124.786
645.332; -105.923; -525.118; -535.787
645.603;   16.679;  479.882;  342.213
645.875;  -81.519; -334.118; -369.787
646.147;  160.608; 1487.882; 1242.212
646.418;  -79.090; -931.117; -918.788
646.690;  111.511; -714.117; -715.789
646.962;   16.538; -413.117; -451.789
647.233;  -15.360;   15.883;   11.211
647.505; -106.833; -595.117; -475.790
647.776;   25.194;  328.884;  229.210
648.048;  -11.280; -248.116; -418.790
648.320;  -80.003; -752.116; -679.791
648.591; -161.401;-1055.116; -958.791
648.862;  -92.349; -505.116; -577.792
649.134;    7.278;  115.885;  198.208
649.405;  -47.046; -661.115; -618.792
649.677;  -79.694; -475.115; -598.793
649.948;  -19.992; -181.115; -296.793
650.219;  -13.390;  -37.115; -147.793
650.491;  -78.588; -431.114; -520.794
650.762; -130.637; -705.114; -731.794
651.033;  -77.185; -437.114; -424.795
651.304; -100.858; -743.114; -728.795
651.576;  -76.081; -680.114; -645.795
651.847;  -45.304; -250.113; -140.796
652.118;  -32.278;  -32.113; -189.796
652.389; -102.426; -639.113; -722.796
652.660;  -34.924; -147.113;  -89.797
652.931; -141.022; -897.112; -871.797
653.202;  -85.570; -382.112; -541.798
653.473;  -74.744; -633.112; -533.798
653.744;  134.258; -595.112; -590.798
654.015;  115.935; -356.112; -303.799
654.286;  -76.363; -642.111; -663.799
654.557;  -61.536; -586.111; -521.799
654.828; -159.860;-1114.111;-1088.800
655.099;  -81.058; -404.111; -291.800
655.370;  -94.731; -427.111; -543.801
655.641; -116.579; -656.110; -714.801
655.911; -102.152; -618.110; -638.801
656.182;   42.924;  437.890;  387.198
656.453;   96.076;  830.890;  746.198
656.724;  -74.522; -466.110; -426.802
656.994;  -73.570; -553.109; -568.803
657.265;  -99.893; -862.109; -873.803
657.536;  -80.917; -500.109; -377.804
657.806; -102.390; -561.109; -593.804
658.077; -141.288; -866.109; -950.804
658.347;  -91.111; -523.108; -598.805
658.618; -126.134; -646.108; -694.805
658.888;  -30.908;  -41.108;  112.195
659.159;  -93.106; -432.108; -548.806
659.429;  -26.029; -292.108; -349.806
659.700;    6.123; -435.107; -390.807
659.970;  -33.500; -370.107; -359.807
660.241;   -5.224; -754.107; -921.807
660.511;  461.753; -147.107; -174.808
660.781;   71.005; -793.106; -748.808
661.052;  -49.493; -222.106; -381.808
661.322;  -20.242;   21.894;   -9.809
661.592;   15.585;  257.894;  148.191
661.862;  -81.488; -369.106; -382.810
662.133;  -98.186; -551.105; -502.810
662.403; -123.234; -770.105; -676.810
662.673;  -56.558; -256.105; -213.811
662.943;  -92.731; -612.105; -551.811
663.213;  -17.104;  -85.105;  -81.811
663.483;  -74.727; -593.104; -568.812
663.753;  -59.800; -194.104; -152.812
664.023;  -16.374;   68.896;  -32.813
664.293;  -64.022; -319.104; -126.813
664.563; -105.320; -694.104; -648.813
664.833; -117.343; -743.103; -608.814
665.103; -122.766; -730.103; -793.814
665.373; -132.715; -766.103; -806.814
665.643;  -98.738; -863.103; -918.815
665.913;   26.689; -534.103; -714.815
666.182;  112.391; -685.102; -719.816
666.452;  236.718;  -22.102;  -89.816
666.722;  -43.056; -724.102; -784.816
666.992; -133.429; -948.102; -921.817
667.261; -106.452; -824.102; -808.817
667.531;  189.725;  134.899;   45.183
667.801;  530.502; -440.101; -412.818
668.070;  246.153;  714.899;  697.182
668.340; -104.770; -883.101; -840.819
668.609;   78.282;  588.900;  301.181
668.879;  -75.891; -490.100; -558.819
669.149;  -68.614; -539.100; -516.820
669.418; -116.763; -698.100; -726.820
669.688;  -42.211; -482.100; -666.820
669.957;   51.141; -423.099; -546.821
670.226;  -30.532; -268.099; -331.821
670.496;  -97.455; -431.099; -635.822
670.765;  -89.204; -418.099; -501.822
671.034; -138.527; -872.099; -828.822
671.304;   -5.225;   55.902; -111.823
671.573; -141.373;-1085.098; -957.823
671.842;   51.229; -380.098; -294.823
672.112;   16.980; -692.098; -586.824
672.381;  -13.668; -239.098; -214.824
672.650; -153.566;-1005.097;-1021.825
672.919;  -90.039; -631.097; -507.825
673.188;  -97.937; -681.097; -878.825
673.457; -159.586;-1101.097;-1143.826
673.726;  -95.034; -579.096; -646.826
673.995;  -53.257; -533.096; -479.826
674.265;  -22.905; -263.096; -333.827
674.534;  -24.528; -183.096; -235.827
674.802;  -10.652; -618.096; -703.828
675.071;  901.900; -886.095; -801.828
675.340; 3582.902; -464.095; -339.828
675.609; 1180.879;  103.905;   82.171
675.878;   57.456; -949.095; -893.829
676.147;   31.432;  -26.095;   -8.829
676.416;   69.859; -210.094; -294.830
676.685;  689.761; 1000.906; -622.830
676.953;  104.263; -603.094; -452.831
677.222;  -37.960; -193.094; -273.831
677.491;  -26.009;  -24.094; -127.831
677.759;  -32.582;   11.907;  172.168
678.028;  -22.080; -279.093; -222.832
678.297;  -26.428;   71.907;  197.168
678.565; -141.826; -898.093; -944.833
678.834;  -46.350; -311.093; -268.833
679.102;  -77.848; -411.092; -391.834
679.371; -153.046; -898.092; -727.834
679.639; -138.869; -797.092; -786.834
679.908; -115.943; -794.092; -724.835
680.176; -161.041; -895.091; -941.835
680.445;  -70.114; -346.091; -352.835
680.713;  -27.862;  -58.091;  -23.836
680.982; -100.260; -523.091; -525.836
681.250; -113.134; -578.091; -507.837
681.518; -102.282; -534.090; -751.837
681.787;  -37.355; -204.090; -167.837
682.055;  -73.878; -490.090; -422.838
682.323; -158.676; -993.090; -992.838
682.591;   14.150; -216.090; -538.838
682.859;   67.177;    9.911;  -35.839
683.128;    9.279;  232.911;  497.161
683.396; -171.869;-1102.089;-1122.840
683.664;  -54.292; -241.089;   21.160
683.932;    9.884;  144.911;  -76.840
684.200;  -81.014; -576.088; -320.841
684.468;  -33.137;  -73.088; -124.841
684.736;  -31.060; -214.088; -175.841
685.004; -127.258;-1024.088; -982.842
685.272;  -68.757; -880.088; -774.842
685.540;  -73.405; -499.087; -557.843
685.808; -104.628; -651.087; -682.843
686.076; -105.276; -894.087; -969.843
686.343;  -65.424; -601.087; -815.844
686.611;   28.002; -195.087; -224.844
686.879;  413.254; -530.086; -553.844
687.147; 3046.806; -483.086; -480.845
687.414;  854.458;  -12.086; -169.845
687.682;   -6.115; -658.086; -757.846
687.950;  277.136;  259.915;  263.154
688.217;  -15.212; -792.085; -760.846
688.485;  -14.510; -632.085; -636.847
688.753;  471.142;  -11.085; -102.847
689.020;  125.344; -820.085; -851.847
689.288; -101.180; -853.084; -787.848
689.555;  -47.278; -195.084; -148.848
689.823;  -55.451; -241.084; -345.849
690.090;  -82.949; -546.084; -651.849
690.358; -162.597; -877.084; -897.849
690.625;  -11.946;  120.917;   45.150
690.892;  -85.744; -403.083; -369.850
691.160;  -24.817;   72.917;  -35.850
691.427;   -4.490;  141.917;  130.149
691.694; -146.513; -855.083; -929.851
691.962; -151.662;-1177.082;-1060.852
692.229;    7.540;  127.918;   56.148
692.496;   62.242;  130.918;  -49.852
692.763;    4.994; -164.082; -201.853
693.031;  -79.054; -739.082; -716.853
693.298;  -57.328; -509.081; -368.853
693.565;  259.949; -155.081; -163.854
693.832; 1151.601;   -5.081;   -9.854
694.099;  113.553; -643.081; -642.855
694.366;  -56.070; -882.081; -896.855
694.633;  -55.819; -920.080; -633.855
694.900;  737.283; 4367.920; -114.856
695.167;  387.410; -214.080; -380.856
695.434;   82.962; -646.080; -623.856
695.701;  177.439;  121.921;  -61.857
695.968;  433.865; -365.079; -361.857
696.234;  963.767; -415.079; -646.858
696.501;10278.094; -776.079; -614.858
696.768; 5257.496; -554.079; -617.858
697.035;  296.773; -632.078; -667.859
697.302;   28.949; -448.078; -552.859
697.568;    1.126; -458.078; -497.859
697.835;  -46.447; -683.078; -624.860
698.102;  -19.620; -498.078; -407.860
698.368;   67.306;  384.923;  396.139
698.635;  -44.992;  -47.077; -424.861
698.901;  -32.840; -240.077; -348.861
699.168;   35.337; -534.077; -456.862
699.435;   61.214;  -72.077;  -13.862
699.701; -121.685; -868.076; -764.862
699.968;    7.442;  144.924; -441.863
700.234;  -94.706; -783.076; -822.863
700.500;  -57.204; -448.076; -539.864
700.767;   -3.952;   -1.075;   26.136
701.033; -134.101;-1015.075; -963.864
701.299;  -48.399; -450.075; -483.865
701.566;  112.278;  950.925;  763.135
701.832;   16.030;  -31.075;  -76.865
702.098; -101.418;-1054.074;-1034.866
702.365; -105.917;-1098.074;-1030.866
702.631;  -40.940;-1038.074;-1063.867
702.897; 1297.937; -765.074; -676.867
703.163; 2156.439;  348.926;  254.133
703.429;  151.466; -256.073; -273.868
703.695;  -41.333; -796.073; -792.868
703.961;   13.319; -214.073; -210.868
704.227;  -53.679; -630.073; -725.869
704.493;  117.048;  613.927;  510.131
704.759;  -23.525; -565.072; -540.870
705.025;   23.226; -203.072; -194.870
705.291;  -10.397; -666.072; -562.870
705.557;  175.205;  719.928;   34.129
705.823;   23.157; -742.072; -694.871
706.089;  138.634; -307.071; -326.871
706.355;  361.985; -315.071; -244.872
706.620; 5717.962; -776.071; -729.872
706.886; 7895.814; -309.071; -362.873
707.152;  720.966; -818.070; -973.873
707.418;  -27.257;-1153.070;-1186.873
707.683;  -21.456; -550.070; -530.874
707.949;  -44.604; -547.070; -578.874
708.215;   -3.377; -129.070; -207.874
708.480;  -32.900; -520.069; -420.875
708.746;   93.277;   68.931;   28.125
709.011;  -56.322; -578.069; -612.876
709.277;  -77.820; -538.069; -543.876
709.542;  -55.493; -428.069; -387.876
709.808;   -4.191;  -59.068;   89.123
710.073;  -83.914; -577.068; -695.877
710.339;  -38.188; -242.068; -228.877
710.604;   58.489; -780.068; -845.878
710.869;  306.541; -277.068; -366.878
711.135;  -87.507; -715.067; -628.879
711.400;  -88.030; -507.067; -608.879
711.665;  -75.979; -404.067; -479.879
711.931;  -95.177; -661.067; -677.880
712.196; -123.825; -876.067; -954.880
712.461;   86.652; -402.066; -490.880
712.726;  133.629; -727.066; -771.881
712.991;  -94.720; -647.066; -664.881
713.256;  -42.468; -350.066; -332.882
713.521;  -77.866; -417.065; -381.882
713.787;  -72.614; -454.065; -472.882
714.052;  -29.262; -214.065; -400.883
714.317;  -93.236;-1045.065; -981.883
714.581; 1053.691; -374.065; -268.883
714.846; 1448.168; -822.064; -888.884
715.111;  146.645;  261.936;  257.116
715.376;  -24.653;  -86.064; -223.885
715.641;  -24.952; -365.064; -367.885
715.906;  242.525;   15.936; -551.885
716.171;  129.677;  221.937;  209.114
716.436;   38.904;  -78.063; -104.886
716.700; -112.770; -818.063; -692.886
716.965; -123.993; -794.063; -807.887
717.230;  -69.191; -339.063; -392.887
717.494;  -32.389;  -40.062; -134.888
717.759; -100.687; -784.062; -640.888
718.024;  -10.011;  269.938;  250.112
718.288;   63.466;  685.938;  395.111
718.553; -151.907; -803.062; -977.889
718.817; -148.355; -883.061; -899.889
719.082;  -42.878; -115.061; -125.890
719.346; -156.302;-1000.061; -947.890
719.611;  -52.000; -300.061; -255.891
719.875; -113.748; -568.060; -537.891
720.140;  -67.371; -453.060; -603.891
720.404;   22.006; -136.060; -249.892
720.668;  795.182; -475.060; -411.892
720.933;  290.934;  146.940;  137.108
721.197; -102.939; -667.059; -600.893
721.461; -140.512; -851.059; -826.893
721.725;  -27.260;  -21.059; -250.894
721.990;  -73.809; -284.059; -204.894
722.254;  -36.382;  -26.059; -108.894
722.518;  -75.730; -286.058; -442.895
722.782;  -82.303; -743.058; -594.895
723.046;  112.474;  614.942;  570.105
723.310;   24.900;  374.942;  210.104
723.574; -107.123; -654.058; -614.896
723.838;  -92.496; -576.057; -642.897
724.102;  -41.069; -226.057; -239.897
724.366; -143.692;-1032.057; -978.897
724.630; -112.466; -749.057; -571.898
724.894;  -89.814; -722.057; -514.898
725.158;  -12.212;   38.944; -295.898
725.422;  -56.210; -394.056; -327.899
725.685;  -74.583; -441.056; -349.899
725.949;  -98.182; -566.056; -519.900
726.213;  -91.505; -732.056; -811.900
726.477;  133.272;-1020.055; -933.900
726.740;  124.049; -274.055; -104.901
727.004;  314.101; -384.055; -510.901
727.268; 3340.852; -442.055; -400.901
727.531;  929.854; -961.055; -775.902
727.795;  -42.669; -713.054; -673.902
728.059;  -68.217; -552.054; -557.903
728.322;  -91.915; -841.054; -669.903
728.586;    7.561; -692.054; -701.903
728.849;  -85.487; -695.053; -756.904
729.112; -120.160; -812.053; -912.904
729.376; -126.958; -959.053; -905.904
729.639;  -94.306; -536.053; -536.905
729.903; -110.755; -733.053; -699.905
730.166;  -49.703; -437.052; -399.906
730.429;  -35.551; -317.052; -468.906
730.693;  -75.074; -355.052; -894.906
730.956;  195.303;  810.948;  651.093
731.219;  654.829; -310.052; -103.907
731.482;  103.106;-1003.051; -894.907
731.745;   83.258; -794.051; -935.908
732.009;   11.835;  -30.051;   50.092
732.272;  -93.163; -904.051; -771.909
732.535;  -44.137; -300.051; -310.909
732.798; -155.110;-1083.050;-1166.909
733.061;  -74.283; -430.050; -456.910
733.324;    3.244;   31.950; -180.910
733.587;   38.371;  290.950;  365.090
733.850;  -81.478; -973.049;-1050.911
734.113;   26.474;   33.951;   32.089
734.376;  -13.424; -328.049; -447.912
734.639;  217.928; 1188.951; 1011.088
734.901;   59.754; -180.049; -402.912
735.164;  471.631; -883.048; -837.913
735.427; 1221.633; -166.048; -355.913
735.690;  106.510; -205.048; -234.913
735.952;  -46.488; -923.048; -925.914
736.215;  -39.737;-1113.048;-1009.914
736.478;   19.140; -771.047; -774.915
736.740;  198.467;   33.953;  129.085
737.003;  642.594; -658.047; -672.915
737.266; 3763.546;  -94.047;   46.084
737.528;  414.972; -682.047; -660.916
737.791;  299.574; -316.046; -327.916
738.053;  791.401;  465.954;  649.083
738.316;10745.328; -162.046; -136.917
738.578; 7602.630; -770.046; -736.918
738.841;  421.256; -382.046; -446.918
739.103;  152.908; -875.045; -777.918
739.365;  467.210;   79.955;  -69.919
739.628;   -0.613; -884.045; -805.919
739.890;  -32.136; -758.045; -710.919
740.152;  -52.610; -692.044; -754.920
740.414;  -22.508; -408.044; -359.920
740.677;  -57.581; -785.044; -634.921
740.939;  -52.804; -587.044; -487.921
741.201;  223.898; -432.044; -572.921
741.463;   29.699; -689.043; -745.922
741.725;   -2.774;  -21.043; -199.922
741.987;   40.928;  220.957;  116.078
742.249;  -16.720; -751.043; -859.923
742.511;  192.607; -703.043; -794.923
742.773;   17.783; -546.042; -546.924
743.035;  122.360;  796.958;  533.076
743.297;  -57.388; -963.042;-1013.924
743.559;  684.839; -278.042; -262.925
743.821;   43.516; -735.042; -744.925
744.083;   13.267;  -44.041; -149.925
744.345;  -95.281; -869.041; -892.926
744.607;   28.971;   75.959;  122.074
744.868;  -53.752; -490.041; -554.927
745.130; -111.350; -994.041;-1008.927
745.392;   33.201;   -1.040;  -44.927
745.653;  -21.022; -411.040; -378.928
745.915;  156.805;  896.960;  631.072
746.177;   46.582;   35.960;  -43.928
746.438;   -1.816; -428.040; -543.929
746.700;  -46.615; -947.039; -988.929
746.961;  -13.413; -659.039; -740.930
747.223;  119.914; -190.039;  -74.930
747.484;   88.866; -391.039; -471.930
747.746;  132.068;  -23.038; -106.931
748.007;   96.519; -647.038; -689.931
748.269;  279.171; -468.038; -440.931
748.530;  445.348; -852.038; -638.932
748.791;  230.975; -354.038; -420.932
749.053;  430.402;  286.963;  163.067
749.314;  431.303; -236.037; -169.933
749.575;  477.955; -945.037; -905.933
749.836;  813.857; -217.037;   86.066
750.098; 2327.734;  -60.037;  -21.934
750.359;35267.911;  414.964;  555.066
750.620; 8988.537; -121.036; -220.935
750.881;  994.289; -585.036; -513.935
751.142; 1297.941; -950.036; -938.936
751.403;16357.943; -789.036; -705.936
751.664; 7229.119;-1034.035; -999.936
751.925;  477.996; -175.035; -262.937
752.186;  249.373; -298.035; -278.937
752.447;  120.900; -590.035; -445.937
752.708;   37.877; -532.035; -648.938
752.969;   -3.447; -566.034; -576.938
753.230;  -14.645; -777.034; -672.939
753.491;  -15.343; -650.034; -631.939
753.751;   68.184;  109.966;   19.061
754.012;   82.036;  258.967;  181.060
754.273;   40.112; -174.033;  -71.940
754.534;  -10.361; -487.033; -580.940
754.794; -103.034; -926.033; -911.941
755.055;  157.893; 1051.967;  881.059
755.316;  -50.980; -700.032; -566.942
755.576;  -37.104; -606.032; -576.942
755.837;  -47.027; -527.032; -695.942
756.097;  -50.050; -530.032; -564.943
756.358;  -80.473; -725.032; -770.943
756.618;  -61.246; -705.031; -641.943
756.879;  -11.520; -254.031; -349.944
757.139; -124.893;-1098.031;-1116.944
757.400;  -70.816; -538.031; -553.945
757.660;  -29.439; -365.031; -401.945
757.920;   -1.112; -266.030; -228.945
758.181;  -23.261; -468.030; -351.946
758.441;  -91.859; -870.030; -809.946
758.701;  -42.657; -308.030; -215.946
758.961;  -28.030; -220.030; -278.947
759.222;  -43.803; -574.029; -502.947
759.482;  -90.252; -683.029; -723.948
759.742;  -86.850; -706.029; -547.948
760.002;   14.777;  -83.029; -143.948
760.262;   21.829;   50.972;  182.051
760.522;  -51.894; -498.028; -574.949
760.782;  -72.793; -738.028; -612.949
761.042;  -41.291; -618.028; -573.950
761.302;   57.811;   55.972;  -18.950
761.562;   50.113; -164.027; -154.951
761.822;   61.815; -710.027; -551.951
762.082;  -41.834;-1104.027;-1093.951
762.342;   62.068; -328.027; -403.952
762.601;   61.570; -567.027; -506.952
762.861;  342.022; -281.026; -207.952
763.121;  391.924; -406.026; -411.953
763.381; 7262.225; -499.026; -485.953
763.640; 8039.577; -139.026; -307.954
763.900;  356.604; -242.026; -203.954
764.160;   69.431; -458.025; -491.954
764.419;  -28.842; -726.025; -782.955
764.679;  -78.866; -795.025; -726.955
764.939;  -37.689; -124.025; -210.955
765.198;  -76.537; -608.025; -563.956
765.458;  -93.160; -710.024; -612.956
765.717;  -90.408; -454.024; -590.957
765.976;  -76.257; -428.024; -411.957
766.236;  -98.430; -475.024; -610.957
766.495;   13.147;  260.977;   73.042
766.755;  -98.451;-1090.023; -987.958
767.014;  -11.924; -594.023; -665.958
767.273;  -54.673; -373.023; -397.959
767.533;  -62.871; -228.023; -307.959
767.792;  -28.969; -151.022; -188.960
768.051;  -59.917; -228.022; -276.960
768.310; -102.265; -546.022; -650.960
768.569;   -6.964; -161.022;    4.039
768.828;  -40.262; -285.022; -363.961
769.088; -129.710;-1050.021; -942.961
769.347;  -83.058; -755.021; -599.962
769.606;  -99.332; -876.021; -857.962
769.865; -135.405;-1016.021;-1033.963
770.124;    4.122; -411.021; -336.963
770.383;  -65.126; -778.020; -910.963
770.641;  -15.324; -398.020; -400.964
770.900;  -58.448; -953.020; -846.964
771.159;  -49.546; -851.020; -951.964
771.418;  -17.669; -917.020; -779.965
771.677;  115.233; -224.019; -293.965
771.936;  143.335; -794.019; -865.966
772.194; 2234.861; -465.019; -437.966
772.453;11207.663; -213.019; -391.966
772.712;  777.715;  416.982;  329.033
772.970;  104.242;   32.982;   63.033
773.229;   77.994;  -22.018;  102.033
773.488; -103.830; -814.018; -770.968
773.746;   55.822;  296.982;  335.032
774.005;    9.274;  190.983;  -22.969
774.263;   13.126;  243.983;  177.031
774.522;  -49.722; -422.017; -548.969
774.780;  -87.121; -484.017; -417.970
775.039; -108.769; -551.017; -531.970
775.297;  -33.742; -135.016; -351.970
775.555; -102.565; -489.016; -612.971
775.814; -132.438; -618.016; -570.971
776.072; -130.912; -749.016; -740.971
776.330; -101.235; -630.016; -520.972
776.589; -127.083; -703.015; -721.972
776.847; -141.581; -645.015; -624.973
777.105; -162.554;-1016.015;-1032.973
777.363;  -95.478; -459.015; -454.973
777.621; -147.076; -660.015; -717.974
777.879;  -29.374;  -42.014;   32.026
778.138; -100.872; -554.014; -717.974
778.396; -113.170; -585.014; -526.975
778.654; -169.469;-1015.014; -970.975
778.912;  -80.567; -269.014; -371.976
779.170; -138.890; -880.013; -803.976
779.427; -158.263; -922.013; -897.976
779.685; -143.311; -880.013; -832.977
779.943;  -89.035; -654.013; -593.977
780.201; -157.233; -964.012; -883.978
780.459; -135.681; -651.012; -610.978
780.717;  -88.629; -440.012; -390.978
780.974; -111.302; -449.012; -490.979
781.232;  -75.326; -358.012; -338.979
781.490;  -68.349; -551.011; -472.979
781.747; -100.347; -555.011; -476.980
782.005;    4.255;  462.989;  254.020
782.263; -169.168; -542.011;-1004.981
782.520;  -92.592; -326.011; -501.981
782.778; -167.340;-1013.010;-1051.981
783.035; -174.013; -962.010; -938.982
783.293;  -68.811; -248.010; -206.982
783.550;  -61.134; -134.010; -198.982
783.808; -140.758; -764.010; -776.983
784.065; -159.856; -745.009; -874.983
784.322;  -53.404;   25.991;  -86.984
784.580; -149.902; -915.009; -771.984
784.837;  -90.925; -392.009; -466.984
785.094; -135.899; -783.009; -762.985
785.352;  -71.747; -304.008; -404.985
785.609; -127.645; -934.008; -839.985
785.866;  -94.118; -345.008; -401.986
786.123;  -88.966; -639.008; -583.986
786.380; -117.040; -665.008; -604.987
786.637;  -53.963; -225.007; -380.987
786.895;  -34.936; -456.007; -543.987
787.152;  -62.859; -135.007; -267.988
787.409;  -55.083; -123.007; -225.988
787.666;  -99.506; -299.006; -378.988
787.923; -118.954; -616.006; -695.989
788.179; -104.227; -551.006; -584.989
788.436; -113.725; -585.006; -585.990
788.693;  -40.674;  -92.006;  -87.990
788.950;  119.753; -125.005; -112.990
789.207;  180.780; -381.005; -372.991
789.464;  -60.218; -161.005; -301.991
789.720;   -5.516;  150.995;  110.009
789.977; -182.090;-1003.005; -671.992
790.234;  -33.163;   44.996;  -66.992
790.490; -161.336; -884.004;-1031.993
790.747;  -15.159;  -85.004;   22.007
791.004;  -49.307; -426.004; -348.993
791.260;  -89.181; -430.004; -560.994
791.517; -108.529; -843.003; -788.994
791.773;  -59.977; -379.003; -342.994
792.030; -118.200; -596.003; -660.995
792.286; -115.298; -686.003; -636.995
792.543;  -25.372;  -74.002; -159.995
792.799;  -71.320; -584.002; -382.996
793.055; -172.718;-1179.002;-1210.996
793.312; -105.066; -827.002; -816.997
793.568;  -59.239; -746.002; -599.997
793.824;   -2.738; -226.001; -284.997
794.081;   21.389; -447.001; -508.998
794.337;   51.141; -664.001; -561.998
794.593; 1253.593; -319.001; -271.999
794.849; 6444.120; -746.001; -772.999
795.105;  329.271; -270.000; -261.999
795.361;   15.498; -490.000; -457.000
795.617;  -66.500; -875.000; -945.000
795.873;  -59.275; -360.000; -407.000
796.129;  -42.300; -368.000; -306.000
796.385;  -30.150; -124.000; -156.000
796.641;   69.125;  412.000;  550.000
796.897;  -92.575; -666.000; -635.000
797.153;   66.000;  453.000;  357.000
797.409; -102.750; -785.000; -868.000
797.665;  -69.950; -625.000; -732.000
797.921;  -82.550; -775.000; -762.000
798.176;  -66.525; -744.000; -747.000
798.432;  -52.150; -824.000; -596.000
798.688;  -82.450;-1174.000;-1078.000
798.943;   73.275; -165.000; -147.000
799.199;  -10.200;-1005.000; -959.000
799.455;  220.750;  369.000;  316.000
799.710;  128.275; -813.000; -380.000
799.966;  312.600; -162.000; -160.000
800.221;  461.550; -638.000; -721.000
800.477;10383.150; -743.000; -710.000
800.732; 9321.650; -773.000; -800.000
800.988;  622.825;  205.000;  -19.000
801.243; 1863.400; -454.000; -344.000
801.498; 8165.075; -814.000; -739.000
801.754;  460.425; -289.000; -163.000
802.009;   75.425; -257.000; -335.000
802.264;  -48.175; -967.000;-1033.000
802.520;   41.200;  222.000;   -3.000
802.775;  -59.325; -524.000; -359.000
803.030;   54.700;  395.000;  356.000
803.285; -122.900; -840.000; -903.000
803.540;  -80.425; -686.000; -699.000
803.795;  -50.850; -648.000; -583.000
804.051;  -50.925; -279.000; -346.000
804.306;    6.475;  168.000;  128.000
804.561;  122.575;  451.000;  362.000
804.816;  126.575;  714.000;  861.000
805.071;  -11.825; -185.000; -280.000
805.325;  193.375; -257.000; -427.000
805.580; -112.175; -841.000; -877.000
805.835;  -29.775; -204.000; -297.000
806.090;  -94.500; -760.000; -676.000
806.345;  -17.225; -344.000; -264.000
806.600;  -30.950; -549.000; -632.000
806.854;  -21.375; -408.000; -538.000
807.109;  -15.500; -493.000; -577.000
807.364;   14.425; -407.000; -328.000
807.618;   -9.600; -415.000; -381.000
807.873;   40.075; -470.000; -494.000
808.128;   79.850; -257.000; -518.000
808.382;   96.925; -224.000; -332.000
808.637;   47.650; -440.000; -511.000
808.891;  169.225; -257.000; -180.000
809.146;   92.775; -902.000; -794.000
809.400;  238.625; -848.000; -923.000
809.654;  289.850; -779.000; -551.000
809.909;  461.675; -841.000; -927.000
810.163; 6247.150; -813.000; -651.000
810.418;16437.125; -940.000; -861.000
810.672; 1003.675; -685.000; -690.000
810.926;  706.625; -993.000; -973.000
811.180; 1395.025; -439.000; -372.000
811.434;31767.175;  240.000;  135.000
811.689;12991.400; -231.000; -365.000
811.943;  654.475; -936.000; -953.000
812.197;  319.950; -893.000; -671.000
812.451;  117.950; -379.000; -514.000
812.705;  -31.800; -809.000; -619.000
812.959;   -9.000; -263.000; -388.000
813.213;    0.950; -283.000; -209.000
813.467;   61.200;  470.000;  253.000
813.721; -117.700; -764.000; -792.000
813.975; -121.650; -826.000; -877.000
814.229;   35.100;  430.000;  353.000
814.482;  -71.950; -517.000; -566.000
814.736; -129.275; -766.000; -744.000
814.990; -141.900; -779.000; -872.000
815.244;  -44.900; -228.000; -285.000
815.497; -109.275; -636.000; -601.000
815.751;  -25.850; -141.000;   82.000
816.005; -100.600; -470.000; -586.000
816.258;  -68.475; -510.000; -363.000
816.512; -107.300; -693.000; -610.000
816.766;   -4.675;  121.000;  157.000
817.019;    7.125;  148.000;  149.000
817.273; -127.650;-1000.000; -802.000
817.526;  -50.175; -206.000; -173.000
817.779;  -67.650;-1049.000; -960.000
818.033;  -83.775; -693.000; -807.000
818.286; -133.650; -725.000; -792.000
818.540;  -88.475; -403.000; -403.000
818.793;  -83.925; -402.000; -489.000
819.046; -108.025; -582.000; -520.000
819.299;  -39.125; -157.000; -166.000
819.553; -115.525; -552.000; -592.000
819.806; -168.425;-1016.000; -838.000
820.059;  -73.075; -334.000; -354.000
820.312;    5.700;  152.000;  185.000
820.565;  -26.725;  110.000;  -27.000
820.818;  -65.675;  -59.000; -173.000
821.071; -161.675;-1041.000; -957.000
821.324; -120.725; -536.000; -540.000
821.577;  -96.075; -457.000; -483.000
821.830;  -65.125; -270.000; -172.000
822.083; -133.825; -733.000; -288.000
822.336;  -54.850; -261.000; -167.000
822.589; -145.725; -805.000; -688.000
822.842; -154.675; -875.000; -770.000
823.094; -175.175;-1076.000;-1114.000
823.347; -146.350; -925.000; -729.000
823.600;    5.800;  402.000;  187.000
823.853;  -66.900; -311.000; -267.000
824.105;  -80.650; -331.000; -575.000
824.358; -116.775; -617.000; -716.000
824.611;   10.100;  234.000;   40.000
824.863;  -59.925; -612.000; -591.000
825.116;   41.425;  -33.000;   27.000
825.368;   58.925; -366.000; -372.000
825.621;  135.725; -186.000; -240.000
825.873;   83.200; -704.000; -737.000
826.126;  572.375; -669.000; -641.000
826.378;11428.275; -389.000; -505.000
826.630; 2849.650; -890.000; -898.000
826.883;   23.375; -754.000; -693.000
827.135;   36.175; -279.000; -270.000
827.387; -117.725; -893.000; -839.000
827.639;  -44.475;  -86.000;   32.000
827.892; -128.350; -742.000; -582.000
828.144; -147.725; -848.000; -804.000
828.396;  -43.225;  104.000;  -80.000
828.648; -103.000; -440.000; -333.000
828.900; -157.550; -702.000; -795.000
829.152; -131.050; -684.000; -683.000
829.404;  -73.350; -215.000; -267.000
829.656;  -63.875;  321.000;  214.000
829.908;  -19.350;  393.000;  229.000
830.160; -167.275;-1064.000;-1047.000
830.412; -100.100; -481.000; -430.000
830.664; -127.225; -557.000; -665.000
830.916;  -81.350; -268.000; -206.000
831.167; -180.425;-1073.000; -951.000
831.419; -122.200; -623.000; -566.000
831.671; -153.075; -764.000; -809.000
831.923; -102.725; -311.000; -447.000
832.174;  -77.125; -273.000; -331.000
832.426; -123.325; -493.000; -582.000
832.678; -190.575;-1043.000;-1091.000
832.929; -164.500; -947.000; -935.000
833.181;  -72.975; -575.000; -677.000
833.432;  -61.550;  -59.000; -186.000
833.684;  -26.425;  112.000;  -27.000
833.935; -125.525; -610.000; -566.000
834.187; -140.225; -829.000; -823.000
834.438;  -53.550;  -58.000;  -25.000
834.689;  -68.150; -255.000; -123.000
834.941;  -56.225; -343.000; -244.000
835.192; -104.000; -590.000; -533.000
835.443; -117.675; -419.000; -506.000
835.695;  -20.350;  138.000;  -16.000
835.946; -120.350; -608.000; -378.000
836.197; -122.850; -599.000; -622.000
836.448; -103.600; -528.000; -395.000
836.699;  -67.000; -253.000; -341.000
836.950;    1.800;   72.000;    7.000
837.201; -156.950;-1003.000; -987.000
837.452;  -54.675; -356.000; -170.000
837.703; -123.050; -791.000; -737.000
837.954;  -47.725; -205.000; -365.000
838.205; -101.325;-1029.000;-1008.000
838.456;  152.850; -196.000; -282.000
838.707;  -12.875; -423.000; -519.000
838.958;   -8.200; -634.000; -647.000
839.209;  256.400;   18.000;   40.000
839.460;  110.675; -439.000; -201.000
839.710;  163.000; -135.000; -297.000
839.961;  411.750;  730.000;  612.000
840.212;  337.850; -382.000; -497.000
840.462; 1105.275; -328.000; -277.000
840.713;17583.025; -571.000; -536.000
840.964; 7273.450;  -62.000; -143.000
841.214;  482.550; -384.000; -624.000
841.465;  510.075; -214.000; -141.000
841.715;  473.850; -417.000; -380.000
841.966;  594.575; -746.000; -685.000
842.216; 8385.575; -330.000; -431.000
842.466;32764.125; -169.000; -313.000
842.717; 1832.575; -964.000; -952.000
842.967;  277.350; -635.000; -641.000
843.217;  249.025;   20.000;   28.000
843.468;   55.950; -104.000; -132.000
843.718;  -47.525; -718.000; -726.000
843.968; -107.875; -837.000; -765.000
844.218;    2.075; -315.000; -262.000
844.469;  -57.050; -577.000; -561.000
844.719; -113.825; -537.000; -682.000
844.969; -100.175; -550.000; -580.000
845.219; -138.725; -814.000; -862.000
845.469;  -89.225; -392.000; -342.000
845.719; -140.800; -792.000; -884.000
845.969;  -30.150;  119.000;  174.000
846.219; -129.650; -738.000; -720.000
846.469;    0.125;  464.000;  432.000
846.718;  -65.400; -115.000;   31.000
846.968; -148.475; -827.000; -827.000
847.218;  -53.875; -224.000; -371.000
847.468;   -0.750; -586.000; -555.000
847.718; -161.375; -827.000; -798.000
847.967; -131.400; -826.000; -915.000
848.217;  -96.175; -449.000; -569.000
848.467;  -69.750; -405.000; -376.000
848.716; -124.325; -708.000; -725.000
848.966;    0.500; -372.000; -358.000
849.215;  -65.600; -428.000; -419.000
849.465; -104.375; -785.000; -615.000
849.714; -149.250;-1132.000;-1150.000
849.964;  -78.250; -551.000; -613.000
850.213;  -31.825; -393.000; -355.000
850.463;   67.925;  137.000;  340.000
850.712;   -3.100; -542.000; -567.000
850.961;   17.625; -739.000; -678.000
851.211;   89.150; -513.000; -504.000
851.460;  154.150; -635.000; -650.000
851.709;  554.600;  -25.000;   18.000
851.958;10191.300; -912.000; -750.000
852.208;12666.925; -859.000; -879.000
852.457;  450.550; -181.000;  -13.000
852.706;   68.975; -791.000; -823.000
852.955;    5.225; -507.000; -528.000
853.204;  -78.975; -521.000; -461.000
853.453;  -81.150; -418.000; -458.000
853.702; -139.700; -660.000; -750.000
853.951; -111.050; -532.000; -520.000
854.200; -122.200; -613.000; -562.000
854.449; -146.850; -695.000; -661.000
854.698;  -93.475; -340.000; -279.000
854.946;  -71.775; -181.000; -284.000
855.195; -147.275; -843.000; -868.000
855.444;  -98.625; -395.000; -420.000
855.693; -127.775; -345.000; -432.000
855.941; -107.050; -387.000; -516.000
856.190;  -53.425; -256.000; -382.000
856.439; -132.325; -652.000; -703.000
856.687;  -73.300;  -99.000;  -72.000
856.936; -133.525; -621.000; -323.000
857.184; -194.000;-1067.000;-1020.000
857.433; -121.225; -423.000; -512.000
857.681; -158.700; -989.000; -953.000
857.930;  -90.125; -282.000; -433.000
858.178; -176.650; -856.000; -929.000
858.427; -161.575; -802.000; -781.000
858.675; -129.250; -377.000; -544.000
858.923; -118.450; -527.000; -819.000
859.172; -185.050;-1094.000;-1070.000
859.420;  -97.250; -339.000; -239.000
859.668; -150.975; -624.000; -628.000
859.916;  -31.025;  109.000;  115.000
860.164; -136.250; -699.000; -603.000
860.413;  246.000; -878.000; -696.000
860.661;  178.450; -709.000; -577.000
860.909;  -99.425; -339.000; -325.000
861.157;  -98.925; -277.000; -444.000
861.405; -133.550; -534.000; -670.000
861.653;    4.975;  310.000;  310.000
861.901;  134.775; -543.000; -613.000
862.149;  -26.925; -801.000; -824.000
862.396;  -98.475; -297.000; -187.000
862.644; -103.800; -368.000; -347.000
862.892;  -42.950;   98.000;  138.000
863.140; -138.400; -549.000; -530.000
863.388; -171.700; -815.000; -759.000
863.635; -129.250; -642.000; -601.000
863.883;  -32.800;  231.000;  190.000
864.131; -113.050; -288.000; -357.000
864.378; -139.275; -675.000; -540.000
864.626; -103.150; -347.000; -415.000
864.873; -121.875; -556.000; -505.000
865.121; -140.600; -714.000; -799.000
865.368;  -44.200; -173.000;   75.000
865.616;  -41.575;  -33.000;  -40.000
865.863;  -75.000; -462.000; -506.000
866.111; -123.950; -795.000; -824.000
866.358;   36.750; -426.000; -420.000
866.605; 2370.650;  -64.000; -804.000
866.853; 2481.275; -621.000; -537.000
867.100;  -28.525; -728.000; -775.000
867.347; -109.975; -672.000; -611.000
867.594;  -85.550; -740.000; -714.000
867.841;   89.075;   97.000;   17.000
868.089; -160.000; -746.000; -698.000
868.336; -114.050; -477.000; -420.000
868.583; -147.450; -637.000; -741.000
868.830;  -55.675; -131.000; -170.000
869.077; -162.725; -859.000; -787.000
869.324; -141.875; -502.000; -458.000
869.571; -131.625; -398.000; -430.000
869.818; -126.950; -485.000; -439.000
870.065; -124.525; -439.000; -513.000
870.311; -117.950; -456.000; -542.000
870.558; -125.350; -332.000; -311.000
870.805;  -97.275; -320.000; -384.000
871.052; -113.675; -494.000; -369.000
871.298;  -68.425; -204.000; -131.000
871.545;  -75.975; -151.000; -185.000
871.792; -100.900; -173.000; -222.000
872.038;  -83.775;   43.000; -126.000
872.285; -124.600; -496.000; -387.000
872.532; -107.750; -357.000; -387.000
872.778;   -9.000;  556.000;  403.000
873.025;  -99.450; -384.000; -359.000
873.271;    1.675;  501.000;  578.000
873.517;  -42.450; -133.000; -209.000
873.764;  -41.175; -193.000;  -80.000
874.010;  -80.550; -143.000; -230.000
874.257;  -50.850;  123.000;   90.000
874.503; -144.100; -579.000; -479.000
874.749;  -85.250;   31.000;  275.000
874.995;  -78.575;  -80.000;  -20.000
875.242; -123.800; -540.000; -478.000
875.488; -126.475; -414.000; -439.000
875.734;  -58.150; -106.000; -234.000
875.980;  161.225; -872.000;-1032.000
876.226;  322.325; -157.000; -255.000
876.472;  -16.350;  343.000;  237.000
876.718;  -49.550;  184.000;  158.000
876.964;  -47.325;   56.000;   55.000
877.210; -152.550; -547.000; -677.000
877.456; -153.525; -630.000; -557.000
877.702; -184.250; -821.000; -832.000
877.948; -115.775; -377.000; -497.000
878.193;  -22.400;  361.000;  255.000
878.439; -109.875; -487.000; -472.000
878.685; -107.200; -272.000; -343.000
878.931; -131.375; -618.000; -676.000
879.176;  -90.800; -201.000; -201.000
879.422; -193.400; -933.000; -820.000
879.668;   20.975;   10.000;   79.000
879.913;  128.100;   53.000;  137.000
880.159;  -67.825; -112.000;  -17.000
880.404;  -77.400; -152.000; -162.000
880.650;  -42.025;   91.000;  141.000
880.895; -160.250; -670.000; -710.000
881.141; -136.400; -454.000; -428.000
881.386; -148.300; -503.000; -658.000
881.631;  -85.675; -311.000; -166.000
881.877;  -41.175;  112.000;  -13.000
882.122; -146.400; -684.000; -600.000
882.367;  -84.825; -136.000; -186.000
882.612;  -78.375;  -80.000; -176.000
882.858; -176.950; -877.000; -823.000
883.103; -104.800; -297.000; -267.000
883.348; -164.550; -759.000; -852.000
883.593; -152.900; -677.000; -602.000
883.838;  -58.250; -311.000;  -24.000
884.083;    9.800;  353.000;  288.000
884.328; -106.400; -564.000; -545.000
884.573;  -66.250; -196.000; -143.000
884.818;  163.825; -694.000; -531.000
885.063;  167.525; -348.000; -315.000
885.308; -111.725; -475.000; -398.000
885.553;  -20.450;  245.000;  325.000
885.797; -138.900; -545.000; -615.000
886.042;  -70.850;    8.000;   58.000
886.287;  -89.450; -253.000; -211.000
886.532;  -48.975;   26.000;  204.000
886.776; -116.150; -407.000; -525.000
887.021; -136.050; -621.000; -574.000
887.265; -162.300; -685.000; -689.000
887.510; -148.675; -557.000; -496.000
887.755; -102.225; -194.000; -164.000
887.999; -140.875; -552.000; -575.000
888.244;  -52.825;  -58.000;  161.000
888.488;  -23.150;  371.000;  393.000
888.732; -140.050; -368.000; -520.000
888.977; -146.325; -622.000; -567.000
889.221; -174.875; -683.000; -659.000
889.465; -130.525; -422.000; -566.000
889.710;  -76.425;  -56.000; -299.000
889.954;   -5.325;  579.000;  467.000
890.198; -158.150; -584.000; -707.000
890.442; -152.700; -716.000; -712.000
890.687; -173.800; -800.000; -753.000
890.931; -111.050; -273.000; -210.000
891.175; -146.400; -502.000; -500.000
891.419;  -93.300; -105.000; -110.000
891.663; -102.275; -239.000; -112.000
891.907; -159.950; -801.000; -545.000
892.151; -182.425; -920.000; -815.000
892.395; -117.575; -274.000; -387.000
892.638;  -30.000;  408.000;  291.000
892.882; -178.200; -780.000; -867.000
893.126;   14.150;  758.000;  558.000
893.370;  -92.000; -167.000; -168.000
893.614; -152.325; -714.000; -715.000
893.857; -106.400; -183.000; -197.000
894.101; -143.250; -527.000; -631.000
894.345;  -63.425;  300.000;  150.000
894.588;   14.250;  569.000;  380.000
894.832;  -89.850; -178.000;  -84.000
895.075;  -89.425;   15.000;  -92.000
895.319; -143.675; -552.000; -420.000
895.563; -119.250; -413.000; -353.000
895.806; -166.000; -628.000; -741.000
896.049;  -77.050; -576.000; -368.000
896.293;   88.475;  527.000;  405.000
896.536;  -75.975; -465.000; -468.000
896.779;  -59.775; -149.000;   -1.000
897.023; -162.300; -751.000; -714.000
897.266;  -45.925;  325.000;  269.000
897.509; -183.900; -900.000; -901.000
897.752;  -50.125;  149.000;  171.000
897.996; -192.075; -972.000; -864.000
898.239;  -54.450;  168.000;  102.000
898.482; -132.550; -431.000; -453.000
898.725;  -33.925;  101.000;   53.000
898.968; -167.500; -609.000; -744.000
899.211; -113.575; -513.000; -361.000
899.454; -132.225; -633.000; -539.000
899.697;  -80.725;   90.000;  -43.000
899.940; -167.975; -761.000; -757.000
900.182; -109.525; -335.000; -405.000
900.425; -109.475; -150.000; -298.000
900.668;  -31.550;  491.000;  350.000
900.911; -119.325; -292.000; -345.000
901.154;  -59.450;  141.000;   -3.000
901.396; -149.550; -407.000; -412.000
901.639; -157.400; -430.000; -496.000
901.882; -177.750; -790.000; -809.000
902.124;  -84.800;  -29.000; -143.000
902.367; -126.800; -315.000; -361.000
902.609; -149.475; -476.000; -453.000
902.852;  -81.600; -108.000; -260.000
903.094; -134.500; -458.000; -337.000
903.337;  -75.975;  -26.000;   53.000
903.579; -123.375; -228.000; -441.000
903.821; -174.500; -597.000; -744.000
904.064;  -77.025;   85.000;  127.000
904.306;  -97.175; -126.000; -166.000
904.548;  -97.050; -152.000; -366.000
904.790; -114.175; -195.000; -340.000
905.033; -144.700; -625.000; -577.000
905.275; -141.525; -513.000; -524.000
905.517;   21.025;  468.000;  256.000
905.759;  -91.925; -667.000; -761.000
906.001;  -99.800; -322.000; -369.000
906.243;  -60.475; -162.000; -224.000
906.485;   95.000; -265.000; -207.000
906.727;   72.875; -499.000; -542.000
906.969;  -30.200;  -30.000; -135.000
907.211;   97.975; -316.000; -382.000
907.453;  217.025; -188.000; -237.000
907.695;   -9.225; -158.000; -385.000
907.936;   27.550;  818.000;  706.000
908.178;  -66.425;   92.000; -135.000
908.420;  -77.725; -111.000; -162.000
908.662; -137.725; -633.000; -682.000
908.903;  -94.200; -208.000; -123.000
909.145;  -73.325; -240.000; -305.000
909.386;   -8.425;  315.000;  280.000
909.628;   31.875;  363.000;  397.000
909.870;  -13.075;   29.000;  264.000
910.111; -101.525; -809.000; -949.000
910.353;   17.100; -123.000; -161.000
910.594;   -2.100; -574.000; -606.000
910.835;   70.525; -265.000; -326.000
911.077;  148.700; -503.000; -604.000
911.318;  266.900; -505.000; -471.000
911.559;  444.075; -577.000; -880.000
911.801; 1288.150; -284.000; -280.000
912.042;10217.400;  -50.000; -159.000
912.283;26813.950;  404.000;  371.000
912.524; 4181.650; -396.000; -457.000
912.765;  481.825; -193.000;   79.000
913.006;  229.000; -307.000; -338.000
913.247;   36.150; -270.000; -290.000
913.488;   -9.675;  -43.000;   30.000
913.729; -104.175; -373.000; -373.000
913.970;  -77.550;  -96.000; -292.000
914.211;  -74.600; -160.000; -198.000
914.452;  -84.325; -118.000;  -11.000
914.693;   -2.375;  510.000;  592.000
914.934;    8.100;  510.000;  440.000
915.175;  -92.725;   53.000;  -95.000
915.415;  -80.425; -137.000;   27.000
915.656;  -69.550;  -28.000;  192.000
915.897;  -83.200; -252.000;  -82.000
916.137;  -86.125;   74.000;   -9.000
916.378; -136.375; -573.000; -517.000
916.619; -103.725; -159.000;  -63.000
916.859;  -30.775;  303.000;  330.000
917.100;  114.575; 1655.000; 1070.000
917.340;   36.675;  930.000;  728.000
917.581;   34.500;  965.000;  789.000
917.821;  -55.075; -171.000;  143.000
918.061;   -6.600; -199.000;  -72.000
918.302;  -51.125; -152.000; -211.000
918.542;  -38.075;  -22.000;    3.000
918.782;   29.325;  369.000;  377.000
919.023;  121.450;  360.000;  427.000
919.263; 1730.475; 8131.000;  202.000
919.503; 1069.200; -137.000;  -54.000
919.743;  596.325;  390.000;  266.000
919.983;  248.450; -134.000;  -26.000
920.223;   70.975;  135.000;   14.000
920.463;  138.525;  631.000;  554.000
920.703;  130.875;   84.000;   39.000
920.943;  145.325; -110.000;   90.000
921.183;  239.400; -414.000; -405.000
921.423;  533.525;  307.000;  546.000
921.663;  720.100; -174.000; -257.000
921.903; 1587.050;  237.000;  173.000
922.143; 8754.175;  372.000;  389.000
922.383;34086.775;  158.000;  115.000
922.622;11680.075; -120.000;  -15.000
922.862; 1216.750;  796.000;  785.000
923.102;  456.175;  -51.000;   33.000
923.341;  184.650;   59.000;   74.000
923.581;   94.500;  450.000;  360.000
923.821;    9.225;  301.000;  398.000
924.060;    8.300;  351.000;  193.000
924.300;  -71.900;  -16.000; -128.000
924.539;  -23.475;  584.000;  473.000
924.779;   12.850;  812.000;  597.000
925.018;  -37.900;  247.000;  353.000
925.257;   -3.350;  595.000;  666.000
925.497;  -44.000;  447.000;  412.000
925.736;  -93.375;  -35.000;  102.000
925.975;   -1.450;  687.000;  669.000
926.214;   16.525;  907.000;  850.000
926.454;   27.850;  706.000;  757.000
926.693;  -37.025;  419.000;  543.000
926.932;   36.500; 1021.000;  825.000
927.171;   62.625; 1107.000; 1044.000
927.410;   49.975; 1144.000;  967.000
927.649;   12.450;  924.000;  742.000
927.888;  -22.500;  590.000;  564.000
928.127;   -7.100;  680.000;  678.000
928.366;   11.875;  842.000;  826.000
928.605;   33.100;  831.000;  737.000
928.844;  229.375; 1451.000; 1393.000
929.083;  588.875;  770.000;  613.000
929.321;  318.325; 1335.000; 1359.000
929.560;   80.175; 1158.000; 1122.000
929.799;  -30.425;  574.000;  475.000
930.038;   78.025; 1025.000; 1394.000
930.276;  -57.675;  334.000;  397.000
930.515;  -16.550;  827.000;  681.000
930.753;  -36.275;  614.000;  589.000
930.992;  -21.250;  664.000;  717.000
931.230;   -8.275;  847.000;  847.000
931.469;  169.250; 2162.000;  892.000
931.707;   68.850;  840.000;  751.000
931.946;   39.400; 1278.000; 1344.000
932.184;   62.600; 1437.000; 1175.000
932.423;   52.650; 1265.000;  963.000
932.661;   72.575; 1296.000; 1428.000
932.899;   21.325;  987.000;  821.000
933.137;    7.950;  754.000;  564.000
933.376;  121.700; 1664.000; 1335.000
933.614;  147.850; 1759.000; 1196.000
933.852;   41.675; 1357.000; 1171.000
934.090;  141.100; 1722.000; 1747.000
934.328;  105.025; 1252.000; 1457.000
934.566;   98.700; 1431.000; 1110.000
934.804;  136.475; 1263.000; 1309.000
935.042;  480.475; 1861.000; 1850.000
935.280; 1902.375; 2088.000; 2063.000
935.518; 1830.575; 2113.000; 2007.000
935.756;  393.750; 2481.000; 2316.000
935.994;  164.175; 1808.000; 1751.000
936.231;  343.250; 2890.000; 2950.000
936.469;  189.400; 2367.000; 2378.000
936.707;  160.800; 2220.000; 2167.000
936.945;  225.625; 2825.000; 2882.000
937.182;  194.500; 2679.000; 2741.000
937.420;  287.675; 3602.000; 3031.000
937.657;  395.325; 3365.000; 3478.000
937.895;  334.500; 3331.000; 3488.000
938.133;  306.700; 3540.000; 3528.000
938.370;  341.625; 3896.000; 4191.000
938.607;  392.850; 4488.000; 4205.000
938.845;  543.800; 5587.000; 5549.000
939.082;  492.750; 5387.000; 5177.000
939.320;  523.725; 5799.000; 5728.000
939.557;  640.150; 6549.000; 6491.000
939.794;  728.550; 7285.000; 7097.000
940.031;  910.850; 8421.000; 8368.000
940.269; 1092.425; 9552.000; 9107.000
940.506; 1121.300;10901.000;10507.000

