
Integration time [ms]: 200.000
Averaging Nr. [scans]: 10
Smoothing Nr. [pixels]: 0
Data measured with spectrometer [name]: 2101013U2
Wave   ;Sample   ;Dark     ;Reference
[nm]   ;[counts] ;[counts] ;[counts] 

394.013;   64.819; -450.257; -315.536
394.305;  277.516; -461.258; -419.536
394.596; 1279.589; -676.269; -527.514
394.887; 2900.410; -796.268; -654.518
395.178; 1242.048;  145.736;   11.476
395.470;   71.961; -210.263; -356.526
395.761;  403.328;  305.734;  394.479
396.052;  542.035; -545.284; -306.489
396.343;  549.121; -557.276; -454.503
396.634;  118.383; -200.279; -290.497
396.926;  127.107; -618.268; -565.517
397.217;  115.127;   11.725;  -17.504
397.508;   53.046; -366.273; -154.507
397.799;  -11.717; -555.279; -571.497
398.090; -115.024; -973.280; -902.495
398.381;   94.342;   11.708;  -11.473
398.672;  -72.156; -585.292; -742.473
398.963;    2.890; -348.279; -373.498
399.254;  135.555;   54.709; -209.475
399.545; -162.576;-1017.266; -883.520
399.836;   75.208; -407.277; -343.501
400.127;   45.213; -205.295; -209.468
400.418;   54.439; -423.274; -392.506
400.709;   51.660; -359.281; -333.493
401.000;   49.760; -268.291; -309.476
401.290;  174.435;  225.698;  115.545
401.581;   78.614; -166.286; -228.485
401.872;  -43.121; -542.298; -486.462
402.163;   32.804; -313.296; -252.467
402.454;  108.456; -123.291; -163.475
402.744;   14.993; -844.297; -813.465
403.035;  511.632; -226.293;  -86.471
403.326;  666.847; -366.292; -384.474
403.617;  492.372;  204.701;  165.539
403.907;  248.442; -593.283; -679.490
404.198; 2654.778; -545.307; -599.446
404.489; 6794.548; -618.283; -588.491
404.779; 2411.639; -618.302; -660.456
405.070;  294.513;  -67.304; -174.451
405.360;  340.734; -259.293; -238.472
405.651;  456.053;  125.699;   98.542
405.942;  165.208;  209.714;  127.516
406.232;  318.126; -432.285; -413.487
406.523;  703.925;  641.706;  758.530
406.813;   76.710; -579.286; -644.484
407.104;  462.541;  261.708;  144.527
407.394;  198.973; -604.299; -591.462
407.685;  219.825;  336.715;  222.513
407.975;   79.446; -400.283; -382.490
408.265;   96.274; -134.289; -190.478
408.556;   30.652; -472.291; -459.475
408.846;  309.526;  474.706;  429.530
409.137;   83.284;   -1.288; -216.480
409.427;   20.325; -193.285; -271.487
409.717;   13.750; -776.273; -692.508
410.007;  185.317;    4.715; -170.486
410.298;   90.816; -360.295; -342.469
410.588;   27.222; -495.285; -510.486
410.878;  -42.602; -792.287; -873.482
411.168;   86.782; -481.298; -478.463
411.459;  120.540; -295.283; -242.489
411.749;    4.950; -609.292; -507.474
412.039;   15.582; -755.289; -386.480
412.329;  268.699;   40.722;  132.501
412.619;  198.711;  -62.286; -148.485
412.909;  523.877;  639.711;  594.521
413.199;  377.976; -130.280; -251.495
413.490;  554.165;  521.710;  352.523
413.780;   77.581;-1013.279; -913.496
414.070;  389.122;  -46.276;  235.497
414.360;  367.494; -729.278; -666.498
414.650;  394.893; -726.288; -688.482
414.940;  560.180; -538.280; -441.496
415.230; 1090.289;   50.712;   74.519
415.520; 6989.388;  155.730;   66.486
415.809;26570.759; -305.281; -125.493
416.099;21179.710; -388.277; -229.501
416.389; 5899.237;  435.726;  236.494
416.679; 3528.066;   91.738;   85.473
416.969;  598.303; -527.287; -503.483
417.259;  743.983;  341.721;  171.503
417.549;  815.958;  522.718;  318.508
417.838; 1849.309; -205.268; -147.518
418.128; 6012.272;  650.710;  492.522
418.418; 5035.658; -491.272; -579.509
418.708; 3471.937;    9.726;  -48.506
418.997;12635.632; -474.275; -480.505
419.287;13301.145; -733.273; -790.507
419.577;12732.939; -160.283; -123.489
419.866;41341.308; -588.277; -498.501
420.156;42761.783; -242.270;  -55.513
420.446; 8185.457; -112.263;  -26.526
420.735; 1064.776; -376.271; -446.512
421.025; 1270.193; 1830.722;  315.502
421.314;  907.274; -203.271; -226.512
421.604; 1972.600;   89.732;  233.484
421.893; 1113.669; -705.271; -602.511
422.183;  264.357; -487.263; -461.526
422.472;  515.271;  -36.271; -107.511
422.762;  570.231; -416.266; -379.521
423.051;  204.623; -916.276; -916.503
423.341;  365.148; -491.273; -439.507
423.630;  492.239; -121.265;   15.477
423.919;  458.731;   58.725;   49.495
424.209;  445.464;  -31.263;   56.473
424.498;  575.306;   68.732;  161.483
424.787; 1177.614; -535.267; -601.518
425.077; 3773.037;   34.735;   29.478
425.366; 5591.470; -734.262; -744.528
425.655;11409.548;  639.727;  259.493
425.945;22784.130; -313.247; -268.554
426.234;13249.298;  117.741;  300.467
426.523; 5598.505;  -86.259; -350.534
426.812; 7784.226;  107.734;  159.480
427.101;11628.596; -127.269; -323.515
427.390;14736.788;  -55.270;  -86.514
427.680; 3647.229; -624.257; -411.538
427.969;  585.842; -330.255; -301.540
428.258;  360.319; -385.257; -477.536
428.547;  756.063;  449.728;  397.490
428.836; 1551.462; -421.253; -398.543
429.125; 2262.107; -199.259;  -72.534
429.414;  986.590; -330.251; -294.548
429.703; 3603.390; -231.251; -213.548
429.992;10076.995; -938.250; -828.549
430.281; 6871.848; -397.264; -331.524
430.570;  790.179;  -21.252;   32.454
430.859;  759.904;  279.741;  352.466
431.148;  701.824;  636.752;  631.446
431.437;  394.078;  391.748;  367.454
431.725;  165.021; -544.257; -481.536
432.014;   32.671; -845.253; -756.545
432.303;  437.418; -149.239; -105.569
432.592;  697.956; -460.263; -178.525
432.881; 1115.426; -601.248; -437.554
433.169; 6910.743; -343.255;  -61.540
433.458;13580.159;  445.765;  540.424
433.747; 5974.777; -397.261; -289.529
434.036; 1026.388; -275.242; -280.564
434.324; 2333.410; -395.249; -379.551
434.613; 3958.480;   40.757;  159.437
434.902; 1516.605;  333.760;  439.433
435.190;  811.516;   75.761;  295.431
435.479;  414.757;  -52.245;   83.441
435.767;  121.767; -411.244; -427.561
436.056;  233.083; -340.242; -294.563
436.345;  423.908; -372.240; -223.568
436.633;  507.304;   60.750;  383.450
436.922;  373.511;  208.760;  414.432
437.210;  808.847; -194.236;    1.426
437.499; 2612.757; -583.235; -432.576
437.787; 2953.946; -339.236;  -10.574
438.075;  759.023;   56.761;  162.430
438.364;  937.526;  -44.238;  250.429
438.652;  543.655; -286.226; -138.592
438.941;  192.511;    3.770;  269.415
439.229;  -65.725; -665.252; -466.545
439.517;   11.967; -160.234;  -85.577
439.806;  -33.625; -501.225; -290.595
440.094;  249.377;  377.766;  650.421
440.382;  195.281; -653.233; -302.580
440.670;  221.656; -361.235; -285.576
440.959;    1.596; -347.223; -170.599
441.247;   50.925; -151.229; -109.587
441.535;  126.565; -266.235;   31.423
441.823;  -18.027; -497.234; -305.578
442.111;  263.030;  173.771;  327.412
442.400;  609.957; -628.245; -335.559
442.688; 1882.476; -111.234; -620.579
442.976; 1299.104; -786.213; -450.617
443.264;   96.283; -324.224; -364.597
443.552;  106.457; -258.226;   51.408
443.840;  281.264;  602.765;  876.423
444.128;  178.480;  265.767;  269.420
444.416;  -52.767; -694.228; -312.588
444.704;  -22.167; -465.219;  -92.605
444.992;  119.260;   -0.226;  240.407
445.280;   31.312; -517.230;  -94.585
445.568;   29.909; -694.212; -396.618
445.856;  449.213; -174.221;  357.398
446.143; 1020.928;  -54.220;   -7.604
446.431;  849.638;  -25.228;  625.411
446.719;  400.256;  489.783;  675.391
447.007;  261.705;  481.769;  705.416
447.295;  285.392;  597.777;  871.402
447.583;   78.722; -464.229;  -34.587
447.870;  159.009; -434.221; -202.601
448.158;  544.610; -104.230;  129.415
448.446;  367.429; -800.219; -338.604
448.733;  222.685;   13.776;  269.403
449.021;  328.508;   60.788;  341.382
449.309;  237.827; -296.210;  208.379
449.596;  298.052;  128.783;   59.392
449.884;  108.101; -571.222; -325.600
450.172;  111.245; -756.227; -406.590
450.459;  586.384;  645.786;  780.387
450.747; 2677.350; -411.218; -147.608
451.034; 8132.139;  493.772;  889.411
451.322; 6775.887; -413.214; -170.614
451.609;  657.086;  292.777;  508.403
451.897;  651.304; -550.203; -183.634
452.184; 1859.693; -622.223; -400.598
452.472; 1935.553;   97.792;  269.375
452.759;  483.530;  512.781;  864.395
453.047;  112.005; -407.212; -125.617
453.334;   66.740; -732.219; -216.606
453.621;   88.490; -438.214; -161.615
453.909;  163.194;   13.796;  384.368
454.196;  168.550; -299.199; -123.641
454.483;  294.120;  317.798;  540.364
454.771;  150.657; -215.208;  196.374
455.058;   22.061; -316.207;  102.374
455.345;  187.718;   71.807;  344.347
455.632;  101.665; -128.207;  235.373
455.919;   98.478;  -82.196;  182.354
456.207; -144.244; -774.198; -450.642
456.494;  -57.065; -475.200;  -66.639
456.781;   -8.685; -399.202; -198.635
457.068;   49.873; -253.206;  -29.628
457.355; -108.926; -698.206; -401.629
457.642;  -22.219; -552.205; -290.630
457.929;  -75.093; -778.194; -417.651
458.216;   50.305; -575.212; -354.617
458.503;  265.213; -173.193;  -19.652
458.790;  202.354; -864.208; -630.625
459.077;  283.621;  -77.202;  110.364
459.364;  922.598; -350.195; -210.649
459.651; 1860.670;  -46.206;  220.372
459.938;  809.942; -864.209; -665.623
460.225;  199.125;  132.799;  276.363
460.512; -123.226; -836.197; -688.645
460.799;  143.748;  -32.218;  320.392
461.086;   38.241; -370.200; -251.640
461.372;   18.256; -509.198; -279.642
461.659;  178.879; -165.196;  108.354
461.946;   60.711; -445.193;  -54.651
462.233;  411.238;  842.800;  888.361
462.519;  327.334; -814.201; -464.639
462.806; 1035.575; -768.197; -497.645
463.093;  918.436; -445.191;  -66.656
463.380; -121.913; -920.186; -824.664
463.666;   62.277; -259.197;  -18.646
463.953;  122.692; -406.195; -243.648
464.239;  258.792; -173.195;  -77.648
464.526;  568.905;  413.806;  743.350
464.813;  416.851; -565.190; -304.658
465.099;  539.612;  606.807;  607.348
465.386;  538.717;  903.807;  921.348
465.672;   -0.425; -694.197; -522.645
465.959;  -38.127; -598.188; -520.662
466.245;   -7.983; -468.193; -359.652
466.532;  122.289; -109.195;   63.352
466.818;   87.087; -357.186; -216.664
467.104;  -30.064; -488.182; -415.672
467.391;  -41.247; -628.189; -459.658
467.677;   34.291; -289.186;    9.335
467.964;  -29.639; -682.189; -471.660
468.250;   64.995; -331.186; -160.665
468.536;  129.455;   90.811;  180.341
468.822;  -68.291; -821.184; -574.668
469.109;  237.736;  351.827;  471.311
469.395;  317.629;  729.808;  787.346
469.681;  259.258;   46.811;  156.341
469.967; 1403.664; -699.188; -382.660
470.254; 2879.174; -494.188; -306.662
470.540; 1868.078; -601.196; -476.646
470.826;  234.350; -488.181; -397.675
471.112;  408.514;  288.816;  113.331
471.398;  131.919; -253.183;  -58.670
471.684;    2.685; -626.177; -447.680
471.970;  -61.645; -918.180; -981.675
472.256;   21.128; -521.192; -441.654
472.542;    3.749; -499.171; -434.691
472.828;  -55.669; -743.182; -607.672
473.114;   24.503; -380.166; -283.700
473.400;  -13.495; -504.175; -293.684
473.686;   42.911; -452.166; -400.701
473.972;   51.323; -230.174; -131.687
474.258; -116.064; -925.173; -843.689
474.544;  246.475; -183.178;   -2.679
474.830;  341.807;  -65.175;   45.316
475.116;  577.053; -123.190; -196.658
475.401;  728.358; -558.180; -467.676
475.687;  151.056; -725.180; -718.676
475.973;  -48.059; -673.181; -770.673
476.259;  382.610;  736.825;  764.315
476.544;  441.695; -539.176; -437.682
476.830;  951.044; -398.172; -322.690
477.116;  818.193; -430.177; -336.682
477.401;  271.557;  346.820;  358.324
477.687;  -78.095; -289.175; -405.684
477.973;   20.746;   21.819;   28.326
478.258;  -40.664; -448.163; -348.706
478.544;   70.101;   21.815;   61.334
478.829; -120.544; -818.171; -738.692
479.115; -121.256; -749.172; -651.690
479.401;  -38.882; -444.174; -449.686
479.686;   55.656; -253.180;  -74.676
479.972; -100.419; -886.178; -776.680
480.257;   -5.495; -258.166;  -65.700
480.542;  -42.739; -614.170; -469.693
480.828;  447.203; 1288.824; 1392.317
481.113;  -48.499; -464.176; -426.683
481.399;  -13.835; -236.161; -202.711
481.684;  -93.996; -620.166; -462.700
481.969;   49.182; -158.159;  -73.713
482.255;  -42.126; -439.169; -285.695
482.540;  -60.919; -569.178; -441.680
482.825;   -9.719; -395.187; -404.663
483.110;  132.978;  -85.169; -105.696
483.396;  208.208; -840.157; -652.718
483.681;  676.823;  543.826;  730.313
483.966;  142.274; -696.160; -700.712
484.251;   -7.878; -404.174; -310.687
484.536;  -14.483; -356.165; -378.703
484.822;   -3.574; -205.173; -218.687
485.107;  -99.145; -599.152; -502.726
485.392;  231.324;  662.836;  541.296
485.677;  173.190;  354.832;  163.302
485.962;  164.805;  160.843;  270.283
486.247;  201.446;  -14.162;   -8.707
486.532;   31.506; -178.166; -325.701
486.817;  248.058;  381.839;  431.291
487.102;   97.734; -453.154; -514.722
487.387;  810.710; -637.156; -652.718
487.672; 1299.231; -154.164;  -38.705
487.957;  886.067; -394.160; -286.711
488.241;  199.076; -290.150; -314.729
488.526;  911.857; -280.152; -148.726
488.811; 1287.484; -881.177; -818.680
489.096; 1013.238; -666.154; -702.723
489.381;  624.052;    3.847;  162.275
489.666;  419.265; -428.161; -510.710
489.950;  294.941;  558.846;  627.277
490.235;  -88.530; -480.151; -458.728
490.520; -149.236; -756.161; -723.710
490.804; -111.587; -827.156; -736.719
491.089;  -43.705; -469.149; -299.732
491.374;   46.829; -132.164;  -75.704
491.658;  -55.791; -817.147; -717.735
491.943;  176.962; -657.152; -609.727
492.227;  292.529; -178.155;  -38.721
492.512;   64.505; -294.157; -341.717
492.797; -158.312; -713.149; -716.731
493.081; -106.987; -588.147; -598.735
493.366; -115.335; -751.161; -635.711
493.650;  373.078;  831.859;  917.254
493.935;   -7.992; -648.147; -447.734
494.219; -112.438; -778.142; -687.743
494.503; -114.319; -585.150; -487.730
494.788;   90.094;   46.842;   74.285
495.072;  172.977;  184.850;  434.271
495.356;  215.299; -463.148; -343.733
495.641;  545.821; -812.146; -736.736
495.925;  424.819; -976.156; -903.719
496.209;   26.894; -599.149; -451.732
496.494; -113.637; -763.142; -544.744
496.778;  -29.166; -364.154; -360.722
497.062; -121.282; -819.156; -627.719
497.346; -119.931; -869.160; -640.711
497.631;  279.003;  580.852;  560.266
497.915;  105.334;  -64.145;  175.261
498.199;   37.308; -341.157; -277.718
498.483;    6.355; -562.152; -508.725
498.767;  317.079;  301.850;  300.271
499.051;  248.692; -126.149; -100.732
499.335;  -24.111; -693.149; -739.731
499.619;  -82.798; -381.129; -423.767
499.903;   15.727; -272.155;  -65.721
500.187;   11.943; -588.153; -316.724
500.471;  -19.439; -796.152; -595.727
500.755;  135.764;   62.839;  -96.710
501.039;   33.228; -270.155; -357.721
501.323;  121.180;  -21.141;  264.254
501.607;   38.136; -447.163; -503.706
501.891;  -73.290; -607.156; -512.718
502.174;  -95.753; -726.144; -585.741
502.458;  126.166;   89.849;  370.273
502.742;   47.910; -180.138; -191.751
503.026;  123.608; -412.147; -254.734
503.310;  197.280; -437.159; -375.713
503.593;   74.910; -464.147; -325.735
503.877;  161.159; -232.133; -156.760
504.161;  229.646;    2.847;  -50.724
504.444;   94.797; -841.158; -710.716
504.728;  479.028; -487.164; -522.704
505.012;  862.075; -257.150;  -76.729
505.295;  611.365; -417.161; -212.711
505.579;  653.518; -256.156; -496.719
505.862;  875.329; -555.145; -333.738
506.146;  806.683; -681.159; -758.714
506.429;  606.984;  568.841;  461.286
506.713;   37.871; -732.151; -667.728
506.996;  433.834;   90.846;  295.278
507.280;  360.622; -633.165; -474.703
507.563;  241.426; -469.155; -261.721
507.847;  102.244; -423.153; -112.724
508.130;   46.566; -665.161; -456.711
508.413;  113.799; -758.167; -577.700
508.697;  301.500; -151.167;   12.300
508.980;  167.446; -422.153; -312.724
509.263;  -83.479; -466.155; -450.720
509.547;   36.675; -124.150;   82.271
509.830;   57.969; -172.160;  140.289
510.113;  127.818;  128.844;  298.281
510.396;    3.053; -530.152; -300.725
510.680;  199.331; -818.145; -812.738
510.963;  888.539;  184.846;  180.277
511.246;  757.084; -493.150; -357.730
511.529;  333.037; -482.145;  -83.739
511.812;  429.255; -250.134;   10.241
512.095;  229.368; -740.151; -396.728
512.378;   83.815; -317.147; -245.736
512.661;  -26.781; -703.137; -623.753
512.944;  -75.035; -750.142; -637.744
513.227;   44.415; -170.137; -171.752
513.510;   -2.953; -479.144; -671.741
513.793;  -12.515; -485.140; -435.747
514.076;  204.728;  -43.127;  -39.771
514.359;  106.295; -294.149; -135.732
514.642;   63.268; -442.142; -567.744
514.925;  973.683;  581.860;  561.253
515.208; 1058.850; -498.134; -443.758
515.491;  738.567; -276.133; -182.761
515.773;  446.552; -410.143; -337.742
516.056; 2513.127;  249.864;  409.246
516.339; 3187.732; -754.136; -652.755
516.622; 2472.381; -518.150; -488.730
516.904; 1807.560;  882.857;  975.257
517.187;  733.614; -730.138; -523.752
517.470;  482.159; -568.143; -510.743
517.752;  465.035; -624.136; -470.756
518.035;  337.098; -708.139; -725.749
518.318;  376.632; -799.136; -744.755
518.600; 2810.072; -300.132; -325.762
518.883; 3695.268;  310.858;   88.256
519.165; 1844.905; -585.138; -426.751
519.448;  485.071;  -61.132;  -19.762
519.730;  205.637; -573.126; -415.773
520.013;  494.663;  588.867;  664.240
520.295; 1148.057;  -94.134;  -15.759
520.578; 2446.087; -335.131; -305.764
520.860; 2789.872; -254.132;   56.238
521.143; 1394.838; -763.135; -584.756
521.425;  642.753; -251.125; -279.775
521.707;  817.428; -622.127; -380.771
521.990; 2145.629; -199.127;  167.229
522.272; 2326.788; -116.140;   -4.748
522.554; 1180.153; -237.143; -157.742
522.836;  443.654;  -24.134;   99.241
523.119;  289.406; -496.148; -189.734
523.401;  128.096; -448.130; -314.766
523.683;   29.319; -865.137; -693.753
523.965;  383.311;  408.862;  260.248
524.247;  355.479;   54.878;  170.220
524.529;  202.957; -451.134; -367.759
524.812;  454.498;   -3.130;  191.234
525.094; 1038.911; -773.138; -631.751
525.376; 1615.864; -143.124;   78.223
525.658;  981.128; -441.136; -339.754
525.940;  -33.517; -805.131; -671.764
526.222;   37.433; -188.136;  -88.755
526.504;  167.281; -190.131;   32.237
526.786;  200.060; -960.133; -647.760
527.068;  406.771; -124.123;  -67.778
527.349;  110.124; -865.137; -774.754
527.631;  154.671; -137.132;   22.238
527.913;  111.327; -664.127; -450.771
528.195;  150.644; -761.125; -639.774
528.477;  305.951;  -93.134;  -30.758
528.759;  110.398; -648.130; -522.766
529.040;   14.370; -569.123; -293.778
529.322;   59.648; -235.125;  -10.774
529.604;  170.601;  -47.130;   93.233
529.886;  119.037; -546.126; -302.773
530.167;  188.791;  232.870;  192.235
530.449;   74.214;    1.853;   63.265
530.731;  -29.522; -572.122; -459.779
531.012;   21.104; -513.120; -216.784
531.294;   68.552; -118.116;  -43.792
531.575;  254.153;  290.875;  538.225
531.857;   28.844; -548.135; -266.757
532.138;  201.678; -113.141;   40.254
532.420;  297.840;  294.865;  403.244
532.701;  231.963; -722.133; -751.760
532.983;  446.766;  232.867;  182.239
533.264;  165.334; -243.126;  175.228
533.546;  -79.568; -491.136; -508.755
533.827;   97.659;  173.867;   -1.759
534.109;   11.744; -352.135;  -80.757
534.390;   73.276; -725.132; -582.762
534.671;  310.439; -270.135;  -82.756
534.953;  152.473; -751.123; -611.779
535.234;  -23.167; -426.117; -255.789
535.515; -175.386; -891.119; -735.785
535.796;  -81.577; -431.128; -193.770
536.078; -202.936;-1050.124; -904.777
536.359;  -17.326;  -22.123;    3.221
536.640;  -46.654; -480.125; -197.774
536.921;  234.207;  225.871;  143.232
537.202;  443.407;  -87.138;  -16.751
537.483;  588.787;  251.869;  377.236
537.764;  246.191;   17.870;   98.235
538.045;  -96.951; -543.134; -371.758
538.326;  -89.891; -596.129; -447.768
538.607;  -74.770; -686.127; -476.771
538.888;  244.293;   98.879;    5.218
539.169;  168.086; -704.122; -535.781
539.450;  466.506;  236.871;   16.233
539.731;  264.598; -361.121; -182.783
540.012;  193.504;  199.880;  412.216
540.293;  113.357;   82.876;  158.224
540.574;  -47.323; -895.113; -717.796
540.855;  636.696;  435.879;  377.218
541.136;  695.783;   47.878;  139.220
541.416;  300.999; -161.130; -220.766
541.697;  203.681; -274.131; -170.763
541.978; 1193.742; -270.135; -315.757
542.259; 1466.029; -211.127; -236.771
542.539;  696.044; -191.116; -186.790
542.820;  301.253;  461.875;  480.225
543.101;  129.833;  -52.145;  -77.738
543.381;  -39.371; -638.127; -591.771
543.662;  315.926;  159.873; -254.771
543.942;  622.724; -751.127; -830.770
544.223; 1241.285;  193.878;  161.219
544.504;  795.464; -275.124; -182.777
544.784;  677.437; -592.126; -408.773
545.065; 1925.149;  104.884; -254.791
545.345; 2307.614;  227.881;   14.215
545.626; 1593.976;  -14.113; -108.796
545.906; 1020.090;   77.869;   98.235
546.186;  446.742;   92.874;  -95.773
546.467;  226.667;   99.877;  -95.778
546.747;  428.844;  264.884;  327.210
547.027;  461.062;   91.876;  111.223
547.308;  327.923; -376.127; -530.770
547.588;  436.910;  299.871;  371.232
547.868;  306.991;  458.870;  588.235
548.149;  326.058;  609.885;  593.207
548.429;  156.127; -347.127; -299.771
548.709;  171.903; -645.120; -461.784
548.989;  602.426;   84.882;   88.213
549.269; 2548.169;   10.868;  139.239
549.550; 5524.672;  215.877;  117.222
549.830; 4895.698; -758.111; -556.799
550.110; 1059.808; -468.110; -320.801
550.390; 1032.478; -128.122;  -56.779
550.670; 1251.771; -868.114; -783.795
550.950;  930.795; -509.121; -471.782
551.230;  324.591;  549.879;  460.218
551.510;  -74.006; -381.121; -326.782
551.790;   28.317; -173.109; -127.803
552.070;  467.167;  940.877; 1181.223
552.350;  482.419; -492.119; -377.786
552.630;  647.288;   -2.121;   77.219
552.909;  466.249;  181.884;   73.209
553.189;  288.277;  -49.132;   33.237
553.469;  171.719; -703.119; -514.786
553.749;  173.431; -469.127; -357.772
554.029;  220.038;   33.883;  -24.790
554.308;  155.163; -154.115;  -37.794
554.588;   73.521; -196.128; -204.770
554.868;   67.496; -366.121;  -47.782
555.147;  207.860; -114.115;  -46.793
555.427;  716.452; -260.116; -250.792
555.707; 4592.857; -284.115; -200.793
555.986; 5114.202; -719.111; -538.800
556.266; 2929.642;   23.884;   72.210
556.546;   41.494; -888.121; -675.782
556.825;  283.168; -657.114; -556.794
557.105; 2106.119; -125.128;   17.230
557.384; 2392.148;  122.884;  187.209
557.664;  889.451; -717.116; -508.792
557.943;  111.995; -557.121; -411.782
558.222;  180.730; -345.118; -344.788
558.502;  328.461; -116.115;  -76.793
558.781;  605.656;  194.885;  499.208
559.061;  465.229; -232.118; -227.788
559.340;  446.735;  302.883;  353.211
559.619;  940.842;   93.884;  148.210
559.899; 1162.438; -239.117; -266.789
560.178; 1141.661; -778.115; -593.793
560.457; 3853.740; -623.117; -562.790
560.736; 4813.204; -472.111; -482.800
561.015; 3369.516; -500.128; -502.769
561.295;  473.642;  180.893;  215.193
561.574;  459.758;  119.885;  116.207
561.853;  622.422;  274.891;  303.197
562.132;  607.464;  -45.114;  182.206
562.411;  611.588;  396.879;  553.219
562.690;   93.255; -592.115; -458.792
562.969;  266.085;  472.888;  630.203
563.248;  942.686; 2966.878; 2487.219
563.527;  323.903; -290.111; -408.800
563.806;  421.527; -650.127; -521.771
564.085;  448.560; -297.105; -206.810
564.364;  240.542; -594.117; -405.790
564.643;  579.989; -276.121; -223.781
564.922; 2206.415;  221.890;  397.198
565.201; 1965.819; -640.109; -700.803
565.479;  878.254; -297.115; -219.792
565.758;  344.519; -810.128; -712.770
566.037;  525.621; -155.109; -100.803
566.316;  265.748; -286.116;  -28.791
566.595;   50.657;  -17.115;  -12.793
566.873;  187.205; -166.111;  -79.801
567.152; -114.216; -490.113; -590.797
567.431;   -3.157; -113.116;    6.210
567.709;   -1.758; -344.107; -212.807
567.988;  263.568; -810.114; -769.794
568.266;  584.857; -160.115;  -68.793
568.545;  403.118; -644.100; -514.819
568.824;  711.853;  160.885;  356.208
569.102;  643.668; -351.114; -235.794
569.381;  254.652; -492.116; -407.792
569.659;  -78.920; -553.113; -553.796
569.938;  -18.717; -743.122; -465.780
570.216;  113.424; -225.109; -225.804
570.494; -106.728; -632.114; -572.795
570.773;   82.194;  202.879;  114.218
571.051;  -57.630; -373.123; -357.778
571.330;   60.877; -221.113; -174.796
571.608;   -0.060; -181.098; -173.823
571.886; -164.204; -671.111; -581.799
572.164; -184.304; -739.121; -621.782
572.443; -106.535; -562.105; -512.811
572.721;  -69.860; -399.117; -289.790
572.999;  -71.168; -280.117; -168.788
573.277;  172.457;  379.894;  620.191
573.555;  383.359;   94.894;   37.190
573.834; 1487.532;  -86.117; -114.788
574.112; 1845.545;  880.893;  811.193
574.390;  532.804; -143.111;  -96.801
574.668;  -12.314;  -91.112;  -61.797
574.946;  -14.040; -165.106; -187.810
575.224;   41.719;   71.891;  -16.803
575.502;  -37.554; -200.116; -204.791
575.780; -170.513; -767.112; -829.798
576.058;  458.903; 1589.889; 1004.200
576.336;  -50.790; -210.110; -129.801
576.614; -155.013; -511.112; -340.798
576.891;   27.963; -711.115; -823.794
577.169;  555.134; -158.108; -285.805
577.447;  691.344;  169.893;  202.193
577.725;  381.293;  629.888;  854.201
578.003;   42.590;  -71.112; -371.798
578.280;   82.776; -208.104; -242.812
578.558;   -2.539; -450.115; -422.793
578.836;  143.171; -210.114; -145.795
579.114;   15.585; -630.112; -670.797
579.391;   74.134;   -6.117;  -18.789
579.669; -160.436; -595.114; -704.794
579.947;  154.140; -326.107; -127.806
580.224;  273.040; -692.107; -524.806
580.502;  335.545;  127.893;   76.193
580.779;   23.941;  -42.117;   75.210
581.057; -158.976; -584.109; -470.804
581.334; -185.106; -726.102; -695.815
581.612;  107.261;   54.895;  511.190
581.889;  -45.390;  -83.101; -129.818
582.167;  -84.672; -298.099; -190.821
582.444; -205.296; -845.102; -814.817
582.721;  203.204;  657.899;  715.183
582.999;   82.925; -326.100; -167.821
583.276;  498.375; -812.123; -713.779
583.553;  752.498; -364.102; -294.816
583.831;  166.772; -607.104; -631.812
584.108;  129.231;  349.892;  174.195
584.385;  -45.307; -122.102;  -98.815
584.662; -175.894; -651.111; -828.801
584.940;   56.205;  204.889;  204.199
585.217;  -39.021;  -73.113; -303.796
585.494;   56.916;   71.890;  118.198
585.771;  251.525; -250.109; -354.804
586.048;  520.679; -196.113;  -76.796
586.325;  289.309; -721.110; -773.801
586.602;  100.576;  230.896;  213.188
586.879;  -85.280; -499.100; -580.820
587.156;   -0.938; -156.105; -331.810
587.433; -107.499; -701.102; -667.817
587.710;   74.588;  152.888;  234.202
587.987;  341.268; -264.105; -236.811
588.264;  892.990;  315.888;  387.202
588.541; 1628.579;  -61.104;   26.187
588.818; 2996.828;   72.892;  171.196
589.095; 2577.174; -163.104; -174.812
589.371;  413.523; -459.109; -414.804
589.648;  -32.355; -581.107; -437.807
589.925;  -44.127; -517.114; -621.795
590.202;  -58.412; -741.112; -607.798
590.478;   93.670; -166.105;  -73.811
590.755;  340.935; -241.108; -132.806
591.032; 2933.612; -741.110; -699.802
591.308; 3680.289; -732.094; -790.831
591.585; 2008.811; -573.110; -560.802
591.862;   63.503;-1056.102; -950.817
592.138;   19.333; -475.108; -474.805
592.415;  163.577; -486.104; -495.813
592.691; 1847.075;  460.896;  518.188
592.968; 2127.742; -208.098; -123.824
593.244;  962.644; -695.116; -595.790
593.521;  116.703; -105.102;  -42.817
593.797; -114.120; -810.122; -720.780
594.074;  336.258; -611.096; -588.826
594.350;  804.171;  828.905;  729.172
594.626;  348.206; -303.111; -283.801
594.903;   59.104; -643.101; -645.817
595.179;  292.482;  243.896;  418.187
595.455;  -38.754; -136.107; -150.807
595.731;   46.184;  -19.103;  -38.814
596.008; -114.601; -464.111; -434.800
596.284;   27.723; -187.100; -242.820
596.560;   -2.003; -501.093; -493.833
596.836;  244.964; -173.105;  -70.810
597.112;  305.433; -582.108; -437.805
597.388;  296.555;  -49.097;  -48.826
597.665;  196.483;  437.887;  530.203
597.941;  -84.667; -572.089; -658.839
598.217;   -7.384; -323.110; -293.802
598.493;  337.027;   61.891; -204.804
598.769;  526.116; -175.100;  -50.819
599.045;  273.637; -490.108; -562.806
599.321;   31.522; -193.100; -261.820
599.597;  147.926; -355.109; -476.804
599.872;  616.479;  409.896;  429.187
600.148;  416.457;  -61.097; -172.826
600.424;  346.443;   91.893;  202.193
600.700;  268.346; -170.107; -280.807
600.976;   95.650; -442.097; -464.825
601.252;  280.922; -226.109; -272.803
601.527;  127.080; -833.104; -840.813
601.803;  143.671; -453.105; -404.812
602.079;  152.116; -124.100; -118.819
602.354;  606.509; -620.092; -531.835
602.630;  901.079; -140.113; -482.796
602.906; 2862.310; -910.101; -863.818
603.181; 7461.519; -627.119; -534.786
603.457; 6381.654;   98.903; -278.826
603.733;  922.899; -605.120; -626.783
604.008; 1265.060; -245.106; -164.810
604.284; 3286.506; -636.101; -580.817
604.559; 3002.593;   -3.112;  -42.799
604.835;  514.564; -163.105; -225.810
605.110;  422.628; -732.099; -892.821
605.385;  804.000;  224.907;  267.167
605.661;  710.775; -625.095; -729.829
605.936; 1169.037; -664.108; -737.806
606.211; 1103.092;  -17.103; -170.815
606.487;  209.066; -329.114; -376.794
606.762;  -79.081; -791.119; -745.786
607.037;  -55.536; -501.105; -433.810
607.313; -105.833; -589.096; -574.828
607.588;  -12.440; -375.106; -137.810
607.863;   56.310;  -28.101; -143.818
608.138;  260.114;  513.890;  516.198
608.413;    0.933; -576.099; -592.822
608.688;    6.333; -203.108; -267.805
608.964;  243.153; -509.106; -218.809
609.239;  235.561; -107.105; -212.810
609.514;  366.170;  281.895;  240.188
609.789;  674.476; -187.104; -716.812
610.064;  966.865; -435.096; -609.827
610.339;  928.523; -855.109; -799.804
610.614; 1313.222; -131.100; -315.820
610.889;  778.171;  215.895;  107.188
611.163;    0.672; -407.104; -591.812
611.438;   53.568;   81.886; -167.794
611.713;  -53.094; -467.101; -499.817
611.988;   21.009; -144.101; -328.818
612.263; -123.806; -771.102; -717.815
612.538;  306.479;  385.887;  251.204
612.812;   93.024; -832.100; -911.820
613.087;   93.340; -358.098; -338.823
613.362; -105.754; -497.107; -557.807
613.637;   83.587;  261.897;  138.186
613.911;  -26.090; -256.092; -345.835
614.186;  115.544; -249.107; -292.807
614.460;  709.525; -842.081; -758.854
614.735;  860.162;  -55.087;  -17.843
615.010;  189.749;   43.912;  -82.841
615.284;  373.932;  360.892;  246.195
615.559;  319.908; -792.092; -955.835
615.833;  327.631;  -76.099;  -87.822
616.108;   -6.877; -225.090; -390.837
616.382;  170.664;  274.913;  402.156
616.656;  139.424; -241.090; -232.837
616.931;  488.131; -785.099; -700.822
617.205; 1081.081; -973.104; -979.813
617.480; 1093.950;  -91.125;    6.225
617.754;  183.247; -396.125; -128.774
618.028;  -22.489; -369.129; -382.768
618.302;   93.230;   73.892;  -25.805
618.577; -122.211; -371.103; -518.815
618.851; -140.881; -399.109; -600.803
619.125; -123.343; -335.134; -378.759
619.399;  -76.319; -244.104; -374.813
619.673;  -77.447; -330.115; -515.792
619.947;  -99.229; -333.114; -448.795
620.222;  -15.693; -198.110; -204.801
620.496;  -31.304;  -47.121;  -96.782
620.770;   11.286; -187.122;  -93.781
621.044;  326.762;  323.895;  346.190
621.318;  804.999; -653.120; -614.783
621.592;  745.597; -430.121; -409.783
621.866;  344.794; -476.112; -572.799
622.140;    3.646; -207.116; -356.791
622.413;   76.099;  138.889;  112.200
622.687;  -91.494; -746.101; -492.817
622.961;   16.331; -130.108; -143.805
623.235; -128.500; -633.111; -661.800
623.509; -240.230; -816.105; -848.811
623.783;   39.941;  -12.107;   48.193
624.056;  -44.599; -254.120; -280.783
624.330;   90.986;   63.888;   -3.797
624.604;   32.042; -271.116; -355.790
624.877;   81.313;  180.890;   26.198
625.151;   53.865; -249.114; -238.794
625.425;  -46.316; -150.103; -283.814
625.698; -149.588; -367.119; -374.785
625.972; -181.984; -799.110; -765.802
626.245;  124.244;  685.884;  484.210
626.519;  -79.994; -426.120; -340.784
626.792;  -63.754; -192.107; -380.807
627.066; -169.023; -485.122; -662.779
627.339; -185.289; -736.110; -663.802
627.613;  114.704;  351.880;  148.216
627.886;  105.518;  187.891; -612.803
628.160;  -14.601;  312.880; -161.783
628.433; -191.346; -695.125; -703.775
628.706; -181.394; -517.120; -615.784
628.979;   22.462;  296.876;  117.223
629.253; -179.582; -785.119; -833.786
629.526;  401.735; -334.126; -253.772
629.799;  327.571; -641.123; -479.778
630.072;  109.013; -497.128; -516.769
630.346; -170.056;-1115.116;-1080.790
630.619;  495.047; -467.107; -545.808
630.892;  739.301;  709.889;  593.200
631.165;  422.381;  790.896;  679.187
631.438; -224.610;-1092.112;-1055.798
631.711;  103.874;  453.877;  257.221
631.984; -163.062; -523.117; -624.789
632.257; -153.766; -636.117; -681.789
632.530; -100.188; -412.119; -433.785
632.803;   47.162; -109.115;    7.207
633.076; -128.233; -360.123; -422.777
633.349;    5.618;  173.872;  121.231
633.622;  -72.389; -187.119; -240.785
633.895; -260.700; -903.120; -823.783
634.167; -103.863; -496.126; -525.773
634.440;  -23.648;  -19.116; -137.792
634.713;   22.817;  -22.119; -120.786
634.986;  168.906;  593.871;  453.233
635.258; -160.840; -507.115; -597.793
635.531;  162.329;  742.882; -343.788
635.804;  -26.463; -303.117; -318.789
636.077; -211.753; -830.116; -852.791
636.349;  -60.242; -586.115; -474.793
636.622;  705.734; 1695.874; 1392.228
636.894;  228.306; -474.120; -909.784
637.167;   58.327; -836.127; -789.771
637.439;   55.522; -278.128; -213.770
637.712; -108.864; -312.126; -293.772
637.984; -153.452; -635.116; -707.791
638.257;  555.167;  515.877;  488.222
638.529;  528.855; -881.125; -924.776
638.802;  249.013; -508.128; -449.769
639.074; -238.815; -927.122; -952.781
639.346; -257.354; -942.135; -930.757
639.619;   20.466;  -79.142; -319.744
639.891;  -59.623;  -83.122; -168.779
640.163; -155.721; -689.122; -756.780
640.435;   56.781;  273.878;  103.220
640.708;   33.684;  -72.122; -132.780
640.980;  -71.914; -366.122; -362.781
641.252;  260.188;  -25.121;  -71.781
641.524; 2160.790;  580.879;  573.219
641.796; 1941.493;-1094.121; -907.782
642.068;  327.795; -191.121; -300.782
642.340; -127.803; -486.121; -566.783
642.613;   69.599;  294.880;  323.217
642.885; -177.498; -787.120; -878.783
643.157; -152.796; -810.120; -658.784
643.428;  132.406;  170.880;  218.216
643.700; -136.392; -498.120; -425.784
643.972;  -71.089;  -16.119; -133.785
644.244; -157.287; -474.119; -559.785
644.516;  -43.685; -250.119; -114.786
644.788;  179.917;  662.881;  548.214
645.060;   -2.980;  -12.119; -124.786
645.332; -192.578; -525.118; -535.787
645.603;  109.024;  479.882;  342.213
645.875; -124.274; -334.118; -369.787
646.147;  356.129; 1487.882; 1242.212
646.418; -171.569; -931.117; -918.788
646.690;  112.533; -714.117; -715.789
646.962;  -33.065; -413.117; -451.789
647.233;  -11.162;   15.883;   11.211
647.505; -167.760; -595.117; -475.790
647.776;   89.442;  328.884;  229.210
648.048;   -6.056; -248.116; -418.790
648.320; -150.353; -752.116; -679.791
648.591; -281.551;-1055.116; -958.791
648.862; -146.449; -505.116; -577.792
649.134;   29.953;  115.885;  198.208
649.405; -112.544; -661.115; -618.792
649.677; -160.142; -475.115; -598.793
649.948;   -6.640; -181.115; -296.793
650.219;   12.662;  -37.115; -147.793
650.491; -130.635; -431.114; -520.794
650.762; -238.833; -705.114; -731.794
651.033; -137.431; -437.114; -424.795
651.304; -237.329; -743.114; -728.795
651.576; -128.026; -680.114; -645.795
651.847;  -43.124; -250.113; -140.796
652.118;  -21.422;  -32.113; -189.796
652.389; -199.620; -639.113; -722.796
652.660;  -11.318; -147.113;  -89.797
652.931; -255.815; -897.112; -871.797
653.202; -148.113; -382.112; -541.798
653.473; -169.911; -633.112; -533.798
653.744;  118.391; -595.112; -590.798
654.015;  101.894; -356.112; -303.799
654.286; -117.304; -642.111; -663.799
654.557; -128.202; -586.111; -521.799
654.828; -286.500;-1114.111;-1088.800
655.099; -150.497; -404.111; -291.800
655.370; -159.695; -427.111; -543.801
655.641; -211.093; -656.110; -714.801
655.911; -199.291; -618.110; -638.801
656.182;  115.612;  437.890;  387.198
656.453;  173.414;  830.890;  746.198
656.724; -132.784; -466.110; -426.802
656.994; -146.982; -553.109; -568.803
657.265; -238.879; -862.109; -873.803
657.536; -121.477; -500.109; -377.804
657.806; -187.275; -561.109; -593.804
658.077; -240.173; -866.109; -950.804
658.347; -166.370; -523.108; -598.805
658.618; -184.268; -646.108; -694.805
658.888;  -52.366;  -41.108;  112.195
659.159; -127.364; -432.108; -548.806
659.429; -105.561; -292.108; -349.806
659.700;   -7.859; -435.107; -390.807
659.970; -103.957; -370.107; -359.807
660.241;  -58.855; -754.107; -921.807
660.511;  528.448; -147.107; -174.808
660.781;   39.550; -793.106; -748.808
661.052;  -67.748; -222.106; -381.808
661.322;  -28.946;   21.894;   -9.809
661.592;   74.457;  257.894;  148.191
661.862; -110.441; -369.106; -382.810
662.133; -163.039; -551.105; -502.810
662.403; -226.537; -770.105; -676.810
662.673; -101.234; -256.105; -213.811
662.943; -158.832; -612.105; -551.811
663.213;  -37.230;  -85.105;  -81.811
663.483; -149.528; -593.104; -568.812
663.753; -107.625; -194.104; -152.812
664.023;   43.077;   68.896;  -32.813
664.293; -113.221; -319.104; -126.813
664.563; -168.819; -694.104; -648.813
664.833; -229.116; -743.103; -608.814
665.103; -222.614; -730.103; -793.814
665.373; -194.612; -766.103; -806.814
665.643; -202.310; -863.103; -918.815
665.913;  -41.907; -534.103; -714.815
666.182;   93.495; -685.102; -719.816
666.452;  253.797;  -22.102;  -89.816
666.722; -132.301; -724.102; -784.816
666.992; -262.198; -948.102; -921.817
667.261; -195.396; -824.102; -808.817
667.531;  248.006;  134.899;   45.183
667.801;  552.108; -440.101; -412.818
668.070;  380.811;  714.899;  697.182
668.340; -227.787; -883.101; -840.819
668.609;  153.115;  588.900;  301.181
668.879; -158.583; -490.100; -558.819
669.149; -158.780; -539.100; -516.820
669.418; -196.478; -698.100; -726.820
669.688;  -88.876; -482.100; -666.820
669.957;   37.526; -423.099; -546.821
670.226;  -49.971; -268.099; -331.821
670.496; -173.169; -431.099; -635.822
670.765; -147.467; -418.099; -501.822
671.034; -232.565; -872.099; -828.822
671.304;  -14.663;   55.902; -111.823
671.573; -265.760;-1085.098; -957.823
671.842;   50.242; -380.098; -294.823
672.112;  -39.656; -692.098; -586.824
672.381;  -31.954; -239.098; -214.824
672.650; -266.751;-1005.097;-1021.825
672.919; -192.749; -631.097; -507.825
673.188; -182.747; -681.097; -878.825
673.457; -317.545;-1101.097;-1143.826
673.726; -152.642; -579.096; -646.826
673.995; -114.040; -533.096; -479.826
674.265;  -63.338; -263.096; -333.827
674.534;   11.364; -183.096; -235.827
674.802;  -13.133; -618.096; -703.828
675.071; 1099.169; -886.095; -801.828
675.340; 4039.271; -464.095; -339.828
675.609; 1419.273;  103.905;   82.171
675.878;  -15.024; -949.095; -893.829
676.147;   24.078;  -26.095;   -8.829
676.416;  126.580; -210.094; -294.830
676.685;  983.782; 1000.906; -622.830
676.953;   70.285; -603.094; -452.831
677.222;  -44.113; -193.094; -273.831
677.491;  -19.611;  -24.094; -127.831
677.759;  -25.809;   11.907;  172.168
678.028;   14.094; -279.093; -222.832
678.297;   -8.804;   71.907;  197.168
678.565; -240.702; -898.093; -944.833
678.834;  -64.300; -311.093; -268.833
679.102; -114.297; -411.092; -391.834
679.371; -259.195; -898.092; -727.834
679.639; -232.993; -797.092; -786.834
679.908; -224.091; -794.092; -724.835
680.176; -287.488; -895.091; -941.835
680.445; -131.586; -346.091; -352.835
680.713;   15.416;  -58.091;  -23.836
680.982; -165.482; -523.091; -525.836
681.250; -187.579; -578.091; -507.837
681.518; -152.377; -534.090; -751.837
681.787;  -50.075; -204.090; -167.837
682.055; -125.173; -490.090; -422.838
682.323; -258.370; -993.090; -992.838
682.591;   22.232; -216.090; -538.838
682.859;   94.534;    9.911;  -35.839
683.128;   61.736;  232.911;  497.161
683.396; -299.861;-1102.089;-1122.840
683.664;  -52.659; -241.089;   21.160
683.932;   36.943;  144.911;  -76.840
684.200; -172.355; -576.088; -320.841
684.468;  -14.752;  -73.088; -124.841
684.736;  -71.750; -214.088; -175.841
685.004; -230.348;-1024.088; -982.842
685.272; -143.846; -880.088; -774.842
685.540; -133.143; -499.087; -557.843
685.808; -136.741; -651.087; -682.843
686.076; -196.739; -894.087; -969.843
686.343; -134.537; -601.087; -815.844
686.611;   42.066; -195.087; -224.844
686.879;  573.868; -530.086; -553.844
687.147; 3611.970; -483.086; -480.845
687.414; 1052.672;  -12.086; -169.845
687.682;  -46.425; -658.086; -757.846
687.950;  401.877;  259.915;  263.154
688.217;  -62.621; -792.085; -760.846
688.485;  -57.219; -632.085; -636.847
688.753;  591.083;  -11.085; -102.847
689.020;   69.386; -820.085; -851.847
689.288; -214.312; -853.084; -787.848
689.555;  -62.510; -195.084; -148.848
689.823;  -78.208; -241.084; -345.849
690.090; -149.005; -546.084; -651.849
690.358; -289.503; -877.084; -897.849
690.625;   15.199;  120.917;   45.150
690.892; -129.799; -403.083; -369.850
691.160;  -13.596;   72.917;  -35.850
691.427;   22.806;  141.917;  130.149
691.694; -271.492; -855.083; -929.851
691.962; -272.690;-1177.082;-1060.852
692.229;   14.113;  127.918;   56.148
692.496;  133.215;  130.918;  -49.852
692.763;  -21.483; -164.082; -201.853
693.031; -133.681; -739.082; -716.853
693.298; -113.478; -509.081; -368.853
693.565;  403.524; -155.081; -163.854
693.832; 1302.626;   -5.081;   -9.854
694.099;  113.328; -643.081; -642.855
694.366; -165.669; -882.081; -896.855
694.633; -126.967; -920.080; -633.855
694.900; 1447.335; 4367.920; -114.856
695.167;  470.137; -214.080; -380.856
695.434;   19.940; -646.080; -623.856
695.701;  298.642;  121.921;  -61.857
695.968;  502.444; -365.079; -361.857
696.234; 1356.646; -415.079; -646.858
696.501;12751.549; -776.079; -614.858
696.768; 6142.051; -554.079; -617.858
697.035;  358.253; -632.078; -667.859
697.302;    5.855; -448.078; -552.859
697.568;   10.858; -458.078; -497.859
697.835;  -98.040; -683.078; -624.860
698.102;  -35.738; -498.078; -407.860
698.368;  163.164;  384.923;  396.139
698.635;  -77.433;  -47.077; -424.861
698.901;  -12.531; -240.077; -348.861
699.168;   51.671; -534.077; -456.862
699.435;  104.673;  -72.077;  -13.862
699.701; -248.124; -868.076; -764.862
699.968; -104.722;  144.924; -441.863
700.234; -166.220; -783.076; -822.863
700.500; -101.918; -448.076; -539.864
700.767;   19.385;   -1.075;   26.136
701.033; -239.113;-1015.075; -963.864
701.299; -132.311; -450.075; -483.865
701.566;  233.991;  950.925;  763.135
701.832;   64.094;  -31.075;  -76.865
702.098; -206.204;-1054.074;-1034.866
702.365; -230.502;-1098.074;-1030.866
702.631; -120.500;-1038.074;-1063.867
702.897; 1513.403; -765.074; -676.867
703.163; 2496.605;  348.926;  254.133
703.429;  166.607; -256.073; -273.868
703.695; -119.391; -796.073; -792.868
703.961;   11.412; -214.073; -210.868
704.227; -108.786; -630.073; -725.869
704.493;  211.416;  613.927;  510.131
704.759;  -47.282; -565.072; -540.870
705.025;   54.921; -203.072; -194.870
705.291;  -69.177; -666.072; -562.870
705.557;  323.025;  719.928;   34.129
705.823;    8.127; -742.072; -694.871
706.089;  156.730; -307.071; -326.871
706.355;  521.132; -315.071; -244.872
706.620; 7192.134; -776.071; -729.872
706.886; 9134.836; -309.071; -362.873
707.152;  798.038; -818.070; -973.873
707.418; -120.859;-1153.070;-1186.873
707.683;  -41.357; -550.070; -530.874
707.949;  -97.755; -547.070; -578.874
708.215;  -48.453; -129.070; -207.874
708.480;  -42.850; -520.069; -420.875
708.746;  116.852;   68.931;   28.125
709.011; -110.946; -578.069; -612.876
709.277; -149.244; -538.069; -543.876
709.542;  -95.041; -428.069; -387.876
709.808;   -6.739;  -59.068;   89.123
710.073; -131.037; -577.068; -695.877
710.339;  -28.135; -242.068; -228.877
710.604;   23.468; -780.068; -845.878
710.869;  323.570; -277.068; -366.878
711.135; -125.428; -715.067; -628.879
711.400; -144.826; -507.067; -608.879
711.665;  -91.423; -404.067; -479.879
711.931; -197.221; -661.067; -677.880
712.196; -203.119; -876.067; -954.880
712.461;   94.883; -402.066; -490.880
712.726;   69.086; -727.066; -771.881
712.991; -169.012; -647.066; -664.881
713.256;  -56.810; -350.066; -332.882
713.521; -111.508; -417.065; -381.882
713.787;  -82.205; -454.065; -472.882
714.052;  -66.303; -214.065; -400.883
714.317; -233.301;-1045.065; -981.883
714.581; 1193.501; -374.065; -268.883
714.846; 1455.304; -822.064; -888.884
715.111;  194.906;  261.936;  257.116
715.376;  -32.092;  -86.064; -223.885
715.641;  -42.090; -365.064; -367.885
715.906;  275.613;   15.936; -551.885
716.171;  205.615;  221.937;  209.114
716.436;   54.417;  -78.063; -104.886
716.700; -210.081; -818.063; -692.886
716.965; -214.478; -794.063; -807.887
717.230; -137.976; -339.063; -392.887
717.494;   22.426;  -40.062; -134.888
717.759; -169.472; -784.062; -640.888
718.024;   36.531;  269.938;  250.112
718.288;  107.633;  685.938;  395.111
718.553; -267.065; -803.062; -977.889
718.817; -259.363; -883.061; -899.889
719.082;  -38.660; -115.061; -125.890
719.346; -268.658;-1000.061; -947.890
719.611;  -63.356; -300.061; -255.891
719.875; -141.354; -568.060; -537.891
720.140; -111.551; -453.060; -603.891
720.404;   49.851; -136.060; -249.892
720.668;  927.453; -475.060; -411.892
720.933;  382.155;  146.940;  137.108
721.197; -189.742; -667.059; -600.893
721.461; -270.040; -851.059; -826.893
721.725;   24.962;  -21.059; -250.894
721.990;  -87.736; -284.059; -204.894
722.254;  -20.233;  -26.059; -108.894
722.518; -121.931; -286.058; -442.895
722.782; -163.829; -743.058; -594.895
723.046;  196.573;  614.942;  570.105
723.310;  102.376;  374.942;  210.104
723.574; -182.822; -654.058; -614.896
723.838; -179.820; -576.057; -642.897
724.102;  -66.018; -226.057; -239.897
724.366; -220.915;-1032.057; -978.897
724.630; -199.313; -749.057; -571.898
724.894; -152.811; -722.057; -514.898
725.158;   26.991;   38.944; -295.898
725.422;  -62.307; -394.056; -327.899
725.685; -119.304; -441.056; -349.899
725.949; -140.002; -566.056; -519.900
726.213; -159.600; -732.056; -811.900
726.477;  107.902;-1020.055; -933.900
726.740;  128.705; -274.055; -104.901
727.004;  383.107; -384.055; -510.901
727.268; 3766.909; -442.055; -400.901
727.531;  929.511; -961.055; -775.902
727.795; -112.386; -713.054; -673.902
728.059; -103.284; -552.054; -557.903
728.322; -185.282; -841.054; -669.903
728.586;  -28.580; -692.054; -701.903
728.849; -202.577; -695.053; -756.904
729.112; -189.975; -812.053; -912.904
729.376; -247.173; -959.053; -905.904
729.639; -135.071; -536.053; -536.905
729.903; -195.968; -733.053; -699.905
730.166;  -57.766; -437.052; -399.906
730.429;  -30.264; -317.052; -468.906
730.693; -100.262; -355.052; -894.906
730.956;  378.741;  810.948;  651.093
731.219;  753.343; -310.052; -103.907
731.482;   51.945;-1003.051; -894.907
731.745;   14.747; -794.051; -935.908
732.009;   29.750;  -30.051;   50.092
732.272; -172.248; -904.051; -771.909
732.535;  -72.046; -300.051; -310.909
732.798; -270.744;-1083.050;-1166.909
733.061; -115.941; -430.050; -456.910
733.324;   34.161;   31.950; -180.910
733.587;  132.963;  290.950;  365.090
733.850; -107.635; -973.049;-1050.911
734.113;   95.668;   33.951;   32.089
734.376;   -5.830; -328.049; -447.912
734.639;  377.972; 1188.951; 1011.088
734.901;  103.874; -180.049; -402.912
735.164;  541.277; -883.048; -837.913
735.427; 1451.079; -166.048; -355.913
735.690;  137.281; -205.048; -234.913
735.952; -116.217; -923.048; -925.914
736.215; -143.114;-1113.048;-1009.914
736.478;  -22.512; -771.047; -774.915
736.740;  259.790;   33.953;  129.085
737.003;  859.192; -658.047; -672.915
737.266; 4576.095;  -94.047;   46.084
737.528;  477.197; -682.047; -660.916
737.791;  357.499; -316.046; -327.916
738.053; 1129.801;  465.954;  649.083
738.316;13539.304; -162.046; -136.917
738.578; 8505.506; -770.046; -736.918
738.841;  514.208; -382.046; -446.918
739.103;  207.010; -875.045; -777.918
739.365;  561.613;   79.955;  -69.919
739.628;  -42.685; -884.045; -805.919
739.890;  -58.383; -758.045; -710.919
740.152; -106.581; -692.044; -754.920
740.414;  -62.678; -408.044; -359.920
740.677;  -93.976; -785.044; -634.921
740.939; -100.574; -587.044; -487.921
741.201;  292.328; -432.044; -572.921
741.463;   -3.469; -689.043; -745.922
741.725;   19.733;  -21.043; -199.922
741.987;  122.935;  220.957;  116.078
742.249;  -87.563; -751.043; -859.923
742.511;  157.140; -703.043; -794.923
742.773;    5.742; -546.042; -546.924
743.035;  210.144;  796.958;  533.076
743.297; -125.754; -963.042;-1013.924
743.559;  792.848; -278.042; -262.925
743.821;  -14.449; -735.042; -744.925
744.083;   28.653;  -44.041; -149.925
744.345; -168.345; -869.041; -892.926
744.607;  104.157;   75.959;  122.074
744.868; -102.640; -490.041; -554.927
745.130; -233.138; -994.041;-1008.927
745.392;   85.164;   -1.040;  -44.927
745.653;  -46.634; -411.040; -378.928
745.915;  329.269;  896.960;  631.072
746.177;   70.371;   35.960;  -43.928
746.438;   -0.127; -428.040; -543.929
746.700; -158.225; -947.039; -988.929
746.961;  -25.522; -659.039; -740.930
747.223;  153.680; -190.039;  -74.930
747.484;   87.182; -391.039; -471.930
747.746;  188.984;  -23.038; -106.931
748.007;  102.987; -647.038; -689.931
748.269;  320.389; -468.038; -440.931
748.530;  516.491; -852.038; -638.932
748.791;  298.493; -354.038; -420.932
749.053;  601.996;  286.963;  163.067
749.314;  559.698; -236.037; -169.933
749.575;  585.500; -945.037; -905.933
749.836; 1017.802; -217.037;   86.066
750.098; 3291.505;  -60.037;  -21.934
750.359;42840.207;  414.964;  555.066
750.620;10083.409; -121.036; -220.935
750.881; 1218.011; -585.036; -513.935
751.142; 1635.314; -950.036; -938.936
751.403;20910.416; -789.036; -705.936
751.664; 8168.718;-1034.035; -999.936
751.925;  587.420; -175.035; -262.937
752.186;  392.623; -298.035; -278.937
752.447;  163.925; -590.035; -445.937
752.708;   10.227; -532.035; -648.938
752.969;  -16.171; -566.034; -576.938
753.230;  -45.468; -777.034; -672.939
753.491;  -71.466; -650.034; -631.939
753.751;  116.636;  109.966;   19.061
754.012;  174.238;  258.967;  181.060
754.273;   91.041; -174.033;  -71.940
754.534;  -30.457; -487.033; -580.940
754.794; -165.255; -926.033; -911.941
755.055;  315.247; 1051.967;  881.059
755.316; -106.850; -700.032; -566.942
755.576;  -89.348; -606.032; -576.942
755.837;  -88.246; -527.032; -695.942
756.097;  -99.444; -530.032; -564.943
756.358; -151.641; -725.032; -770.943
756.618; -101.439; -705.031; -641.943
756.879;   18.263; -254.031; -349.944
757.139; -238.335;-1098.031;-1116.944
757.400;  -70.932; -538.031; -553.945
757.660;  -39.030; -365.031; -401.945
757.920;   30.172; -266.030; -228.945
758.181;  -30.326; -468.030; -351.946
758.441; -167.423; -870.030; -809.946
758.701;  -47.321; -308.030; -215.946
758.961;  -36.819; -220.030; -278.947
759.222;  -91.217; -574.029; -502.947
759.482; -119.814; -683.029; -723.948
759.742; -173.012; -706.029; -547.948
760.002;   35.290;  -83.029; -143.948
760.262;   51.992;   50.972;  182.051
760.522;  -56.706; -498.028; -574.949
760.782; -102.903; -738.028; -612.949
761.042;  -53.201; -618.028; -573.950
761.302;  103.601;   55.972;  -18.950
761.562;  118.703; -164.027; -154.951
761.822;   72.506; -710.027; -551.951
762.082; -110.092;-1104.027;-1093.951
762.342;   79.510; -328.027; -403.952
762.601;  110.512; -567.027; -506.952
762.861;  488.015; -281.026; -207.952
763.121;  667.717; -406.026; -411.953
763.381;11840.619; -499.026; -485.953
763.640;11306.921; -139.026; -307.954
763.900;  537.124; -242.026; -203.954
764.160;  126.826; -458.025; -491.954
764.419;  -50.172; -726.025; -782.955
764.679; -130.670; -795.025; -726.955
764.939;  -17.667; -124.025; -210.955
765.198; -116.265; -608.025; -563.956
765.458; -151.663; -710.024; -612.956
765.717; -151.061; -454.024; -590.957
765.976;  -84.658; -428.024; -411.957
766.236; -134.856; -475.024; -610.957
766.495;   73.146;  260.977;   73.042
766.755; -229.752;-1090.023; -987.958
767.014;  -39.149; -594.023; -665.958
767.273;  -72.547; -373.023; -397.959
767.533;  -54.345; -228.023; -307.959
767.792;   13.357; -151.022; -188.960
768.051;  -84.040; -228.022; -276.960
768.310; -120.338; -546.022; -650.960
768.569;   23.864; -161.022;    4.039
768.828;   12.066; -285.022; -363.961
769.088; -222.731;-1050.021; -942.961
769.347; -144.029; -755.021; -599.962
769.606; -177.227; -876.021; -857.962
769.865; -226.125;-1016.021;-1033.963
770.124;  -21.922; -411.021; -336.963
770.383; -141.320; -778.020; -910.963
770.641;  -22.518; -398.020; -400.964
770.900; -131.016; -953.020; -846.964
771.159; -128.213; -851.020; -951.964
771.418;  -89.111; -917.020; -779.965
771.677;  174.191; -224.019; -293.965
771.936;  101.893; -794.019; -865.966
772.194; 3251.996; -465.019; -437.966
772.453;13622.198; -213.019; -391.966
772.712; 1055.100;  416.982;  329.033
772.970;  207.202;   32.982;   63.033
773.229;  153.205;  -22.018;  102.033
773.488; -144.593; -814.018; -770.968
773.746;  131.109;  296.982;  335.032
774.005;   34.511;  190.983;  -22.969
774.263;   31.314;  243.983;  177.031
774.522; -155.184; -422.017; -548.969
774.780; -119.182; -484.017; -417.970
775.039; -133.180; -551.017; -531.970
775.297;  -11.077; -135.016; -351.970
775.555; -186.075; -489.016; -612.971
775.814; -190.473; -618.016; -570.971
776.072; -196.371; -749.016; -740.971
776.330; -145.568; -630.016; -520.972
776.589; -182.166; -703.015; -721.972
776.847; -225.064; -645.015; -624.973
777.105; -282.662;-1016.015;-1032.973
777.363; -126.559; -459.015; -454.973
777.621; -219.757; -660.015; -717.974
777.879;  -15.855;  -42.014;   32.026
778.138; -121.653; -554.014; -717.974
778.396; -191.351; -585.014; -526.975
778.654; -287.248;-1015.014; -970.975
778.912; -111.146; -269.014; -371.976
779.170; -194.144; -880.013; -803.976
779.427; -259.642; -922.013; -897.976
779.685; -262.739; -880.013; -832.977
779.943; -184.837; -654.013; -593.977
780.201; -269.535; -964.012; -883.978
780.459; -192.633; -651.012; -610.978
780.717; -131.730; -440.012; -390.978
780.974; -146.628; -449.012; -490.979
781.232;  -98.926; -358.012; -338.979
781.490; -158.024; -551.011; -472.979
781.747; -161.521; -555.011; -476.980
782.005;  101.781;  462.989;  254.020
782.263; -291.917; -542.011;-1004.981
782.520; -130.215; -326.011; -501.981
782.778; -297.312;-1013.010;-1051.981
783.035; -315.310; -962.010; -938.982
783.293;  -76.908; -248.010; -206.982
783.550;  -81.306; -134.010; -198.982
783.808; -219.703; -764.010; -776.983
784.065; -251.101; -745.009; -874.983
784.322;  -47.599;   25.991;  -86.984
784.580; -232.197; -915.009; -771.984
784.837; -128.994; -392.009; -466.984
785.094; -234.292; -783.009; -762.985
785.352; -106.190; -304.008; -404.985
785.609; -228.188; -934.008; -839.985
785.866; -127.285; -345.008; -401.986
786.123; -157.183; -639.008; -583.986
786.380; -166.881; -665.008; -604.987
786.637;  -68.779; -225.007; -380.987
786.895;  -51.676; -456.007; -543.987
787.152;  -49.374; -135.007; -267.988
787.409;  -46.472; -123.007; -225.988
787.666; -127.970; -299.006; -378.988
787.923; -191.867; -616.006; -695.989
788.179; -165.165; -551.006; -584.989
788.436; -153.463; -585.006; -585.990
788.693;  -45.461;  -92.006;  -87.990
788.950;  207.342; -125.005; -112.990
789.207;  160.744; -381.005; -372.991
789.464;  -93.154; -161.005; -301.991
789.720;   34.348;  150.995;  110.009
789.977; -277.849;-1003.005; -671.992
790.234;  -41.147;   44.996;  -66.992
790.490; -252.045; -884.004;-1031.993
790.747;  -14.343;  -85.004;   22.007
791.004;  -52.140; -426.004; -348.993
791.260; -141.438; -430.004; -560.994
791.517; -199.736; -843.003; -788.994
791.773;  -63.434; -379.003; -342.994
792.030; -181.231; -596.003; -660.995
792.286; -163.929; -686.003; -636.995
792.543;    8.573;  -74.002; -159.995
792.799;  -78.325; -584.002; -382.996
793.055; -285.422;-1179.002;-1210.996
793.312; -182.120; -827.002; -816.997
793.568;  -98.418; -746.002; -599.997
793.824;   25.684; -226.001; -284.997
794.081;   35.387; -447.001; -508.998
794.337;   85.789; -664.001; -561.998
794.593; 2301.391; -319.001; -271.999
794.849; 8953.393; -746.001; -772.999
795.105;  449.196; -270.000; -261.999
795.361;   26.198; -490.000; -457.000
795.617; -139.500; -875.000; -945.000
795.873;  -75.000; -360.000; -407.000
796.129;  -48.700; -368.000; -306.000
796.385;  -27.900; -124.000; -156.000
796.641;  201.500;  412.000;  550.000
796.897; -148.800; -666.000; -635.000
797.153;  188.100;  453.000;  357.000
797.409; -215.500; -785.000; -868.000
797.665; -117.100; -625.000; -732.000
797.921; -186.400; -775.000; -762.000
798.176; -128.100; -744.000; -747.000
798.432; -163.300; -824.000; -596.000
798.688; -191.000;-1174.000;-1078.000
798.943;   81.900; -165.000; -147.000
799.199;  -62.600;-1005.000; -959.000
799.455;  359.500;  369.000;  316.000
799.710;   95.600; -813.000; -380.000
799.966;  386.800; -162.000; -160.000
800.221;  588.400; -638.000; -721.000
800.477;13553.000; -743.000; -710.000
800.732; 9846.700; -773.000; -800.000
800.988;  858.600;  205.000;  -19.000
801.243; 3047.800; -454.000; -344.000
801.498;10630.200; -814.000; -739.000
801.754;  646.600; -289.000; -163.000
802.009;  128.400; -257.000; -335.000
802.264; -128.800; -967.000;-1033.000
802.520;   61.300;  222.000;   -3.000
802.775;  -28.100; -524.000; -359.000
803.030;  128.600;  395.000;  356.000
803.285; -200.600; -840.000; -903.000
803.540; -115.900; -686.000; -699.000
803.795; -105.100; -648.000; -583.000
804.051;  -76.600; -279.000; -346.000
804.306;   73.700;  168.000;  128.000
804.561;  211.800;  451.000;  362.000
804.816;  284.400;  714.000;  861.000
805.071;  -27.500; -185.000; -280.000
805.325;  195.000; -257.000; -427.000
805.580; -187.400; -841.000; -877.000
805.835;  -14.400; -204.000; -297.000
806.090; -135.800; -760.000; -676.000
806.345;   -2.200; -344.000; -264.000
806.600; -106.000; -549.000; -632.000
806.854;  -36.100; -408.000; -538.000
807.109;  -11.500; -493.000; -577.000
807.364;   16.300; -407.000; -328.000
807.618;  -29.800; -415.000; -381.000
807.873;   31.900; -470.000; -494.000
808.128;  142.700; -257.000; -518.000
808.382;  181.000; -224.000; -332.000
808.637;   64.400; -440.000; -511.000
808.891;  301.200; -257.000; -180.000
809.146;  108.800; -902.000; -794.000
809.400;  312.800; -848.000; -923.000
809.654;  403.000; -779.000; -551.000
809.909;  651.300; -841.000; -927.000
810.163; 9986.100; -813.000; -651.000
810.418;20712.100; -940.000; -861.000
810.672; 1327.400; -685.000; -690.000
810.926;  981.700; -993.000; -973.000
811.180; 2221.000; -439.000; -372.000
811.434;48277.400;  240.000;  135.000
811.689;15992.000; -231.000; -365.000
811.943;  847.700; -936.000; -953.000
812.197;  482.400; -893.000; -671.000
812.451;  191.000; -379.000; -514.000
812.705;  -95.900; -809.000; -619.000
812.959;   16.400; -263.000; -388.000
813.213;    1.500; -283.000; -209.000
813.467;  159.300;  470.000;  253.000
813.721; -172.800; -764.000; -792.000
813.975; -188.700; -826.000; -877.000
814.229;   87.100;  430.000;  353.000
814.482; -106.800; -517.000; -566.000
814.736; -188.200; -766.000; -744.000
814.990; -198.300; -779.000; -872.000
815.244;  -61.200; -228.000; -285.000
815.497; -137.400; -636.000; -601.000
815.751;   -9.700; -141.000;   82.000
816.005; -122.800; -470.000; -586.000
816.258;  -62.300; -510.000; -363.000
816.512; -182.700; -693.000; -610.000
816.766;   27.100;  121.000;  157.000
817.019;  104.900;  148.000;  149.000
817.273; -225.100;-1000.000; -802.000
817.526;  -22.400; -206.000; -173.000
817.779; -148.800;-1049.000; -960.000
818.033; -145.500; -693.000; -807.000
818.286; -195.400; -725.000; -792.000
818.540; -150.100; -403.000; -403.000
818.793; -105.100; -402.000; -489.000
819.046; -169.100; -582.000; -520.000
819.299;  -53.600; -157.000; -166.000
819.553; -193.900; -552.000; -592.000
819.806; -251.400;-1016.000; -838.000
820.059;  -88.300; -334.000; -354.000
820.312;   59.500;  152.000;  185.000
820.565;    4.500;  110.000;  -27.000
820.818;  -32.600;  -59.000; -173.000
821.071; -257.700;-1041.000; -957.000
821.324; -157.000; -536.000; -540.000
821.577; -170.300; -457.000; -483.000
821.830;  -96.500; -270.000; -172.000
822.083; -211.100; -733.000; -288.000
822.336;  -32.300; -261.000; -167.000
822.589; -212.900; -805.000; -688.000
822.842; -224.200; -875.000; -770.000
823.094; -330.800;-1076.000;-1114.000
823.347; -229.300; -925.000; -729.000
823.600;   56.300;  402.000;  187.000
823.853;  -69.400; -311.000; -267.000
824.105; -114.400; -331.000; -575.000
824.358; -191.400; -617.000; -716.000
824.611;  113.000;  234.000;   40.000
824.863; -114.500; -612.000; -591.000
825.116;   99.100;  -33.000;   27.000
825.368;   37.300; -366.000; -372.000
825.621;  180.800; -186.000; -240.000
825.873;   16.800; -704.000; -737.000
826.126;  848.600; -669.000; -641.000
826.378;14729.700; -389.000; -505.000
826.630; 2839.700; -890.000; -898.000
826.883;    4.100; -754.000; -693.000
827.135;   65.800; -279.000; -270.000
827.387; -195.200; -893.000; -839.000
827.639;  -20.200;  -86.000;   32.000
827.892; -208.200; -742.000; -582.000
828.144; -256.700; -848.000; -804.000
828.396;   -8.300;  104.000;  -80.000
828.648; -144.400; -440.000; -333.000
828.900; -248.800; -702.000; -795.000
829.152; -168.600; -684.000; -683.000
829.404; -110.600; -215.000; -267.000
829.656;   70.000;  321.000;  214.000
829.908;    5.300;  393.000;  229.000
830.160; -310.100;-1064.000;-1047.000
830.412; -148.700; -481.000; -430.000
830.664; -206.000; -557.000; -665.000
830.916; -140.300; -268.000; -206.000
831.167; -295.200;-1073.000; -951.000
831.419; -199.500; -623.000; -566.000
831.671; -218.200; -764.000; -809.000
831.923; -118.900; -311.000; -447.000
832.174;  -87.200; -273.000; -331.000
832.426; -179.900; -493.000; -582.000
832.678; -311.400;-1043.000;-1091.000
832.929; -291.300; -947.000; -935.000
833.181;  -99.800; -575.000; -677.000
833.432;  -72.800;  -59.000; -186.000
833.684;   15.600;  112.000;  -27.000
833.935; -194.900; -610.000; -566.000
834.187; -198.300; -829.000; -823.000
834.438;  -44.300;  -58.000;  -25.000
834.689;  -58.800; -255.000; -123.000
834.941;  -65.400; -343.000; -244.000
835.192; -127.100; -590.000; -533.000
835.443; -146.700; -419.000; -506.000
835.695;   28.800;  138.000;  -16.000
835.946; -145.700; -608.000; -378.000
836.197; -179.400; -599.000; -622.000
836.448; -147.000; -528.000; -395.000
836.699;  -88.200; -253.000; -341.000
836.950;   42.700;   72.000;    7.000
837.201; -280.400;-1003.000; -987.000
837.452;  -59.500; -356.000; -170.000
837.703; -188.000; -791.000; -737.000
837.954;  -47.100; -205.000; -365.000
838.205; -190.800;-1029.000;-1008.000
838.456;  176.500; -196.000; -282.000
838.707;  -32.200; -423.000; -519.000
838.958;  -67.600; -634.000; -647.000
839.209;  436.200;   18.000;   40.000
839.460;  136.500; -439.000; -201.000
839.710;  234.000; -135.000; -297.000
839.961;  644.100;  730.000;  612.000
840.212;  404.600; -382.000; -497.000
840.462; 1590.900; -328.000; -277.000
840.713;24209.700; -571.000; -536.000
840.964; 7787.300;  -62.000; -143.000
841.214;  644.300; -384.000; -624.000
841.465;  796.800; -214.000; -141.000
841.715;  665.200; -417.000; -380.000
841.966;  865.000; -746.000; -685.000
842.216;14591.600; -330.000; -431.000
842.466;44512.500; -169.000; -313.000
842.717; 1855.900; -964.000; -952.000
842.967;  438.500; -635.000; -641.000
843.217;  427.200;   20.000;   28.000
843.468;  125.900; -104.000; -132.000
843.718;  -69.800; -718.000; -726.000
843.968; -192.100; -837.000; -765.000
844.218;   12.600; -315.000; -262.000
844.469; -104.000; -577.000; -561.000
844.719; -140.000; -537.000; -682.000
844.969; -173.300; -550.000; -580.000
845.219; -247.900; -814.000; -862.000
845.469; -120.700; -392.000; -342.000
845.719; -225.000; -792.000; -884.000
845.969;   32.300;  119.000;  174.000
846.219; -186.100; -738.000; -720.000
846.469;  101.700;  464.000;  432.000
846.718;  -31.300; -115.000;   31.000
846.968; -264.500; -827.000; -827.000
847.218;  -36.600; -224.000; -371.000
847.468; -168.100; -586.000; -555.000
847.718; -234.300; -827.000; -798.000
847.967; -251.700; -826.000; -915.000
848.217; -141.400; -449.000; -569.000
848.467;  -92.300; -405.000; -376.000
848.716; -194.200; -708.000; -725.000
848.966;  -39.200; -372.000; -358.000
849.215;  -94.200; -428.000; -419.000
849.465; -151.900; -785.000; -615.000
849.714; -272.000;-1132.000;-1150.000
849.964; -125.400; -551.000; -613.000
850.213;  -83.200; -393.000; -355.000
850.463;  130.700;  137.000;  340.000
850.712;  -17.600; -542.000; -567.000
850.961;  -45.900; -739.000; -678.000
851.211;   71.800; -513.000; -504.000
851.460;  115.000; -635.000; -650.000
851.709;  736.300;  -25.000;   18.000
851.958;14085.700; -912.000; -750.000
852.208;13671.100; -859.000; -879.000
852.457;  536.400; -181.000;  -13.000
852.706;   48.800; -791.000; -823.000
852.955;  -17.800; -507.000; -528.000
853.204; -122.300; -521.000; -461.000
853.453; -150.700; -418.000; -458.000
853.702; -222.600; -660.000; -750.000
853.951; -177.000; -532.000; -520.000
854.200; -177.200; -613.000; -562.000
854.449; -218.200; -695.000; -661.000
854.698; -121.600; -340.000; -279.000
854.946;  -75.500; -181.000; -284.000
855.195; -263.700; -843.000; -868.000
855.444; -166.000; -395.000; -420.000
855.693; -187.600; -345.000; -432.000
855.941; -203.100; -387.000; -516.000
856.190;  -63.900; -256.000; -382.000
856.439; -227.900; -652.000; -703.000
856.687;  -53.800;  -99.000;  -72.000
856.936; -205.000; -621.000; -323.000
857.184; -320.100;-1067.000;-1020.000
857.433; -165.700; -423.000; -512.000
857.681; -273.800; -989.000; -953.000
857.930; -100.500; -282.000; -433.000
858.178; -277.400; -856.000; -929.000
858.427; -255.300; -802.000; -781.000
858.675; -176.200; -377.000; -544.000
858.923; -165.500; -527.000; -819.000
859.172; -292.500;-1094.000;-1070.000
859.420; -131.900; -339.000; -239.000
859.668; -238.200; -624.000; -628.000
859.916;  -32.800;  109.000;  115.000
860.164; -168.700; -699.000; -603.000
860.413;  292.900; -878.000; -696.000
860.661;  153.200; -709.000; -577.000
860.909; -141.400; -339.000; -325.000
861.157; -129.000; -277.000; -444.000
861.405; -220.400; -534.000; -670.000
861.653;   99.800;  310.000;  310.000
861.901;  158.300; -543.000; -613.000
862.149; -112.400; -801.000; -824.000
862.396;  -79.500; -297.000; -187.000
862.644; -117.700; -368.000; -347.000
862.892;  -19.700;   98.000;  138.000
863.140; -173.900; -549.000; -530.000
863.388; -290.200; -815.000; -759.000
863.635; -199.400; -642.000; -601.000
863.883;   46.500;  231.000;  190.000
864.131; -150.800; -288.000; -357.000
864.378; -246.500; -675.000; -540.000
864.626; -132.500; -347.000; -415.000
864.873; -229.300; -556.000; -505.000
865.121; -238.200; -714.000; -799.000
865.368;  -67.100; -173.000;   75.000
865.616;  -49.500;  -33.000;  -40.000
865.863; -131.500; -462.000; -506.000
866.111; -224.900; -795.000; -824.000
866.358;   20.900; -426.000; -420.000
866.605; 3305.600;  -64.000; -804.000
866.853; 2536.000; -621.000; -537.000
867.100; -142.700; -728.000; -775.000
867.347; -193.700; -672.000; -611.000
867.594; -152.900; -740.000; -714.000
867.841;   96.900;   97.000;   17.000
868.089; -262.300; -746.000; -698.000
868.336; -166.100; -477.000; -420.000
868.583; -229.100; -637.000; -741.000
868.830;  -49.900; -131.000; -170.000
869.077; -255.400; -859.000; -787.000
869.324; -206.400; -502.000; -458.000
869.571; -194.900; -398.000; -430.000
869.818; -187.100; -485.000; -439.000
870.065; -169.300; -439.000; -513.000
870.311; -201.700; -456.000; -542.000
870.558; -134.800; -332.000; -311.000
870.805; -106.800; -320.000; -384.000
871.052; -147.900; -494.000; -369.000
871.298;  -66.500; -204.000; -131.000
871.545;  -62.300; -151.000; -185.000
871.792; -120.600; -173.000; -222.000
872.038;  -78.000;   43.000; -126.000
872.285; -195.300; -496.000; -387.000
872.532; -128.500; -357.000; -387.000
872.778;   90.100;  556.000;  403.000
873.025; -109.600; -384.000; -359.000
873.271;  100.800;  501.000;  578.000
873.517;   -9.900; -133.000; -209.000
873.764;  -30.200; -193.000;  -80.000
874.010;  -62.300; -143.000; -230.000
874.257;  -34.600;  123.000;   90.000
874.503; -198.600; -579.000; -479.000
874.749; -102.300;   31.000;  275.000
874.995;  -52.500;  -80.000;  -20.000
875.242; -221.500; -540.000; -478.000
875.488; -143.400; -414.000; -439.000
875.734;  -85.200; -106.000; -234.000
875.980;  156.600; -872.000;-1032.000
876.226;  342.100; -157.000; -255.000
876.472;   70.700;  343.000;  237.000
876.718;  -10.700;  184.000;  158.000
876.964;   -8.200;   56.000;   55.000
877.210; -232.900; -547.000; -677.000
877.456; -200.800; -630.000; -557.000
877.702; -316.000; -821.000; -832.000
877.948; -132.800; -377.000; -497.000
878.193;   65.700;  361.000;  255.000
878.439; -165.600; -487.000; -472.000
878.685; -150.100; -272.000; -343.000
878.931; -209.700; -618.000; -676.000
879.176; -118.600; -201.000; -201.000
879.422; -282.800; -933.000; -820.000
879.668;  148.900;   10.000;   79.000
879.913;  223.300;   53.000;  137.000
880.159; -107.400; -112.000;  -17.000
880.404;  -86.800; -152.000; -162.000
880.650;  -16.500;   91.000;  141.000
880.895; -268.000; -670.000; -710.000
881.141; -179.700; -454.000; -428.000
881.386; -254.200; -503.000; -658.000
881.631; -156.100; -311.000; -166.000
881.877;    5.800;  112.000;  -13.000
882.122; -225.100; -684.000; -600.000
882.367;  -87.200; -136.000; -186.000
882.612; -102.200;  -80.000; -176.000
882.858; -272.200; -877.000; -823.000
883.103; -136.200; -297.000; -267.000
883.348; -236.000; -759.000; -852.000
883.593; -224.300; -677.000; -602.000
883.838;  -68.500; -311.000;  -24.000
884.083;   62.900;  353.000;  288.000
884.328; -141.300; -564.000; -545.000
884.573;  -83.400; -196.000; -143.000
884.818;  182.200; -694.000; -531.000
885.063;  122.800; -348.000; -315.000
885.308; -169.400; -475.000; -398.000
885.553;   21.800;  245.000;  325.000
885.797; -205.400; -545.000; -615.000
886.042;  -82.800;    8.000;   58.000
886.287; -117.900; -253.000; -211.000
886.532;  -53.500;   26.000;  204.000
886.776; -120.200; -407.000; -525.000
887.021; -232.100; -621.000; -574.000
887.265; -243.200; -685.000; -689.000
887.510; -210.100; -557.000; -496.000
887.755; -102.600; -194.000; -164.000
887.999; -232.600; -552.000; -575.000
888.244;  -61.200;  -58.000;  161.000
888.488;   46.600;  371.000;  393.000
888.732; -177.100; -368.000; -520.000
888.977; -209.900; -622.000; -567.000
889.221; -249.400; -683.000; -659.000
889.465; -223.700; -422.000; -566.000
889.710;  -84.700;  -56.000; -299.000
889.954;   28.500;  579.000;  467.000
890.198; -215.200; -584.000; -707.000
890.442; -245.300; -716.000; -712.000
890.687; -243.700; -800.000; -753.000
890.931; -144.600; -273.000; -210.000
891.175; -190.900; -502.000; -500.000
891.419; -113.800; -105.000; -110.000
891.663; -106.000; -239.000; -112.000
891.907; -282.300; -801.000; -545.000
892.151; -276.500; -920.000; -815.000
892.395; -167.800; -274.000; -387.000
892.638;   26.400;  408.000;  291.000
892.882; -315.900; -780.000; -867.000
893.126;  135.000;  758.000;  558.000
893.370; -161.200; -167.000; -168.000
893.614; -202.600; -714.000; -715.000
893.857; -135.400; -183.000; -197.000
894.101; -188.400; -527.000; -631.000
894.345;  -40.700;  300.000;  150.000
894.588;  113.300;  569.000;  380.000
894.832; -118.000; -178.000;  -84.000
895.075;  -89.100;   15.000;  -92.000
895.319; -195.900; -552.000; -420.000
895.563; -164.600; -413.000; -353.000
895.806; -276.800; -628.000; -741.000
896.049; -102.700; -576.000; -368.000
896.293;  142.200;  527.000;  405.000
896.536; -142.300; -465.000; -468.000
896.779;  -85.700; -149.000;   -1.000
897.023; -256.100; -751.000; -714.000
897.266;    6.600;  325.000;  269.000
897.509; -301.800; -900.000; -901.000
897.752;  -75.000;  149.000;  171.000
897.996; -331.400; -972.000; -864.000
898.239;  -31.200;  168.000;  102.000
898.482; -184.700; -431.000; -453.000
898.725;  -39.400;  101.000;   53.000
898.968; -244.800; -609.000; -744.000
899.211; -185.000; -513.000; -361.000
899.454; -209.300; -633.000; -539.000
899.697;  -73.700;   90.000;  -43.000
899.940; -275.600; -761.000; -757.000
900.182; -175.400; -335.000; -405.000
900.425;  -91.700; -150.000; -298.000
900.668;   27.400;  491.000;  350.000
900.911; -130.100; -292.000; -345.000
901.154;  -81.300;  141.000;   -3.000
901.396; -202.300; -407.000; -412.000
901.639; -216.000; -430.000; -496.000
901.882; -294.000; -790.000; -809.000
902.124; -135.400;  -29.000; -143.000
902.367; -136.000; -315.000; -361.000
902.609; -203.700; -476.000; -453.000
902.852;  -81.000; -108.000; -260.000
903.094; -197.500; -458.000; -337.000
903.337;  -18.100;  -26.000;   53.000
903.579; -141.200; -228.000; -441.000
903.821; -238.800; -597.000; -744.000
904.064;  -72.000;   85.000;  127.000
904.306;  -79.700; -126.000; -166.000
904.548; -134.100; -152.000; -366.000
904.790; -113.000; -195.000; -340.000
905.033; -219.100; -625.000; -577.000
905.275; -181.300; -513.000; -524.000
905.517;  140.700;  468.000;  256.000
905.759; -146.700; -667.000; -761.000
906.001; -182.000; -322.000; -369.000
906.243;  -95.400; -162.000; -224.000
906.485;  133.800; -265.000; -207.000
906.727;   81.000; -499.000; -542.000
906.969;  -61.700;  -30.000; -135.000
907.211;  144.800; -316.000; -382.000
907.453;  317.100; -188.000; -237.000
907.695;  -10.700; -158.000; -385.000
907.936;  154.100;  818.000;  706.000
908.178;  -26.900;   92.000; -135.000
908.420; -104.700; -111.000; -162.000
908.662; -229.500; -633.000; -682.000
908.903; -139.000; -208.000; -123.000
909.145;  -52.800; -240.000; -305.000
909.386;   25.300;  315.000;  280.000
909.628;  135.800;  363.000;  397.000
909.870;    6.900;   29.000;  264.000
910.111; -153.300; -809.000; -949.000
910.353;   29.800; -123.000; -161.000
910.594;    8.900; -574.000; -606.000
910.835;  113.100; -265.000; -326.000
911.077;  214.700; -503.000; -604.000
911.318;  402.100; -505.000; -471.000
911.559;  713.200; -577.000; -880.000
911.801; 2233.100; -284.000; -280.000
912.042;19458.700;  -50.000; -159.000
912.283;42382.500;  404.000;  371.000
912.524; 5366.900; -396.000; -457.000
912.765;  821.500; -193.000;   79.000
913.006;  448.700; -307.000; -338.000
913.247;   59.900; -270.000; -290.000
913.488;   21.500;  -43.000;   30.000
913.729; -150.600; -373.000; -373.000
913.970;  -64.700;  -96.000; -292.000
914.211;  -93.100; -160.000; -198.000
914.452;  -46.000; -118.000;  -11.000
914.693;   81.600;  510.000;  592.000
914.934;   98.100;  510.000;  440.000
915.175;  -85.500;   53.000;  -95.000
915.415;  -77.700; -137.000;   27.000
915.656; -104.200;  -28.000;  192.000
915.897; -162.900; -252.000;  -82.000
916.137;  -70.000;   74.000;   -9.000
916.378; -189.800; -573.000; -517.000
916.619; -119.200; -159.000;  -63.000
916.859;   12.200;  303.000;  330.000
917.100;  328.200; 1655.000; 1070.000
917.340;  167.500;  930.000;  728.000
917.581;  138.500;  965.000;  789.000
917.821;   -2.100; -171.000;  143.000
918.061;  -31.800; -199.000;  -72.000
918.302;  -54.500; -152.000; -211.000
918.542;  -36.000;  -22.000;    3.000
918.782;   89.900;  369.000;  377.000
919.023;  208.700;  360.000;  427.000
919.263; 3207.100; 8131.000;  202.000
919.503; 1317.400; -137.000;  -54.000
919.743;  891.700;  390.000;  266.000
919.983;  304.500; -134.000;  -26.000
920.223;  118.500;  135.000;   14.000
920.463;  262.500;  631.000;  554.000
920.703;  198.000;   84.000;   39.000
920.943;  205.700; -110.000;   90.000
921.183;  272.300; -414.000; -405.000
921.423;  717.100;  307.000;  546.000
921.663;  940.900; -174.000; -257.000
921.903; 2130.900;  237.000;  173.000
922.143;13129.300;  372.000;  389.000
922.383;46167.200;  158.000;  115.000
922.622;12552.600; -120.000;  -15.000
922.862; 1602.300;  796.000;  785.000
923.102;  612.400;  -51.000;   33.000
923.341;  205.300;   59.000;   74.000
923.581;  186.500;  450.000;  360.000
923.821;   22.900;  301.000;  398.000
924.060;   67.800;  351.000;  193.000
924.300;  -78.600;  -16.000; -128.000
924.539;   46.400;  584.000;  473.000
924.779;  116.500;  812.000;  597.000
925.018;  -37.900;  247.000;  353.000
925.257;   81.400;  595.000;  666.000
925.497;   -0.400;  447.000;  412.000
925.736;  -96.600;  -35.000;  102.000
925.975;   65.800;  687.000;  669.000
926.214;  136.000;  907.000;  850.000
926.454;   80.500;  706.000;  757.000
926.693;  -41.500;  419.000;  543.000
926.932;  170.500; 1021.000;  825.000
927.171;  227.600; 1107.000; 1044.000
927.410;  200.500; 1144.000;  967.000
927.649;   96.700;  924.000;  742.000
927.888;   50.200;  590.000;  564.000
928.127;   55.400;  680.000;  678.000
928.366;  147.500;  842.000;  826.000
928.605;  101.100;  831.000;  737.000
928.844;  477.500; 1451.000; 1393.000
929.083;  873.100;  770.000;  613.000
929.321;  503.600; 1335.000; 1359.000
929.560;  216.100; 1158.000; 1122.000
929.799;  -11.000;  574.000;  475.000
930.038;  269.100; 1025.000; 1394.000
930.276;   -7.400;  334.000;  397.000
930.515;   61.200;  827.000;  681.000
930.753;   41.600;  614.000;  589.000
930.992;   10.100;  664.000;  717.000
931.230;   80.700;  847.000;  847.000
931.469;  440.200; 2162.000;  892.000
931.707;  251.600;  840.000;  751.000
931.946;  213.300; 1278.000; 1344.000
932.184;  217.800; 1437.000; 1175.000
932.423;  150.500; 1265.000;  963.000
932.661;  269.900; 1296.000; 1428.000
932.899;  101.200;  987.000;  821.000
933.137;   80.100;  754.000;  564.000
933.376;  310.100; 1664.000; 1335.000
933.614;  387.500; 1759.000; 1196.000
933.852;  160.700; 1357.000; 1171.000
934.090;  339.400; 1722.000; 1747.000
934.328;  237.200; 1252.000; 1457.000
934.566;  229.000; 1431.000; 1110.000
934.804;  275.400; 1263.000; 1309.000
935.042;  769.800; 1861.000; 1850.000
935.280; 2782.300; 2088.000; 2063.000
935.518; 2259.000; 2113.000; 2007.000
935.756;  615.800; 2481.000; 2316.000
935.994;  374.800; 1808.000; 1751.000
936.231;  740.300; 2890.000; 2950.000
936.469;  413.400; 2367.000; 2378.000
936.707;  401.600; 2220.000; 2167.000
936.945;  571.600; 2825.000; 2882.000
937.182;  464.800; 2679.000; 2741.000
937.420;  666.500; 3602.000; 3031.000
937.657;  817.300; 3365.000; 3478.000
937.895;  717.100; 3331.000; 3488.000
938.133;  690.800; 3540.000; 3528.000
938.370;  781.300; 3896.000; 4191.000
938.607;  894.200; 4488.000; 4205.000
938.845; 1216.600; 5587.000; 5549.000
939.082; 1049.600; 5387.000; 5177.000
939.320; 1140.400; 5799.000; 5728.000
939.557; 1386.700; 6549.000; 6491.000
939.794; 1519.800; 7285.000; 7097.000
940.031; 1881.200; 8421.000; 8368.000
940.269; 2248.900; 9552.000; 9107.000
940.506; 2363.500;10901.000;10507.000

