
Integration time [ms]: 200.000
Averaging Nr. [scans]: 10
Smoothing Nr. [pixels]: 0
Data measured with spectrometer [name]: 2101013U2
Wave   ;Sample   ;Dark     ;Reference
[nm]   ;[counts] ;[counts] ;[counts] 

394.013;  127.477; -450.257; -315.536
394.305;  433.573; -461.258; -419.536
394.596; 2105.998; -676.269; -527.514
394.887; 4874.527; -796.268; -654.518
395.178; 2055.478;  145.736;   11.476
395.470;  153.897; -210.263; -356.526
395.761;  397.252;  305.734;  394.479
396.052;  669.786; -545.284; -306.489
396.343;  643.204; -557.276; -454.503
396.634;  183.851; -200.279; -290.497
396.926;  169.822; -618.268; -565.517
397.217;  176.812;   11.725;  -17.504
397.508;   91.639; -366.273; -154.507
397.799;   49.751; -555.279; -571.497
398.090;  -37.358; -973.280; -902.495
398.381;  202.359;   11.708;  -11.473
398.672;  -51.439; -585.292; -742.473
398.963;   96.762; -348.279; -373.498
399.254;  194.176;   54.709; -209.475
399.545;  -84.054;-1017.266; -883.520
399.836;  120.986; -407.277; -343.501
400.127;  106.318; -205.295; -209.468
400.418;  118.130; -423.274; -392.506
400.709;  130.920; -359.281; -333.493
401.000;  116.083; -268.291; -309.476
401.290;  250.911;  225.698;  115.545
401.581;  134.557; -166.286; -228.485
401.872;    8.571; -542.298; -486.462
402.163;  112.506; -313.296; -252.467
402.454;  154.477; -123.291; -163.475
402.744;   80.091; -844.297; -813.465
403.035;  679.044; -226.293;  -86.471
403.326;  892.466; -366.292; -384.474
403.617;  683.362;  204.701;  165.539
403.907;  473.496; -593.283; -679.490
404.198; 4439.333; -545.307; -599.446
404.489;11281.104; -618.283; -588.491
404.779; 3892.317; -618.302; -660.456
405.070;  450.881;  -67.304; -174.451
405.360;  639.347; -259.293; -238.472
405.651;  713.336;  125.699;   98.542
405.942;  318.749;  209.714;  127.516
406.232;  463.973; -432.285; -413.487
406.523;  892.835;  641.706;  758.530
406.813;  165.452; -579.286; -644.484
407.104;  589.057;  261.708;  144.527
407.394;  357.064; -604.299; -591.462
407.685;  342.572;  336.715;  222.513
407.975;  147.502; -400.283; -382.490
408.265;  196.302; -134.289; -190.478
408.556;   88.372; -472.291; -459.475
408.846;  313.237;  474.706;  429.530
409.137;  170.416;   -1.288; -216.480
409.427;   96.073; -193.285; -271.487
409.717;   69.944; -776.273; -692.508
410.007;  237.462;    4.715; -170.486
410.298;  147.523; -360.295; -342.469
410.588;  121.868; -495.285; -510.486
410.878;   56.235; -792.287; -873.482
411.168;  193.075; -481.298; -478.463
411.459;  233.292; -295.283; -242.489
411.749;  110.870; -609.292; -507.474
412.039;  112.713; -755.289; -386.480
412.329;  403.074;   40.722;  132.501
412.619;  394.453;  -62.286; -148.485
412.909;  683.106;  639.711;  594.521
413.199;  585.342; -130.280; -251.495
413.490;  722.890;  521.710;  352.523
413.780;  251.349;-1013.279; -913.496
414.070;  584.806;  -46.276;  235.497
414.360;  631.167; -729.278; -666.498
414.650;  716.828; -726.288; -688.482
414.940;  968.548; -538.280; -441.496
415.230; 1656.223;   50.712;   74.519
415.520;11607.697;  155.730;   66.486
415.809;43362.819; -305.281; -125.493
416.099;34306.090; -388.277; -229.501
416.389; 9313.926;  435.726;  236.494
416.679; 5623.903;   91.738;   85.473
416.969; 1006.042; -527.287; -503.483
417.259; 1135.052;  341.721;  171.503
417.549; 1260.817;  522.718;  318.508
417.838; 3016.626; -205.268; -147.518
418.128; 9869.199;  650.710;  492.522
418.418; 8429.855; -491.272; -579.509
418.708; 5744.826;    9.726;  -48.506
418.997;21009.019; -474.275; -480.505
419.287;21923.538; -733.273; -790.507
419.577;21289.291; -160.283; -123.489
419.866;64321.486; -588.277; -498.501
420.156;64298.190; -242.270;  -55.513
420.446;13036.491; -112.263;  -26.526
420.735; 1540.880; -376.271; -446.512
421.025; 1582.066; 1830.722;  315.502
421.314; 1220.177; -203.271; -226.512
421.604; 2300.613;   89.732;  233.484
421.893; 1339.770; -705.271; -602.511
422.183;  428.391; -487.263; -461.526
422.472;  688.873;  -36.271; -107.511
422.762;  789.756; -416.266; -379.521
423.051;  397.907; -916.276; -916.503
423.341;  562.241; -491.273; -439.507
423.630;  748.066; -121.265;   15.477
423.919;  665.518;   58.725;   49.495
424.209;  672.800;  -31.263;   56.473
424.498;  933.121;   68.732;  161.483
424.787; 1970.732; -535.267; -601.518
425.077; 5923.964;   34.735;   29.478
425.366; 7961.710; -734.262; -744.528
425.655;17721.842;  639.727;  259.493
425.945;37901.329; -313.247; -268.554
426.234;21916.148;  117.741;  300.467
426.523; 9283.657;  -86.259; -350.534
426.812;12798.549;  107.734;  159.480
427.101;18747.807; -127.269; -323.515
427.390;22816.897;  -55.270;  -86.514
427.680; 5056.790; -624.257; -411.538
427.969;  908.309; -330.255; -301.540
428.258;  592.176; -385.257; -477.536
428.547;  997.462;  449.728;  397.490
428.836; 2009.936; -421.253; -398.543
429.125; 2880.060; -199.259;  -72.534
429.414; 1430.175; -330.251; -294.548
429.703; 5959.875; -231.251; -213.548
429.992;16724.981; -938.250; -828.549
430.281;11375.479; -397.264; -331.524
430.570; 1166.258;  -21.252;   32.454
430.859; 1086.656;  279.741;  352.466
431.148;  944.421;  636.752;  631.446
431.437;  630.858;  391.748;  367.454
431.725;  287.679; -544.257; -481.536
432.014;  202.648; -845.253; -756.545
432.303;  730.550; -149.239; -105.569
432.592; 1089.490; -460.263; -178.525
432.881; 1921.523; -601.248; -437.554
433.169;11446.710; -343.255;  -61.540
433.458;22488.507;  445.765;  540.424
433.747; 9765.519; -397.261; -289.529
434.036; 1666.709; -275.242; -280.564
434.324; 3822.002; -395.249; -379.551
434.613; 6538.898;   40.757;  159.437
434.902; 2298.133;  333.760;  439.433
435.190;  977.848;   75.761;  295.431
435.479;  550.667;  -52.245;   83.441
435.767;  186.981; -411.244; -427.561
436.056;  387.902; -340.242; -294.563
436.345;  676.837; -372.240; -223.568
436.633;  748.194;   60.750;  383.450
436.922;  512.641;  208.760;  414.432
437.210;  956.690; -194.236;    1.426
437.499; 3005.604; -583.235; -432.576
437.787; 3269.889; -339.236;  -10.574
438.075;  930.657;   56.761;  162.430
438.364; 1179.961;  -44.238;  250.429
438.652;  770.939; -286.226; -138.592
438.941;  268.878;    3.770;  269.415
439.229;    7.654; -665.252; -466.545
439.517;   92.518; -160.234;  -85.577
439.806;  -10.335; -501.225; -290.595
440.094;  324.531;  377.766;  650.421
440.382;  294.937; -653.233; -302.580
440.670;  354.203; -361.235; -285.576
440.959;   46.995; -347.223; -170.599
441.247;  143.397; -151.229; -109.587
441.535;  173.815; -266.235;   31.423
441.823;   43.326; -497.234; -305.578
442.111;  354.704;  173.771;  327.412
442.400;  856.866; -628.245; -335.559
442.688; 2233.430; -111.234; -620.579
442.976; 1508.544; -786.213; -450.617
443.264;  161.977; -324.224; -364.597
443.552;  139.841; -258.226;   51.408
443.840;  323.913;  602.765;  876.423
444.128;  241.136;  265.767;  269.420
444.416;   -3.191; -694.228; -312.588
444.704;   57.745; -465.219;  -92.605
444.992;  122.545;   -0.226;  240.407
445.280;   39.879; -517.230;  -94.585
445.568;   73.350; -694.212; -396.618
445.856;  569.818; -174.221;  357.398
446.143; 1211.439;  -54.220;   -7.604
446.431; 1040.815;  -25.228;  625.411
446.719;  465.978;  489.783;  675.391
447.007;  353.269;  481.769;  705.416
447.295;  375.990;  597.777;  871.402
447.583;  138.593; -464.229;  -34.587
447.870;  284.713; -434.221; -202.601
448.158;  691.477; -104.230;  129.415
448.446;  488.841; -800.219; -338.604
448.733;  291.079;   13.776;  269.403
449.021;  465.549;   60.788;  341.382
449.309;  361.074; -296.210;  208.379
449.596;  407.971;  128.783;   59.392
449.884;  284.402; -571.222; -325.600
450.172;  257.124; -756.227; -406.590
450.459;  848.915;  645.786;  780.387
450.747; 4502.169; -411.218; -147.608
451.034;13476.417;  493.772;  889.411
451.322;11307.920; -413.214; -170.614
451.609; 1025.382;  292.777;  508.403
451.897; 1099.881; -550.203; -183.634
452.184; 3192.290; -622.223; -400.598
452.472; 3076.310;   97.792;  269.375
452.759;  688.442;  512.781;  864.395
453.047;  212.545; -407.212; -125.617
453.334;  116.555; -732.219; -216.606
453.621;  184.924; -438.214; -161.615
453.909;  254.567;   13.796;  384.368
454.196;  221.344; -299.199; -123.641
454.483;  369.003;  317.798;  540.364
454.771;  261.016; -215.208;  196.374
455.058;   99.121; -316.207;  102.374
455.345;  237.738;   71.807;  344.347
455.632;  202.627; -128.207;  235.373
455.919;  114.882;  -82.196;  182.354
456.207;  -85.748; -774.198; -450.642
456.494;    2.323; -475.200;  -66.639
456.781;   25.296; -399.202; -198.635
457.068;  103.038; -253.206;  -29.628
457.355;   25.240; -698.206; -401.629
457.642;   29.349; -552.205; -290.630
457.929;  -32.578; -778.194; -417.651
458.216;  115.745; -575.212; -354.617
458.503;  463.230; -173.193;  -19.652
458.790;  379.412; -864.208; -630.625
459.077;  515.604;  -77.202;  110.364
459.364; 1540.011; -350.195; -210.649
459.651; 3032.134;  -46.206;  220.372
459.938; 1447.896; -864.209; -665.623
460.225;  291.709;  132.799;  276.363
460.512;  -88.822; -836.197; -688.645
460.799;  219.467;  -32.218;  320.392
461.086;  175.131; -370.200; -251.640
461.372;   66.352; -509.198; -279.642
461.659;  215.084; -165.196;  108.354
461.946;  108.928; -445.193;  -54.651
462.233;  482.627;  842.800;  888.361
462.519;  666.222; -814.201; -464.639
462.806; 1754.478; -768.197; -497.645
463.093; 1598.063; -445.191;  -66.656
463.380;    4.933; -920.186; -824.664
463.666;  147.481; -259.197;  -18.646
463.953;  195.202; -406.195; -243.648
464.239;  357.502; -173.195;  -77.648
464.526;  728.320;  413.806;  743.350
464.813;  540.883; -565.190; -304.658
465.099;  675.130;  606.807;  607.348
465.386;  625.236;  903.807;  921.348
465.672;   51.279; -694.197; -522.645
465.959;   61.913; -598.188; -520.662
466.245;   28.136; -468.193; -359.652
466.532;  197.898; -109.195;   63.352
466.818;  141.932; -357.186; -216.664
467.104;   26.600; -488.182; -415.672
467.391;   -2.214; -628.189; -459.658
467.677;  115.439; -289.186;    9.335
467.964;   61.497; -682.189; -471.660
468.250;  152.943; -331.186; -160.665
468.536;  218.688;   90.811;  180.341
468.822;  -51.937; -821.184; -574.668
469.109;  309.237;  351.827;  471.311
469.395;  419.453;  729.808;  787.346
469.681;  373.493;   46.811;  156.341
469.967; 2375.001; -699.188; -382.660
470.254; 4892.614; -494.188; -306.662
470.540; 3229.982; -601.196; -476.646
470.826;  480.519; -488.181; -397.675
471.112;  591.269;  288.816;  113.331
471.398;  205.477; -253.183;  -58.670
471.684;   53.867; -626.177; -447.680
471.970;    2.426; -918.180; -981.675
472.256;   62.851; -521.192; -441.654
472.542;   44.956; -499.171; -434.691
472.828;   24.694; -743.182; -607.672
473.114;   92.729; -380.166; -283.700
473.400;   65.695; -504.175; -293.684
473.686;   66.940; -452.166; -400.701
473.972;  109.920; -230.174; -131.687
474.258;  -69.963; -925.173; -843.689
474.544;  365.053; -183.178;   -2.679
474.830;  582.898;  -65.175;   45.316
475.116;  876.685; -123.190; -196.658
475.401; 1157.029; -558.180; -467.676
475.687;  362.328; -725.180; -718.676
475.973;   54.407; -673.181; -770.673
476.259;  500.002;  736.825;  764.315
476.544;  705.081; -539.176; -437.682
476.830; 1503.649; -398.172; -322.690
477.116; 1319.978; -430.177; -336.682
477.401;  288.329;  346.820;  358.324
477.687;  -20.705; -289.175; -405.684
477.973;   94.413;   21.819;   28.326
478.258;   -2.926; -448.163; -348.706
478.544;  121.152;   21.815;   61.334
478.829;  -84.335; -818.171; -738.692
479.115;  -77.052; -749.172; -651.690
479.401;    5.712; -444.174; -449.686
479.686;  101.927; -253.180;  -74.676
479.972;  -46.438; -886.178; -776.680
480.257;   68.432; -258.166;  -65.700
480.542;    5.371; -614.170; -469.693
480.828;  514.492; 1288.824; 1392.317
481.113;  -21.011; -464.176; -426.683
481.399;  -12.485; -236.161; -202.711
481.684;  -76.669; -620.166; -462.700
481.969;   72.137; -158.159;  -73.713
482.255;   17.490; -439.169; -285.695
482.540;    0.862; -569.178; -441.680
482.825;   47.724; -395.187; -404.663
483.110;  212.595;  -85.169; -105.696
483.396;  367.674; -840.157; -652.718
483.681;  961.920;  543.826;  730.313
483.966;  302.727; -696.160; -700.712
484.251;   46.118; -404.174; -310.687
484.536;   45.249; -356.165; -378.703
484.822;   32.423; -205.173; -218.687
485.107;  -26.761; -599.152; -502.726
485.392;  306.358;  662.836;  541.296
485.677;  172.712;  354.832;  163.302
485.962;  256.270;  160.843;  270.283
486.247;  213.688;  -14.162;   -8.707
486.532;   98.934; -178.166; -325.701
486.817;  352.105;  381.839;  431.291
487.102;  215.610; -453.154; -514.722
487.387; 1307.377; -637.156; -652.718
487.672; 2069.167; -154.164;  -38.705
487.957; 1389.117; -394.160; -286.711
488.241;  390.467; -290.150; -314.729
488.526; 1392.841; -280.152; -148.726
488.811; 2069.265; -881.177; -818.680
489.096; 1617.714; -666.154; -702.723
489.381;  911.235;    3.847;  162.275
489.666;  707.914; -428.161; -510.710
489.950;  381.519;  558.846;  627.277
490.235;  -49.042; -480.151; -458.728
490.520;  -88.087; -756.161; -723.710
490.804; -117.720; -827.156; -736.719
491.089;   14.293; -469.149; -299.732
491.374;   95.365; -132.164;  -75.704
491.658;    3.113; -817.147; -717.735
491.943;  308.348; -657.152; -609.727
492.227;  456.403; -178.155;  -38.721
492.512;  142.569; -294.157; -341.717
492.797; -130.617; -713.149; -716.731
493.081;  -80.282; -588.147; -598.735
493.366;  -66.185; -751.161; -635.711
493.650;  429.207;  831.859;  917.254
493.935;   24.712; -648.147; -447.734
494.219;  -63.314; -778.142; -687.743
494.503;  -80.225; -585.150; -487.730
494.788;   94.555;   46.842;   74.285
495.072;  218.769;  184.850;  434.271
495.356;  328.299; -463.148; -343.733
495.641;  785.429; -812.146; -736.736
495.925;  719.089; -976.156; -903.719
496.209;   92.792; -599.149; -451.732
496.494;  -86.813; -763.142; -544.744
496.778;    5.110; -364.154; -360.722
497.062;  -89.712; -819.156; -627.719
497.346;  -76.680; -869.160; -640.711
497.631;  286.705;  580.852;  560.266
497.915;  137.546;  -64.145;  175.261
498.199;  127.174; -341.157; -277.718
498.483;  105.238; -562.152; -508.725
498.767;  405.171;  301.850;  300.271
499.051;  351.789; -126.149; -100.732
499.335;   57.385; -693.149; -739.731
499.619;  -28.621; -381.129; -423.767
499.903;   94.800; -272.155;  -65.721
500.187;   68.722; -588.153; -316.724
500.471;   36.147; -796.152; -595.727
500.755;  187.513;   62.839;  -96.710
501.039;   45.101; -270.155; -357.721
501.323;  194.710;  -21.141;  264.254
501.607;   52.675; -447.163; -503.706
501.891;  -22.424; -607.156; -512.718
502.174;  -43.935; -726.144; -585.741
502.458;  140.854;   89.849;  370.273
502.742;   93.451; -180.138; -191.751
503.026;  193.611; -412.147; -254.734
503.310;  370.236; -437.159; -375.713
503.593;  225.614; -464.147; -325.735
503.877;  258.719; -232.133; -156.760
504.161;  325.626;    2.847;  -50.724
504.444;  194.859; -841.158; -710.716
504.728;  897.963; -487.164; -522.704
505.012; 1274.466; -257.150;  -76.729
505.295; 1028.315; -417.161; -212.711
505.579; 1060.988; -256.156; -496.719
505.862; 1382.740; -555.145; -333.738
506.146; 1295.540; -681.159; -758.714
506.429;  849.641;  568.841;  461.286
506.713;  136.061; -732.151; -667.728
506.996;  616.109;   90.846;  295.278
507.280;  635.755; -633.165; -474.703
507.563;  444.098; -469.155; -261.721
507.847;  185.923; -423.153; -112.724
508.130;  219.916; -665.161; -456.711
508.413;  175.924; -758.167; -577.700
508.697;  465.525; -151.167;   12.300
508.980;  302.126; -422.153; -312.724
509.263;   -9.108; -466.155; -450.720
509.547;  108.465; -124.150;   82.271
509.830;   86.120; -172.160;  140.289
510.113;  196.587;  128.844;  298.281
510.396;   48.835; -530.152; -300.725
510.680;  248.843; -818.145; -812.738
510.963; 1093.217;  184.846;  180.277
511.246;  855.378; -493.150; -357.730
511.529;  472.151; -482.145;  -83.739
511.812;  696.913; -250.134;   10.241
512.095;  479.156; -740.151; -396.728
512.378;  173.621; -317.147; -245.736
512.661;   48.064; -703.137; -623.753
512.944;   35.489; -750.142; -637.744
513.227;  158.059; -170.137; -171.752
513.510;   66.865; -479.144; -671.741
513.793;   46.018; -485.140; -435.747
514.076;  273.514;  -43.127;  -39.771
514.359;  191.894; -294.149; -135.732
514.642;  173.294; -442.142; -567.744
514.925; 1464.515;  581.860;  561.253
515.208; 1740.507; -498.134; -443.758
515.491; 1222.030; -276.133; -182.761
515.773;  747.971; -410.143; -337.742
516.056; 3884.074;  249.864;  409.246
516.339; 4949.881; -754.136; -652.755
516.622; 3410.974; -518.150; -488.730
516.904; 2097.383;  882.857;  975.257
517.187;  929.357; -730.138; -523.752
517.470;  745.181; -568.143; -510.743
517.752;  784.886; -624.136; -470.756
518.035;  611.536; -708.139; -725.749
518.318;  750.981; -799.136; -744.755
518.600; 4535.336; -300.132; -325.762
518.883; 5925.493;  310.858;   88.256
519.165; 3028.944; -585.138; -426.751
519.448;  711.536;  -61.132;  -19.762
519.730;  328.226; -573.126; -415.773
520.013;  630.324;  588.867;  664.240
520.295; 1420.116;  -94.134;  -15.759
520.578; 3051.758; -335.131; -305.764
520.860; 3418.536; -254.132;   56.238
521.143; 1788.389; -763.135; -584.756
521.425;  891.148; -251.125; -279.775
521.707; 1267.114; -622.127; -380.771
521.990; 3335.215; -199.127;  167.229
522.272; 3559.521; -116.140;   -4.748
522.554; 1739.173; -237.143; -157.742
522.836;  639.912;  -24.134;   99.241
523.119;  390.409; -496.148; -189.734
523.401;  232.169; -448.130; -314.766
523.683;  180.264; -865.137; -693.753
523.965;  511.153;  408.862;  260.248
524.247;  551.784;   54.878;  170.220
524.529;  369.916; -451.134; -367.759
524.812;  692.673;   -3.130;  191.234
525.094; 1564.752; -773.138; -631.751
525.376; 2466.964; -143.124;   78.223
525.658; 1486.976; -441.136; -339.754
525.940;   46.352; -805.131; -671.764
526.222;   36.882; -188.136;  -88.755
526.504;  240.049; -190.131;   32.237
526.786;  279.220; -960.133; -647.760
527.068;  509.173; -124.123;  -67.778
527.349;  213.271; -865.137; -774.754
527.631;  271.335; -137.132;   22.238
527.913;  228.413; -664.127; -450.771
528.195;  331.836; -761.125; -639.774
528.477;  506.007;  -93.134;  -30.758
528.759;  257.972; -648.130; -522.766
529.040;  123.171; -569.123; -293.778
529.322;   85.341; -235.125;  -10.774
529.604;  280.676;  -47.130;   93.233
529.886;  228.526; -546.126; -302.773
530.167;  215.462;  232.870;  192.235
530.449;  115.120;    1.853;   63.265
530.731;   65.583; -572.122; -459.779
531.012;  124.618; -513.120; -216.784
531.294;  130.684; -118.116;  -43.792
531.575;  345.248;  290.875;  538.225
531.857;  107.799; -548.135; -266.757
532.138;  247.808; -113.141;   40.254
532.420;  360.292;  294.865;  403.244
532.701;  315.024; -722.133; -751.760
532.983;  604.329;  232.867;  182.239
533.264;  270.423; -243.126;  175.228
533.546;  -24.918; -491.136; -508.755
533.827;  129.318;  173.867;   -1.759
534.109;   87.898; -352.135;  -80.757
534.390;  148.042; -725.132; -582.762
534.671;  452.692; -270.135;  -82.756
534.953;  244.775; -751.123; -611.779
535.234;   50.159; -426.117; -255.789
535.515; -131.368; -891.119; -735.785
535.796;  -15.594; -431.128; -193.770
536.078; -203.837;-1050.124; -904.777
536.359;   51.777;  -22.123;    3.221
536.640;    5.039; -480.125; -197.774
536.921;  339.285;  225.871;  143.232
537.202;  690.147;  -87.138;  -16.751
537.483;  849.957;  251.869;  377.236
537.764;  386.162;   17.870;   98.235
538.045; -104.594; -543.134; -371.758
538.326;  -36.812; -596.129; -447.768
538.607;   46.716; -686.127; -476.771
538.888;  326.603;   98.879;    5.218
539.169;  388.593; -704.122; -535.781
539.450;  651.483;  236.871;   16.233
539.731;  414.509; -361.121; -182.783
540.012;  280.018;  199.880;  412.216
540.293;  214.554;   82.876;  158.224
540.574;   23.619; -895.113; -717.796
540.855;  854.207;  435.879;  377.218
541.136;  956.889;   47.878;  139.220
541.416;  533.774; -161.130; -220.766
541.697;  434.949; -274.131; -170.763
541.978; 2009.896; -270.135; -315.757
542.259; 2355.015; -211.127; -236.771
542.539; 1216.273; -191.116; -186.790
542.820;  427.748;  461.875;  480.225
543.101;  239.845;  -52.145;  -77.738
543.381;   63.115; -638.127; -591.771
543.662;  529.511;  159.873; -254.771
543.942; 1116.408; -751.127; -830.770
544.223; 1923.192;  193.878;  161.219
544.504; 1270.163; -275.124; -182.777
544.784; 1134.626; -592.126; -408.773
545.065; 3094.480;  104.884; -254.791
545.345; 3536.332;  227.881;   14.215
545.626; 2405.718;  -14.113; -108.796
545.906; 1560.761;   77.869;   98.235
546.186;  712.733;   92.874;  -95.773
546.467;  409.167;   99.877;  -95.778
546.747;  625.073;  264.884;  327.210
547.027;  723.760;   91.876;  111.223
547.308;  614.607; -376.127; -530.770
547.588;  748.089;  299.871;  371.232
547.868;  409.363;  458.870;  588.235
548.149;  396.892;  609.885;  593.207
548.429;  237.912; -347.127; -299.771
548.709;  374.517; -645.120; -461.784
548.989;  937.948;   84.882;   88.213
549.269; 4020.333;   10.868;  139.239
549.550; 8782.174;  215.877;  117.222
549.830; 7781.348; -758.111; -556.799
550.110; 1680.861; -468.110; -320.801
550.390; 1616.183; -128.122;  -56.779
550.670; 2001.710; -868.114; -783.795
550.950; 1496.406; -509.121; -471.782
551.230;  454.600;  549.879;  460.218
551.510;   -0.296; -381.121; -326.782
551.790;   77.674; -173.109; -127.803
552.070;  566.467;  940.877; 1181.223
552.350;  781.739; -492.119; -377.786
552.630; 1068.396;   -2.121;   77.219
552.909;  690.981;  181.884;   73.209
553.189;  475.444;  -49.132;   33.237
553.469;  419.738; -703.119; -514.786
553.749;  354.318; -469.127; -357.772
554.029;  314.566;   33.883;  -24.790
554.308;  281.199; -154.115;  -37.794
554.588;  121.505; -196.128; -204.770
554.868;  144.807; -366.121;  -47.782
555.147;  308.395; -114.115;  -46.793
555.427; 1196.784; -260.116; -250.792
555.707; 7360.191; -284.115; -200.793
555.986; 8237.453; -719.111; -538.800
556.266; 4682.471;   23.884;   72.210
556.546;  196.004; -888.121; -675.782
556.825;  539.707; -657.114; -556.794
557.105; 3368.001; -125.128;   17.230
557.384; 3684.879;  122.884;  187.209
557.664; 1545.183; -717.116; -508.792
557.943;  242.506; -557.121; -411.782
558.222;  352.554; -345.118; -344.788
558.502;  552.697; -116.115;  -76.793
558.781;  932.589;  194.885;  499.208
559.061;  708.453; -232.118; -227.788
559.340;  599.561;  302.883;  353.211
559.619; 1347.171;   93.884;  148.210
559.899; 1875.365; -239.117; -266.789
560.178; 1719.196; -778.115; -593.793
560.457; 6000.267; -623.117; -562.790
560.736; 7641.556; -472.111; -482.800
561.015; 5481.197; -500.128; -502.769
561.295;  765.007;  180.893;  215.193
561.574;  643.592;  119.885;  116.207
561.853;  925.481;  274.891;  303.197
562.132;  900.700;  -45.114;  182.206
562.411;  829.497;  396.879;  553.219
562.690;  256.989; -592.115; -458.792
562.969;  324.830;  472.888;  630.203
563.248; 1028.693; 2966.878; 2487.219
563.527;  543.554; -290.111; -408.800
563.806;  726.212; -650.127; -521.771
564.085;  782.833; -297.105; -206.810
564.364;  414.770; -594.117; -405.790
564.643; 1015.497; -276.121; -223.781
564.922; 3505.971;  221.890;  397.198
565.201; 3295.677; -640.109; -700.803
565.479; 1557.987; -297.115; -219.792
565.758;  612.501; -810.128; -712.770
566.037;  856.079; -155.109; -100.803
566.316;  443.479; -286.116;  -28.791
566.595;  107.591;  -17.115;  -12.793
566.873;  204.658; -166.111;  -79.801
567.152; -104.071; -490.113; -590.797
567.431;   48.672; -113.116;    6.210
567.709;   47.508; -344.107; -212.807
567.988;  494.106; -810.114; -769.794
568.266;  994.291; -160.115;  -68.793
568.545;  766.712; -644.100; -514.819
568.824; 1163.286;  160.885;  356.208
569.102;  953.606; -351.114; -235.794
569.381;  415.884; -492.116; -407.792
569.659;  -52.977; -553.113; -553.796
569.938;   91.190; -743.122; -465.780
570.216;  204.283; -225.109; -225.804
570.494;  -36.189; -632.114; -572.795
570.773;  118.204;  202.879;  114.218
571.051;   21.772; -373.123; -357.778
571.330;  136.319; -221.113; -174.796
571.608;  133.743; -181.098; -173.823
571.886;  -83.855; -671.111; -581.799
572.164; -144.593; -739.121; -621.782
572.443;  -72.061; -562.105; -512.811
572.721;  -51.832; -399.117; -289.790
572.999;  -28.543; -280.117; -168.788
573.277;  211.628;  379.894;  620.191
573.555;  596.732;   94.894;   37.190
573.834; 2506.456;  -86.117; -114.788
574.112; 2772.612;  880.893;  811.193
574.390;  908.156; -143.111;  -96.801
574.668;   23.031;  -91.112;  -61.797
574.946;   23.632; -165.106; -187.810
575.224;   35.877;   71.891;  -16.803
575.502;  -27.725; -200.116; -204.791
575.780; -138.168; -767.112; -829.798
576.058;  545.055; 1589.889; 1004.200
576.336;   14.264; -210.110; -129.801
576.614; -116.467; -511.112; -340.798
576.891;  121.499; -711.115; -823.794
577.169;  908.297; -158.108; -285.805
577.447; 1073.711;  169.893;  202.193
577.725;  544.940;  629.888;  854.201
578.003;   51.737;  -71.112; -371.798
578.280;  195.654; -208.104; -242.812
578.558;  122.397; -450.115; -422.793
578.836;  254.411; -210.114; -145.795
579.114;   74.330; -630.112; -670.797
579.391;  136.159;   -6.117;  -18.789
579.669; -117.300; -595.114; -704.794
579.947;  379.805; -326.107; -127.806
580.224;  536.405; -692.107; -524.806
580.502;  610.112;  127.893;   76.193
580.779;   96.169;  -42.117;   75.210
581.057;  -99.216; -584.109; -470.804
581.334; -184.821; -726.102; -695.815
581.612;  101.934;   54.895;  511.190
581.889;  -29.998;  -83.101; -129.818
582.167;  -46.874; -298.099; -190.821
582.444; -173.607; -845.102; -814.817
582.721;  251.994;  657.899;  715.183
582.999;  171.822; -326.100; -167.821
583.276;  946.979; -812.123; -713.779
583.553; 1250.385; -364.102; -294.816
583.831;  412.449; -607.104; -631.812
584.108;  141.093;  349.892;  174.195
584.385;   42.579; -122.102;  -98.815
584.662; -136.341; -651.111; -828.801
584.940;   81.657;  204.889;  204.199
585.217;   -4.478;  -73.113; -303.796
585.494;  100.972;   71.890;  118.198
585.771;  417.285; -250.109; -354.804
586.048;  897.922; -196.113;  -76.796
586.325;  567.063; -721.110; -773.801
586.602;  203.355;  230.896;  213.188
586.879;  -41.784; -499.100; -580.820
587.156;  126.035; -156.105; -331.810
587.433;  -76.711; -701.102; -667.817
587.710;  173.334;  152.888;  234.202
587.987;  612.544; -264.105; -236.811
588.264; 1435.837;  315.888;  387.202
588.541; 2626.059;  -61.104;   26.187
588.818; 4804.389;   72.892;  171.196
589.095; 4163.752; -163.104; -174.812
589.371;  676.282; -459.109; -414.804
589.648;   51.612; -581.107; -437.807
589.925;   45.412; -517.114; -621.795
590.202;    9.033; -741.112; -607.798
590.478;  186.847; -166.105;  -73.811
590.755;  586.299; -241.108; -132.806
591.032; 4696.166; -741.110; -699.802
591.308; 6013.310; -732.094; -790.831
591.585; 3244.066; -573.110; -560.802
591.862;  258.092;-1056.102; -950.817
592.138;  128.395; -475.108; -474.805
592.415;  312.156; -486.104; -495.813
592.691; 2801.253;  460.896;  518.188
592.968; 3224.846; -208.098; -123.824
593.244; 1615.973; -695.116; -595.790
593.521;  176.392; -105.102;  -42.817
593.797;  -26.115; -810.122; -720.780
594.074;  598.267; -611.096; -588.826
594.350; 1231.286;  828.905;  729.172
594.626;  606.959; -303.111; -283.801
594.903;  219.993; -643.101; -645.817
595.179;  404.263;  243.896;  418.187
595.455;   37.514; -136.107; -150.807
595.731;   83.265;  -19.103;  -38.814
596.008;  -31.051; -464.111; -434.800
596.284;  117.520; -187.100; -242.820
596.560;  126.221; -501.093; -493.833
596.836;  387.438; -173.105;  -70.810
597.112;  626.296; -582.108; -437.805
597.388;  557.664;  -49.097;  -48.826
597.665;  274.326;  437.887;  530.203
597.941; -107.729; -572.089; -658.839
598.217;   40.071; -323.110; -293.802
598.493;  548.388;   61.891; -204.804
598.769;  939.510; -175.100;  -50.819
599.045;  563.301; -490.108; -562.806
599.321;  120.918; -193.100; -261.820
599.597;  286.487; -355.109; -476.804
599.872;  888.859;  409.896;  429.187
600.148;  700.366;  -61.097; -172.826
600.424;  597.409;   91.893;  202.193
600.700;  490.913; -170.107; -280.807
600.976;  260.356; -442.097; -464.825
601.252;  458.281; -226.109; -272.803
601.527;  352.161; -833.104; -840.813
601.803;  293.948; -453.105; -404.812
602.079;  373.510; -124.100; -118.819
602.354; 1046.938; -620.092; -531.835
602.630; 1464.522; -140.113; -482.796
602.906; 4617.302; -910.101; -863.818
603.181;11840.139; -627.119; -534.786
603.457;10084.462;   98.903; -278.826
603.733; 1514.211; -605.120; -626.783
604.008; 1933.333; -245.106; -164.810
604.284; 5327.896; -636.101; -580.817
604.559; 4688.540;   -3.112;  -42.799
604.835;  919.638; -163.105; -225.810
605.110;  776.127; -732.099; -892.821
605.385; 1219.226;  224.907;  267.167
605.661; 1279.490; -625.095; -729.829
605.936; 2023.102; -664.108; -737.806
606.211; 1741.877;  -17.103; -170.815
606.487;  410.804; -329.114; -376.794
606.762;   16.939; -791.119; -745.786
607.037;  -15.362; -501.105; -433.810
607.313;  -76.521; -589.096; -574.828
607.588;    5.232; -375.106; -137.810
607.863;  131.401;  -28.101; -143.818
608.138;  360.069;  513.890;  516.198
608.413;   54.533; -576.099; -592.822
608.688;  108.295; -203.108; -267.805
608.964;  384.823; -509.106; -218.809
609.239;  422.834; -107.105; -212.810
609.514;  547.547;  281.895;  240.188
609.789; 1233.254; -187.104; -716.812
610.064; 1546.377; -435.096; -609.827
610.339; 1668.882; -855.109; -799.804
610.614; 2092.919; -131.100; -315.820
610.889; 1221.947;  215.895;  107.188
611.163;  103.849; -407.104; -591.812
611.438;  187.706;   81.886; -167.794
611.713;   16.596; -467.101; -499.817
611.988;  139.199; -144.101; -328.818
612.263;  -34.521; -771.102; -717.815
612.538;  432.321;  385.887;  251.204
612.812;  306.921; -832.100; -911.820
613.087;  259.742; -358.098; -338.823
613.362;  -64.587; -497.107; -557.807
613.637;  148.370;  261.897;  138.186
613.911;   14.939; -256.092; -345.835
614.186;  241.411; -249.107; -292.807
614.460; 1248.798; -842.081; -758.854
614.735; 1347.110;  -55.087;  -17.843
615.010;  330.793;   43.912;  -82.841
615.284;  487.194;  360.892;  246.195
615.559;  674.037; -792.092; -955.835
615.833;  513.530;  -76.099;  -87.822
616.108;   42.457; -225.090; -390.837
616.382;  292.113;  274.913;  402.156
616.656;  324.857; -241.090; -232.837
616.931;  928.031; -785.099; -700.822
617.205; 1949.561; -973.104; -979.813
617.480; 1718.945;  -91.125;    6.225
617.754;  308.140; -396.125; -128.774
618.028;   49.191; -369.129; -382.768
618.302;  184.992;   73.892;  -25.805
618.577;  -92.828; -371.103; -518.815
618.851; -111.924; -399.109; -600.803
619.125;  -71.984; -335.134; -378.759
619.399;  -12.138; -244.104; -374.813
619.673;  -78.614; -330.115; -515.792
619.947;  -67.789; -333.114; -448.795
620.222;  -24.840; -198.110; -204.801
620.496;   38.107;  -47.121;  -96.782
620.770;   60.293; -187.122;  -93.781
621.044;  457.335;  323.895;  346.190
621.318; 1331.612; -653.120; -614.783
621.592; 1232.008; -430.121; -409.783
621.866;  687.842; -476.112; -572.799
622.140;   78.275; -207.116; -356.791
622.413;  126.949;  138.889;  112.200
622.687;  -64.904; -746.101; -492.817
622.961;   50.892; -130.108; -143.805
623.235;  -72.750; -633.111; -661.800
623.509; -184.754; -816.105; -848.811
623.783;   86.307;  -12.107;   48.193
624.056;  -40.586; -254.120; -280.783
624.330;   93.931;   63.888;   -3.797
624.604;   74.370; -271.116; -355.790
624.877;  177.768;  180.890;   26.198
625.151;   94.702; -249.114; -238.794
625.425;  -34.435; -150.103; -283.814
625.698;  -94.171; -367.119; -374.785
625.972; -164.128; -799.110; -765.802
626.245;  198.073;  685.884;  484.210
626.519;  -63.380; -426.120; -340.784
626.792;  -23.987; -192.107; -380.807
627.066; -128.519; -485.122; -662.779
627.339; -183.935; -736.110; -663.802
627.613;  111.318;  351.880;  148.216
627.886;  143.975;  187.891; -612.803
628.160;   36.811;  312.880; -161.783
628.433; -198.851; -695.125; -703.775
628.706; -138.480; -517.120; -615.784
628.979;   88.060;  296.876;  117.223
629.253; -137.463; -785.119; -833.786
629.526;  662.323; -334.126; -253.772
629.799;  588.572; -641.123; -479.778
630.072;  311.793; -497.128; -516.769
630.346; -129.927;-1115.116;-1080.790
630.619;  813.814; -467.107; -545.808
630.892; 1153.751;  709.889;  593.200
631.165;  662.062;  790.896;  679.187
631.438; -151.463;-1092.112;-1055.798
631.711;  134.977;  453.877;  257.221
631.984;  -74.035; -523.117; -624.789
632.257; -149.641; -636.117; -681.789
632.530;  -52.970; -412.119; -433.785
632.803;   77.398; -109.115;    7.207
633.076;  -61.533; -360.123; -422.777
633.349;   50.000;  173.872;  121.231
633.622;  -38.872; -187.119; -240.785
633.895; -223.087; -903.120; -823.783
634.167;  -95.173; -496.126; -525.773
634.440;  -15.816;  -19.116; -137.792
634.713;   36.336;  -22.119; -120.786
634.986;  178.383;  593.871;  453.233
635.258; -117.205; -507.115; -597.793
635.531;  210.352;  742.882; -343.788
635.804;  -46.837; -303.117; -318.789
636.077; -187.123; -830.116; -852.791
636.349;   -6.708; -586.115; -474.793
636.622;  828.722; 1695.874; 1392.228
636.894;  453.721; -474.120; -909.784
637.167;  237.312; -836.127; -789.771
637.439;  124.305; -278.128; -213.770
637.712;  -52.475; -312.126; -293.772
637.984; -102.622; -635.116; -707.791
638.257;  781.467;  515.877;  488.222
638.529;  949.951; -881.125; -924.776
638.802;  446.893; -508.128; -449.769
639.074; -195.809; -927.122; -952.781
639.346; -245.499; -942.135; -930.757
639.619;   38.691;  -79.142; -319.744
639.891;    1.981;  -83.122; -168.779
640.163; -148.016; -689.122; -756.780
640.435;   93.987;  273.878;  103.220
640.708;   39.590;  -72.122; -132.780
640.980;  -23.807; -366.122; -362.781
641.252;  452.996;  -25.121;  -71.781
641.524; 3345.199;  580.879;  573.219
641.796; 3184.803;-1094.121; -907.782
642.068;  612.306; -191.121; -300.782
642.340;  -70.491; -486.121; -566.783
642.613;  127.112;  294.880;  323.217
642.885; -176.685; -787.120; -878.783
643.157;  -71.582; -810.120; -658.784
643.428;  146.621;  170.880;  218.216
643.700; -122.076; -498.120; -425.784
643.972;  -19.073;  -16.119; -133.785
644.244; -161.870; -474.119; -559.785
644.516;  -68.567; -250.119; -114.786
644.788;  182.537;  662.881;  548.214
645.060;  -17.660;  -12.119; -124.786
645.332; -177.057; -525.118; -535.787
645.603;   92.246;  479.882;  342.213
645.875; -129.751; -334.118; -369.787
646.147;  379.352; 1487.882; 1242.212
646.418; -135.545; -931.117; -918.788
646.690;  195.658; -714.117; -715.789
646.962;  107.861; -413.117; -451.789
647.233;   34.864;   15.883;   11.211
647.505; -204.733; -595.117; -475.790
647.776;   98.471;  328.884;  229.210
648.048;   33.974; -248.116; -418.790
648.320; -104.423; -752.116; -679.791
648.591; -299.220;-1055.116; -958.791
648.862; -127.317; -505.116; -577.792
649.134;   85.586;  115.885;  198.208
649.405;  -90.011; -661.115; -618.792
649.677;  -86.108; -475.115; -598.793
649.948;    9.195; -181.115; -296.793
650.219;    6.398;  -37.115; -147.793
650.491; -122.999; -431.114; -520.794
650.762; -210.296; -705.114; -731.794
651.033; -146.692; -437.114; -424.795
651.304; -130.589; -743.114; -728.795
651.576; -113.386; -680.114; -645.795
651.847;  -40.783; -250.113; -140.796
652.118;  -46.080;  -32.113; -189.796
652.389; -185.077; -639.113; -722.796
652.660;  -23.074; -147.113;  -89.797
652.931; -287.371; -897.112; -871.797
653.202;  -95.868; -382.112; -541.798
653.473;  -95.865; -633.112; -533.798
653.744;  306.938; -595.112; -590.798
654.015;  265.042; -356.112; -303.799
654.286;  -73.955; -642.111; -663.799
654.557;  -98.952; -586.111; -521.799
654.828; -280.749;-1114.111;-1088.800
655.099; -123.446; -404.111; -291.800
655.370; -126.243; -427.111; -543.801
655.641; -218.840; -656.110; -714.801
655.911; -184.037; -618.110; -638.801
656.182;  136.566;  437.890;  387.198
656.453;  233.469;  830.890;  746.198
656.724; -122.928; -466.110; -426.802
656.994; -157.724; -553.109; -568.803
657.265; -174.021; -862.109; -873.803
657.536; -115.718; -500.109; -377.804
657.806; -175.315; -561.109; -593.804
658.077; -219.912; -866.109; -950.804
658.347; -166.109; -523.108; -598.805
658.618; -190.906; -646.108; -694.805
658.888;    1.097;  -41.108;  112.195
659.159;  -96.000; -432.108; -548.806
659.429;  -26.597; -292.108; -349.806
659.700;   82.706; -435.107; -390.807
659.970;  -35.491; -370.107; -359.807
660.241;   60.113; -754.107; -921.807
660.511;  847.116; -147.107; -174.808
660.781;  178.619; -793.106; -748.808
661.052;  -67.078; -222.106; -381.808
661.322;  -19.675;   21.894;   -9.809
661.592;   66.128;  257.894;  148.191
661.862; -133.169; -369.106; -382.810
662.133; -142.366; -551.105; -502.810
662.403; -198.063; -770.105; -676.810
662.673;  -61.060; -256.105; -213.811
662.943; -143.457; -612.105; -551.811
663.213;    6.547;  -85.105;  -81.811
663.483;  -97.350; -593.104; -568.812
663.753;  -83.547; -194.104; -152.812
664.023;   28.156;   68.896;  -32.813
664.293;  -70.341; -319.104; -126.813
664.563; -173.538; -694.104; -648.813
664.833; -215.135; -743.103; -608.814
665.103; -216.032; -730.103; -793.814
665.373; -196.829; -766.103; -806.814
665.643; -151.126; -863.103; -918.815
665.913;   50.977; -534.103; -714.815
666.182;  276.781; -685.102; -719.816
666.452;  510.884;  -22.102;  -89.816
666.722;  -21.413; -724.102; -784.816
666.992; -227.110; -948.102; -921.817
667.261; -162.307; -824.102; -808.817
667.531;  447.196;  134.899;   45.183
667.801;  956.999; -440.101; -412.818
668.070;  504.002;  714.899;  697.182
668.340; -165.495; -883.101; -840.819
668.609;  198.208;  588.900;  301.181
668.879; -134.189; -490.100; -558.819
669.149; -146.686; -539.100; -516.820
669.418; -177.182; -698.100; -726.820
669.688;  -31.779; -482.100; -666.820
669.957;  143.124; -423.099; -546.821
670.226;   -1.673; -268.099; -331.821
670.496; -144.870; -431.099; -635.822
670.765; -113.567; -418.099; -501.822
671.034; -272.164; -872.099; -828.822
671.304;    0.039;   55.902; -111.823
671.573; -253.258;-1085.098; -957.823
671.842;  155.745; -380.098; -294.823
672.112;   52.948; -692.098; -586.824
672.381;   -5.248; -239.098; -214.824
672.650; -239.645;-1005.097;-1021.825
672.919; -139.742; -631.097; -507.825
673.188; -142.439; -681.097; -878.825
673.457; -291.636;-1101.097;-1143.826
673.726; -138.533; -579.096; -646.826
673.995;  -48.330; -533.096; -479.826
674.265;   17.073; -263.096; -333.827
674.534;   67.176; -183.096; -235.827
674.802;   25.179; -618.096; -703.828
675.071; 1957.382; -886.095; -801.828
675.340; 6689.786; -464.095; -339.828
675.609; 2275.789;  103.905;   82.171
675.878;  137.192; -949.095; -893.829
676.147;   64.295;  -26.095;   -8.829
676.416;  215.898; -210.094; -294.830
676.685; 1384.501; 1000.906; -622.830
676.953;  215.504; -603.094; -452.831
677.222;  -22.493; -193.094; -273.831
677.491;   10.110;  -24.094; -127.831
677.759;   17.313;   11.907;  172.168
678.028;   16.516; -279.093; -222.832
678.297;   42.219;   71.907;  197.168
678.565; -251.177; -898.093; -944.833
678.834;  -80.474; -311.093; -268.833
679.102; -106.571; -411.092; -391.834
679.371; -263.368; -898.092; -727.834
679.639; -218.965; -797.092; -786.834
679.908; -221.662; -794.092; -724.835
680.176; -258.459; -895.091; -941.835
680.445; -113.256; -346.091; -352.835
680.713;   14.347;  -58.091;  -23.836
680.982; -154.050; -523.091; -525.836
681.250; -160.547; -578.091; -507.837
681.518; -159.343; -534.090; -751.837
681.787;  -22.540; -204.090; -167.837
682.055;  -94.037; -490.090; -422.838
682.323; -262.434; -993.090; -992.838
682.591;   93.169; -216.090; -538.838
682.859;  172.672;    9.911;  -35.839
683.128;   62.675;  232.911;  497.161
683.396; -269.322;-1102.089;-1122.840
683.664;  -43.719; -241.089;   21.160
683.932;   40.884;  144.911;  -76.840
684.200; -127.613; -576.088; -320.841
684.468;  -12.809;  -73.088; -124.841
684.736;  -30.106; -214.088; -175.841
685.004; -211.903;-1024.088; -982.842
685.272;  -93.900; -880.088; -774.842
685.540;  -88.997; -499.087; -557.843
685.808; -162.794; -651.087; -682.843
686.076; -179.391; -894.087; -969.843
686.343;  -96.988; -601.087; -815.844
686.611;  126.915; -195.087; -224.844
686.879;  925.918; -530.086; -553.844
687.147; 5723.621; -483.086; -480.845
687.414; 1601.024;  -12.086; -169.845
687.682;   12.428; -658.086; -757.846
687.950;  562.431;  259.915;  263.154
688.217;   17.634; -792.085; -760.846
688.485;   56.837; -632.085; -636.847
688.753;  923.240;  -11.085; -102.847
689.020;  245.243; -820.085; -851.847
689.288; -123.954; -853.084; -787.848
689.555;   -9.051; -195.084; -148.848
689.823;  -18.048; -241.084; -345.849
690.090; -132.345; -546.084; -651.849
690.358; -265.142; -877.084; -897.849
690.625;   35.762;  120.917;   45.150
690.892; -122.935; -403.083; -369.850
691.160;   26.468;   72.917;  -35.850
691.427;   64.071;  141.917;  130.149
691.694; -250.726; -855.083; -929.851
691.962; -232.123;-1177.082;-1060.852
692.229;   58.180;  127.918;   56.148
692.496;  184.283;  130.918;  -49.852
692.763;   59.286; -164.082; -201.853
693.031; -130.811; -739.082; -716.853
693.298;  -34.908; -509.081; -368.853
693.565;  655.696; -155.081; -163.854
693.832; 2182.799;   -5.081;   -9.854
694.099;  255.202; -643.081; -642.855
694.366; -108.795; -882.081; -896.855
694.633;  -55.592; -920.080; -633.855
694.900; 1541.411; 4367.920; -114.856
695.167;  820.614; -214.080; -380.856
695.434;  180.317; -646.080; -623.856
695.701;  418.720;  121.921;  -61.857
695.968;  890.223; -365.079; -361.857
696.234; 2079.126; -415.079; -646.858
696.501;19253.830; -776.079; -614.858
696.768; 9208.233; -554.079; -617.858
697.035;  607.836; -632.078; -667.859
697.302;   76.539; -448.078; -552.859
697.568;   67.842; -458.078; -497.859
697.835;  -23.555; -683.078; -624.860
698.102;  -25.052; -498.078; -407.860
698.368;  210.451;  384.923;  396.139
698.635;   -3.946;  -47.077; -424.861
698.901;   30.457; -240.077; -348.861
699.168;  169.060; -534.077; -456.862
699.435;  189.663;  -72.077;  -13.862
699.701; -194.533; -868.076; -764.862
699.968;  -52.430;  144.924; -441.863
700.234; -146.227; -783.076; -822.863
700.500;  -82.324; -448.076; -539.864
700.767;   60.079;   -1.075;   26.136
701.033; -211.518;-1015.075; -963.864
701.299;  -86.215; -450.075; -483.865
701.566;  278.388;  950.925;  763.135
701.832;  124.691;  -31.075;  -76.865
702.098; -148.106;-1054.074;-1034.866
702.365; -132.203;-1098.074;-1030.866
702.631;  -36.699;-1038.074;-1063.867
702.897; 2577.204; -765.074; -676.867
703.163; 3859.007;  348.926;  254.133
703.429;  336.710; -256.073; -273.868
703.695;  -60.287; -796.073; -792.868
703.961;   85.716; -214.073; -210.868
704.227;  -61.281; -630.073; -725.869
704.493;  305.322;  613.927;  510.131
704.759;   -1.775; -565.072; -540.870
705.025;  110.328; -203.072; -194.870
705.291;   33.931; -666.072; -562.870
705.557;  430.935;  719.928;   34.129
705.823;  108.238; -742.072; -694.871
706.089;  291.641; -307.071; -326.871
706.355;  811.944; -315.071; -244.872
706.620;10910.047; -776.071; -729.872
706.886;13875.450; -309.071; -362.873
707.152; 1350.253; -818.070; -973.873
707.418;  -19.544;-1153.070;-1186.873
707.683;   57.359; -550.070; -530.874
707.949;  -19.938; -547.070; -578.874
708.215;   44.965; -129.070; -207.874
708.480;   36.968; -520.069; -420.875
708.746;  219.872;   68.931;   28.125
709.011;  -91.025; -578.069; -612.876
709.277;  -85.022; -538.069; -543.876
709.542;  -39.319; -428.069; -387.876
709.808;   30.684;  -59.068;   89.123
710.073; -139.413; -577.068; -695.877
710.339;   -9.410; -242.068; -228.877
710.604;  170.493; -780.068; -845.878
710.869;  552.596; -277.068; -366.878
711.135;  -84.401; -715.067; -628.879
711.400; -125.498; -507.067; -608.879
711.665;  -68.094; -404.067; -479.879
711.931; -150.891; -661.067; -677.880
712.196; -207.788; -876.067; -954.880
712.461;  177.615; -402.066; -490.880
712.726;  246.618; -727.066; -771.881
712.991; -144.679; -647.066; -664.881
713.256;  -15.976; -350.066; -332.882
713.521;  -83.473; -417.065; -381.882
713.787;  -73.770; -454.065; -472.882
714.052;   -9.867; -214.065; -400.883
714.317; -151.564;-1045.065; -981.883
714.581; 2075.440; -374.065; -268.883
714.846; 2462.643; -822.064; -888.884
715.111;  315.646;  261.936;  257.116
715.376;  -32.951;  -86.064; -223.885
715.641;   37.552; -365.064; -367.885
715.906;  571.255;   15.936; -551.885
716.171;  260.158;  221.937;  209.114
716.436;   90.661;  -78.063; -104.886
716.700; -182.936; -818.063; -692.886
716.965; -200.733; -794.063; -807.887
717.230;  -91.530; -339.063; -392.887
717.494;   27.173;  -40.062; -134.888
717.759; -126.623; -784.062; -640.888
718.024;   39.580;  269.938;  250.112
718.288;  191.383;  685.938;  395.111
718.553; -238.014; -803.062; -977.889
718.817; -241.611; -883.061; -899.889
719.082;   -9.308; -115.061; -125.890
719.346; -201.405;-1000.061; -947.890
719.611;  -44.802; -300.061; -255.891
719.875; -186.799; -568.060; -537.891
720.140;  -97.196; -453.060; -603.891
720.404;  112.307; -136.060; -249.892
720.668; 1512.611; -475.060; -411.892
720.933;  558.914;  146.940;  137.108
721.197; -114.483; -667.059; -600.893
721.461; -244.580; -851.059; -826.893
721.725;   50.723;  -21.059; -250.894
721.990;  -67.174; -284.059; -204.894
722.254;    7.429;  -26.059; -108.894
722.518; -105.668; -286.058; -442.895
722.782; -143.365; -743.058; -594.895
723.046;  301.738;  614.942;  570.105
723.310;  123.841;  374.942;  210.104
723.574; -165.955; -654.058; -614.896
723.838; -147.352; -576.057; -642.897
724.102;  -30.249; -226.057; -239.897
724.366; -212.446;-1032.057; -978.897
724.630; -131.843; -749.057; -571.898
724.894; -150.540; -722.057; -514.898
725.158;   30.163;   38.944; -295.898
725.422;  -45.834; -394.056; -327.899
725.685; -106.131; -441.056; -349.899
725.949; -112.628; -566.056; -519.900
726.213; -132.325; -732.056; -811.900
726.477;  303.178;-1020.055; -933.900
726.740;  301.282; -274.055; -104.901
727.004;  736.185; -384.055; -510.901
727.268; 6081.188; -442.055; -400.901
727.531; 1598.391; -961.055; -775.902
727.795;  -49.506; -713.054; -673.902
728.059;  -93.403; -552.054; -557.903
728.322; -101.400; -841.054; -669.903
728.586;   97.603; -692.054; -701.903
728.849; -144.694; -695.053; -756.904
729.112; -187.091; -812.053; -912.904
729.376; -233.188; -959.053; -905.904
729.639;  -99.084; -536.053; -536.905
729.903; -199.281; -733.053; -699.905
730.166;  -51.278; -437.052; -399.906
730.429;    3.925; -317.052; -468.906
730.693;  -94.072; -355.052; -894.906
730.956;  506.831;  810.948;  651.093
731.219; 1231.634; -310.052; -103.907
731.482;  241.837;-1003.051; -894.907
731.745;  127.440; -794.051; -935.908
732.009;   94.743;  -30.051;   50.092
732.272; -180.654; -904.051; -771.909
732.535;  -16.850; -300.051; -310.909
732.798; -259.847;-1083.050;-1166.909
733.061; -114.944; -430.050; -456.910
733.324;   99.359;   31.950; -180.910
733.587;  155.562;  290.950;  365.090
733.850;  -51.735; -973.049;-1050.911
734.113;  121.468;   33.951;   32.089
734.376;   33.371; -328.049; -447.912
734.639;  476.574; 1188.951; 1011.088
734.901;  199.777; -180.049; -402.912
735.164;  989.880; -883.048; -837.913
735.427; 2200.283; -166.048; -355.913
735.690;  261.087; -205.048; -234.913
735.952;  -44.010; -923.048; -925.914
736.215;  -52.507;-1113.048;-1009.914
736.478;  106.096; -771.047; -774.915
736.740;  443.599;   33.953;  129.085
737.003; 1458.602; -658.047; -672.915
737.266; 6975.405;  -94.047;   46.084
737.528;  844.108; -682.047; -660.916
737.791;  617.611; -316.046; -327.916
738.053; 1699.014;  465.954;  649.083
738.316;20781.217; -162.046; -136.917
738.578;12840.721; -770.046; -736.918
738.841;  820.624; -382.046; -446.918
739.103;  399.527; -875.045; -777.918
739.365;  950.530;   79.955;  -69.919
739.628;   59.333; -884.045; -805.919
739.890;  -18.964; -758.045; -710.919
740.152;  -54.261; -692.044; -754.920
740.414;   47.842; -408.044; -359.920
740.677;  -33.955; -785.044; -634.921
740.939;  -26.752; -587.044; -487.921
741.201;  517.851; -432.044; -572.921
741.463;   71.455; -689.043; -745.922
741.725;   81.858;  -21.043; -199.922
741.987;  162.961;  220.957;  116.078
742.249;   42.964; -751.043; -859.923
742.511;  363.167; -703.043; -794.923
742.773;   63.870; -546.042; -546.924
743.035;  291.673;  796.958;  533.076
743.297;   -8.324; -963.042;-1013.924
743.559; 1358.379; -278.042; -262.925
743.821;  120.382; -735.042; -744.925
744.083;   88.285;  -44.041; -149.925
744.345; -108.511; -869.041; -892.926
744.607;  126.392;   75.959;  122.074
744.868;  -39.305; -490.041; -554.927
745.130; -194.202; -994.041;-1008.927
745.392;  148.301;   -1.040;  -44.927
745.653;   33.504; -411.040; -378.928
745.915;  363.007;  896.960;  631.072
746.177;  152.910;   35.960;  -43.928
746.438;   65.213; -428.040; -543.929
746.700;  -43.484; -947.039; -988.929
746.961;   59.819; -659.039; -740.930
747.223;  294.822; -190.039;  -74.930
747.484;  220.026; -391.039; -471.930
747.746;  315.729;  -23.038; -106.931
748.007;  238.332; -647.038; -689.931
748.269;  569.135; -468.038; -440.931
748.530;  842.738; -852.038; -638.932
748.791;  481.941; -354.038; -420.932
749.053;  879.144;  286.963;  163.067
749.314;  881.347; -236.037; -169.933
749.575;  965.550; -945.037; -905.933
749.836; 1623.653; -217.037;   86.066
750.098; 5320.156;  -60.037;  -21.934
750.359;63178.260;  414.964;  555.066
750.620;15013.663; -121.036; -220.935
750.881; 1895.566; -585.036; -513.935
751.142; 2636.969; -950.036; -938.936
751.403;31327.872; -789.036; -705.936
751.664;12104.475;-1034.035; -999.936
751.925;  946.078; -175.035; -262.937
752.186;  591.981; -298.035; -278.937
752.447;  312.784; -590.035; -445.937
752.708;  162.587; -532.035; -648.938
752.969;   43.890; -566.034; -576.938
753.230;   22.394; -777.034; -672.939
753.491;   27.597; -650.034; -631.939
753.751;  210.200;  109.966;   19.061
754.012;  254.603;  258.967;  181.060
754.273;  189.906; -174.033;  -71.940
754.534;   47.509; -487.033; -580.940
754.794; -146.888; -926.033; -911.941
755.055;  389.115; 1051.967;  881.059
755.316;  -34.282; -700.032; -566.942
755.576;    4.421; -606.032; -576.942
755.837;  -38.676; -527.032; -695.942
756.097;  -27.173; -530.032; -564.943
756.358;  -76.469; -725.032; -770.943
756.618;  -74.066; -705.031; -641.943
756.879;   56.237; -254.031; -349.944
757.139; -213.660;-1098.031;-1116.944
757.400;  -42.157; -538.031; -553.945
757.660;   29.846; -365.031; -401.945
757.920;   54.049; -266.030; -228.945
758.181;   -0.148; -468.030; -351.946
758.441; -137.145; -870.030; -809.946
758.701;  -40.942; -308.030; -215.946
758.961;   46.361; -220.030; -278.947
759.222;  -79.435; -574.029; -502.947
759.482; -107.732; -683.029; -723.948
759.742; -104.629; -706.029; -547.948
760.002;   55.474;  -83.029; -143.948
760.262;  124.877;   50.972;  182.051
760.522;    0.480; -498.028; -574.949
760.782;  -67.417; -738.028; -612.949
761.042;  -16.614; -618.028; -573.950
761.302;  169.089;   55.972;  -18.950
761.562;  186.392; -164.027; -154.951
761.822;  211.495; -710.027; -551.951
762.082;  -19.501;-1104.027;-1093.951
762.342;  202.802; -328.027; -403.952
762.601;  186.005; -567.027; -506.952
762.861;  731.008; -281.026; -207.952
763.121;  888.311; -406.026; -411.953
763.381;15000.014; -499.026; -485.953
763.640;13955.917; -139.026; -307.954
763.900;  742.020; -242.026; -203.954
764.160;  201.623; -458.025; -491.954
764.419;   19.226; -726.025; -782.955
764.679;  -77.271; -795.025; -726.955
764.939;   20.532; -124.025; -210.955
765.198;  -94.764; -608.025; -563.956
765.458; -108.961; -710.024; -612.956
765.717; -143.058; -454.024; -590.957
765.976;  -79.355; -428.024; -411.957
766.236; -105.652; -475.024; -610.957
766.495;  106.751;  260.977;   73.042
766.755; -151.846;-1090.023; -987.958
767.014;    3.657; -594.023; -665.958
767.273;  -61.140; -373.023; -397.959
767.533;  -45.837; -228.023; -307.959
767.792;   28.666; -151.022; -188.960
768.051;  -56.730; -228.022; -276.960
768.310; -113.627; -546.022; -650.960
768.569;   43.376; -161.022;    4.039
768.828;   -2.421; -285.022; -363.961
769.088; -191.518;-1050.021; -942.961
769.347; -110.215; -755.021; -599.962
769.606; -163.012; -876.021; -857.962
769.865; -188.509;-1016.021;-1033.963
770.124;    8.594; -411.021; -336.963
770.383;  -24.003; -778.020; -910.963
770.641;   39.000; -398.020; -400.964
770.900;  -98.296; -953.020; -846.964
771.159;  -67.393; -851.020; -951.964
771.418;    5.510; -917.020; -779.965
771.677;  305.713; -224.019; -293.965
771.936;  315.016; -794.019; -865.966
772.194; 4996.119; -465.019; -437.966
772.453;19396.822; -213.019; -391.966
772.712; 1415.225;  416.982;  329.033
772.970;  293.628;   32.982;   63.033
773.229;  204.531;  -22.018;  102.033
773.488; -135.666; -814.018; -770.968
773.746;  175.937;  296.982;  335.032
774.005;   73.141;  190.983;  -22.969
774.263;   78.444;  243.983;  177.031
774.522; -107.153; -422.017; -548.969
774.780; -128.750; -484.017; -417.970
775.039; -119.647; -551.017; -531.970
775.297;  -14.444; -135.016; -351.970
775.555; -132.041; -489.016; -612.971
775.814; -209.438; -618.016; -570.971
776.072; -157.835; -749.016; -740.971
776.330; -123.532; -630.016; -520.972
776.589; -196.929; -703.015; -721.972
776.847; -194.425; -645.015; -624.973
777.105; -293.522;-1016.015;-1032.973
777.363;  -91.219; -459.015; -454.973
777.621; -211.016; -660.015; -717.974
777.879;    1.187;  -42.014;   32.026
778.138; -154.710; -554.014; -717.974
778.396; -146.207; -585.014; -526.975
778.654; -293.504;-1015.014; -970.975
778.912;  -91.301; -269.014; -371.976
779.170; -198.898; -880.013; -803.976
779.427; -250.495; -922.013; -897.976
779.685; -197.991; -880.013; -832.977
779.943; -140.288; -654.013; -593.977
780.201; -256.885; -964.012; -883.978
780.459; -201.682; -651.012; -610.978
780.717; -135.879; -440.012; -390.978
780.974; -148.676; -449.012; -490.979
781.232;  -90.673; -358.012; -338.979
781.490; -107.370; -551.011; -472.979
781.747; -107.767; -555.011; -476.980
782.005;   73.736;  462.989;  254.020
782.263; -296.061; -542.011;-1004.981
782.520; -127.358; -326.011; -501.981
782.778; -269.354;-1013.010;-1051.981
783.035; -305.051; -962.010; -938.982
783.293;  -65.148; -248.010; -206.982
783.550;  -41.245; -134.010; -198.982
783.808; -194.242; -764.010; -776.983
784.065; -275.339; -745.009; -874.983
784.322;  -31.036;   25.991;  -86.984
784.580; -217.533; -915.009; -771.984
784.837; -139.830; -392.009; -466.984
785.094; -205.527; -783.009; -762.985
785.352;  -94.624; -304.008; -404.985
785.609; -174.120; -934.008; -839.985
785.866;  -97.117; -345.008; -401.986
786.123; -121.814; -639.008; -583.986
786.380; -130.911; -665.008; -604.987
786.637;  -51.708; -225.007; -380.987
786.895;  -46.905; -456.007; -543.987
787.152;  -39.002; -135.007; -267.988
787.409;  -36.599; -123.007; -225.988
787.666;  -82.096; -299.006; -378.988
787.923; -167.993; -616.006; -695.989
788.179; -136.490; -551.006; -584.989
788.436; -152.986; -585.006; -585.990
788.693;  -22.283;  -92.006;  -87.990
788.950;  385.320; -125.005; -112.990
789.207;  401.623; -381.005; -372.991
789.464;  -36.674; -161.005; -301.991
789.720;   62.929;  150.995;  110.009
789.977; -300.468;-1003.005; -671.992
790.234;    6.235;   44.996;  -66.992
790.490; -254.562; -884.004;-1031.993
790.747;   19.641;  -85.004;   22.007
791.004;    8.444; -426.004; -348.993
791.260; -108.353; -430.004; -560.994
791.517; -154.249; -843.003; -788.994
791.773;  -88.646; -379.003; -342.994
792.030; -178.843; -596.003; -660.995
792.286; -153.440; -686.003; -636.995
792.543;   48.463;  -74.002; -159.995
792.799;  -81.134; -584.002; -382.996
793.055; -257.531;-1179.002;-1210.996
793.312; -136.028; -827.002; -816.997
793.568;  -55.625; -746.002; -599.997
793.824;   40.678; -226.001; -284.997
794.081;  108.681; -447.001; -508.998
794.337;  163.885; -664.001; -561.998
794.593; 3059.588; -319.001; -271.999
794.849;11763.991; -746.001; -772.999
795.105;  616.794; -270.000; -261.999
795.361;   80.397; -490.000; -457.000
795.617; -100.900; -875.000; -945.000
795.873;  -31.900; -360.000; -407.000
796.129;  -14.700; -368.000; -306.000
796.385;   41.900; -124.000; -156.000
796.641;  200.800;  412.000;  550.000
796.897;  -99.400; -666.000; -635.000
797.153;  244.100;  453.000;  357.000
797.409; -140.300; -785.000; -868.000
797.665;  -87.900; -625.000; -732.000
797.921; -114.200; -775.000; -762.000
798.176;  -68.900; -744.000; -747.000
798.432;  -66.300; -824.000; -596.000
798.688;  -92.300;-1174.000;-1078.000
798.943;  189.900; -165.000; -147.000
799.199;   24.700;-1005.000; -959.000
799.455;  502.600;  369.000;  316.000
799.710;  267.500; -813.000; -380.000
799.966;  573.900; -162.000; -160.000
800.221;  955.900; -638.000; -721.000
800.477;21078.300; -743.000; -710.000
800.732;15111.500; -773.000; -800.000
800.988; 1243.000;  205.000;  -19.000
801.243; 4184.500; -454.000; -344.000
801.498;14009.100; -814.000; -739.000
801.754;  873.900; -289.000; -163.000
802.009;  216.600; -257.000; -335.000
802.264;  -77.700; -967.000;-1033.000
802.520;  118.300;  222.000;   -3.000
802.775;  -19.000; -524.000; -359.000
803.030;  175.900;  395.000;  356.000
803.285; -156.700; -840.000; -903.000
803.540;  -91.300; -686.000; -699.000
803.795;  -26.800; -648.000; -583.000
804.051;  -11.600; -279.000; -346.000
804.306;  112.300;  168.000;  128.000
804.561;  324.600;  451.000;  362.000
804.816;  345.600;  714.000;  861.000
805.071;   80.100; -185.000; -280.000
805.325;  401.000; -257.000; -427.000
805.580; -159.400; -841.000; -877.000
805.835;   38.500; -204.000; -297.000
806.090; -131.200; -760.000; -676.000
806.345;   20.800; -344.000; -264.000
806.600;  -26.100; -549.000; -632.000
806.854;  -15.800; -408.000; -538.000
807.109;   18.200; -493.000; -577.000
807.364;   87.100; -407.000; -328.000
807.618;   72.500; -415.000; -381.000
807.873;  181.000; -470.000; -494.000
808.128;  216.200; -257.000; -518.000
808.382;  269.600; -224.000; -332.000
808.637;  194.200; -440.000; -511.000
808.891;  409.800; -257.000; -180.000
809.146;  189.700; -902.000; -794.000
809.400;  525.900; -848.000; -923.000
809.654;  646.500; -779.000; -551.000
809.909;  945.200; -841.000; -927.000
810.163;14210.800; -813.000; -651.000
810.418;28979.400; -940.000; -861.000
810.672; 1827.800; -685.000; -690.000
810.926; 1409.000; -993.000; -973.000
811.180; 2845.000; -439.000; -372.000
811.434;61017.000;  240.000;  135.000
811.689;19779.400; -231.000; -365.000
811.943; 1170.600; -936.000; -953.000
812.197;  672.000; -893.000; -671.000
812.451;  300.800; -379.000; -514.000
812.705;  -29.600; -809.000; -619.000
812.959;   -9.600; -263.000; -388.000
813.213;   24.100; -283.000; -209.000
813.467;  195.400;  470.000;  253.000
813.721; -136.900; -764.000; -792.000
813.975; -156.100; -826.000; -877.000
814.229;  159.800;  430.000;  353.000
814.482;  -90.400; -517.000; -566.000
814.736; -176.300; -766.000; -744.000
814.990; -186.900; -779.000; -872.000
815.244;  -34.700; -228.000; -285.000
815.497; -110.100; -636.000; -601.000
815.751;   30.100; -141.000;   82.000
816.005; -105.100; -470.000; -586.000
816.258;  -55.200; -510.000; -363.000
816.512; -147.400; -693.000; -610.000
816.766;   71.200;  121.000;  157.000
817.019;  128.400;  148.000;  149.000
817.273; -191.000;-1000.000; -802.000
817.526;  -22.000; -206.000; -173.000
817.779;  -36.600;-1049.000; -960.000
818.033; -112.800; -693.000; -807.000
818.286; -201.000; -725.000; -792.000
818.540; -116.000; -403.000; -403.000
818.793; -100.500; -402.000; -489.000
819.046; -151.600; -582.000; -520.000
819.299;  -27.700; -157.000; -166.000
819.553; -146.200; -552.000; -592.000
819.806; -289.000;-1016.000; -838.000
820.059;  -68.100; -334.000; -354.000
820.312;   66.400;  152.000;  185.000
820.565;   38.100;  110.000;  -27.000
820.818;  -47.700;  -59.000; -173.000
821.071; -279.600;-1041.000; -957.000
821.324; -171.400; -536.000; -540.000
821.577; -138.400; -457.000; -483.000
821.830;  -70.300; -270.000; -172.000
822.083; -212.900; -733.000; -288.000
822.336;  -43.500; -261.000; -167.000
822.589; -198.800; -805.000; -688.000
822.842; -227.800; -875.000; -770.000
823.094; -278.400;-1076.000;-1114.000
823.347; -215.000; -925.000; -729.000
823.600;  138.000;  402.000;  187.000
823.853;  -44.200; -311.000; -267.000
824.105; -103.800; -331.000; -575.000
824.358; -170.700; -617.000; -716.000
824.611;  144.200;  234.000;   40.000
824.863;  -52.300; -612.000; -591.000
825.116;  149.300;  -33.000;   27.000
825.368;  162.000; -366.000; -372.000
825.621;  341.600; -186.000; -240.000
825.873;  160.200; -704.000; -737.000
826.126; 1333.500; -669.000; -641.000
826.378;22376.400; -389.000; -505.000
826.630; 4101.000; -890.000; -898.000
826.883;  127.700; -754.000; -693.000
827.135;  143.300; -279.000; -270.000
827.387; -190.700; -893.000; -839.000
827.639;    8.100;  -86.000;   32.000
827.892; -196.500; -742.000; -582.000
828.144; -240.500; -848.000; -804.000
828.396;  -55.900;  104.000;  -80.000
828.648; -120.700; -440.000; -333.000
828.900; -249.200; -702.000; -795.000
829.152; -171.600; -684.000; -683.000
829.404;  -90.400; -215.000; -267.000
829.656;  103.600;  321.000;  214.000
829.908;   41.700;  393.000;  229.000
830.160; -273.800;-1064.000;-1047.000
830.412; -150.300; -481.000; -430.000
830.664; -159.000; -557.000; -665.000
830.916;  -92.400; -268.000; -206.000
831.167; -317.300;-1073.000; -951.000
831.419; -168.500; -623.000; -566.000
831.671; -240.300; -764.000; -809.000
831.923; -160.000; -311.000; -447.000
832.174;  -67.200; -273.000; -331.000
832.426; -174.200; -493.000; -582.000
832.678; -319.700;-1043.000;-1091.000
832.929; -270.700; -947.000; -935.000
833.181;  -63.800; -575.000; -677.000
833.432;  -25.000;  -59.000; -186.000
833.684;   47.600;  112.000;  -27.000
833.935; -167.800; -610.000; -566.000
834.187; -202.400; -829.000; -823.000
834.438;    3.100;  -58.000;  -25.000
834.689;  -48.900; -255.000; -123.000
834.941;  -43.500; -343.000; -244.000
835.192; -119.800; -590.000; -533.000
835.443; -107.900; -419.000; -506.000
835.695;   36.400;  138.000;  -16.000
835.946; -108.700; -608.000; -378.000
836.197; -153.300; -599.000; -622.000
836.448;  -91.200; -528.000; -395.000
836.699;  -51.200; -253.000; -341.000
836.950;   57.500;   72.000;    7.000
837.201; -250.500;-1003.000; -987.000
837.452;  -35.300; -356.000; -170.000
837.703; -166.300; -791.000; -737.000
837.954;  -41.700; -205.000; -365.000
838.205;  -53.300;-1029.000;-1008.000
838.456;  347.100; -196.000; -282.000
838.707;   66.600; -423.000; -519.000
838.958;  101.300; -634.000; -647.000
839.209;  617.100;   18.000;   40.000
839.460;  230.600; -439.000; -201.000
839.710;  357.200; -135.000; -297.000
839.961;  842.300;  730.000;  612.000
840.212;  674.900; -382.000; -497.000
840.462; 2319.100; -328.000; -277.000
840.713;34839.700; -571.000; -536.000
840.964;10968.600;  -62.000; -143.000
841.214;  933.900; -384.000; -624.000
841.465; 1071.700; -214.000; -141.000
841.715;  994.200; -417.000; -380.000
841.966; 1269.000; -746.000; -685.000
842.216;19750.300; -330.000; -431.000
842.466;57902.400; -169.000; -313.000
842.717; 2337.900; -964.000; -952.000
842.967;  654.100; -635.000; -641.000
843.217;  583.800;   20.000;   28.000
843.468;  189.800; -104.000; -132.000
843.718;  -24.600; -718.000; -726.000
843.968; -141.200; -837.000; -765.000
844.218;   86.700; -315.000; -262.000
844.469;  -68.800; -577.000; -561.000
844.719; -171.800; -537.000; -682.000
844.969; -144.200; -550.000; -580.000
845.219; -223.300; -814.000; -862.000
845.469;  -67.200; -392.000; -342.000
845.719; -203.500; -792.000; -884.000
845.969;   51.300;  119.000;  174.000
846.219; -152.400; -738.000; -720.000
846.469;  109.700;  464.000;  432.000
846.718;  -38.400; -115.000;   31.000
846.968; -212.200; -827.000; -827.000
847.218;  -41.000; -224.000; -371.000
847.468; -160.500; -586.000; -555.000
847.718; -225.400; -827.000; -798.000
847.967; -239.200; -826.000; -915.000
848.217;  -95.700; -449.000; -569.000
848.467;  -70.400; -405.000; -376.000
848.716; -163.000; -708.000; -725.000
848.966;   56.700; -372.000; -358.000
849.215;  -78.500; -428.000; -419.000
849.465; -152.200; -785.000; -615.000
849.714; -227.500;-1132.000;-1150.000
849.964;  -83.800; -551.000; -613.000
850.213;   10.600; -393.000; -355.000
850.463;  206.100;  137.000;  340.000
850.712;   33.500; -542.000; -567.000
850.961;   56.600; -739.000; -678.000
851.211;  204.300; -513.000; -504.000
851.460;  301.200; -635.000; -650.000
851.709; 1139.600;  -25.000;   18.000
851.958;21646.000; -912.000; -750.000
852.208;20801.900; -859.000; -879.000
852.457;  807.200; -181.000;  -13.000
852.706;  200.300; -791.000; -823.000
852.955;   57.700; -507.000; -528.000
853.204;  -84.000; -521.000; -461.000
853.453; -117.000; -418.000; -458.000
853.702; -179.800; -660.000; -750.000
853.951; -176.000; -532.000; -520.000
854.200; -163.400; -613.000; -562.000
854.449; -242.400; -695.000; -661.000
854.698; -131.700; -340.000; -279.000
854.946;  -57.800; -181.000; -284.000
855.195; -224.600; -843.000; -868.000
855.444; -142.100; -395.000; -420.000
855.693; -144.200; -345.000; -432.000
855.941; -180.000; -387.000; -516.000
856.190;  -46.500; -256.000; -382.000
856.439; -172.600; -652.000; -703.000
856.687;  -39.400;  -99.000;  -72.000
856.936; -188.100; -621.000; -323.000
857.184; -308.600;-1067.000;-1020.000
857.433; -136.100; -423.000; -512.000
857.681; -269.300; -989.000; -953.000
857.930;  -96.000; -282.000; -433.000
858.178; -265.700; -856.000; -929.000
858.427; -268.200; -802.000; -781.000
858.675; -167.800; -377.000; -544.000
858.923; -169.100; -527.000; -819.000
859.172; -315.300;-1094.000;-1070.000
859.420; -127.600; -339.000; -239.000
859.668; -179.400; -624.000; -628.000
859.916;   -0.200;  109.000;  115.000
860.164; -153.900; -699.000; -603.000
860.413;  612.600; -878.000; -696.000
860.661;  322.400; -709.000; -577.000
860.909;  -96.400; -339.000; -325.000
861.157; -115.000; -277.000; -444.000
861.405; -218.800; -534.000; -670.000
861.653;  121.200;  310.000;  310.000
861.901;  396.000; -543.000; -613.000
862.149;  -47.800; -801.000; -824.000
862.396;  -84.800; -297.000; -187.000
862.644;  -96.800; -368.000; -347.000
862.892;   20.700;   98.000;  138.000
863.140; -134.600; -549.000; -530.000
863.388; -282.600; -815.000; -759.000
863.635; -163.400; -642.000; -601.000
863.883;   40.300;  231.000;  190.000
864.131;  -92.800; -288.000; -357.000
864.378; -188.200; -675.000; -540.000
864.626; -152.900; -347.000; -415.000
864.873; -204.200; -556.000; -505.000
865.121; -187.500; -714.000; -799.000
865.368;  -21.500; -173.000;   75.000
865.616;    1.900;  -33.000;  -40.000
865.863;  -70.400; -462.000; -506.000
866.111; -162.800; -795.000; -824.000
866.358;  131.900; -426.000; -420.000
866.605; 5023.800;  -64.000; -804.000
866.853; 3895.000; -621.000; -537.000
867.100;  -23.400; -728.000; -775.000
867.347; -144.000; -672.000; -611.000
867.594; -110.200; -740.000; -714.000
867.841;  203.600;   97.000;   17.000
868.089; -243.200; -746.000; -698.000
868.336; -147.100; -477.000; -420.000
868.583; -206.000; -637.000; -741.000
868.830;  -30.200; -131.000; -170.000
869.077; -246.700; -859.000; -787.000
869.324; -195.100; -502.000; -458.000
869.571; -205.000; -398.000; -430.000
869.818; -162.600; -485.000; -439.000
870.065; -139.000; -439.000; -513.000
870.311; -175.800; -456.000; -542.000
870.558; -113.300; -332.000; -311.000
870.805; -133.400; -320.000; -384.000
871.052; -118.100; -494.000; -369.000
871.298;  -35.900; -204.000; -131.000
871.545;  -49.900; -151.000; -185.000
871.792; -102.600; -173.000; -222.000
872.038;  -60.400;   43.000; -126.000
872.285; -179.600; -496.000; -387.000
872.532; -118.700; -357.000; -387.000
872.778;  108.400;  556.000;  403.000
873.025; -126.800; -384.000; -359.000
873.271;  124.200;  501.000;  578.000
873.517;   -1.000; -133.000; -209.000
873.764;  -32.700; -193.000;  -80.000
874.010;  -54.600; -143.000; -230.000
874.257;    5.600;  123.000;   90.000
874.503; -191.800; -579.000; -479.000
874.749;  -95.900;   31.000;  275.000
874.995;  -66.000;  -80.000;  -20.000
875.242; -204.300; -540.000; -478.000
875.488; -155.300; -414.000; -439.000
875.734;  -59.800; -106.000; -234.000
875.980;  456.300; -872.000;-1032.000
876.226;  626.600; -157.000; -255.000
876.472;   68.100;  343.000;  237.000
876.718;   -7.400;  184.000;  158.000
876.964;   -5.900;   56.000;   55.000
877.210; -256.300; -547.000; -677.000
877.456; -203.700; -630.000; -557.000
877.702; -266.300; -821.000; -832.000
877.948; -132.500; -377.000; -497.000
878.193;   80.600;  361.000;  255.000
878.439; -121.200; -487.000; -472.000
878.685; -145.500; -272.000; -343.000
878.931; -190.000; -618.000; -676.000
879.176; -122.500; -201.000; -201.000
879.422; -276.600; -933.000; -820.000
879.668;  180.200;   10.000;   79.000
879.913;  310.700;   53.000;  137.000
880.159;  -81.100; -112.000;  -17.000
880.404;  -17.000; -152.000; -162.000
880.650;  -14.100;   91.000;  141.000
880.895; -247.400; -670.000; -710.000
881.141; -172.800; -454.000; -428.000
881.386; -195.600; -503.000; -658.000
881.631; -164.300; -311.000; -166.000
881.877;    0.700;  112.000;  -13.000
882.122; -194.700; -684.000; -600.000
882.367;  -93.500; -136.000; -186.000
882.612; -111.000;  -80.000; -176.000
882.858; -291.300; -877.000; -823.000
883.103; -124.000; -297.000; -267.000
883.348; -251.200; -759.000; -852.000
883.593; -241.700; -677.000; -602.000
883.838;  -32.100; -311.000;  -24.000
884.083;  104.200;  353.000;  288.000
884.328; -103.800; -564.000; -545.000
884.573;  -54.500; -196.000; -143.000
884.818;  487.300; -694.000; -531.000
885.063;  294.200; -348.000; -315.000
885.308; -135.600; -475.000; -398.000
885.553;   36.100;  245.000;  325.000
885.797; -189.600; -545.000; -615.000
886.042;  -53.000;    8.000;   58.000
886.287; -126.300; -253.000; -211.000
886.532;  -20.200;   26.000;  204.000
886.776; -131.300; -407.000; -525.000
887.021; -214.700; -621.000; -574.000
887.265; -237.500; -685.000; -689.000
887.510; -217.500; -557.000; -496.000
887.755; -127.400; -194.000; -164.000
887.999; -237.900; -552.000; -575.000
888.244;  -42.600;  -58.000;  161.000
888.488;   44.700;  371.000;  393.000
888.732; -192.600; -368.000; -520.000
888.977; -216.600; -622.000; -567.000
889.221; -266.500; -683.000; -659.000
889.465; -193.000; -422.000; -566.000
889.710;  -93.900;  -56.000; -299.000
889.954;   79.200;  579.000;  467.000
890.198; -195.700; -584.000; -707.000
890.442; -247.000; -716.000; -712.000
890.687; -283.300; -800.000; -753.000
890.931;  -87.800; -273.000; -210.000
891.175; -207.600; -502.000; -500.000
891.419;  -92.000; -105.000; -110.000
891.663;  -77.800; -239.000; -112.000
891.907; -271.000; -801.000; -545.000
892.151; -301.100; -920.000; -815.000
892.395; -167.200; -274.000; -387.000
892.638;   28.900;  408.000;  291.000
892.882; -295.800; -780.000; -867.000
893.126;  129.900;  758.000;  558.000
893.370; -130.200; -167.000; -168.000
893.614; -213.300; -714.000; -715.000
893.857; -121.500; -183.000; -197.000
894.101; -179.900; -527.000; -631.000
894.345;  -72.000;  300.000;  150.000
894.588;  135.000;  569.000;  380.000
894.832;  -95.200; -178.000;  -84.000
895.075;  -84.900;   15.000;  -92.000
895.319; -185.100; -552.000; -420.000
895.563; -197.300; -413.000; -353.000
895.806; -225.700; -628.000; -741.000
896.049;  -38.700; -576.000; -368.000
896.293;  249.900;  527.000;  405.000
896.536;  -82.400; -465.000; -468.000
896.779;  -38.300; -149.000;   -1.000
897.023; -195.800; -751.000; -714.000
897.266;   24.600;  325.000;  269.000
897.509; -289.100; -900.000; -901.000
897.752;  -46.800;  149.000;  171.000
897.996; -313.300; -972.000; -864.000
898.239;  -13.900;  168.000;  102.000
898.482; -172.500; -431.000; -453.000
898.725;   -3.900;  101.000;   53.000
898.968; -237.300; -609.000; -744.000
899.211; -150.000; -513.000; -361.000
899.454; -195.300; -633.000; -539.000
899.697;  -80.100;   90.000;  -43.000
899.940; -289.500; -761.000; -757.000
900.182; -134.100; -335.000; -405.000
900.425; -133.300; -150.000; -298.000
900.668;   13.300;  491.000;  350.000
900.911; -121.100; -292.000; -345.000
901.154;  -23.000;  141.000;   -3.000
901.396; -231.600; -407.000; -412.000
901.639; -217.200; -430.000; -496.000
901.882; -292.900; -790.000; -809.000
902.124; -130.000;  -29.000; -143.000
902.367; -150.900; -315.000; -361.000
902.609; -195.600; -476.000; -453.000
902.852; -107.600; -108.000; -260.000
903.094; -171.600; -458.000; -337.000
903.337;    9.500;  -26.000;   53.000
903.579; -156.800; -228.000; -441.000
903.821; -230.100; -597.000; -744.000
904.064;  -34.400;   85.000;  127.000
904.306; -112.000; -126.000; -166.000
904.548; -169.500; -152.000; -366.000
904.790; -122.000; -195.000; -340.000
905.033; -194.000; -625.000; -577.000
905.275; -194.100; -513.000; -524.000
905.517;  141.600;  468.000;  256.000
905.759;  -95.400; -667.000; -761.000
906.001; -135.600; -322.000; -369.000
906.243;  -54.800; -162.000; -224.000
906.485;  303.500; -265.000; -207.000
906.727;  218.100; -499.000; -542.000
906.969;  -24.100;  -30.000; -135.000
907.211;  364.100; -316.000; -382.000
907.453;  595.600; -188.000; -237.000
907.695;   81.500; -158.000; -385.000
907.936;  136.700;  818.000;  706.000
908.178;  -16.000;   92.000; -135.000
908.420;  -72.900; -111.000; -162.000
908.662; -200.900; -633.000; -682.000
908.903;  -98.800; -208.000; -123.000
909.145;  -36.300; -240.000; -305.000
909.386;   92.700;  315.000;  280.000
909.628;  166.200;  363.000;  397.000
909.870;   78.200;   29.000;  264.000
910.111; -122.800; -809.000; -949.000
910.353;  103.600; -123.000; -161.000
910.594;   54.600; -574.000; -606.000
910.835;  212.000; -265.000; -326.000
911.077;  332.600; -503.000; -604.000
911.318;  617.900; -505.000; -471.000
911.559;  944.000; -577.000; -880.000
911.801; 2931.700; -284.000; -280.000
912.042;24827.700;  -50.000; -159.000
912.283;52228.500;  404.000;  371.000
912.524; 6377.200; -396.000; -457.000
912.765; 1002.500; -193.000;   79.000
913.006;  599.200; -307.000; -338.000
913.247;  149.000; -270.000; -290.000
913.488;   75.800;  -43.000;   30.000
913.729; -100.600; -373.000; -373.000
913.970;  -93.400;  -96.000; -292.000
914.211;  -62.200; -160.000; -198.000
914.452;  -60.400; -118.000;  -11.000
914.693;   89.400;  510.000;  592.000
914.934;  100.400;  510.000;  440.000
915.175;  -74.500;   53.000;  -95.000
915.415;  -89.300; -137.000;   27.000
915.656;  -51.400;  -28.000;  192.000
915.897; -133.000; -252.000;  -82.000
916.137;  -81.200;   74.000;   -9.000
916.378; -155.200; -573.000; -517.000
916.619; -117.700; -159.000;  -63.000
916.859;   40.000;  303.000;  330.000
917.100;  371.900; 1655.000; 1070.000
917.340;  179.200;  930.000;  728.000
917.581;  151.700;  965.000;  789.000
917.821;   49.300; -171.000;  143.000
918.061;   81.000; -199.000;  -72.000
918.302;  -44.100; -152.000; -211.000
918.542;   34.600;  -22.000;    3.000
918.782;  156.500;  369.000;  377.000
919.023;  343.000;  360.000;  427.000
919.263; 3027.200; 8131.000;  202.000
919.503; 2115.400; -137.000;  -54.000
919.743; 1273.200;  390.000;  266.000
919.983;  512.200; -134.000;  -26.000
920.223;  177.600;  135.000;   14.000
920.463;  365.300;  631.000;  554.000
920.703;  335.500;   84.000;   39.000
920.943;  351.400; -110.000;   90.000
921.183;  480.700; -414.000; -405.000
921.423; 1075.100;  307.000;  546.000
921.663; 1523.000; -174.000; -257.000
921.903; 3331.300;  237.000;  173.000
922.143;20056.600;  372.000;  389.000
922.383;64325.600;  158.000;  115.000
922.622;18166.100; -120.000;  -15.000
922.862; 2279.100;  796.000;  785.000
923.102;  978.000;  -51.000;   33.000
923.341;  403.800;   59.000;   74.000
923.581;  233.600;  450.000;  360.000
923.821;  132.900;  301.000;  398.000
924.060;  110.700;  351.000;  193.000
924.300;  -23.500;  -16.000; -128.000
924.539;   37.200;  584.000;  473.000
924.779;   86.100;  812.000;  597.000
925.018;  -14.800;  247.000;  353.000
925.257;   47.400;  595.000;  666.000
925.497;  -23.600;  447.000;  412.000
925.736; -127.700;  -35.000;  102.000
925.975;   49.900;  687.000;  669.000
926.214;  109.000;  907.000;  850.000
926.454;  138.600;  706.000;  757.000
926.693;    8.600;  419.000;  543.000
926.932;  169.000; 1021.000;  825.000
927.171;  229.000; 1107.000; 1044.000
927.410;  177.700; 1144.000;  967.000
927.649;  116.900;  924.000;  742.000
927.888;   88.800;  590.000;  564.000
928.127;   49.700;  680.000;  678.000
928.366;  143.900;  842.000;  826.000
928.605;  177.700;  831.000;  737.000
928.844;  627.500; 1451.000; 1393.000
929.083; 1300.700;  770.000;  613.000
929.321;  656.300; 1335.000; 1359.000
929.560;  234.700; 1158.000; 1122.000
929.799;   12.500;  574.000;  475.000
930.038;  185.000; 1025.000; 1394.000
930.276;  -21.700;  334.000;  397.000
930.515;   26.000;  827.000;  681.000
930.753;   47.700;  614.000;  589.000
930.992;   45.900;  664.000;  717.000
931.230;   83.100;  847.000;  847.000
931.469;  460.200; 2162.000;  892.000
931.707;  183.900;  840.000;  751.000
931.946;  221.300; 1278.000; 1344.000
932.184;  185.800; 1437.000; 1175.000
932.423;  142.400; 1265.000;  963.000
932.661;  281.500; 1296.000; 1428.000
932.899;  153.100;  987.000;  821.000
933.137;   82.600;  754.000;  564.000
933.376;  399.000; 1664.000; 1335.000
933.614;  401.000; 1759.000; 1196.000
933.852;  177.900; 1357.000; 1171.000
934.090;  354.800; 1722.000; 1747.000
934.328;  294.600; 1252.000; 1457.000
934.566;  293.000; 1431.000; 1110.000
934.804;  364.400; 1263.000; 1309.000
935.042; 1048.000; 1861.000; 1850.000
935.280; 4252.300; 2088.000; 2063.000
935.518; 3269.200; 2113.000; 2007.000
935.756;  743.900; 2481.000; 2316.000
935.994;  379.700; 1808.000; 1751.000
936.231;  775.000; 2890.000; 2950.000
936.469;  439.100; 2367.000; 2378.000
936.707;  404.900; 2220.000; 2167.000
936.945;  607.400; 2825.000; 2882.000
937.182;  499.200; 2679.000; 2741.000
937.420;  715.600; 3602.000; 3031.000
937.657;  984.500; 3365.000; 3478.000
937.895;  752.800; 3331.000; 3488.000
938.133;  697.500; 3540.000; 3528.000
938.370;  782.000; 3896.000; 4191.000
938.607;  862.300; 4488.000; 4205.000
938.845; 1213.300; 5587.000; 5549.000
939.082; 1100.100; 5387.000; 5177.000
939.320; 1225.800; 5799.000; 5728.000
939.557; 1363.000; 6549.000; 6491.000
939.794; 1548.700; 7285.000; 7097.000
940.031; 1965.600; 8421.000; 8368.000
940.269; 2349.400; 9552.000; 9107.000
940.506; 2343.500;10901.000;10507.000

