
Integration time [ms]: 100.000
Averaging Nr. [scans]: 40
Smoothing Nr. [pixels]: 0
Data measured with spectrometer [name]: 2101013U2
Wave   ;Sample   ;Dark     ;Reference
[nm]   ;[counts] ;[counts] ;[counts] 

394.013;   60.860; -450.257; -315.536
394.305;  248.183; -461.258; -419.536
394.596; 1078.631; -676.269; -527.514
394.887; 2531.198; -796.268; -654.518
395.178;  970.603;  145.736;   11.476
395.470;   88.689; -210.263; -356.526
395.761;  248.437;  305.734;  394.479
396.052;  404.933; -545.284; -306.489
396.343;  395.827; -557.276; -454.503
396.634;  152.396; -200.279; -290.497
396.926;  171.595; -618.268; -565.517
397.217;  144.331;   11.725;  -17.504
397.508;   57.797; -366.273; -154.507
397.799;   70.521; -555.279; -571.497
398.090;    8.491; -973.280; -902.495
398.381;  132.610;   11.708;  -11.473
398.672;   15.611; -585.292; -742.473
398.963;   65.677; -348.279; -373.498
399.254;  138.070;   54.709; -209.475
399.545;  -12.766;-1017.266; -883.520
399.836;   84.916; -407.277; -343.501
400.127;   58.861; -205.295; -209.468
400.418;   82.917; -423.274; -392.506
400.709;   86.803; -359.281; -333.493
401.000;   73.049; -268.291; -309.476
401.290;  108.874;  225.698;  115.545
401.581;  101.091; -166.286; -228.485
401.872;   44.434; -542.298; -486.462
402.163;   60.454; -313.296; -252.467
402.454;  116.645; -123.291; -163.475
402.744;  101.170; -844.297; -813.465
403.035;  555.651; -226.293;  -86.471
403.326;  720.289; -366.292; -384.474
403.617;  465.728;  204.701;  165.539
403.907;  261.339; -593.283; -679.490
404.198; 2267.679; -545.307; -599.446
404.489; 5983.794; -618.283; -588.491
404.779; 2117.177; -618.302; -660.456
405.070;  238.256;  -67.304; -174.451
405.360;  329.153; -259.293; -238.472
405.651;  353.639;  125.699;   98.542
405.942;  217.487;  209.714;  127.516
406.232;  346.151; -432.285; -413.487
406.523;  578.496;  641.706;  758.530
406.813;  123.264; -579.286; -644.484
407.104;  414.709;  261.708;  144.527
407.394;  245.705; -604.299; -591.462
407.685;  177.600;  336.715;  222.513
407.975;   77.267; -400.283; -382.490
408.265;  137.960; -134.289; -190.478
408.556;   80.042; -472.291; -459.475
408.846;  174.372;  474.706;  429.530
409.137;   96.318;   -1.288; -216.480
409.427;   61.676; -193.285; -271.487
409.717;   45.675; -776.273; -692.508
410.007;  150.470;    4.715; -170.486
410.298;  103.289; -360.295; -342.469
410.588;   80.923; -495.285; -510.486
410.878;   46.829; -792.287; -873.482
411.168;  124.486; -481.298; -478.463
411.459;  129.337; -295.283; -242.489
411.749;   73.991; -609.292; -507.474
412.039;   70.641; -755.289; -386.480
412.329;  221.184;   40.722;  132.501
412.619;  225.139;  -62.286; -148.485
412.909;  403.512;  639.711;  594.521
413.199;  381.391; -130.280; -251.495
413.490;  438.328;  521.710;  352.523
413.780;  158.670;-1013.279; -913.496
414.070;  338.803;  -46.276;  235.497
414.360;  407.006; -729.278; -666.498
414.650;  430.700; -726.288; -688.482
414.940;  517.769; -538.280; -441.496
415.230;  933.172;   50.712;   74.519
415.520; 5808.356;  155.730;   66.486
415.809;22881.503; -305.281; -125.493
416.099;17553.019; -388.277; -229.501
416.389; 4844.914;  435.726;  236.494
416.679; 2815.967;   91.738;   85.473
416.969;  517.283; -527.287; -503.483
417.259;  471.097;  341.721;  171.503
417.549;  682.102;  522.718;  318.508
417.838; 1567.222; -205.268; -147.518
418.128; 5081.908;  650.710;  492.522
418.418; 4238.056; -491.272; -579.509
418.708; 2924.240;    9.726;  -48.506
418.997;10705.011; -474.275; -480.505
419.287;11152.921; -733.273; -790.507
419.577;10359.311; -160.283; -123.489
419.866;34789.542; -588.277; -498.501
420.156;35902.877; -242.270;  -55.513
420.446; 6629.260; -112.263;  -26.526
420.735;  962.871; -376.271; -446.512
421.025;  858.305; 1830.722;  315.502
421.314;  808.294; -203.271; -226.512
421.604; 1849.190;   89.732;  233.484
421.893; 1065.590; -705.271; -602.511
422.183;  242.735; -487.263; -461.526
422.472;  397.592;  -36.271; -107.511
422.762;  481.665; -416.266; -379.521
423.051;  288.204; -916.276; -916.503
423.341;  342.248; -491.273; -439.507
423.630;  453.871; -121.265;   15.477
423.919;  398.535;   58.725;   49.495
424.209;  393.941;  -31.263;   56.473
424.498;  507.795;   68.732;  161.483
424.787; 1058.551; -535.267; -601.518
425.077; 3303.794;   34.735;   29.478
425.366; 5017.196; -734.262; -744.528
425.655; 9410.924;  639.727;  259.493
425.945;19073.348; -313.247; -268.554
426.234;10596.868;  117.741;  300.467
426.523; 4860.223;  -86.259; -350.534
426.812; 6606.986;  107.734;  159.480
427.101; 9639.237; -127.269; -323.515
427.390;12417.031;  -55.270;  -86.514
427.680; 3204.518; -624.257; -411.538
427.969;  540.553; -330.255; -301.540
428.258;  350.885; -385.257; -477.536
428.547;  585.736;  449.728;  397.490
428.836; 1506.019; -421.253; -398.543
429.125; 2197.150; -199.259;  -72.534
429.414;  903.542; -330.251; -294.548
429.703; 3006.267; -231.251; -213.548
429.992; 8788.620; -938.250; -828.549
430.281; 5729.053; -397.264; -331.524
430.570;  603.107;  -21.252;   32.454
430.859;  652.223;  279.741;  352.466
431.148;  481.444;  636.752;  631.446
431.437;  309.007;  391.748;  367.454
431.725;  171.511; -544.257; -481.536
432.014;  136.651; -845.253; -756.545
432.303;  394.518; -149.239; -105.569
432.592;  703.135; -460.263; -178.525
432.881; 1039.920; -601.248; -437.554
433.169; 5719.054; -343.255;  -61.540
433.458;11656.401;  445.765;  540.424
433.747; 4987.952; -397.261; -289.529
434.036; 1009.444; -275.242; -280.564
434.324; 2048.807; -395.249; -379.551
434.613; 3476.588;   40.757;  159.437
434.902; 1251.383;  333.760;  439.433
435.190;  752.317;   75.761;  295.431
435.479;  436.820;  -52.245;   83.441
435.767;  129.153; -411.244; -427.561
436.056;  268.590; -340.242; -294.563
436.345;  378.911; -372.240; -223.568
436.633;  382.728;   60.750;  383.450
436.922;  327.413;  208.760;  414.432
437.210;  815.941; -194.236;    1.426
437.499; 2718.599; -583.235; -432.576
437.787; 2968.866; -339.236;  -10.574
438.075;  702.197;   56.761;  162.430
438.364;  937.000;  -44.238;  250.429
438.652;  603.878; -286.226; -138.592
438.941;  152.442;    3.770;  269.415
439.229;   40.529; -665.252; -466.545
439.517;   42.307; -160.234;  -85.577
439.806;   -5.732; -501.225; -290.595
440.094;  203.390;  377.766;  650.421
440.382;  249.844; -653.233; -302.580
440.670;  272.149; -361.235; -285.576
440.959;   48.785; -347.223; -170.599
441.247;  102.553; -151.229; -109.587
441.535;  132.981; -266.235;   31.423
441.823;   67.287; -497.234; -305.578
442.111;  215.408;  173.771;  327.412
442.400;  668.344; -628.245; -335.559
442.688; 1907.365; -111.234; -620.579
442.976; 1422.596; -786.213; -450.617
443.264;  145.450; -324.224; -364.597
443.552;  139.954; -258.226;   51.408
443.840;  193.355;  602.765;  876.423
444.128;  127.368;  265.767;  269.420
444.416;   13.035; -694.228; -312.588
444.704;   32.289; -465.219;  -92.605
444.992;  101.206;   -0.226;  240.407
445.280;   59.043; -517.230;  -94.585
445.568;   78.050; -694.212; -396.618
445.856;  453.349; -174.221;  357.398
446.143; 1038.910;  -54.220;   -7.604
446.431;  820.689;  -25.228;  625.411
446.719;  304.533;  489.783;  675.391
447.007;  213.687;  481.769;  705.416
447.295;  192.007;  597.777;  871.402
447.583;  112.601; -464.229;  -34.587
447.870;  191.245; -434.221; -202.601
448.158;  514.417; -104.230;  129.415
448.446;  409.736; -800.219; -338.604
448.733;  202.176;   13.776;  269.403
449.021;  287.424;   60.788;  341.382
449.309;  200.189; -296.210;  208.379
449.596;  229.579;  128.783;   59.392
449.884;  163.664; -571.222; -325.600
450.172;  143.819; -756.227; -406.590
450.459;  404.255;  645.786;  780.387
450.747; 2132.453; -411.218; -147.608
451.034; 6854.290;  493.772;  889.411
451.322; 5618.208; -413.214; -170.614
451.609;  496.552;  292.777;  508.403
451.897;  561.076; -550.203; -183.634
452.184; 1633.832; -622.223; -400.598
452.472; 1600.160;   97.792;  269.375
452.759;  360.287;  512.781;  864.395
453.047;  139.347; -407.212; -125.617
453.334;  116.595; -732.219; -216.606
453.621;  100.310; -438.214; -161.615
453.909;  133.368;   13.796;  384.368
454.196;  123.287; -299.199; -123.641
454.483;  222.439;  317.798;  540.364
454.771;  144.288; -215.208;  196.374
455.058;   55.916; -316.207;  102.374
455.345;   97.717;   71.807;  344.347
455.632;   96.244; -128.207;  235.373
455.919;   44.885;  -82.196;  182.354
456.207;  -57.933; -774.198; -450.642
456.494;   -1.675; -475.200;  -66.639
456.781;   25.409; -399.202; -198.635
457.068;   64.101; -253.206;  -29.628
457.355;   13.902; -698.206; -401.629
457.642;    2.907; -552.205; -290.630
457.929;   21.233; -778.194; -417.651
458.216;   69.722; -575.212; -354.617
458.503;  214.037; -173.193;  -19.652
458.790;  204.761; -864.208; -630.625
459.077;  277.664;  -77.202;  110.364
459.364;  736.076; -350.195; -210.649
459.651; 1564.049;  -46.206;  220.372
459.938;  739.551; -864.209; -665.623
460.225;  178.517;  132.799;  276.363
460.512;  -43.543; -836.197; -688.645
460.799;  135.452;  -32.218;  320.392
461.086;   84.155; -370.200; -251.640
461.372;   64.442; -509.198; -279.642
461.659;  151.136; -165.196;  108.354
461.946;   82.286; -445.193;  -54.651
462.233;  262.328;  842.800;  888.361
462.519;  330.524; -814.201; -464.639
462.806;  966.357; -768.197; -497.645
463.093;  827.581; -445.191;  -66.656
463.380;  -29.628; -920.186; -824.664
463.666;   74.634; -259.197;  -18.646
463.953;   98.671; -406.195; -243.648
464.239;  188.396; -173.195;  -77.648
464.526;  416.931;  413.806;  743.350
464.813;  390.793; -565.190; -304.658
465.099;  400.362;  606.807;  607.348
465.386;  373.741;  903.807;  921.348
465.672;   45.932; -694.197; -522.645
465.959;   54.910; -598.188; -520.662
466.245;   26.066; -468.193; -359.652
466.532;  135.169; -109.195;   63.352
466.818;   79.546; -357.186; -216.664
467.104;   11.111; -488.182; -415.672
467.391;  -12.280; -628.189; -459.658
467.677;   31.700; -289.186;    9.335
467.964;   11.151; -682.189; -471.660
468.250;   79.678; -331.186; -160.665
468.536;  112.396;   90.811;  180.341
468.822;  -45.911; -821.184; -574.668
469.109;  143.690;  351.827;  471.311
469.395;  199.425;  729.808;  787.346
469.681;  211.774;   46.811;  156.341
469.967; 1165.253; -699.188; -382.660
470.254; 2493.786; -494.188; -306.662
470.540; 1594.059; -601.196; -476.646
470.826;  231.147; -488.181; -397.675
471.112;  286.193;  288.816;  113.331
471.398;   92.747; -253.183;  -58.670
471.684;   51.274; -626.177; -447.680
471.970;   20.625; -918.180; -981.675
472.256;   32.649; -521.192; -441.654
472.542;   20.576; -499.171; -434.691
472.828;   29.107; -743.182; -607.672
473.114;   28.668; -380.166; -283.700
473.400;   27.891; -504.175; -293.684
473.686;   43.400; -452.166; -400.701
473.972;   71.005; -230.174; -131.687
474.258;  -43.460; -925.173; -843.689
474.544;  161.491; -183.178;   -2.679
474.830;  279.592;  -65.175;   45.316
475.116;  428.469; -123.190; -196.658
475.401;  580.428; -558.180; -467.676
475.687;  177.702; -725.180; -718.676
475.973;   17.390; -673.181; -770.673
476.259;  261.095;  736.825;  764.315
476.544;  369.732; -539.176; -437.682
476.830;  703.522; -398.172; -322.690
477.116;  617.631; -430.177; -336.682
477.401;  134.927;  346.820;  358.324
477.687;  -22.359; -289.175; -405.684
477.973;   44.193;   21.819;   28.326
478.258;   -0.330; -448.163; -348.706
478.544;   77.733;   21.815;   61.334
478.829;  -41.644; -818.171; -738.692
479.115;  -38.128; -749.172; -651.690
479.401;   -7.424; -444.174; -449.686
479.686;   36.151; -253.180;  -74.676
479.972;  -19.254; -886.178; -776.680
480.257;   44.070; -258.166;  -65.700
480.542;   -0.265; -614.170; -469.693
480.828;  240.139; 1288.824; 1392.317
481.113;  -25.588; -464.176; -426.683
481.399;    8.843; -236.161; -202.711
481.684;  -49.206; -620.166; -462.700
481.969;   26.881; -158.159;  -73.713
482.255;   -1.530; -439.169; -285.695
482.540;   -4.953; -569.178; -441.680
482.825;    2.167; -395.187; -404.663
483.110;   78.799;  -85.169; -105.696
483.396;  148.277; -840.157; -652.718
483.681;  458.430;  543.826;  730.313
483.966;  138.450; -696.160; -700.712
484.251;   19.854; -404.174; -310.687
484.536;   10.905; -356.165; -378.703
484.822;   17.432; -205.173; -218.687
485.107;  -30.660; -599.152; -502.726
485.392;  126.310;  662.836;  541.296
485.677;   85.883;  354.832;  163.302
485.962;  114.625;  160.843;  270.283
486.247;  101.852;  -14.162;   -8.707
486.532;   42.346; -178.166; -325.701
486.817;  159.187;  381.839;  431.291
487.102;  127.548; -453.154; -514.722
487.387;  578.504; -637.156; -652.718
487.672; 1010.616; -154.164;  -38.705
487.957;  635.069; -394.160; -286.711
488.241;  180.731; -290.150; -314.729
488.526;  647.216; -280.152; -148.726
488.811; 1039.124; -881.177; -818.680
489.096;  773.176; -666.154; -702.723
489.381;  447.112;    3.847;  162.275
489.666;  317.743; -428.161; -510.710
489.950;  161.579;  558.846;  627.277
490.235;  -28.649; -480.151; -458.728
490.520;  -31.958; -756.161; -723.710
490.804;  -45.219; -827.156; -736.719
491.089;    7.572; -469.149; -299.732
491.374;   38.364; -132.164;  -75.704
491.658;   -8.117; -817.147; -717.735
491.943;  187.270; -657.152; -609.727
492.227;  278.594; -178.155;  -38.721
492.512;   72.749; -294.157; -341.717
492.797;  -61.384; -713.149; -716.731
493.081;  -51.989; -588.147; -598.735
493.366;  -22.007; -751.161; -635.711
493.650;  207.988;  831.859;  917.254
493.935;   29.532; -648.147; -447.734
494.219;  -41.725; -778.142; -687.743
494.503;  -34.464; -585.150; -487.730
494.788;   46.216;   46.842;   74.285
495.072;   97.507;  184.850;  434.271
495.356;  157.875; -463.148; -343.733
495.641;  475.692; -812.146; -736.736
495.925;  457.311; -976.156; -903.719
496.209;   53.871; -599.149; -451.732
496.494;  -32.924; -763.142; -544.744
496.778;   17.373; -364.154; -360.722
497.062;  -48.340; -819.156; -627.719
497.346;  -33.579; -869.160; -640.711
497.631;  127.503;  580.852;  560.266
497.915;   77.277;  -64.145;  175.261
498.199;   66.702; -341.157; -277.718
498.483;   40.739; -562.152; -508.725
498.767;  187.334;  301.850;  300.271
499.051;  181.694; -126.149; -100.732
499.335;   11.942; -693.149; -739.731
499.619;  -36.888; -381.129; -423.767
499.903;   29.093; -272.155;  -65.721
500.187;   34.505; -588.153; -316.724
500.471;   31.495; -796.152; -595.727
500.755;  127.092;   62.839;  -96.710
501.039;   27.918; -270.155; -357.721
501.323;  101.739;  -21.141;  264.254
501.607;   42.845; -447.163; -503.706
501.891;   11.779; -607.156; -512.718
502.174;  -30.462; -726.144; -585.741
502.458;   83.248;   89.849;  370.273
502.742;   40.338; -180.138; -191.751
503.026;  105.182; -412.147; -254.734
503.310;  151.755; -437.159; -375.713
503.593;  103.033; -464.147; -325.735
503.877;  129.202; -232.133; -156.760
504.161;  192.558;    2.847;  -50.724
504.444;  133.868; -841.158; -710.716
504.728;  416.963; -487.164; -522.704
505.012;  632.980; -257.150;  -76.729
505.295;  491.993; -417.161; -212.711
505.579;  480.060; -256.156; -496.719
505.862;  654.049; -555.145; -333.738
506.146;  621.657; -681.159; -758.714
506.429;  377.383;  568.841;  461.286
506.713;   69.903; -732.151; -667.728
506.996;  291.473;   90.846;  295.278
507.280;  290.334; -633.165; -474.703
507.563;  213.316; -469.155; -261.721
507.847;   82.731; -423.153; -112.724
508.130;   76.494; -665.161; -456.711
508.413;  108.666; -758.167; -577.700
508.697;  227.166; -151.167;   12.300
508.980;  131.107; -422.153; -312.724
509.263;   -9.062; -466.155; -450.720
509.547;   36.455; -124.150;   82.271
509.830;   44.446; -172.160;  140.289
510.113;   83.435;  128.844;  298.281
510.396;   37.638; -530.152; -300.725
510.680;  235.550; -818.145; -812.738
510.963;  865.802;  184.846;  180.277
511.246;  767.688; -493.150; -357.730
511.529;  289.355; -482.145;  -83.739
511.812;  333.999; -250.134;   10.241
512.095;  226.525; -740.151; -396.728
512.378;   66.912; -317.147; -245.736
512.661;   19.720; -703.137; -623.753
512.944;   22.852; -750.142; -637.744
513.227;   67.442; -170.137; -171.752
513.510;   26.538; -479.144; -671.741
513.793;   28.243; -485.140; -435.747
514.076;  148.832;  -43.127;  -39.771
514.359;  121.047; -294.149; -135.732
514.642;   65.505; -442.142; -567.744
514.925;  658.942;  581.860;  561.253
515.208;  857.320; -498.134; -443.758
515.491;  561.934; -276.133; -182.761
515.773;  324.392; -410.143; -337.742
516.056; 1846.426;  249.864;  409.246
516.339; 2548.155; -754.136; -652.755
516.622; 2064.310; -518.150; -488.730
516.904; 1649.824;  882.857;  975.257
517.187;  745.816; -730.138; -523.752
517.470;  418.323; -568.143; -510.743
517.752;  401.233; -624.136; -470.756
518.035;  306.404; -708.139; -725.749
518.318;  323.330; -799.136; -744.755
518.600; 2067.862; -300.132; -325.762
518.883; 2860.629;  310.858;   88.256
519.165; 1425.834; -585.138; -426.751
519.448;  400.562;  -61.132;  -19.762
519.730;  234.514; -573.126; -415.773
520.013;  352.930;  588.867;  664.240
520.295; 1103.575;  -94.134;  -15.759
520.578; 2458.875; -335.131; -305.764
520.860; 2746.562; -254.132;   56.238
521.143; 1398.560; -763.135; -584.756
521.425;  489.952; -251.125; -279.775
521.707;  643.007; -622.127; -380.771
521.990; 1564.008; -199.127;  167.229
522.272; 1767.470; -116.140;   -4.748
522.554;  911.092; -237.143; -157.742
522.836;  440.573;  -24.134;   99.241
523.119;  249.806; -496.148; -189.734
523.401;  172.956; -448.130; -314.766
523.683;   93.346; -865.137; -693.753
523.965;  253.264;  408.862;  260.248
524.247;  245.373;   54.878;  170.220
524.529;  192.200; -451.134; -367.759
524.812;  338.658;   -3.130;  191.234
525.094;  736.764; -773.138; -631.751
525.376; 1176.636; -143.124;   78.223
525.658;  717.978; -441.136; -339.754
525.940;   26.296; -805.131; -671.764
526.222;   49.781; -188.136;  -88.755
526.504;  151.569; -190.131;   32.237
526.786;  253.603; -960.133; -647.760
527.068;  404.491; -124.123;  -67.778
527.349;  179.374; -865.137; -774.754
527.631;  152.312; -137.132;   22.238
527.913;  117.007; -664.127; -450.771
528.195;  138.970; -761.125; -639.774
528.477;  224.795;  -93.134;  -30.758
528.759;  110.633; -648.130; -522.766
529.040;   37.665; -569.123; -293.778
529.322;   54.648; -235.125;  -10.774
529.604;  154.835;  -47.130;   93.233
529.886;  156.589; -546.126; -302.773
530.167;  143.502;  232.870;  192.235
530.449;   46.762;    1.853;   63.265
530.731;   21.272; -572.122; -459.779
531.012;   47.467; -513.120; -216.784
531.294;   70.181; -118.116;  -43.792
531.575;  136.102;  290.875;  538.225
531.857;   42.065; -548.135; -266.757
532.138;  105.038; -113.141;   40.254
532.420;  195.537;  294.865;  403.244
532.701;  266.430; -722.133; -751.760
532.983;  407.433;  232.867;  182.239
533.264;  167.637; -243.126;  175.228
533.546;  -21.569; -491.136; -508.755
533.827;   53.077;  173.867;   -1.759
534.109;   68.740; -352.135;  -80.757
534.390;  106.791; -725.132; -582.762
534.671;  265.636; -270.135;  -82.756
534.953;  150.368; -751.123; -611.779
535.234;   15.866; -426.117; -255.789
535.515;  -83.274; -891.119; -735.785
535.796;  -19.847; -431.128; -193.770
536.078; -107.489;-1050.124; -904.777
536.359;    3.094;  -22.123;    3.221
536.640;  -11.678; -480.125; -197.774
536.921;  162.091;  225.871;  143.232
537.202;  350.060;  -87.138;  -16.751
537.483;  407.274;  251.869;  377.236
537.764;  138.702;   17.870;   98.235
538.045;  -40.480; -543.134; -371.758
538.326;  -29.758; -596.129; -447.768
538.607;    7.833; -686.127; -476.771
538.888;  139.634;   98.879;    5.218
539.169;  175.128; -704.122; -535.781
539.450;  314.289;  236.871;   16.233
539.731;  229.387; -361.121; -182.783
540.012;  130.842;  199.880;  412.216
540.293;   92.905;   82.876;  158.224
540.574;   27.976; -895.113; -717.796
540.855;  477.086;  435.879;  377.218
541.136;  536.451;   47.878;  139.220
541.416;  248.334; -161.130; -220.766
541.697;  175.395; -274.131; -170.763
541.978;  889.014; -270.135; -315.757
542.259; 1159.983; -211.127; -236.771
542.539;  568.000; -191.116; -186.790
542.820;  192.852;  461.875;  480.225
543.101;  140.327;  -52.145;  -77.738
543.381;   39.083; -638.127; -591.771
543.662;  257.756;  159.873; -254.771
543.942;  499.354; -751.127; -830.770
544.223;  923.227;  193.878;  161.219
544.504;  598.260; -275.124; -182.777
544.784;  520.014; -592.126; -408.773
545.065; 1476.478;  104.884; -254.791
545.345; 1781.601;  227.881;   14.215
545.626; 1139.275;  -14.113; -108.796
545.906;  776.527;   77.869;   98.235
546.186;  311.444;   92.874;  -95.773
546.467;  171.913;   99.877;  -95.778
546.747;  279.399;  264.884;  327.210
547.027;  327.734;   91.876;  111.223
547.308;  273.353; -376.127; -530.770
547.588;  348.693;  299.871;  371.232
547.868;  177.453;  458.870;  588.235
548.149;  199.686;  609.885;  593.207
548.429;  120.156; -347.127; -299.771
548.709;  139.942; -645.120; -461.784
548.989;  409.260;   84.882;   88.213
549.269; 1828.560;   10.868;  139.239
549.550; 4186.292;  215.877;  117.222
549.830; 3750.818; -758.111; -556.799
550.110;  745.550; -468.110; -320.801
550.390;  732.197; -128.122;  -56.779
550.670;  997.071; -868.114; -783.795
550.950;  695.811; -509.121; -471.782
551.230;  187.832;  549.879;  460.218
551.510;  -10.291; -381.121; -326.782
551.790;   36.933; -173.109; -127.803
552.070;  233.213;  940.877; 1181.223
552.350;  340.005; -492.119; -377.786
552.630;  496.680;   -2.121;   77.219
552.909;  304.929;  181.884;   73.209
553.189;  198.142;  -49.132;   33.237
553.469;  177.129; -703.119; -514.786
553.749;  149.209; -469.127; -357.772
554.029;  127.345;   33.883;  -24.790
554.308;  128.290; -154.115;  -37.794
554.588;   39.177; -196.128; -204.770
554.868;   61.861; -366.121;  -47.782
555.147;  122.087; -114.115;  -46.793
555.427;  508.456; -260.116; -250.792
555.707; 3379.110; -284.115; -200.793
555.986; 4089.546; -719.111; -538.800
556.266; 2111.173;   23.884;   72.210
556.546;   98.410; -888.121; -675.782
556.825;  201.469; -657.114; -556.794
557.105; 1513.850; -125.128;   17.230
557.384; 1808.453;  122.884;  187.209
557.664;  669.305; -717.116; -508.792
557.943;   91.561; -557.121; -411.782
558.222;  146.138; -345.118; -344.788
558.502;  252.963; -116.115;  -76.793
558.781;  439.859;  194.885;  499.208
559.061;  368.113; -232.118; -227.788
559.340;  265.693;  302.883;  353.211
559.619;  616.698;   93.884;  148.210
559.899;  885.720; -239.117; -266.789
560.178;  805.163; -778.115; -593.793
560.457; 2726.071; -623.117; -562.790
560.736; 3785.847; -472.111; -482.800
561.015; 2496.548; -500.128; -502.769
561.295;  350.652;  180.893;  215.193
561.574;  321.285;  119.885;  116.207
561.853;  452.987;  274.891;  303.197
562.132;  436.690;  -45.114;  182.206
562.411;  378.905;  396.879;  553.219
562.690;   95.309; -592.115; -458.792
562.969;  132.057;  472.888;  630.203
563.248;  484.628; 2966.878; 2487.219
563.527;  236.172; -290.111; -408.800
563.806;  307.206; -650.127; -521.771
564.085;  347.167; -297.105; -206.810
564.364;  192.798; -594.117; -405.790
564.643;  423.031; -276.121; -223.781
564.922; 1603.606;  221.890;  397.198
565.201; 1590.510; -640.109; -700.803
565.479;  709.657; -297.115; -219.792
565.758;  291.525; -810.128; -712.770
566.037;  419.861; -155.109; -100.803
566.316;  216.378; -286.116;  -28.791
566.595;   26.585;  -17.115;  -12.793
566.873;   88.098; -166.111;  -79.801
567.152;  -65.118; -490.113; -590.797
567.431;    4.324; -113.116;    6.210
567.709;    4.052; -344.107; -212.807
567.988;  197.869; -810.114; -769.794
568.266;  457.460; -160.115;  -68.793
568.545;  316.188; -644.100; -514.819
568.824;  491.632;  160.885;  356.208
569.102;  443.343; -351.114; -235.794
569.381;  182.081; -492.116; -407.792
569.659;  -34.122; -553.113; -553.796
569.938;   20.876; -743.122; -465.780
570.216;   90.188; -225.109; -225.804
570.494;  -41.653; -632.114; -572.795
570.773;   28.159;  202.879;  114.218
571.051;   -6.884; -373.123; -357.778
571.330;   40.851; -221.113; -174.796
571.608;   35.531; -181.098; -173.823
571.886;  -73.209; -671.111; -581.799
572.164;  -76.139; -739.121; -621.782
572.443;  -43.404; -562.105; -512.811
572.721;  -53.254; -399.117; -289.790
572.999;  -22.435; -280.117; -168.788
573.277;   88.714;  379.894;  620.191
573.555;  240.166;   94.894;   37.190
573.834; 1125.565;  -86.117; -114.788
574.112; 1354.805;  880.893;  811.193
574.390;  406.473; -143.111;  -96.801
574.668;    8.883;  -91.112;  -61.797
574.946;  -13.883; -165.106; -187.810
575.224;   11.209;   71.891;  -16.803
575.502;  -19.374; -200.116; -204.791
575.780;  -84.016; -767.112; -829.798
576.058;  134.247; 1589.889; 1004.200
576.336;   -6.323; -210.110; -129.801
576.614;  -51.591; -511.112; -340.798
576.891;   26.014; -711.115; -823.794
577.169;  403.571; -158.108; -285.805
577.447;  501.654;  169.893;  202.193
577.725;  216.663;  629.888;  854.201
578.003;    5.586;  -71.112; -371.798
578.280;   80.529; -208.104; -242.812
578.558;   53.113; -450.115; -422.793
578.836;  126.971; -210.114; -145.795
579.114;   58.132; -630.112; -670.797
579.391;   77.566;   -6.117;  -18.789
579.669;  -61.885; -595.114; -704.794
579.947;  141.626; -326.107; -127.806
580.224;  271.601; -692.107; -524.806
580.502;  274.180;  127.893;   76.193
580.779;    5.897;  -42.117;   75.210
581.057;  -77.286; -584.109; -470.804
581.334;  -94.581; -726.102; -695.815
581.612;   41.967;   54.895;  511.190
581.889;  -34.068;  -83.101; -129.818
582.167;  -24.254; -298.099; -190.821
582.444; -100.298; -845.102; -814.817
582.721;  112.852;  657.899;  715.183
582.999;   27.168; -326.100; -167.821
583.276;  435.170; -812.123; -713.779
583.553;  609.997; -364.102; -294.816
583.831;  179.576; -607.104; -631.812
584.108;   45.944;  349.892;  174.195
584.385;   -3.232; -122.102;  -98.815
584.662;  -62.051; -651.111; -828.801
584.940;   29.948;  204.889;  204.199
585.217;  -32.972;  -73.113; -303.796
585.494;   34.132;   71.890;  118.198
585.771;  189.389; -250.109; -354.804
586.048;  460.078; -196.113;  -76.796
586.325;  264.976; -721.110; -773.801
586.602;   86.755;  230.896;  213.188
586.879;  -21.485; -499.100; -580.820
587.156;   39.418; -156.105; -331.810
587.433;  -44.100; -701.102; -667.817
587.710;   47.060;  152.888;  234.202
587.987;  252.423; -264.105; -236.811
588.264;  705.736;  315.888;  387.202
588.541; 1212.232;  -61.104;   26.187
588.818; 2396.391;   72.892;  171.196
589.095; 2056.753; -163.104; -174.812
589.371;  322.812; -459.109; -414.804
589.648;   -2.145; -581.107; -437.807
589.925;   21.222; -517.114; -621.795
590.202;    9.609; -741.112; -607.798
590.478;   83.625; -166.105;  -73.811
590.755;  219.322; -241.108; -132.806
591.032; 2139.828; -741.110; -699.802
591.308; 2981.520; -732.094; -790.831
591.585; 1536.328; -573.110; -560.802
591.862;  102.426;-1056.102; -950.817
592.138;   37.720; -475.108; -474.805
592.415;  121.131; -486.104; -495.813
592.691; 1305.928;  460.896;  518.188
592.968; 1682.157; -208.098; -123.824
593.244;  792.549; -695.116; -595.790
593.521;   61.477; -105.102;  -42.817
593.797;  -34.001; -810.122; -720.780
594.074;  296.795; -611.096; -588.826
594.350;  586.656;  828.905;  729.172
594.626;  255.324; -303.111; -283.801
594.903;   76.377; -643.101; -645.817
595.179;  167.934;  243.896;  418.187
595.455;   27.656; -136.107; -150.807
595.731;   11.486;  -19.103;  -38.814
596.008;  -36.207; -464.111; -434.800
596.284;   29.192; -187.100; -242.820
596.560;   33.651; -501.093; -493.833
596.836;  175.520; -173.105;  -70.810
597.112;  282.971; -582.108; -437.805
597.388;  248.643;  -49.097;  -48.826
597.665;  117.455;  437.887;  530.203
597.941;  -59.370; -572.089; -658.839
598.217;    4.881; -323.110; -293.802
598.493;  224.541;   61.891; -204.804
598.769;  445.262; -175.100;  -50.819
599.045;  264.149; -490.108; -562.806
599.321;   36.416; -193.100; -261.820
599.597;   91.465; -355.109; -476.804
599.872;  414.057;  409.896;  429.187
600.148;  319.719;  -61.097; -172.826
600.424;  261.953;   91.893;  202.193
600.700;  208.631; -170.107; -280.807
600.976;   88.089; -442.097; -464.825
601.252;  209.487; -226.109; -272.803
601.527;  158.758; -833.104; -840.813
601.803;  117.451; -453.105; -404.812
602.079;  161.312; -124.100; -118.819
602.354;  497.111; -620.092; -531.835
602.630;  725.403; -140.113; -482.796
602.906; 1974.632; -910.101; -863.818
603.181; 5823.529; -627.119; -534.786
603.457; 4971.617;   98.903; -278.826
603.733;  707.213; -605.120; -626.783
604.008;  850.367; -245.106; -164.810
604.284; 2694.928; -636.101; -580.817
604.559; 2310.263;   -3.112;  -42.799
604.835;  404.820; -163.105; -225.810
605.110;  344.271; -732.099; -892.821
605.385;  597.254;  224.907;  267.167
605.661;  542.383; -625.095; -729.829
605.936;  976.249; -664.108; -737.806
606.211;  842.767;  -17.103; -170.815
606.487;  161.992; -329.114; -376.794
606.762;    2.805; -791.119; -745.786
607.037;  -33.580; -501.105; -433.810
607.313;  -50.398; -589.096; -574.828
607.588;   -5.608; -375.106; -137.810
607.863;   31.132;  -28.101; -143.818
608.138;  158.205;  513.890;  516.198
608.413;   14.675; -576.099; -592.822
608.688;   26.395; -203.108; -267.805
608.964;  170.036; -509.106; -218.809
609.239;  206.342; -107.105; -212.810
609.514;  214.400;  281.895;  240.188
609.789;  554.954; -187.104; -716.812
610.064;  749.726; -435.096; -609.827
610.339;  733.812; -855.109; -799.804
610.614;  990.192; -131.100; -315.820
610.889;  578.800;  215.895;  107.188
611.163;   22.951; -407.104; -591.812
611.438;   59.843;   81.886; -167.794
611.713;   -5.422; -467.101; -499.817
611.988;   37.581; -144.101; -328.818
612.263;  -31.206; -771.102; -717.815
612.538;  188.552;  385.887;  251.204
612.812;  125.118; -832.100; -911.820
613.087;   99.980; -358.098; -338.823
613.362;  -57.644; -497.107; -557.807
613.637;   38.938;  261.897;  138.186
613.911;  -26.139; -256.092; -345.835
614.186;   93.854; -249.107; -292.807
614.460;  573.753; -842.081; -758.854
614.735;  661.278;  -55.087;  -17.843
615.010;  123.368;   43.912;  -82.841
615.284;  226.595;  360.892;  246.195
615.559;  326.160; -792.092; -955.835
615.833;  254.848;  -76.099;  -87.822
616.108;   -4.503; -225.090; -390.837
616.382;  118.854;  274.913;  402.156
616.656;  113.947; -241.090; -232.837
616.931;  435.549; -785.099; -700.822
617.205;  919.584; -973.104; -979.813
617.480;  837.150;  -91.125;    6.225
617.754;  124.448; -396.125; -128.774
618.028;  -10.356; -369.129; -382.768
618.302;   51.393;   73.892;  -25.805
618.577;  -61.460; -371.103; -518.815
618.851;  -68.491; -399.109; -600.803
619.125;  -44.550; -335.134; -378.759
619.399;  -40.566; -244.104; -374.813
619.673;  -68.943; -330.115; -515.792
619.947;  -48.779; -333.114; -448.795
620.222;  -27.750; -198.110; -204.801
620.496;    0.361;  -47.121;  -96.782
620.770;  -10.022; -187.122;  -93.781
621.044;  185.668;  323.895;  346.190
621.318;  642.639; -653.120; -614.783
621.592;  574.762; -430.121; -409.783
621.866;  293.714; -476.112; -572.799
622.140;   16.376; -207.116; -356.791
622.413;   41.393;  138.889;  112.200
622.687;  -54.921; -746.101; -492.817
622.961;   -0.807; -130.108; -143.805
623.235;  -65.656; -633.111; -661.800
623.509; -111.200; -816.105; -848.811
623.783;   -3.023;  -12.107;   48.193
624.056;  -32.510; -254.120; -280.783
624.330;   49.908;   63.888;   -3.797
624.604;   27.148; -271.116; -355.790
624.877;   70.279;  180.890;   26.198
625.151;   28.941; -249.114; -238.794
625.425;  -43.564; -150.103; -283.814
625.698;  -60.476; -367.119; -374.785
625.972;  -98.918; -799.110; -765.802
626.245;   55.824;  685.884;  484.210
626.519;  -58.856; -426.120; -340.784
626.792;  -44.295; -192.107; -380.807
627.066;  -99.404; -485.122; -662.779
627.339; -112.772; -736.110; -663.802
627.613;   14.568;  351.880;  148.216
627.886;   56.908;  187.891; -612.803
628.160;  -20.661;  312.880; -161.783
628.433;  -96.822; -695.125; -703.775
628.706;  -83.831; -517.120; -615.784
628.979;   19.084;  296.876;  117.223
629.253; -103.946; -785.119; -833.786
629.526;  303.363; -334.126; -253.772
629.799;  283.491; -641.123; -479.778
630.072;  125.020; -497.128; -516.769
630.346;  -87.151;-1115.116;-1080.790
630.619;  392.281; -467.107; -545.808
630.892;  545.370;  709.889;  593.200
631.165;  295.309;  790.896;  679.187
631.438;  -90.464;-1092.112;-1055.798
631.711;   41.769;  453.877;  257.221
631.984;  -66.530; -523.117; -624.789
632.257;  -67.309; -636.117; -681.789
632.530;  -52.076; -412.119; -433.785
632.803;    9.914; -109.115;    7.207
633.076;  -76.962; -360.123; -422.777
633.349;    2.799;  173.872;  121.231
633.622;  -36.877; -187.119; -240.785
633.895; -131.985; -903.120; -823.783
634.167;  -79.010; -496.126; -525.773
634.440;  -24.994;  -19.116; -137.792
634.713;   -4.347;  -22.119; -120.786
634.986;   69.614;  593.871;  453.233
635.258;  -76.838; -507.115; -597.793
635.531;   90.437;  742.882; -343.788
635.804;  -34.781; -303.117; -318.789
636.077;  -83.698; -830.116; -852.791
636.349;  -18.664; -586.115; -474.793
636.622;  362.512; 1695.874; 1392.228
636.894;  185.394; -474.120; -909.784
637.167;  120.506; -836.127; -789.771
637.439;   15.127; -278.128; -213.770
637.712;  -52.837; -312.126; -293.772
637.984;  -93.248; -635.116; -707.791
638.257;  333.438;  515.877;  488.222
638.529;  512.829; -881.125; -924.776
638.802;  227.770; -508.128; -449.769
639.074; -112.873; -927.122; -952.781
639.346; -120.108; -942.135; -930.757
639.619;    3.303;  -79.142; -319.744
639.891;   -7.454;  -83.122; -168.779
640.163;  -78.002; -689.122; -756.780
640.435;   22.700;  273.878;  103.220
640.708;   -4.149;  -72.122; -132.780
640.980;  -30.447; -366.122; -362.781
641.252;  167.230;  -25.121;  -71.781
641.524; 1666.832;  580.879;  573.219
641.796; 1677.234;-1094.121; -907.782
642.068;  282.910; -191.121; -300.782
642.340;  -69.038; -486.121; -566.783
642.613;   28.339;  294.880;  323.217
642.885;  -88.484; -787.120; -878.783
643.157;  -63.357; -810.120; -658.784
643.428;   48.869;  170.880;  218.216
643.700;  -72.254; -498.120; -425.784
643.972;  -33.152;  -16.119; -133.785
644.244;  -94.400; -474.119; -559.785
644.516;  -57.999; -250.119; -114.786
644.788;   65.053;  662.881;  548.214
645.060;  -29.470;  -12.119; -124.786
645.332;  -90.168; -525.118; -535.787
645.603;   20.809;  479.882;  342.213
645.875;  -69.640; -334.118; -369.787
646.147;  152.912; 1487.882; 1242.212
646.418;  -80.236; -931.117; -918.788
646.690;   86.516; -714.117; -715.789
646.962;   15.493; -413.117; -451.789
647.233;   -9.556;   15.883;   11.211
647.505; -104.279; -595.117; -475.790
647.776;   19.298;  328.884;  229.210
648.048;  -19.425; -248.116; -418.790
648.320;  -79.948; -752.116; -679.791
648.591; -149.997;-1055.116; -958.791
648.862;  -87.220; -505.116; -577.792
649.134;    5.282;  115.885;  198.208
649.405;  -63.791; -661.115; -618.792
649.677;  -51.765; -475.115; -598.793
649.948;  -11.813; -181.115; -296.793
650.219;   -4.811;  -37.115; -147.793
650.491;  -78.759; -431.114; -520.794
650.762; -123.582; -705.114; -731.794
651.033;  -87.931; -437.114; -424.795
651.304; -101.054; -743.114; -728.795
651.576;  -66.252; -680.114; -645.795
651.847;  -32.900; -250.113; -140.796
652.118;  -24.573;  -32.113; -189.796
652.389;  -93.722; -639.113; -722.796
652.660;  -27.595; -147.113;  -89.797
652.931; -135.443; -897.112; -871.797
653.202;  -82.016; -382.112; -541.798
653.473;  -63.714; -633.112; -533.798
653.744;  122.512; -595.112; -590.798
654.015;  116.614; -356.112; -303.799
654.286;  -73.459; -642.111; -663.799
654.557;  -71.757; -586.111; -521.799
654.828; -166.531;-1114.111;-1088.800
655.099;  -90.929; -404.111; -291.800
655.370; -105.077; -427.111; -543.801
655.641; -132.400; -656.110; -714.801
655.911; -108.073; -618.110; -638.801
656.182;   40.128;  437.890;  387.198
656.453;   81.630;  830.890;  746.198
656.724;  -69.518; -466.110; -426.802
656.994;  -84.441; -553.109; -568.803
657.265; -110.889; -862.109; -873.803
657.536;  -86.638; -500.109; -377.804
657.806; -110.561; -561.109; -593.804
658.077; -141.884; -866.109; -950.804
658.347; -102.057; -523.108; -598.805
658.618; -105.555; -646.108; -694.805
658.888;  -31.104;  -41.108;  112.195
659.159;  -75.202; -432.108; -548.806
659.429;  -23.700; -292.108; -349.806
659.700;   -8.798; -435.107; -390.807
659.970;  -10.047; -370.107; -359.807
660.241;  -10.445; -754.107; -921.807
660.511;  438.707; -147.107; -174.808
660.781;   73.159; -793.106; -748.808
661.052;  -59.439; -222.106; -381.808
661.322;  -30.463;   21.894;   -9.809
661.592;   14.264;  257.894;  148.191
661.862;  -72.034; -369.106; -382.810
662.133;  -93.557; -551.105; -502.810
662.403; -113.255; -770.105; -676.810
662.673;  -51.554; -256.105; -213.811
662.943; -111.502; -612.105; -551.811
663.213;  -14.475;  -85.105;  -81.811
663.483;  -72.948; -593.104; -568.812
663.753;  -48.171; -194.104; -152.812
664.023;  -14.020;   68.896;  -32.813
664.293;  -68.968; -319.104; -126.813
664.563; -118.416; -694.104; -648.813
664.833; -130.664; -743.103; -608.814
665.103; -132.763; -730.103; -793.814
665.373; -118.836; -766.103; -806.814
665.643; -101.509; -863.103; -918.815
665.913;   12.018; -534.103; -714.815
666.182;  111.445; -685.102; -719.816
666.452;  219.371;  -22.102;  -89.816
666.722;  -42.302; -724.102; -784.816
666.992; -133.575; -948.102; -921.817
667.261; -100.523; -824.102; -808.817
667.531;  201.379;  134.899;   45.183
667.801;  514.255; -440.101; -412.818
668.070;  221.132;  714.899;  697.182
668.340; -107.516; -883.101; -840.819
668.609;   66.411;  588.900;  301.181
668.879;  -85.637; -490.100; -558.819
669.149;  -76.836; -539.100; -516.820
669.418; -107.284; -698.100; -726.820
669.688;  -57.032; -482.100; -666.820
669.957;   50.570; -423.099; -546.821
670.226;  -35.279; -268.099; -331.821
670.496;  -96.477; -431.099; -635.822
670.765;  -73.200; -418.099; -501.822
671.034; -136.473; -872.099; -828.822
671.304;  -27.871;   55.902; -111.823
671.573; -160.420;-1085.098; -957.823
671.842;   54.782; -380.098; -294.823
672.112;   13.459; -692.098; -586.824
672.381;   -8.414; -239.098; -214.824
672.650; -140.787;-1005.097;-1021.825
672.919;  -93.111; -631.097; -507.825
673.188;  -96.659; -681.097; -878.825
673.457; -148.307;-1101.097;-1143.826
673.726;  -81.580; -579.096; -646.826
673.995;  -60.828; -533.096; -479.826
674.265;  -33.802; -263.096; -333.827
674.534;  -14.075; -183.096; -235.827
674.802;   -0.323; -618.096; -703.828
675.071;  850.454; -886.095; -801.828
675.340; 3419.605; -464.095; -339.828
675.609; 1136.032;  103.905;   82.171
675.878;   58.559; -949.095; -893.829
676.147;   19.036;  -26.095;   -8.829
676.416;   62.063; -210.094; -294.830
676.685;  631.264; 1000.906; -622.830
676.953;   77.666; -603.094; -452.831
677.222;  -28.107; -193.094; -273.831
677.491;  -37.855;  -24.094; -127.831
677.759;  -10.853;   11.907;  172.168
678.028;  -21.152; -279.093; -222.832
678.297;  -10.200;   71.907;  197.168
678.565; -151.198; -898.093; -944.833
678.834;  -56.771; -311.093; -268.833
679.102;  -72.869; -411.092; -391.834
679.371; -145.468; -898.092; -727.834
679.639; -128.191; -797.092; -786.834
679.908; -123.564; -794.092; -724.835
680.176; -164.812; -895.091; -941.835
680.445;  -90.536; -346.091; -352.835
680.713;  -36.209;  -58.091;  -23.836
680.982;  -99.382; -523.091; -525.836
681.250;  -99.080; -578.091; -507.837
681.518; -105.828; -534.090; -751.837
681.787;  -28.802; -204.090; -167.837
682.055;  -66.900; -490.090; -422.838
682.323; -147.573; -993.090; -992.838
682.591;   31.229; -216.090; -538.838
682.859;   69.781;    9.911;  -35.839
683.128;    7.657;  232.911;  497.161
683.396; -180.066;-1102.089;-1122.840
683.664;  -38.239; -241.089;   21.160
683.932;  -23.337;  144.911;  -76.840
684.200;  -86.410; -576.088; -320.841
684.468;  -29.784;  -73.088; -124.841
684.736;  -54.732; -214.088; -175.841
685.004; -133.355;-1024.088; -982.842
685.272;  -51.028; -880.088; -774.842
685.540;  -67.602; -499.087; -557.843
685.808;  -92.300; -651.087; -682.843
686.076; -100.323; -894.087; -969.843
686.343;  -64.196; -601.087; -815.844
686.611;   28.431; -195.087; -224.844
686.879;  387.082; -530.086; -553.844
687.147; 2894.934; -483.086; -480.845
687.414;  832.386;  -12.086; -169.845
687.682;  -17.337; -658.086; -757.846
687.950;  263.290;  259.915;  263.154
688.217;   -3.409; -792.085; -760.846
688.485;  -15.307; -632.085; -636.847
688.753;  451.320;  -11.085; -102.847
689.020;  110.747; -820.085; -851.847
689.288; -112.001; -853.084; -787.848
689.555;  -31.950; -195.084; -148.848
689.823;  -51.998; -241.084; -345.849
690.090;  -87.671; -546.084; -651.849
690.358; -145.944; -877.084; -897.849
690.625;   -5.268;  120.917;   45.150
690.892;  -77.941; -403.083; -369.850
691.160;  -30.914;   72.917;  -35.850
691.427;    3.938;  141.917;  130.149
691.694; -128.910; -855.083; -929.851
691.962; -138.584;-1177.082;-1060.852
692.229;    9.243;  127.918;   56.148
692.496;   70.795;  130.918;  -49.852
692.763;    6.647; -164.082; -201.853
693.031;  -70.051; -739.082; -716.853
693.298;  -45.400; -509.081; -368.853
693.565;  250.052; -155.081; -163.854
693.832; 1100.954;   -5.081;   -9.854
694.099;  107.831; -643.081; -642.855
694.366;  -74.817; -882.081; -896.855
694.633;  -41.041; -920.080; -633.855
694.900;  717.961; 4367.920; -114.856
695.167;  382.238; -214.080; -380.856
695.434;   84.490; -646.080; -623.856
695.701;  187.091;  121.921;  -61.857
695.968;  427.543; -365.079; -361.857
696.234;  938.295; -415.079; -646.858
696.501;10172.047; -776.079; -614.858
696.768; 5281.274; -554.079; -617.858
697.035;  308.700; -632.078; -667.859
697.302;   33.502; -448.078; -552.859
697.568;    7.054; -458.078; -497.859
697.835;  -31.119; -683.078; -624.860
698.102;  -10.467; -498.078; -407.860
698.368;   69.659;  384.923;  396.139
698.635;  -26.689;  -47.077; -424.861
698.901;  -24.537; -240.077; -348.861
699.168;   56.940; -534.077; -456.862
699.435;   52.567;  -72.077;  -13.862
699.701; -108.757; -868.076; -764.862
699.968;    5.845;  144.924; -441.863
700.234; -116.328; -783.076; -822.863
700.500;  -49.926; -448.076; -539.864
700.767;   -6.825;   -1.075;   26.136
701.033; -127.523;-1015.075; -963.864
701.299;  -53.521; -450.075; -483.865
701.566;  109.456;  950.925;  763.135
701.832;   23.408;  -31.075;  -76.865
702.098;  -95.816;-1054.074;-1034.866
702.365;  -87.039;-1098.074;-1030.866
702.631;  -34.637;-1038.074;-1063.867
702.897; 1248.015; -765.074; -676.867
703.163; 2093.492;  348.926;  254.133
703.429;  149.343; -256.073; -273.868
703.695;  -23.330; -796.073; -792.868
703.961;   27.297; -214.073; -210.868
704.227;  -56.951; -630.073; -725.869
704.493;  125.651;  613.927;  510.131
704.759;  -38.523; -565.072; -540.870
705.025;   30.904; -203.072; -194.870
705.291;  -20.394; -666.072; -562.870
705.557;  205.358;  719.928;   34.129
705.823;   24.659; -742.072; -694.871
706.089;  138.436; -307.071; -326.871
706.355;  366.338; -315.071; -244.872
706.620; 5708.565; -776.071; -729.872
706.886; 7978.017; -309.071; -362.873
707.152;  731.443; -818.070; -973.873
707.418;  -24.705;-1153.070;-1186.873
707.683;   -4.928; -550.070; -530.874
707.949;  -46.876; -547.070; -578.874
708.215;  -10.299; -129.070; -207.874
708.480;  -27.723; -520.069; -420.875
708.746;   82.129;   68.931;   28.125
709.011;  -60.644; -578.069; -612.876
709.277;  -59.567; -538.069; -543.876
709.542;  -52.865; -428.069; -387.876
709.808;   -5.389;  -59.068;   89.123
710.073;  -85.162; -577.068; -695.877
710.339;  -29.610; -242.068; -228.877
710.604;   49.517; -780.068; -845.878
710.869;  290.668; -277.068; -366.878
711.135;  -82.305; -715.067; -628.879
711.400;  -87.553; -507.067; -608.879
711.665;  -61.001; -404.067; -479.879
711.931;  -87.549; -661.067; -677.880
712.196; -127.873; -876.067; -954.880
712.461;   89.579; -402.066; -490.880
712.726;  114.831; -727.066; -771.881
712.991;  -81.767; -647.066; -664.881
713.256;  -50.215; -350.066; -332.882
713.521;  -61.014; -417.065; -381.882
713.787;  -66.112; -454.065; -472.882
714.052;  -42.410; -214.065; -400.883
714.317;  -98.783;-1045.065; -981.883
714.581; 1032.494; -374.065; -268.883
714.846; 1478.670; -822.064; -888.884
715.111;  131.397;  261.936;  257.116
715.376;  -28.626;  -86.064; -223.885
715.641;  -25.249; -365.064; -367.885
715.906;  247.227;   15.936; -551.885
716.171;  129.254;  221.937;  209.114
716.436;   18.831;  -78.063; -104.886
716.700; -109.567; -818.063; -692.886
716.965; -136.365; -794.063; -807.887
717.230;  -77.164; -339.063; -392.887
717.494;  -31.487;  -40.062; -134.888
717.759;  -95.285; -784.062; -640.888
718.024;   -1.283;  269.938;  250.112
718.288;   73.394;  685.938;  395.111
718.553; -138.680; -803.062; -977.889
718.817; -150.978; -883.061; -899.889
719.082;  -37.951; -115.061; -125.890
719.346; -139.674;-1000.061; -947.890
719.611;  -45.547; -300.061; -255.891
719.875; -105.021; -568.060; -537.891
720.140;  -60.869; -453.060; -603.891
720.404;   17.683; -136.060; -249.892
720.668;  731.085; -475.060; -411.892
720.933;  302.661;  146.940;  137.108
721.197;  -91.512; -667.059; -600.893
721.461; -123.185; -851.059; -826.893
721.725;   -7.208;  -21.059; -250.894
721.990;  -60.431; -284.059; -204.894
722.254;  -30.305;  -26.059; -108.894
722.518;  -74.103; -286.058; -442.895
722.782;  -81.601; -743.058; -594.895
723.046;  116.101;  614.942;  570.105
723.310;   17.803;  374.942;  210.104
723.574; -107.921; -654.058; -614.896
723.838;  -98.944; -576.057; -642.897
724.102;  -44.717; -226.057; -239.897
724.366; -127.815;-1032.057; -978.897
724.630;  -84.838; -749.057; -571.898
724.894;  -84.912; -722.057; -514.898
725.158;  -18.835;   38.944; -295.898
725.422;  -57.283; -394.056; -327.899
725.685;  -68.256; -441.056; -349.899
725.949;  -84.505; -566.056; -519.900
726.213;  -70.353; -732.056; -811.900
726.477;  129.249;-1020.055; -933.900
726.740;  142.751; -274.055; -104.901
727.004;  319.253; -384.055; -510.901
727.268; 3355.254; -442.055; -400.901
727.531;  929.431; -961.055; -775.902
727.795;  -46.142; -713.054; -673.902
728.059;  -75.315; -552.054; -557.903
728.322;  -85.863; -841.054; -669.903
728.586;   10.138; -692.054; -701.903
728.849;  -79.510; -695.053; -756.904
729.112; -118.883; -812.053; -912.904
729.376; -122.431; -959.053; -905.904
729.639;  -81.979; -536.053; -536.905
729.903; -109.378; -733.053; -699.905
730.166;  -57.876; -437.052; -399.906
730.429;  -33.499; -317.052; -468.906
730.693;  -59.722; -355.052; -894.906
730.956;  202.629;  810.948;  651.093
731.219;  633.381; -310.052; -103.907
731.482;   82.308;-1003.051; -894.907
731.745;   78.610; -794.051; -935.908
732.009;   -1.263;  -30.051;   50.092
732.272;  -97.062; -904.051; -771.909
732.535;  -49.335; -300.051; -310.909
732.798; -153.908;-1083.050;-1166.909
733.061;  -46.481; -430.050; -456.910
733.324;    3.321;   31.950; -180.910
733.587;   55.622;  290.950;  365.090
733.850;  -75.676; -973.049;-1050.911
734.113;   33.976;   33.951;   32.089
734.376;   -9.072; -328.049; -447.912
734.639;  208.080; 1188.951; 1011.088
734.901;   50.931; -180.049; -402.912
735.164;  429.258; -883.048; -837.913
735.427; 1176.235; -166.048; -355.913
735.690;  115.337; -205.048; -234.913
735.952;  -40.487; -923.048; -925.914
736.215;  -33.035;-1113.048;-1009.914
736.478;   27.467; -771.047; -774.915
736.740;  206.144;   33.953;  129.085
737.003;  590.046; -658.047; -672.915
737.266; 3639.622;  -94.047;   46.084
737.528;  400.049; -682.047; -660.916
737.791;  303.501; -316.046; -327.916
738.053;  757.353;  465.954;  649.083
738.316;10529.205; -162.046; -136.917
738.578; 7641.331; -770.046; -736.918
738.841;  447.583; -382.046; -446.918
739.103;  161.835; -875.045; -777.918
739.365;  459.437;   79.955;  -69.919
739.628;  -10.662; -884.045; -805.919
739.890;  -47.235; -758.045; -710.919
740.152;  -44.758; -692.044; -754.920
740.414;  -15.431; -408.044; -359.920
740.677;  -54.754; -785.044; -634.921
740.939;  -54.903; -587.044; -487.921
741.201;  224.699; -432.044; -572.921
741.463;   24.976; -689.043; -745.922
741.725;    2.453;  -21.043; -199.922
741.987;   30.655;  220.957;  116.078
742.249;  -24.619; -751.043; -859.923
742.511;  184.758; -703.043; -794.923
742.773;   11.835; -546.042; -546.924
743.035;  117.437;  796.958;  533.076
743.297;  -59.836; -963.042;-1013.924
743.559;  664.240; -278.042; -262.925
743.821;   52.092; -735.042; -744.925
744.083;    2.194;  -44.041; -149.925
744.345;  -96.204; -869.041; -892.926
744.607;   37.972;   75.959;  122.074
744.868;  -66.101; -490.041; -554.927
745.130; -120.899; -994.041;-1008.927
745.392;   37.028;   -1.040;  -44.927
745.653;  -13.120; -411.040; -378.928
745.915;  144.931;  896.960;  631.072
746.177;   47.533;   35.960;  -43.928
746.438;   -7.540; -428.040; -543.929
746.700;  -50.288; -947.039; -988.929
746.961;  -10.686; -659.039; -740.930
747.223;  131.190; -190.039;  -74.930
747.484;   67.992; -391.039; -471.930
747.746;  145.019;  -23.038; -106.931
748.007;   97.946; -647.038; -689.931
748.269;  276.273; -468.038; -440.931
748.530;  432.624; -852.038; -638.932
748.791;  252.726; -354.038; -420.932
749.053;  395.303;  286.963;  163.067
749.314;  424.280; -236.037; -169.933
749.575;  479.506; -945.037; -905.933
749.836;  797.458; -217.037;   86.066
750.098; 2265.060;  -60.037;  -21.934
750.359;34205.462;  414.964;  555.066
750.620; 8985.314; -121.036; -220.935
750.881;  952.590; -585.036; -513.935
751.142; 1257.717; -950.036; -938.936
751.403;16026.119; -789.036; -705.936
751.664; 7322.596;-1034.035; -999.936
751.925;  474.198; -175.035; -262.937
752.186;  261.599; -298.035; -278.937
752.447;  116.276; -590.035; -445.937
752.708;   41.153; -532.035; -648.938
752.969;    0.330; -566.034; -576.938
753.230;  -12.543; -777.034; -672.939
753.491;  -15.042; -650.034; -631.939
753.751;   58.185;  109.966;   19.061
754.012;   77.887;  258.967;  181.060
754.273;   42.689; -174.033;  -71.940
754.534;   -8.560; -487.033; -580.940
754.794;  -99.333; -926.033; -911.941
755.055;  122.419; 1051.967;  881.059
755.316;  -52.479; -700.032; -566.942
755.576;  -35.027; -606.032; -576.942
755.837;  -44.926; -527.032; -695.942
756.097;  -46.674; -530.032; -564.943
756.358;  -70.647; -725.032; -770.943
756.618;  -49.495; -705.031; -641.943
756.879;   -9.093; -254.031; -349.944
757.139; -123.817;-1098.031;-1116.944
757.400;  -58.940; -538.031; -553.945
757.660;  -20.438; -365.031; -401.945
757.920;   15.039; -266.030; -228.945
758.181;  -15.784; -468.030; -351.946
758.441;  -91.233; -870.030; -809.946
758.701;  -28.731; -308.030; -215.946
758.961;   -2.804; -220.030; -278.947
759.222;  -52.402; -574.029; -502.947
759.482;  -91.326; -683.029; -723.948
759.742;  -93.024; -706.029; -547.948
760.002;    5.403;  -83.029; -143.948
760.262;   19.855;   50.972;  182.051
760.522;  -42.993; -498.028; -574.949
760.782;  -58.617; -738.028; -612.949
761.042;  -30.090; -618.028; -573.950
761.302;   32.412;   55.972;  -18.950
761.562;   34.339; -164.027; -154.951
761.822;   78.566; -710.027; -551.951
762.082;  -55.783;-1104.027;-1093.951
762.342;   46.894; -328.027; -403.952
762.601;   70.721; -567.027; -506.952
762.861;  346.148; -281.026; -207.952
763.121;  374.500; -406.026; -411.953
763.381; 7062.226; -499.026; -485.953
763.640; 8016.603; -139.026; -307.954
763.900;  351.130; -242.026; -203.954
764.160;   78.257; -458.025; -491.954
764.419;   -3.492; -726.025; -782.955
764.679;  -75.365; -795.025; -726.955
764.939;  -19.538; -124.025; -210.955
765.198;  -77.686; -608.025; -563.956
765.458;  -72.984; -710.024; -612.956
765.717;  -96.683; -454.024; -590.957
765.976;  -61.731; -428.024; -411.957
766.236;  -76.904; -475.024; -610.957
766.495;    5.123;  260.977;   73.042
766.755; -109.275;-1090.023; -987.958
767.014;   -2.399; -594.023; -665.958
767.273;  -61.172; -373.023; -397.959
767.533;  -41.645; -228.023; -307.959
767.792;  -30.018; -151.022; -188.960
768.051;  -50.291; -228.022; -276.960
768.310;  -89.165; -546.022; -650.960
768.569;   -1.013; -161.022;    4.039
768.828;  -42.511; -285.022; -363.961
769.088; -110.284;-1050.021; -942.961
769.347;  -71.608; -755.021; -599.962
769.606;  -99.006; -876.021; -857.962
769.865; -116.579;-1016.021;-1033.963
770.124;   -6.427; -411.021; -336.963
770.383;  -52.900; -778.020; -910.963
770.641;    3.076; -398.020; -400.964
770.900;  -61.097; -953.020; -846.964
771.159;  -41.195; -851.020; -951.964
771.418;  -10.993; -917.020; -779.965
771.677;  133.284; -224.019; -293.965
771.936;  157.135; -794.019; -865.966
772.194; 2166.187; -465.019; -437.966
772.453;11377.014; -213.019; -391.966
772.712;  807.591;  416.982;  329.033
772.970;  133.468;   32.982;   63.033
773.229;   72.069;  -22.018;  102.033
773.488;  -90.704; -814.018; -770.968
773.746;   62.773;  296.982;  335.032
774.005;   -3.300;  190.983;  -22.969
774.263;    3.801;  243.983;  177.031
774.522;  -52.747; -422.017; -548.969
774.780;  -91.920; -484.017; -417.970
775.039; -105.068; -551.017; -531.970
775.297;  -28.441; -135.016; -351.970
775.555; -109.615; -489.016; -612.971
775.814; -111.713; -618.016; -570.971
776.072; -112.511; -749.016; -740.971
776.330; -102.534; -630.016; -520.972
776.589; -118.332; -703.015; -721.972
776.847; -125.531; -645.015; -624.973
777.105; -178.329;-1016.015;-1032.973
777.363;  -81.502; -459.015; -454.973
777.621; -139.275; -660.015; -717.974
777.879;  -27.348;  -42.014;   32.026
778.138; -108.672; -554.014; -717.974
778.396; -111.770; -585.014; -526.975
778.654; -169.368;-1015.014; -970.975
778.912;  -82.466; -269.014; -371.976
779.170; -133.890; -880.013; -803.976
779.427; -141.013; -922.013; -897.976
779.685; -141.111; -880.013; -832.977
779.943;  -86.259; -654.013; -593.977
780.201; -161.157; -964.012; -883.978
780.459; -103.281; -651.012; -610.978
780.717;  -93.604; -440.012; -390.978
780.974; -103.052; -449.012; -490.979
781.232;  -76.325; -358.012; -338.979
781.490;  -81.948; -551.011; -472.979
781.747; -104.247; -555.011; -476.980
782.005;   23.430;  462.989;  254.020
782.263; -154.143; -542.011;-1004.981
782.520;  -85.116; -326.011; -501.981
782.778; -158.764;-1013.010;-1051.981
783.035; -171.463; -962.010; -938.982
783.293;  -71.711; -248.010; -206.982
783.550;  -71.159; -134.010; -198.982
783.808; -137.332; -764.010; -776.983
784.065; -168.781; -745.009; -874.983
784.322;  -57.079;   25.991;  -86.984
784.580; -146.977; -915.009; -771.984
784.837; -113.025; -392.009; -466.984
785.094; -135.273; -783.009; -762.985
785.352;  -82.797; -304.008; -404.985
785.609; -122.695; -934.008; -839.985
785.866;  -89.843; -345.008; -401.986
786.123;  -76.891; -639.008; -583.986
786.380;  -96.339; -665.008; -604.987
786.637;  -50.263; -225.007; -380.987
786.895;  -11.836; -456.007; -543.987
787.152;  -56.059; -135.007; -267.988
787.409;  -49.382; -123.007; -225.988
787.666;  -88.255; -299.006; -378.988
787.923; -105.679; -616.006; -695.989
788.179; -114.477; -551.006; -584.989
788.436; -101.275; -585.006; -585.990
788.693;  -53.473;  -92.006;  -87.990
788.950;  106.578; -125.005; -112.990
789.207;  179.855; -381.005; -372.991
789.464;  -51.093; -161.005; -301.991
789.720;   -8.316;  150.995;  110.009
789.977; -169.039;-1003.005; -671.992
790.234;  -42.788;   44.996;  -66.992
790.490; -142.611; -884.004;-1031.993
790.747;  -40.984;  -85.004;   22.007
791.004;  -37.182; -426.004; -348.993
791.260;  -89.255; -430.004; -560.994
791.517; -102.429; -843.003; -788.994
791.773;  -54.377; -379.003; -342.994
792.030; -123.800; -596.003; -660.995
792.286; -101.898; -686.003; -636.995
792.543;  -39.746;  -74.002; -159.995
792.799;  -64.795; -584.002; -382.996
793.055; -156.268;-1179.002;-1210.996
793.312;  -95.091; -827.002; -816.997
793.568;  -70.364; -746.002; -599.997
793.824;   11.687; -226.001; -284.997
794.081;   14.689; -447.001; -508.998
794.337;   59.041; -664.001; -561.998
794.593; 1197.618; -319.001; -271.999
794.849; 6337.020; -746.001; -772.999
795.105;  320.896; -270.000; -261.999
795.361;   10.048; -490.000; -457.000
795.617;  -64.225; -875.000; -945.000
795.873;  -55.500; -360.000; -407.000
796.129;  -38.925; -368.000; -306.000
796.385;  -23.800; -124.000; -156.000
796.641;   67.625;  412.000;  550.000
796.897;  -91.450; -666.000; -635.000
797.153;   57.825;  453.000;  357.000
797.409; -102.650; -785.000; -868.000
797.665;  -73.975; -625.000; -732.000
797.921;  -81.875; -775.000; -762.000
798.176;  -56.800; -744.000; -747.000
798.432;  -58.150; -824.000; -596.000
798.688;  -80.050;-1174.000;-1078.000
798.943;   76.850; -165.000; -147.000
799.199;   -4.500;-1005.000; -959.000
799.455;  217.000;  369.000;  316.000
799.710;  132.350; -813.000; -380.000
799.966;  303.850; -162.000; -160.000
800.221;  466.700; -638.000; -721.000
800.477;10140.125; -743.000; -710.000
800.732; 9448.925; -773.000; -800.000
800.988;  643.125;  205.000;  -19.000
801.243; 1859.275; -454.000; -344.000
801.498; 8481.300; -814.000; -739.000
801.754;  510.500; -289.000; -163.000
802.009;   99.925; -257.000; -335.000
802.264;  -42.350; -967.000;-1033.000
802.520;   17.025;  222.000;   -3.000
802.775;  -49.150; -524.000; -359.000
803.030;   38.775;  395.000;  356.000
803.285; -115.950; -840.000; -903.000
803.540;  -68.000; -686.000; -699.000
803.795;  -45.425; -648.000; -583.000
804.051;  -36.025; -279.000; -346.000
804.306;   18.900;  168.000;  128.000
804.561;  121.200;  451.000;  362.000
804.816;  121.375;  714.000;  861.000
805.071;    1.550; -185.000; -280.000
805.325;  180.475; -257.000; -427.000
805.580;  -89.400; -841.000; -877.000
805.835;  -18.675; -204.000; -297.000
806.090;  -73.825; -760.000; -676.000
806.345;  -27.850; -344.000; -264.000
806.600;  -40.375; -549.000; -632.000
806.854;  -35.375; -408.000; -538.000
807.109;  -10.125; -493.000; -577.000
807.364;   -6.650; -407.000; -328.000
807.618;  -21.850; -415.000; -381.000
807.873;   32.225; -470.000; -494.000
808.128;   69.675; -257.000; -518.000
808.382;   97.400; -224.000; -332.000
808.637;   50.725; -440.000; -511.000
808.891;  158.850; -257.000; -180.000
809.146;   82.100; -902.000; -794.000
809.400;  238.125; -848.000; -923.000
809.654;  285.875; -779.000; -551.000
809.909;  444.175; -841.000; -927.000
810.163; 5881.375; -813.000; -651.000
810.418;16083.525; -940.000; -861.000
810.672; 1010.150; -685.000; -690.000
810.926;  693.250; -993.000; -973.000
811.180; 1330.975; -439.000; -372.000
811.434;31181.400;  240.000;  135.000
811.689;13355.950; -231.000; -365.000
811.943;  630.275; -936.000; -953.000
812.197;  326.600; -893.000; -671.000
812.451;  135.325; -379.000; -514.000
812.705;  -32.175; -809.000; -619.000
812.959;   -7.850; -263.000; -388.000
813.213;   -4.875; -283.000; -209.000
813.467;   62.775;  470.000;  253.000
813.721; -100.575; -764.000; -792.000
813.975; -110.025; -826.000; -877.000
814.229;   38.400;  430.000;  353.000
814.482;  -77.500; -517.000; -566.000
814.736; -123.000; -766.000; -744.000
814.990; -127.475; -779.000; -872.000
815.244;  -54.825; -228.000; -285.000
815.497;  -91.200; -636.000; -601.000
815.751;  -31.700; -141.000;   82.000
816.005;  -85.225; -470.000; -586.000
816.258;  -70.025; -510.000; -363.000
816.512; -110.600; -693.000; -610.000
816.766;  -14.350;  121.000;  157.000
817.019;   16.975;  148.000;  149.000
817.273; -128.950;-1000.000; -802.000
817.526;  -36.775; -206.000; -173.000
817.779;  -63.650;-1049.000; -960.000
818.033;  -77.250; -693.000; -807.000
818.286; -128.000; -725.000; -792.000
818.540;  -88.725; -403.000; -403.000
818.793;  -77.800; -402.000; -489.000
819.046;  -96.025; -582.000; -520.000
819.299;  -47.675; -157.000; -166.000
819.553; -115.725; -552.000; -592.000
819.806; -163.075;-1016.000; -838.000
820.059;  -73.950; -334.000; -354.000
820.312;    7.525;  152.000;  185.000
820.565;  -17.100;  110.000;  -27.000
820.818;  -46.125;  -59.000; -173.000
821.071; -163.275;-1041.000; -957.000
821.324; -119.775; -536.000; -540.000
821.577; -104.225; -457.000; -483.000
821.830;  -73.025; -270.000; -172.000
822.083; -120.375; -733.000; -288.000
822.336;  -56.075; -261.000; -167.000
822.589; -137.675; -805.000; -688.000
822.842; -150.750; -875.000; -770.000
823.094; -180.550;-1076.000;-1114.000
823.347; -140.875; -925.000; -729.000
823.600;    9.025;  402.000;  187.000
823.853;  -53.725; -311.000; -267.000
824.105;  -88.050; -331.000; -575.000
824.358; -113.200; -617.000; -716.000
824.611;   18.000;  234.000;   40.000
824.863;  -55.700; -612.000; -591.000
825.116;   34.850;  -33.000;   27.000
825.368;   68.250; -366.000; -372.000
825.621;  149.000; -186.000; -240.000
825.873;   77.950; -704.000; -737.000
826.126;  543.500; -669.000; -641.000
826.378;11231.025; -389.000; -505.000
826.630; 2966.075; -890.000; -898.000
826.883;   55.875; -754.000; -693.000
827.135;   40.925; -279.000; -270.000
827.387; -118.600; -893.000; -839.000
827.639;  -37.975;  -86.000;   32.000
827.892; -127.900; -742.000; -582.000
828.144; -137.475; -848.000; -804.000
828.396;  -34.875;  104.000;  -80.000
828.648; -103.200; -440.000; -333.000
828.900; -162.850; -702.000; -795.000
829.152; -132.700; -684.000; -683.000
829.404;  -70.675; -215.000; -267.000
829.656;  -56.150;  321.000;  214.000
829.908;  -22.475;  393.000;  229.000
830.160; -163.650;-1064.000;-1047.000
830.412;  -93.600; -481.000; -430.000
830.664; -115.425; -557.000; -665.000
830.916;  -79.700; -268.000; -206.000
831.167; -178.025;-1073.000; -951.000
831.419; -120.900; -623.000; -566.000
831.671; -156.325; -764.000; -809.000
831.923;  -89.025; -311.000; -447.000
832.174;  -79.300; -273.000; -331.000
832.426; -128.175; -493.000; -582.000
832.678; -191.475;-1043.000;-1091.000
832.929; -159.625; -947.000; -935.000
833.181;  -79.075; -575.000; -677.000
833.432;  -69.025;  -59.000; -186.000
833.684;  -32.000;  112.000;  -27.000
833.935; -110.400; -610.000; -566.000
834.187; -133.175; -829.000; -823.000
834.438;  -61.825;  -58.000;  -25.000
834.689;  -58.100; -255.000; -123.000
834.941;  -60.675; -343.000; -244.000
835.192; -102.625; -590.000; -533.000
835.443; -100.475; -419.000; -506.000
835.695;  -25.000;  138.000;  -16.000
835.946;  -97.050; -608.000; -378.000
836.197; -109.125; -599.000; -622.000
836.448;  -92.600; -528.000; -395.000
836.699;  -60.950; -253.000; -341.000
836.950;  -10.775;   72.000;    7.000
837.201; -170.000;-1003.000; -987.000
837.452;  -60.250; -356.000; -170.000
837.703; -114.575; -791.000; -737.000
837.954;  -50.100; -205.000; -365.000
838.205;  -94.625;-1029.000;-1008.000
838.456;  150.425; -196.000; -282.000
838.707;   -5.925; -423.000; -519.000
838.958;  -20.450; -634.000; -647.000
839.209;  257.650;   18.000;   40.000
839.460;   89.725; -439.000; -201.000
839.710;  159.325; -135.000; -297.000
839.961;  387.875;  730.000;  612.000
840.212;  306.775; -382.000; -497.000
840.462; 1053.450; -328.000; -277.000
840.713;17315.425; -571.000; -536.000
840.964; 7405.975;  -62.000; -143.000
841.214;  472.400; -384.000; -624.000
841.465;  515.425; -214.000; -141.000
841.715;  463.275; -417.000; -380.000
841.966;  585.000; -746.000; -685.000
842.216; 7831.125; -330.000; -431.000
842.466;31686.300; -169.000; -313.000
842.717; 1880.375; -964.000; -952.000
842.967;  282.950; -635.000; -641.000
843.217;  240.175;   20.000;   28.000
843.468;   57.000; -104.000; -132.000
843.718;  -40.650; -718.000; -726.000
843.968;  -97.050; -837.000; -765.000
844.218;   -4.950; -315.000; -262.000
844.469;  -74.025; -577.000; -561.000
844.719; -102.400; -537.000; -682.000
844.969; -116.350; -550.000; -580.000
845.219; -141.450; -814.000; -862.000
845.469;  -76.975; -392.000; -342.000
845.719; -132.425; -792.000; -884.000
845.969;   -9.925;  119.000;  174.000
846.219; -127.025; -738.000; -720.000
846.469;   20.950;  464.000;  432.000
846.718;  -55.875; -115.000;   31.000
846.968; -135.150; -827.000; -827.000
847.218;  -55.775; -224.000; -371.000
847.468;   -2.200; -586.000; -555.000
847.718; -144.975; -827.000; -798.000
847.967; -135.475; -826.000; -915.000
848.217;  -85.000; -449.000; -569.000
848.467;  -60.125; -405.000; -376.000
848.716;  -99.400; -708.000; -725.000
848.966;   -8.075; -372.000; -358.000
849.215;  -63.275; -428.000; -419.000
849.465;  -88.375; -785.000; -615.000
849.714; -155.425;-1132.000;-1150.000
849.964;  -72.875; -551.000; -613.000
850.213;  -31.425; -393.000; -355.000
850.463;   69.000;  137.000;  340.000
850.712;  -16.400; -542.000; -567.000
850.961;   14.025; -739.000; -678.000
851.211;   75.550; -513.000; -504.000
851.460;  159.175; -635.000; -650.000
851.709;  536.575;  -25.000;   18.000
851.958; 9840.025; -912.000; -750.000
852.208;12880.075; -859.000; -879.000
852.457;  477.675; -181.000;  -13.000
852.706;   57.100; -791.000; -823.000
852.955;   -1.175; -507.000; -528.000
853.204;  -79.650; -521.000; -461.000
853.453;  -84.150; -418.000; -458.000
853.702; -137.425; -660.000; -750.000
853.951; -104.500; -532.000; -520.000
854.200; -130.700; -613.000; -562.000
854.449; -129.025; -695.000; -661.000
854.698; -100.075; -340.000; -279.000
854.946;  -63.025; -181.000; -284.000
855.195; -166.175; -843.000; -868.000
855.444; -103.000; -395.000; -420.000
855.693; -136.725; -345.000; -432.000
855.941; -118.375; -387.000; -516.000
856.190;  -68.700; -256.000; -382.000
856.439; -132.200; -652.000; -703.000
856.687;  -72.375;  -99.000;  -72.000
856.936; -117.675; -621.000; -323.000
857.184; -195.775;-1067.000;-1020.000
857.433; -120.775; -423.000; -512.000
857.681; -172.325; -989.000; -953.000
857.930;  -87.200; -282.000; -433.000
858.178; -165.350; -856.000; -929.000
858.427; -157.800; -802.000; -781.000
858.675; -117.800; -377.000; -544.000
858.923; -119.400; -527.000; -819.000
859.172; -177.175;-1094.000;-1070.000
859.420;  -85.000; -339.000; -239.000
859.668; -131.425; -624.000; -628.000
859.916;  -33.950;  109.000;  115.000
860.164; -122.550; -699.000; -603.000
860.413;  211.975; -878.000; -696.000
860.661;  174.325; -709.000; -577.000
860.909;  -81.575; -339.000; -325.000
861.157;  -96.325; -277.000; -444.000
861.405; -133.750; -534.000; -670.000
861.653;    2.775;  310.000;  310.000
861.901;  122.925; -543.000; -613.000
862.149;  -25.425; -801.000; -824.000
862.396;  -79.225; -297.000; -187.000
862.644; -114.000; -368.000; -347.000
862.892;  -35.200;   98.000;  138.000
863.140; -122.075; -549.000; -530.000
863.388; -159.875; -815.000; -759.000
863.635; -129.050; -642.000; -601.000
863.883;  -25.525;  231.000;  190.000
864.131; -102.875; -288.000; -357.000
864.378; -128.750; -675.000; -540.000
864.626; -116.750; -347.000; -415.000
864.873; -109.450; -556.000; -505.000
865.121; -136.350; -714.000; -799.000
865.368;  -44.125; -173.000;   75.000
865.616;  -39.625;  -33.000;  -40.000
865.863;  -74.450; -462.000; -506.000
866.111; -109.250; -795.000; -824.000
866.358;   35.525; -426.000; -420.000
866.605; 2398.175;  -64.000; -804.000
866.853; 2675.825; -621.000; -537.000
867.100;  -22.825; -728.000; -775.000
867.347; -104.450; -672.000; -611.000
867.594;  -94.700; -740.000; -714.000
867.841;   69.650;   97.000;   17.000
868.089; -157.950; -746.000; -698.000
868.336; -113.025; -477.000; -420.000
868.583; -155.725; -637.000; -741.000
868.830;  -46.875; -131.000; -170.000
869.077; -169.275; -859.000; -787.000
869.324; -136.750; -502.000; -458.000
869.571; -126.925; -398.000; -430.000
869.818; -125.350; -485.000; -439.000
870.065; -113.950; -439.000; -513.000
870.311; -111.475; -456.000; -542.000
870.558; -112.475; -332.000; -311.000
870.805;  -99.975; -320.000; -384.000
871.052; -122.700; -494.000; -369.000
871.298;  -63.150; -204.000; -131.000
871.545;  -73.250; -151.000; -185.000
871.792;  -90.450; -173.000; -222.000
872.038;  -64.450;   43.000; -126.000
872.285; -141.275; -496.000; -387.000
872.532; -105.175; -357.000; -387.000
872.778;   11.625;  556.000;  403.000
873.025; -105.800; -384.000; -359.000
873.271;   17.875;  501.000;  578.000
873.517;  -50.775; -133.000; -209.000
873.764;  -43.075; -193.000;  -80.000
874.010;  -77.200; -143.000; -230.000
874.257;  -51.525;  123.000;   90.000
874.503; -134.975; -579.000; -479.000
874.749;  -76.875;   31.000;  275.000
874.995;  -88.125;  -80.000;  -20.000
875.242; -136.125; -540.000; -478.000
875.488; -122.125; -414.000; -439.000
875.734;  -59.400; -106.000; -234.000
875.980;  128.650; -872.000;-1032.000
876.226;  309.775; -157.000; -255.000
876.472;   -9.950;  343.000;  237.000
876.718;  -40.225;  184.000;  158.000
876.964;  -49.900;   56.000;   55.000
877.210; -147.350; -547.000; -677.000
877.456; -148.475; -630.000; -557.000
877.702; -176.025; -821.000; -832.000
877.948; -125.400; -377.000; -497.000
878.193;    5.525;  361.000;  255.000
878.439; -109.050; -487.000; -472.000
878.685; -109.500; -272.000; -343.000
878.931; -148.675; -618.000; -676.000
879.176;  -90.775; -201.000; -201.000
879.422; -180.800; -933.000; -820.000
879.668;   49.250;   10.000;   79.000
879.913;   98.975;   53.000;  137.000
880.159;  -64.825; -112.000;  -17.000
880.404;  -64.725; -152.000; -162.000
880.650;  -46.850;   91.000;  141.000
880.895; -167.125; -670.000; -710.000
881.141; -134.475; -454.000; -428.000
881.386; -147.400; -503.000; -658.000
881.631;  -75.800; -311.000; -166.000
881.877;  -43.675;  112.000;  -13.000
882.122; -134.175; -684.000; -600.000
882.367;  -96.950; -136.000; -186.000
882.612;  -74.600;  -80.000; -176.000
882.858; -186.975; -877.000; -823.000
883.103;  -97.925; -297.000; -267.000
883.348; -156.425; -759.000; -852.000
883.593; -154.150; -677.000; -602.000
883.838;  -59.400; -311.000;  -24.000
884.083;   11.000;  353.000;  288.000
884.328; -104.825; -564.000; -545.000
884.573;  -63.125; -196.000; -143.000
884.818;  134.125; -694.000; -531.000
885.063;  154.075; -348.000; -315.000
885.308; -105.025; -475.000; -398.000
885.553;   -5.225;  245.000;  325.000
885.797; -130.800; -545.000; -615.000
886.042;  -70.275;    8.000;   58.000
886.287;  -86.925; -253.000; -211.000
886.532;  -46.400;   26.000;  204.000
886.776; -102.625; -407.000; -525.000
887.021; -146.075; -621.000; -574.000
887.265; -168.725; -685.000; -689.000
887.510; -123.825; -557.000; -496.000
887.755;  -97.575; -194.000; -164.000
887.999; -141.475; -552.000; -575.000
888.244;  -53.675;  -58.000;  161.000
888.488;  -12.675;  371.000;  393.000
888.732; -139.550; -368.000; -520.000
888.977; -134.375; -622.000; -567.000
889.221; -165.100; -683.000; -659.000
889.465; -128.325; -422.000; -566.000
889.710;  -89.800;  -56.000; -299.000
889.954;   -2.275;  579.000;  467.000
890.198; -149.200; -584.000; -707.000
890.442; -145.550; -716.000; -712.000
890.687; -173.075; -800.000; -753.000
890.931;  -98.900; -273.000; -210.000
891.175; -142.000; -502.000; -500.000
891.419;  -82.500; -105.000; -110.000
891.663;  -88.025; -239.000; -112.000
891.907; -168.300; -801.000; -545.000
892.151; -184.075; -920.000; -815.000
892.395; -116.450; -274.000; -387.000
892.638;  -21.150;  408.000;  291.000
892.882; -186.050; -780.000; -867.000
893.126;   15.025;  758.000;  558.000
893.370;  -89.450; -167.000; -168.000
893.614; -156.125; -714.000; -715.000
893.857; -114.250; -183.000; -197.000
894.101; -141.000; -527.000; -631.000
894.345;  -76.400;  300.000;  150.000
894.588;    3.650;  569.000;  380.000
894.832;  -78.375; -178.000;  -84.000
895.075;  -81.200;   15.000;  -92.000
895.319; -128.275; -552.000; -420.000
895.563; -121.850; -413.000; -353.000
895.806; -157.650; -628.000; -741.000
896.049;  -84.425; -576.000; -368.000
896.293;   74.800;  527.000;  405.000
896.536;  -87.875; -465.000; -468.000
896.779;  -67.725; -149.000;   -1.000
897.023; -138.750; -751.000; -714.000
897.266;  -37.250;  325.000;  269.000
897.509; -182.000; -900.000; -901.000
897.752;  -42.925;  149.000;  171.000
897.996; -192.975; -972.000; -864.000
898.239;  -52.275;  168.000;  102.000
898.482; -116.500; -431.000; -453.000
898.725;  -41.350;  101.000;   53.000
898.968; -163.900; -609.000; -744.000
899.211; -119.475; -513.000; -361.000
899.454; -135.375; -633.000; -539.000
899.697;  -84.975;   90.000;  -43.000
899.940; -158.125; -761.000; -757.000
900.182;  -98.125; -335.000; -405.000
900.425; -100.475; -150.000; -298.000
900.668;  -31.175;  491.000;  350.000
900.911; -111.550; -292.000; -345.000
901.154;  -53.550;  141.000;   -3.000
901.396; -165.025; -407.000; -412.000
901.639; -137.450; -430.000; -496.000
901.882; -187.100; -790.000; -809.000
902.124;  -86.250;  -29.000; -143.000
902.367; -121.125; -315.000; -361.000
902.609; -133.475; -476.000; -453.000
902.852;  -87.400; -108.000; -260.000
903.094; -133.775; -458.000; -337.000
903.337;  -73.150;  -26.000;   53.000
903.579; -119.775; -228.000; -441.000
903.821; -157.100; -597.000; -744.000
904.064;  -61.575;   85.000;  127.000
904.306;  -94.950; -126.000; -166.000
904.548; -118.275; -152.000; -366.000
904.790; -101.600; -195.000; -340.000
905.033; -133.025; -625.000; -577.000
905.275; -139.125; -513.000; -524.000
905.517;   25.600;  468.000;  256.000
905.759;  -91.625; -667.000; -761.000
906.001;  -97.400; -322.000; -369.000
906.243;  -82.600; -162.000; -224.000
906.485;   72.225; -265.000; -207.000
906.727;   83.325; -499.000; -542.000
906.969;  -34.450;  -30.000; -135.000
907.211;   93.925; -316.000; -382.000
907.453;  214.875; -188.000; -237.000
907.695;  -14.100; -158.000; -385.000
907.936;   21.525;  818.000;  706.000
908.178;  -71.125;   92.000; -135.000
908.420;  -78.400; -111.000; -162.000
908.662; -137.950; -633.000; -682.000
908.903;  -91.125; -208.000; -123.000
909.145;  -60.850; -240.000; -305.000
909.386;   -1.175;  315.000;  280.000
909.628;   37.400;  363.000;  397.000
909.870;    1.475;   29.000;  264.000
910.111; -103.750; -809.000; -949.000
910.353;    5.775; -123.000; -161.000
910.594;   -8.675; -574.000; -606.000
910.835;   81.150; -265.000; -326.000
911.077;  123.175; -503.000; -604.000
911.318;  265.725; -505.000; -471.000
911.559;  448.175; -577.000; -880.000
911.801; 1257.950; -284.000; -280.000
912.042; 9824.200;  -50.000; -159.000
912.283;26580.850;  404.000;  371.000
912.524; 4276.275; -396.000; -457.000
912.765;  458.000; -193.000;   79.000
913.006;  235.425; -307.000; -338.000
913.247;   38.250; -270.000; -290.000
913.488;  -18.225;  -43.000;   30.000
913.729;  -99.750; -373.000; -373.000
913.970;  -67.950;  -96.000; -292.000
914.211;  -74.650; -160.000; -198.000
914.452;  -78.425; -118.000;  -11.000
914.693;    4.975;  510.000;  592.000
914.934;  -10.400;  510.000;  440.000
915.175;  -77.375;   53.000;  -95.000
915.415;  -83.200; -137.000;   27.000
915.656;  -63.975;  -28.000;  192.000
915.897;  -87.825; -252.000;  -82.000
916.137;  -84.400;   74.000;   -9.000
916.378; -138.825; -573.000; -517.000
916.619;  -94.750; -159.000;  -63.000
916.859;  -28.000;  303.000;  330.000
917.100;  131.875; 1655.000; 1070.000
917.340;   44.050;  930.000;  728.000
917.581;   40.125;  965.000;  789.000
917.821;  -44.950; -171.000;  143.000
918.061;   -5.900; -199.000;  -72.000
918.302;  -62.100; -152.000; -211.000
918.542;  -30.875;  -22.000;    3.000
918.782;   30.700;  369.000;  377.000
919.023;  119.425;  360.000;  427.000
919.263; 1687.025; 8131.000;  202.000
919.503; 1056.125; -137.000;  -54.000
919.743;  572.850;  390.000;  266.000
919.983;  245.675; -134.000;  -26.000
920.223;   73.675;  135.000;   14.000
920.463;  134.300;  631.000;  554.000
920.703;  140.350;   84.000;   39.000
920.943;  191.175; -110.000;   90.000
921.183;  232.375; -414.000; -405.000
921.423;  514.500;  307.000;  546.000
921.663;  726.675; -174.000; -257.000
921.903; 1563.675;  237.000;  173.000
922.143; 8607.925;  372.000;  389.000
922.383;34227.250;  158.000;  115.000
922.622;12229.575; -120.000;  -15.000
922.862; 1285.725;  796.000;  785.000
923.102;  470.850;  -51.000;   33.000
923.341;  195.450;   59.000;   74.000
923.581;  101.400;  450.000;  360.000
923.821;   16.175;  301.000;  398.000
924.060;   -6.725;  351.000;  193.000
924.300;  -55.975;  -16.000; -128.000
924.539;  -25.925;  584.000;  473.000
924.779;   13.775;  812.000;  597.000
925.018;  -58.000;  247.000;  353.000
925.257;  -10.100;  595.000;  666.000
925.497;  -32.525;  447.000;  412.000
925.736;  -75.900;  -35.000;  102.000
925.975;    5.550;  687.000;  669.000
926.214;   15.000;  907.000;  850.000
926.454;   13.800;  706.000;  757.000
926.693;  -46.000;  419.000;  543.000
926.932;   46.775; 1021.000;  825.000
927.171;   60.850; 1107.000; 1044.000
927.410;   45.450; 1144.000;  967.000
927.649;   13.975;  924.000;  742.000
927.888;  -16.875;  590.000;  564.000
928.127;   -5.500;  680.000;  678.000
928.366;   23.925;  842.000;  826.000
928.605;   32.275;  831.000;  737.000
928.844;  215.900; 1451.000; 1393.000
929.083;  569.075;  770.000;  613.000
929.321;  298.900; 1335.000; 1359.000
929.560;   72.825; 1158.000; 1122.000
929.799;  -30.425;  574.000;  475.000
930.038;   64.800; 1025.000; 1394.000
930.276;  -52.150;  334.000;  397.000
930.515;  -13.575;  827.000;  681.000
930.753;   -4.025;  614.000;  589.000
930.992;  -35.100;  664.000;  717.000
931.230;   -1.925;  847.000;  847.000
931.469;  157.325; 2162.000;  892.000
931.707;   75.575;  840.000;  751.000
931.946;   55.400; 1278.000; 1344.000
932.184;   47.150; 1437.000; 1175.000
932.423;   47.400; 1265.000;  963.000
932.661;   71.725; 1296.000; 1428.000
932.899;   11.700;  987.000;  821.000
933.137;    7.500;  754.000;  564.000
933.376;  125.150; 1664.000; 1335.000
933.614;  150.275; 1759.000; 1196.000
933.852;   50.400; 1357.000; 1171.000
934.090;  129.275; 1722.000; 1747.000
934.328;  126.050; 1252.000; 1457.000
934.566;  100.300; 1431.000; 1110.000
934.804;  139.275; 1263.000; 1309.000
935.042;  489.425; 1861.000; 1850.000
935.280; 2000.700; 2088.000; 2063.000
935.518; 1952.200; 2113.000; 2007.000
935.756;  407.450; 2481.000; 2316.000
935.994;  157.850; 1808.000; 1751.000
936.231;  338.100; 2890.000; 2950.000
936.469;  186.175; 2367.000; 2378.000
936.707;  159.000; 2220.000; 2167.000
936.945;  229.050; 2825.000; 2882.000
937.182;  209.975; 2679.000; 2741.000
937.420;  291.150; 3602.000; 3031.000
937.657;  402.975; 3365.000; 3478.000
937.895;  339.950; 3331.000; 3488.000
938.133;  310.350; 3540.000; 3528.000
938.370;  332.425; 3896.000; 4191.000
938.607;  405.325; 4488.000; 4205.000
938.845;  545.400; 5587.000; 5549.000
939.082;  480.750; 5387.000; 5177.000
939.320;  522.400; 5799.000; 5728.000
939.557;  635.075; 6549.000; 6491.000
939.794;  721.225; 7285.000; 7097.000
940.031;  889.500; 8421.000; 8368.000
940.269; 1079.850; 9552.000; 9107.000
940.506; 1102.950;10901.000;10507.000

