
Integration time [ms]: 200.000
Averaging Nr. [scans]: 10
Smoothing Nr. [pixels]: 0
Data measured with spectrometer [name]: 2101013U2
Wave   ;Sample   ;Dark     ;Reference
[nm]   ;[counts] ;[counts] ;[counts] 

394.013;   85.718; -450.257; -315.536
394.305;  388.715; -461.258; -419.536
394.596; 1918.961; -676.269; -527.514
394.887; 4704.186; -796.268; -654.518
395.178; 1874.031;  145.736;   11.476
395.470;  141.548; -210.263; -356.526
395.761;  402.808;  305.734;  394.479
396.052;  589.373; -545.284; -306.489
396.343;  591.978; -557.276; -454.503
396.634;  178.531; -200.279; -290.497
396.926;  166.382; -618.268; -565.517
397.217;  207.384;   11.725;  -17.504
397.508;   51.308; -366.273; -154.507
397.799;   56.831; -555.279; -571.497
398.090;  -23.778; -973.280; -902.495
398.381;  214.260;   11.708;  -11.473
398.672;  -39.438; -585.292; -742.473
398.963;   28.040; -348.279; -373.498
399.254;  167.576;   54.709; -209.475
399.545; -121.397;-1017.266; -883.520
399.836;  101.961; -407.277; -343.501
400.127;   96.825; -205.295; -209.468
400.418;  103.200; -423.274; -392.506
400.709;   67.603; -359.281; -333.493
401.000;   71.382; -268.291; -309.476
401.290;  196.130;  225.698;  115.545
401.581;  126.847; -166.286; -228.485
401.872;   26.883; -542.298; -486.462
402.163;   68.314; -313.296; -252.467
402.454;  145.077; -123.291; -163.475
402.744;   77.100; -844.297; -813.465
403.035;  615.747; -226.293;  -86.471
403.326;  793.366; -366.292; -384.474
403.617;  591.574;  204.701;  165.539
403.907;  391.781; -593.283; -679.490
404.198; 4086.261; -545.307; -599.446
404.489;10487.589; -618.283; -588.491
404.779; 3536.535; -618.302; -660.456
405.070;  380.103;  -67.304; -174.451
405.360;  574.850; -259.293; -238.472
405.651;  631.952;  125.699;   98.542
405.942;  346.040;  209.714;  127.516
406.232;  407.562; -432.285; -413.487
406.523;  831.539;  641.706;  758.530
406.813;  140.943; -579.286; -644.484
407.104;  560.959;  261.708;  144.527
407.394;  233.376; -604.299; -591.462
407.685;  323.460;  336.715;  222.513
407.975;  100.187; -400.283; -382.490
408.265;  179.098; -134.289; -190.478
408.556;   94.272; -472.291; -459.475
408.846;  313.741;  474.706;  429.530
409.137;  145.411;   -1.288; -216.480
409.427;   83.561; -193.285; -271.487
409.717;   19.113; -776.273; -692.508
410.007;  262.652;    4.715; -170.486
410.298;  151.029; -360.295; -342.469
410.588;  112.457; -495.285; -510.486
410.878;   36.828; -792.287; -873.482
411.168;  149.186; -481.298; -478.463
411.459;  185.479; -295.283; -242.489
411.749;   75.870; -609.292; -507.474
412.039;   89.008; -755.289; -386.480
412.329;  364.151;   40.722;  132.501
412.619;  344.844;  -62.286; -148.485
412.909;  618.603;  639.711;  594.521
413.199;  524.223; -130.280; -251.495
413.490;  697.788;  521.710;  352.523
413.780;  172.829;-1013.279; -913.496
414.070;  580.979;  -46.276;  235.497
414.360;  575.645; -729.278; -666.498
414.650;  636.522; -726.288; -688.482
414.940;  833.428; -538.280; -441.496
415.230; 1537.017;   50.712;   74.519
415.520;10766.359;  155.730;   66.486
415.809;40717.402; -305.281; -125.493
416.099;32094.465; -388.277; -229.501
416.389; 8802.897;  435.726;  236.494
416.679; 5335.354;   91.738;   85.473
416.969;  920.234; -527.287; -503.483
417.259; 1046.731;  341.721;  171.503
417.549; 1190.200;  522.718;  318.508
417.838; 2908.085; -205.268; -147.518
418.128; 9279.796;  650.710;  492.522
418.418; 7814.523; -491.272; -579.509
418.708; 5381.297;    9.726;  -48.506
418.997;19740.491; -474.275; -480.505
419.287;20737.507; -733.273; -790.507
419.577;19942.578; -160.283; -123.489
419.866;62311.062; -588.277; -498.501
420.156;63445.353; -242.270;  -55.513
420.446;12176.542; -112.263;  -26.526
420.735; 1470.944; -376.271; -446.512
421.025; 1534.644; 1830.722;  315.502
421.314; 1075.342; -203.271; -226.512
421.604; 2120.874;   89.732;  233.484
421.893; 1176.636; -705.271; -602.511
422.183;  353.643; -487.263; -461.526
422.472;  671.138;  -36.271; -107.511
422.762;  768.412; -416.266; -379.521
423.051;  366.080; -916.276; -916.503
423.341;  453.610; -491.273; -439.507
423.630;  679.621; -121.265;   15.477
423.919;  628.989;   58.725;   49.495
424.209;  641.751;  -31.263;   56.473
424.498;  807.981;   68.732;  161.483
424.787; 1850.691; -535.267; -601.518
425.077; 5533.318;   34.735;   29.478
425.366; 7479.659; -734.262; -744.528
425.655;16661.311;  639.727;  259.493
425.945;35927.153; -313.247; -268.554
426.234;20758.693;  117.741;  300.467
426.523; 8559.201;  -86.259; -350.534
426.812;11844.506;  107.734;  159.480
427.101;17504.069; -127.269; -323.515
427.390;21421.559;  -55.270;  -86.514
427.680; 4590.930; -624.257; -411.538
427.969;  757.247; -330.255; -301.540
428.258;  523.518; -385.257; -477.536
428.547;  923.129;  449.728;  397.490
428.836; 1782.171; -421.253; -398.543
429.125; 2628.004; -199.259;  -72.534
429.414; 1236.105; -330.251; -294.548
429.703; 5439.705; -231.251; -213.548
429.992;15480.710; -938.250; -828.549
430.281;10512.932; -397.264; -331.524
430.570; 1072.291;  -21.252;   32.454
430.859;  922.100;  279.741;  352.466
431.148;  831.946;  636.752;  631.446
431.437;  523.990;  391.748;  367.454
431.725;  243.420; -544.257; -481.536
432.014;  144.482; -845.253; -756.545
432.303;  614.860; -149.239; -105.569
432.592;  937.842; -460.263; -178.525
432.881; 1748.048; -601.248; -437.554
433.169;10529.148; -343.255;  -61.540
433.458;20939.611;  445.765;  540.424
433.747; 8956.168; -397.261; -289.529
434.036; 1456.724; -275.242; -280.564
434.324; 3443.029; -395.249; -379.551
434.613; 6084.814;   40.757;  159.437
434.902; 2136.145;  333.760;  439.433
435.190;  879.958;   75.761;  295.431
435.479;  554.987;  -52.245;   83.441
435.767;  160.699; -411.244; -427.561
436.056;  341.417; -340.242; -294.563
436.345;  590.449; -372.240; -223.568
436.633;  694.622;   60.750;  383.450
436.922;  454.452;  208.760;  414.432
437.210;  836.896; -194.236;    1.426
437.499; 2508.108; -583.235; -432.576
437.787; 2944.695; -339.236;  -10.574
438.075;  812.566;   56.761;  162.430
438.364; 1036.170;  -44.238;  250.429
438.652;  649.127; -286.226; -138.592
438.941;  231.373;    3.770;  269.415
439.229;    5.186; -665.252; -466.545
439.517;   55.520; -160.234;  -85.577
439.806;  -38.149; -501.225; -290.595
440.094;  335.132;  377.766;  650.421
440.382;  239.137; -653.233; -302.580
440.670;  272.607; -361.235; -285.576
440.959;   45.077; -347.223; -170.599
441.247;  106.490; -151.229; -109.587
441.535;  148.118; -266.235;   31.423
441.823;   51.428; -497.234; -305.578
442.111;  314.997;  173.771;  327.412
442.400;  726.186; -628.245; -335.559
442.688; 1927.931; -111.234; -620.579
442.976; 1308.108; -786.213; -450.617
443.264;  137.461; -324.224; -364.597
443.552;  151.329; -258.226;   51.408
443.840;  350.816;  602.765;  876.423
444.128;  201.436;  265.767;  269.420
444.416;  -11.499; -694.228; -312.588
444.704;   51.921; -465.219;  -92.605
444.992;  127.333;   -0.226;  240.407
445.280;   27.774; -517.230;  -94.585
445.568;   32.014; -694.212; -396.618
445.856;  477.497; -174.221;  357.398
446.143; 1019.316;  -54.220;   -7.604
446.431;  926.206;  -25.228;  625.411
446.719;  445.350;  489.783;  675.391
447.007;  367.366;  481.769;  705.416
447.295;  310.872;  597.777;  871.402
447.583;  125.787; -464.229;  -34.587
447.870;  234.993; -434.221; -202.601
448.158;  634.172; -104.230;  129.415
448.446;  397.817; -800.219; -338.604
448.733;  299.163;   13.776;  269.403
449.021;  417.713;   60.788;  341.382
449.309;  318.636; -296.210;  208.379
449.596;  354.944;  128.783;   59.392
449.884;  218.683; -571.222; -325.600
450.172;  227.014; -756.227; -406.590
450.459;  792.383;  645.786;  780.387
450.747; 3984.542; -411.218; -147.608
451.034;12598.408;  493.772;  889.411
451.322;10439.388; -413.214; -170.614
451.609;  940.265;  292.777;  508.403
451.897; 1030.930; -550.203; -183.634
452.184; 2961.873; -622.223; -400.598
452.472; 2913.467;   97.792;  269.375
452.759;  644.818;  512.781;  864.395
453.047;  134.009; -407.212; -125.617
453.334;  115.030; -732.219; -216.606
453.621;  121.791; -438.214; -161.615
453.909;  212.418;   13.796;  384.368
454.196;  165.686; -299.199; -123.641
454.483;  363.449;  317.798;  540.364
454.771;  193.372; -215.208;  196.374
455.058;  106.977; -316.207;  102.374
455.345;  192.968;   71.807;  344.347
455.632;  166.082; -128.207;  235.373
455.919;   70.519;  -82.196;  182.354
456.207; -138.608; -774.198; -450.642
456.494;   -6.233; -475.200;  -66.639
456.781;   12.643; -399.202; -198.635
457.068;   65.892; -253.206;  -29.628
457.355;  -73.807; -698.206; -401.629
457.642;  -31.699; -552.205; -290.630
457.929;    4.955; -778.194; -417.651
458.216;   85.210; -575.212; -354.617
458.503;  398.962; -173.193;  -19.652
458.790;  319.469; -864.208; -630.625
459.077;  456.150;  -77.202;  110.364
459.364; 1394.644; -350.195; -210.649
459.651; 2727.488;  -46.206;  220.372
459.938; 1288.554; -864.209; -665.623
460.225;  256.955;  132.799;  276.363
460.512; -114.585; -836.197; -688.645
460.799;  166.340;  -32.218;  320.392
461.086;  112.374; -370.200; -251.640
461.372;   43.693; -509.198; -279.642
461.659;  177.221; -165.196;  108.354
461.946;   72.460; -445.193;  -54.651
462.233;  470.171;  842.800;  888.361
462.519;  578.966; -814.201; -464.639
462.806; 1591.416; -768.197; -497.645
463.093; 1420.191; -445.191;  -66.656
463.380;  -64.647; -920.186; -824.664
463.666;   98.819; -259.197;  -18.646
463.953;  141.737; -406.195; -243.648
464.239;  336.837; -173.195;  -77.648
464.526;  696.553;  413.806;  743.350
464.813;  513.908; -565.190; -304.658
465.099;  552.961;  606.807;  607.348
465.386;  598.367;  903.807;  921.348
465.672;   21.316; -694.197; -522.645
465.959;   26.835; -598.188; -520.662
466.245;   19.167; -468.193; -359.652
466.532;  171.533; -109.195;   63.352
466.818;  113.952; -357.186; -216.664
467.104;  -11.988; -488.182; -415.672
467.391;  -32.089; -628.189; -459.658
467.677;   37.558; -289.186;    9.335
467.964;    3.121; -682.189; -471.660
468.250;  129.262; -331.186; -160.665
468.536;  150.413;   90.811;  180.341
468.822;  -66.921; -821.184; -574.668
469.109;  303.733;  351.827;  471.311
469.395;  366.682;  729.808;  787.346
469.681;  345.917;   46.811;  156.341
469.967; 2099.224; -699.188; -382.660
470.254; 4354.336; -494.188; -306.662
470.540; 2880.319; -601.196; -476.646
470.826;  409.929; -488.181; -397.675
471.112;  526.985;  288.816;  113.331
471.398;  146.092; -253.183;  -58.670
471.684;   41.771; -626.177; -447.680
471.970;  -65.665; -918.180; -981.675
472.256;   50.580; -521.192; -441.654
472.542;   10.950; -499.171; -434.691
472.828;    8.106; -743.182; -607.672
473.114;   52.315; -380.166; -283.700
473.400;   15.896; -504.175; -293.684
473.686;   51.924; -452.166; -400.701
473.972;  104.218; -230.174; -131.687
474.258; -104.467; -925.173; -843.689
474.544;  358.659; -183.178;   -2.679
474.830;  506.399;  -65.175;   45.316
475.116;  809.110; -123.190; -196.658
475.401; 1075.338; -558.180; -467.676
475.687;  304.837; -725.180; -718.676
475.973;   -8.482; -673.181; -770.673
476.259;  478.302;  736.825;  764.315
476.544;  554.683; -539.176; -437.682
476.830; 1310.144; -398.172; -322.690
477.116; 1195.681; -430.177; -336.682
477.401;  268.937;  346.820;  358.324
477.687;  -45.304; -289.175; -405.684
477.973;   71.123;   21.819;   28.326
478.258;  -33.645; -448.163; -348.706
478.544;   97.069;   21.815;   61.334
478.829; -117.142; -818.171; -738.692
479.115;  -83.757; -749.172; -651.690
479.401;  -24.289; -444.174; -449.686
479.686;   62.536; -253.180;  -74.676
479.972;  -87.133; -886.178; -776.680
480.257;   53.717; -258.166;  -65.700
480.542;   -6.836; -614.170; -469.693
480.828;  478.094; 1288.824; 1392.317
481.113;  -56.510; -464.176; -426.683
481.399;  -10.610; -236.161; -202.711
481.684;  -98.084; -620.166; -462.700
481.969;   51.110; -158.159;  -73.713
482.255;  -20.920; -439.169; -285.695
482.540;   -7.733; -569.178; -441.680
482.825;    3.745; -395.187; -404.663
483.110;  187.184;  -85.169; -105.696
483.396;  312.343; -840.157; -652.718
483.681;  831.718;  543.826;  730.313
483.966;  225.501; -696.160; -700.712
484.251;  -28.683; -404.174; -310.687
484.536;  -10.968; -356.165; -378.703
484.822;   12.321; -205.173; -218.687
485.107;  -86.200; -599.152; -502.726
485.392;  249.341;  662.836;  541.296
485.677;  145.699;  354.832;  163.302
485.962;  196.839;  160.843;  270.283
486.247;  145.767;  -14.162;   -8.707
486.532;   79.419; -178.166; -325.701
486.817;  296.182;  381.839;  431.291
487.102;  208.874; -453.154; -514.722
487.387; 1096.646; -637.156; -652.718
487.672; 1951.048; -154.164;  -38.705
487.957; 1224.193; -394.160; -286.711
488.241;  307.325; -290.150; -314.729
488.526; 1219.202; -280.152; -148.726
488.811; 1874.670; -881.177; -818.680
489.096; 1487.178; -666.154; -702.723
489.381;  825.196;    3.847;  162.275
489.666;  609.490; -428.161; -510.710
489.950;  379.083;  558.846;  627.277
490.235;  -62.183; -480.151; -458.728
490.520;  -90.012; -756.161; -723.710
490.804; -113.052; -827.156; -736.719
491.089;   -2.852; -469.149; -299.732
491.374;   90.246; -132.164;  -75.704
491.658;  -34.334; -817.147; -717.735
491.943;  229.108; -657.152; -609.727
492.227;  383.568; -178.155;  -38.721
492.512;   83.338; -294.157; -341.717
492.797; -144.761; -713.149; -716.731
493.081; -106.330; -588.147; -598.735
493.366; -127.809; -751.161; -635.711
493.650;  380.249;  831.859;  917.254
493.935;    5.065; -648.147; -447.734
494.219;  -81.270; -778.142; -687.743
494.503; -102.868; -585.150; -487.730
494.788;   85.326;   46.842;   74.285
495.072;  175.827;  184.850;  434.271
495.356;  279.953; -463.148; -343.733
495.641;  650.780; -812.146; -736.736
495.925;  600.956; -976.156; -903.719
496.209;   43.648; -599.149; -451.732
496.494;  -91.869; -763.142; -544.744
496.778;   26.775; -364.154; -360.722
497.062; -126.345; -819.156; -627.719
497.346;  -83.305; -869.160; -640.711
497.631;  312.359;  580.852;  560.266
497.915;  126.795;  -64.145;  175.261
498.199;   70.143; -341.157; -277.718
498.483;   30.699; -562.152; -508.725
498.767;  371.829;  301.850;  300.271
499.051;  299.844; -126.149; -100.732
499.335;   57.241; -693.149; -739.731
499.619;  -57.499; -381.129; -423.767
499.903;   26.266; -272.155;  -65.721
500.187;    3.885; -588.153; -316.724
500.471;   11.307; -796.152; -595.727
500.755;  196.589;   62.839;  -96.710
501.039;   21.967; -270.155; -357.721
501.323;  151.852;  -21.141;  264.254
501.607;   52.255; -447.163; -503.706
501.891;  -33.255; -607.156; -512.718
502.174;  -68.288; -726.144; -585.741
502.458;  153.813;   89.849;  370.273
502.742;   83.888; -180.138; -191.751
503.026;  182.564; -412.147; -254.734
503.310;  264.209; -437.159; -375.713
503.593;  214.967; -464.147; -325.735
503.877;  204.548; -232.133; -156.760
504.161;  276.889;    2.847;  -50.724
504.444;  119.529; -841.158; -710.716
504.728;  732.345; -487.164; -522.704
505.012; 1112.724; -257.150;  -76.729
505.295;  902.790; -417.161; -212.711
505.579;  832.255; -256.156; -496.719
505.862; 1224.190; -555.145; -333.738
506.146; 1184.012; -681.159; -758.714
506.429;  727.313;  568.841;  461.286
506.713;   91.319; -732.151; -667.728
506.996;  495.874;   90.846;  295.278
507.280;  547.138; -633.165; -474.703
507.563;  372.864; -469.155; -261.721
507.847;  153.486; -423.153; -112.724
508.130;  115.192; -665.161; -456.711
508.413;  162.510; -758.167; -577.700
508.697;  441.511; -151.167;   12.300
508.980;  206.488; -422.153; -312.724
509.263;   11.159; -466.155; -450.720
509.547;   76.323; -124.150;   82.271
509.830;  102.795; -172.160;  140.289
510.113;  169.755;  128.844;  298.281
510.396;   22.897; -530.152; -300.725
510.680;  158.992; -818.145; -812.738
510.963;  852.880;  184.846;  180.277
511.246;  717.835; -493.150; -357.730
511.529;  404.499; -482.145;  -83.739
511.812;  593.243; -250.134;   10.241
512.095;  418.515; -740.151; -396.728
512.378;   94.073; -317.147; -245.736
512.661;   28.799; -703.137; -623.753
512.944;   20.133; -750.142; -637.744
513.227;  108.695; -170.137; -171.752
513.510;   26.212; -479.144; -671.741
513.793;  -14.542; -485.140; -435.747
514.076;  241.932;  -43.127;  -39.771
514.359;  152.349; -294.149; -135.732
514.642;  111.738; -442.142; -567.744
514.925; 1330.056;  581.860;  561.253
515.208; 1538.837; -498.134; -443.758
515.491; 1081.458; -276.133; -182.761
515.773;  610.917; -410.143; -337.742
516.056; 3493.908;  249.864;  409.246
516.339; 4384.814; -754.136; -652.755
516.622; 2925.131; -518.150; -488.730
516.904; 1825.528;  882.857;  975.257
517.187;  773.393; -730.138; -523.752
517.470;  660.426; -568.143; -510.743
517.752;  687.819; -624.136; -470.756
518.035;  534.074; -708.139; -725.749
518.318;  598.414; -799.136; -744.755
518.600; 3954.263; -300.132; -325.762
518.883; 5324.437;  310.858;   88.256
519.165; 2701.282; -585.138; -426.751
519.448;  615.463;  -61.132;  -19.762
519.730;  253.843; -573.126; -415.773
520.013;  499.452;  588.867;  664.240
520.295; 1166.545;  -94.134;  -15.759
520.578; 2507.382; -335.131; -305.764
520.860; 2911.563; -254.132;   56.238
521.143; 1539.022; -763.135; -584.756
521.425;  754.262; -251.125; -279.775
521.707; 1091.232; -622.127; -380.771
521.990; 2937.633; -199.127;  167.229
522.272; 3229.161; -116.140;   -4.748
522.554; 1472.119; -237.143; -157.742
522.836;  533.242;  -24.134;   99.241
523.119;  311.562; -496.148; -189.734
523.401;  210.793; -448.130; -314.766
523.683;  103.200; -865.137; -693.753
523.965;  505.490;  408.862;  260.248
524.247;  471.694;   54.878;  170.220
524.529;  288.245; -451.134; -367.759
524.812;  592.695;   -3.130;  191.234
525.094; 1336.289; -773.138; -631.751
525.376; 2165.076; -143.124;   78.223
525.658; 1337.310; -441.136; -339.754
525.940;    8.077; -805.131; -671.764
526.222;   30.616; -188.136;  -88.755
526.504;  156.374; -190.131;   32.237
526.786;  203.749; -960.133; -647.760
527.068;  458.884; -124.123;  -67.778
527.349;  107.605; -865.137; -774.754
527.631;  192.462; -137.132;   22.238
527.913;  191.831; -664.127; -450.771
528.195;  240.052; -761.125; -639.774
528.477;  403.637;  -93.134;  -30.758
528.759;  188.195; -648.130; -522.766
529.040;   74.382; -569.123; -293.778
529.322;   80.256; -235.125;  -10.774
529.604;  241.098;  -47.130;   93.233
529.886;  162.542; -546.126; -302.773
530.167;  179.586;  232.870;  192.235
530.449;   91.272;    1.853;   63.265
530.731;    7.693; -572.122; -459.779
531.012;   83.524; -513.120; -216.784
531.294;  105.582; -118.116;  -43.792
531.575;  300.862;  290.875;  538.225
531.857;   42.030; -548.135; -266.757
532.138;  228.050; -113.141;   40.254
532.420;  283.424;  294.865;  403.244
532.701;  258.452; -722.133; -751.760
532.983;  478.657;  232.867;  182.239
533.264;  203.239; -243.126;  175.228
533.546;  -63.185; -491.136; -508.755
533.827;  120.347;  173.867;   -1.759
534.109;   47.330; -352.135;  -80.757
534.390;  116.169; -725.132; -582.762
534.671;  373.724; -270.135;  -82.756
534.953;  177.386; -751.123; -611.779
535.234;   62.260; -426.117; -255.789
535.515; -149.264; -891.119; -735.785
535.796;  -11.075; -431.128; -193.770
536.078; -237.425;-1050.124; -904.777
536.359;   27.687;  -22.123;    3.221
536.640;  -21.446; -480.125; -197.774
536.921;  304.706;  225.871;  143.232
537.202;  576.784;  -87.138;  -16.751
537.483;  781.681;  251.869;  377.236
537.764;  310.086;   17.870;   98.235
538.045;  -87.964; -543.134; -371.758
538.326;  -70.091; -596.129; -447.768
538.607;   -7.066; -686.127; -476.771
538.888;  292.810;   98.879;    5.218
539.169;  280.002; -704.122; -535.781
539.450;  544.805;  236.871;   16.233
539.731;  341.316; -361.121; -182.783
540.012;  213.524;  199.880;  412.216
540.293;  162.467;   82.876;  158.224
540.574;  -39.387; -895.113; -717.796
540.855;  731.514;  435.879;  377.218
541.136;  824.898;   47.878;  139.220
541.416;  431.696; -161.130; -220.766
541.697;  343.075; -274.131; -170.763
541.978; 1689.927; -270.135; -315.757
542.259; 2052.733; -211.127; -236.771
542.539; 1008.973; -191.116; -186.790
542.820;  368.762;  461.875;  480.225
543.101;  230.994;  -52.145;  -77.738
543.381;   -2.767; -638.127; -591.771
543.662;  497.829;  159.873; -254.771
543.942;  896.527; -751.127; -830.770
544.223; 1635.700;  193.878;  161.219
544.504; 1081.575; -275.124; -182.777
544.784;  957.042; -592.126; -408.773
545.065; 2601.478;  104.884; -254.791
545.345; 3088.336;  227.881;   14.215
545.626; 2109.612;  -14.113; -108.796
545.906; 1410.285;   77.869;   98.235
546.186;  584.249;   92.874;  -95.773
546.467;  289.879;   99.877;  -95.778
546.747;  558.473;  264.884;  327.210
547.027;  628.873;   91.876;  111.223
547.308;  489.125; -376.127; -530.770
547.588;  646.710;  299.871;  371.232
547.868;  354.187;  458.870;  588.235
548.149;  371.190;  609.885;  593.207
548.429;  222.131; -347.127; -299.771
548.709;  260.823; -645.120; -461.784
548.989;  746.351;   84.882;   88.213
549.269; 3483.460;   10.868;  139.239
549.550; 7560.185;  215.877;  117.222
549.830; 6804.939; -758.111; -556.799
550.110; 1448.050; -468.110; -320.801
550.390; 1390.493; -128.122;  -56.779
550.670; 1729.206; -868.114; -783.795
550.950; 1318.813; -509.121; -471.782
551.230;  393.108;  549.879;  460.218
551.510;  -13.788; -381.121; -326.782
551.790;   79.962; -173.109; -127.803
552.070;  544.679;  940.877; 1181.223
552.350;  626.842; -492.119; -377.786
552.630;  937.504;   -2.121;   77.219
552.909;  594.279;  181.884;   73.209
553.189;  394.370;  -49.132;   33.237
553.469;  280.742; -703.119; -514.786
553.749;  316.035; -469.127; -357.772
554.029;  278.666;   33.883;  -24.790
554.308;  246.496; -154.115;  -37.794
554.588;   93.924; -196.128; -204.770
554.868;   86.215; -366.121;  -47.782
555.147;  239.492; -114.115;  -46.793
555.427; 1006.583; -260.116; -250.792
555.707; 6230.289; -284.115; -200.793
555.986; 7225.744; -719.111; -538.800
556.266; 4059.371;   23.884;   72.210
556.546;  172.012; -888.121; -675.782
556.825;  399.202; -657.114; -556.794
557.105; 2883.520; -125.128;   17.230
557.384; 3261.678;  122.884;  187.209
557.664; 1216.282; -717.116; -508.792
557.943;  162.614; -557.121; -411.782
558.222;  268.355; -345.118; -344.788
558.502;  477.494; -116.115;  -76.793
558.781;  812.287;  194.885;  499.208
559.061;  649.955; -232.118; -227.788
559.340;  518.462;  302.883;  353.211
559.619; 1112.271;   93.884;  148.210
559.899; 1549.265; -239.117; -266.789
560.178; 1453.393; -778.115; -593.793
560.457; 5162.868; -623.117; -562.790
560.736; 6926.446; -472.111; -482.800
561.015; 4689.017; -500.128; -502.769
561.295;  668.591;  180.893;  215.193
561.574;  528.289;  119.885;  116.207
561.853;  769.968;  274.891;  303.197
562.132;  832.997;  -45.114;  182.206
562.411;  743.005;  396.879;  553.219
562.690;  170.387; -592.115; -458.792
562.969;  269.223;  472.888;  630.203
563.248; 1063.602; 2966.878; 2487.219
563.527;  446.944; -290.111; -408.800
563.806;  590.931; -650.127; -521.771
564.085;  725.614; -297.105; -206.810
564.364;  363.270; -594.117; -405.790
564.643;  852.006; -276.121; -223.781
564.922; 3050.659;  221.890;  397.198
565.201; 2933.364; -640.109; -700.803
565.479; 1305.385; -297.115; -219.792
565.758;  480.921; -810.128; -712.770
566.037;  726.366; -155.109; -100.803
566.316;  352.378; -286.116;  -28.791
566.595;   98.589;  -17.115;  -12.793
566.873;  255.647; -166.111;  -79.801
567.152;  -78.178; -490.113; -590.797
567.431;   29.872; -113.116;    6.210
567.709;    5.592; -344.107; -212.807
567.988;  394.002; -810.114; -769.794
568.266;  869.489; -160.115;  -68.793
568.545;  615.284; -644.100; -514.819
568.824;  925.284;  160.885;  356.208
569.102;  834.701; -351.114; -235.794
569.381;  337.982; -492.116; -407.792
569.659;  -52.384; -553.113; -553.796
569.938;   -4.601; -743.122; -465.780
570.216;  148.570; -225.109; -225.804
570.494;  -73.994; -632.114; -572.795
570.773;  102.411;  202.879;  114.218
571.051;   30.183; -373.123; -357.778
571.330;   91.313; -221.113; -174.796
571.608;   67.911; -181.098; -173.823
571.886; -129.764; -671.111; -581.799
572.164; -122.085; -739.121; -621.782
572.443;  -89.780; -562.105; -512.811
572.721;  -55.132; -399.117; -289.790
572.999;  -57.642; -280.117; -168.788
573.277;  157.110;  379.894;  620.191
573.555;  472.913;   94.894;   37.190
573.834; 2124.258;  -86.117; -114.788
574.112; 2520.595;  880.893;  811.193
574.390;  750.446; -143.111;  -96.801
574.668;   40.724;  -91.112;  -61.797
574.946;  -24.787; -165.106; -187.810
575.224;   64.564;   71.891;  -16.803
575.502;  -11.525; -200.116; -204.791
575.780; -165.375; -767.112; -829.798
576.058;  521.845; 1589.889; 1004.200
576.336;  -15.147; -210.110; -129.801
576.614;  -87.574; -511.112; -340.798
576.891;   68.095; -711.115; -823.794
577.169;  777.482; -158.108; -285.805
577.447;  932.294;  169.893;  202.193
577.725;  465.232;  629.888;  854.201
578.003;   44.829;  -71.112; -371.798
578.280;  185.833; -208.104; -242.812
578.558;   78.694; -450.115; -422.793
578.836;  181.906; -210.114; -145.795
579.114;   52.323; -630.112; -670.797
579.391;  108.660;   -6.117;  -18.789
579.669; -161.203; -595.114; -704.794
579.947;  261.990; -326.107; -127.806
580.224;  464.689; -692.107; -524.806
580.502;  543.895;  127.893;   76.193
580.779;   63.869;  -42.117;   75.210
581.057; -115.329; -584.109; -470.804
581.334; -175.445; -726.102; -695.815
581.612;  104.515;   54.895;  511.190
581.889;  -51.625;  -83.101; -129.818
582.167;  -61.104; -298.099; -190.821
582.444; -186.433; -845.102; -814.817
582.721;  223.768;  657.899;  715.183
582.999;  121.992; -326.100; -167.821
583.276;  815.489; -812.123; -713.779
583.553; 1066.660; -364.102; -294.816
583.831;  352.028; -607.104; -631.812
584.108;  160.779;  349.892;  174.195
584.385;   52.454; -122.102;  -98.815
584.662; -156.352; -651.111; -828.801
584.940;   55.947;  204.889;  204.199
585.217;   -6.284;  -73.113; -303.796
585.494;   80.260;   71.890;  118.198
585.771;  355.272; -250.109; -354.804
586.048;  725.415; -196.113;  -76.796
586.325;  467.452; -721.110; -773.801
586.602;  190.534;  230.896;  213.188
586.879;  -24.913; -499.100; -580.820
587.156;   83.916; -156.105; -331.810
587.433;  -67.136; -701.102; -667.817
587.710;  147.726;  152.888;  234.202
587.987;  464.024; -264.105; -236.811
588.264; 1236.529;  315.888;  387.202
588.541; 2176.437;  -61.104;   26.187
588.818; 4079.875;   72.892;  171.196
589.095; 3537.130; -163.104; -174.812
589.371;  597.869; -459.109; -414.804
589.648;   11.495; -581.107; -437.807
589.925;   37.707; -517.114; -621.795
590.202;  -15.374; -741.112; -607.798
590.478;  146.126; -166.105;  -73.811
590.755;  429.884; -241.108; -132.806
591.032; 3907.255; -741.110; -699.802
591.308; 5221.171; -732.094; -790.831
591.585; 2791.254; -573.110; -560.802
591.862;  185.766;-1056.102; -950.817
592.138;   89.180; -475.108; -474.805
592.415;  231.035; -486.104; -495.813
592.691; 2361.331;  460.896;  518.188
592.968; 2806.214; -208.098; -123.824
593.244; 1369.772; -695.116; -595.790
593.521;  162.367; -105.102;  -42.817
593.797;  -29.105; -810.122; -720.780
594.074;  469.233; -611.096; -588.826
594.350; 1063.449;  828.905;  729.172
594.626;  500.948; -303.111; -283.801
594.903;  133.867; -643.101; -645.817
595.179;  378.940;  243.896;  418.187
595.455;   10.797; -136.107; -150.807
595.731;   37.443;  -19.103;  -38.814
596.008;  -70.860; -464.111; -434.800
596.284;   38.291; -187.100; -242.820
596.560;   73.480; -501.093; -493.833
596.836;  298.119; -173.105;  -70.810
597.112;  500.882; -582.108; -437.805
597.388;  485.229;  -49.097;  -48.826
597.665;  226.020;  437.887;  530.203
597.941; -130.376; -572.089; -658.839
598.217;   14.460; -323.110; -293.802
598.493;  411.874;   61.891; -204.804
598.769;  797.182; -175.100;  -50.819
599.045;  441.886; -490.108; -562.806
599.321;   84.289; -193.100; -261.820
599.597;  227.173; -355.109; -476.804
599.872;  795.337;  409.896;  429.187
600.148;  599.532;  -61.097; -172.826
600.424;  488.293;   91.893;  202.193
600.700;  368.496; -170.107; -280.807
600.976;  185.323; -442.097; -464.825
601.252;  397.768; -226.109; -272.803
601.527;  268.538; -833.104; -840.813
601.803;  206.227; -453.105; -404.812
602.079;  293.082; -124.100; -118.819
602.354;  866.995; -620.092; -531.835
602.630; 1293.516; -140.113; -482.796
602.906; 3867.175; -910.101; -863.818
603.181;10136.642; -627.119; -534.786
603.457; 8756.328;   98.903; -278.826
603.733; 1290.917; -605.120; -626.783
604.008; 1608.714; -245.106; -164.810
604.284; 4523.569; -636.101; -580.817
604.559; 4057.132;   -3.112;  -42.799
604.835;  802.418; -163.105; -225.810
605.110;  642.297; -732.099; -892.821
605.385; 1079.384;  224.907;  267.167
605.661; 1049.653; -625.095; -729.829
605.936; 1720.086; -664.108; -737.806
606.211; 1559.853;  -17.103; -170.815
606.487;  303.900; -329.114; -376.794
606.762;  -21.558; -791.119; -745.786
607.037;  -33.281; -501.105; -433.810
607.313; -109.557; -589.096; -574.828
607.588;    8.313; -375.106; -137.810
607.863;   93.274;  -28.101; -143.818
608.138;  334.058;  513.890;  516.198
608.413;   39.003; -576.099; -592.822
608.688;   76.481; -203.108; -267.805
608.964;  296.505; -509.106; -218.809
609.239;  346.715; -107.105; -212.810
609.514;  463.226;  281.895;  240.188
609.789;  964.333; -187.104; -716.812
610.064; 1332.241; -435.096; -609.827
610.339; 1406.369; -855.109; -799.804
610.614; 1804.590; -131.100; -315.820
610.889; 1066.027;  215.895;  107.188
611.163;   52.328; -407.104; -591.812
611.438;  125.602;   81.886; -167.794
611.713;    9.970; -467.101; -499.817
611.988;   67.073; -144.101; -328.818
612.263;  -48.745; -771.102; -717.815
612.538;  387.115;  385.887;  251.204
612.812;  219.392; -832.100; -911.820
613.087;  208.310; -358.098; -338.823
613.362; -105.503; -497.107; -557.807
613.637;  106.247;  261.897;  138.186
613.911;   13.096; -256.092; -345.835
614.186;  222.894; -249.107; -292.807
614.460;  966.536; -842.081; -758.854
614.735; 1185.859;  -55.087;  -17.843
615.010;  318.244;   43.912;  -82.841
615.284;  439.480;  360.892;  246.195
615.559;  498.694; -792.092; -955.835
615.833;  491.800;  -76.099;  -87.822
616.108;   -3.388; -225.090; -390.837
616.382;  284.961;  274.913;  402.156
616.656;  245.013; -241.090; -232.837
616.931;  756.701; -785.099; -700.822
617.205; 1580.939; -973.104; -979.813
617.480; 1483.459;  -91.125;    6.225
617.754;  271.655; -396.125; -128.774
618.028;   20.111; -369.129; -382.768
618.302;  121.078;   73.892;  -25.805
618.577; -109.151; -371.103; -518.815
618.851;  -98.337; -399.109; -600.803
619.125;  -70.655; -335.134; -378.759
619.399;  -67.660; -244.104; -374.813
619.673;  -73.516; -330.115; -515.792
619.947;  -81.994; -333.114; -448.795
620.222;  -44.750; -198.110; -204.801
620.496;   -5.786;  -47.121;  -96.782
620.770;   45.402; -187.122;  -93.781
621.044;  359.316;  323.895;  346.190
621.318; 1101.418; -653.120; -614.783
621.592; 1035.115; -430.121; -409.783
621.866;  492.533; -476.112; -572.799
622.140;   30.375; -207.116; -356.791
622.413;  139.040;  138.889;  112.200
622.687;  -82.430; -746.101; -492.817
622.961;   12.678; -130.108; -143.805
623.235; -104.659; -633.111; -661.800
623.509; -188.774; -816.105; -848.811
623.783;   77.291;  -12.107;   48.193
624.056;  -31.980; -254.120; -280.783
624.330;  118.524;   63.888;   -3.797
624.604;   53.070; -271.116; -355.790
624.877;  117.056;  180.890;   26.198
625.151;   88.598; -249.114; -238.794
625.425;  -31.058; -150.103; -283.814
625.698;  -85.766; -367.119; -374.785
625.972; -196.240; -799.110; -765.802
626.245;  185.372;  685.884;  484.210
626.519;  -48.574; -426.120; -340.784
626.792;  -70.204; -192.107; -380.807
627.066; -155.809; -485.122; -662.779
627.339; -211.746; -736.110; -663.802
627.613;  111.124;  351.880;  148.216
627.886;  128.763;  187.891; -612.803
628.160;   -7.282;  312.880; -161.783
628.433; -193.537; -695.125; -703.775
628.706; -156.674; -517.120; -615.784
628.979;   58.673;  296.876;  117.223
629.253; -145.459; -785.119; -833.786
629.526;  564.540; -334.126; -253.772
629.799;  508.783; -641.123; -479.778
630.072;  221.613; -497.128; -516.769
630.346; -155.527;-1115.116;-1080.790
630.619;  691.398; -467.107; -545.808
630.892;  995.642;  709.889;  593.200
631.165;  606.839;  790.896;  679.187
631.438; -193.771;-1092.112;-1055.798
631.711;  141.588;  453.877;  257.221
631.984; -153.435; -523.117; -624.789
632.257; -128.040; -636.117; -681.789
632.530;  -87.766; -412.119; -433.785
632.803;   78.995; -109.115;    7.207
633.076; -110.521; -360.123; -422.777
633.349;   68.719;  173.872;  121.231
633.622;  -77.668; -187.119; -240.785
633.895; -245.280; -903.120; -823.783
634.167; -125.457; -496.126; -525.773
634.440;  -13.418;  -19.116; -137.792
634.713;   11.139;  -22.119; -120.786
634.986;  178.404;  593.871;  453.233
635.258; -132.708; -507.115; -597.793
635.531;  216.254;  742.882; -343.788
635.804;  -38.036; -303.117; -318.789
636.077; -193.824; -830.116; -852.791
636.349;  -21.910; -586.115; -474.793
636.622;  767.039; 1695.874; 1392.228
636.894;  361.426; -474.120; -909.784
637.167;  203.830; -836.127; -789.771
637.439;   61.624; -278.128; -213.770
637.712;  -51.259; -312.126; -293.772
637.984; -153.623; -635.116; -707.791
638.257;  708.279;  515.877;  488.222
638.529;  795.765; -881.125; -924.776
638.802;  357.813; -508.128; -449.769
639.074; -237.200; -927.122; -952.781
639.346; -234.068; -942.135; -930.757
639.619;   23.335;  -79.142; -319.744
639.891;    7.691;  -83.122; -168.779
640.163; -146.206; -689.122; -756.780
640.435;   95.697;  273.878;  103.220
640.708;   11.999;  -72.122; -132.780
640.980;  -34.598; -366.122; -362.781
641.252;  341.505;  -25.121;  -71.781
641.524; 2774.408;  580.879;  573.219
641.796; 2664.810;-1094.121; -907.782
642.068;  479.413; -191.121; -300.782
642.340;  -93.984; -486.121; -566.783
642.613;  106.918;  294.880;  323.217
642.885; -186.479; -787.120; -878.783
643.157; -118.176; -810.120; -658.784
643.428;  137.427;  170.880;  218.216
643.700; -118.071; -498.120; -425.784
643.972;  -29.968;  -16.119; -133.785
644.244; -166.665; -474.119; -559.785
644.516;  -73.762; -250.119; -114.786
644.788;  187.340;  662.881;  548.214
645.060;   -5.857;  -12.119; -124.786
645.332; -156.154; -525.118; -535.787
645.603;  144.148;  479.882;  342.213
645.875; -122.549; -334.118; -369.787
646.147;  350.954; 1487.882; 1242.212
646.418; -146.943; -931.117; -918.788
646.690;  164.959; -714.117; -715.789
646.962;   27.562; -413.117; -451.789
647.233;    4.465;   15.883;   11.211
647.505; -180.832; -595.117; -475.790
647.776;   70.070;  328.884;  229.210
648.048;   -6.127; -248.116; -418.790
648.320; -129.124; -752.116; -679.791
648.591; -282.121;-1055.116; -958.791
648.862; -139.619; -505.116; -577.792
649.134;   77.384;  115.885;  198.208
649.405; -117.013; -661.115; -618.792
649.677; -103.411; -475.115; -598.793
649.948;   -9.108; -181.115; -296.793
650.219;   19.895;  -37.115; -147.793
650.491; -129.002; -431.114; -520.794
650.762; -227.300; -705.114; -731.794
651.033; -145.097; -437.114; -424.795
651.304; -179.194; -743.114; -728.795
651.576; -112.291; -680.114; -645.795
651.847;  -53.489; -250.113; -140.796
652.118;    4.814;  -32.113; -189.796
652.389; -200.483; -639.113; -722.796
652.660;  -40.380; -147.113;  -89.797
652.931; -261.578; -897.112; -871.797
653.202; -126.675; -382.112; -541.798
653.473; -107.372; -633.112; -533.798
653.744;  165.030; -595.112; -590.798
654.015;  179.233; -356.112; -303.799
654.286; -110.364; -642.111; -663.799
654.557; -128.361; -586.111; -521.799
654.828; -302.359;-1114.111;-1088.800
655.099; -152.656; -404.111; -291.800
655.370; -154.953; -427.111; -543.801
655.641; -214.550; -656.110; -714.801
655.911; -171.348; -618.110; -638.801
656.182;  146.155;  437.890;  387.198
656.453;  217.558;  830.890;  746.198
656.724; -133.740; -466.110; -426.802
656.994; -176.237; -553.109; -568.803
657.265; -217.534; -862.109; -873.803
657.536; -108.631; -500.109; -377.804
657.806; -182.129; -561.109; -593.804
658.077; -278.626; -866.109; -950.804
658.347; -126.723; -523.108; -598.805
658.618; -194.520; -646.108; -694.805
658.888;  -34.718;  -41.108;  112.195
659.159; -163.215; -432.108; -548.806
659.429;  -16.712; -292.108; -349.806
659.700;    1.391; -435.107; -390.807
659.970;  -18.607; -370.107; -359.807
660.241;    2.196; -754.107; -921.807
660.511;  754.099; -147.107; -174.808
660.781;  126.001; -793.106; -748.808
661.052;  -31.196; -222.106; -381.808
661.322;   -0.393;   21.894;   -9.809
661.592;   94.310;  257.894;  148.191
661.862; -124.688; -369.106; -382.810
662.133; -157.985; -551.105; -502.810
662.403; -217.282; -770.105; -676.810
662.673;  -56.079; -256.105; -213.811
662.943; -187.777; -612.105; -551.811
663.213;  -13.974;  -85.105;  -81.811
663.483; -152.271; -593.104; -568.812
663.753;  -59.968; -194.104; -152.812
664.023;  -10.266;   68.896;  -32.813
664.293; -124.963; -319.104; -126.813
664.563; -186.160; -694.104; -648.813
664.833; -192.358; -743.103; -608.814
665.103; -231.855; -730.103; -793.814
665.373; -189.052; -766.103; -806.814
665.643; -161.249; -863.103; -918.815
665.913;    7.753; -534.103; -714.815
666.182;  185.956; -685.102; -719.816
666.452;  391.459;  -22.102;  -89.816
666.722;  -52.538; -724.102; -784.816
666.992; -247.836; -948.102; -921.817
667.261; -169.033; -824.102; -808.817
667.531;  316.870;  134.899;   45.183
667.801;  787.772; -440.101; -412.818
668.070;  428.975;  714.899;  697.182
668.340; -206.922; -883.101; -840.819
668.609;  213.981;  588.900;  301.181
668.879; -146.317; -490.100; -558.819
669.149; -116.914; -539.100; -516.820
669.418; -181.311; -698.100; -726.820
669.688;  -31.208; -482.100; -666.820
669.957;   82.394; -423.099; -546.821
670.226;  -25.303; -268.099; -331.821
670.496; -136.700; -431.099; -635.822
670.765; -136.897; -418.099; -501.822
671.034; -222.995; -872.099; -828.822
671.304;   -3.492;   55.902; -111.823
671.573; -286.389;-1085.098; -957.823
671.842;  138.013; -380.098; -294.823
672.112;   15.116; -692.098; -586.824
672.381;   22.519; -239.098; -214.824
672.650; -242.978;-1005.097;-1021.825
672.919; -175.376; -631.097; -507.825
673.188; -151.973; -681.097; -878.825
673.457; -270.770;-1101.097;-1143.826
673.726; -145.867; -579.096; -646.826
673.995;  -76.365; -533.096; -479.826
674.265;   -4.062; -263.096; -333.827
674.534;    0.641; -183.096; -235.827
674.802;   10.243; -618.096; -703.828
675.071; 1630.246; -886.095; -801.828
675.340; 5665.449; -464.095; -339.828
675.609; 1953.352;  103.905;   82.171
675.878;   92.454; -949.095; -893.829
676.147;   78.657;  -26.095;   -8.829
676.416;  194.860; -210.094; -294.830
676.685; 1202.763; 1000.906; -622.830
676.953;  166.265; -603.094; -452.831
677.222;   -7.932; -193.094; -273.831
677.491;  -33.929;  -24.094; -127.831
677.759;   15.274;   11.907;  172.168
678.028;  -14.024; -279.093; -222.832
678.297;   33.979;   71.907;  197.168
678.565; -259.018; -898.093; -944.833
678.834;  -70.616; -311.093; -268.833
679.102;  -83.913; -411.092; -391.834
679.371; -261.510; -898.092; -727.834
679.639; -238.307; -797.092; -786.834
679.908; -207.705; -794.092; -724.835
680.176; -296.902; -895.091; -941.835
680.445;  -97.199; -346.091; -352.835
680.713;   32.804;  -58.091;  -23.836
680.982; -134.194; -523.091; -525.836
681.250; -195.391; -578.091; -507.837
681.518; -159.188; -534.090; -751.837
681.787;   -5.385; -204.090; -167.837
682.055;  -83.283; -490.090; -422.838
682.323; -286.880; -993.090; -992.838
682.591;   47.423; -216.090; -538.838
682.859;  142.225;    9.911;  -35.839
683.128;   86.928;  232.911;  497.161
683.396; -300.269;-1102.089;-1122.840
683.664;  -53.666; -241.089;   21.160
683.932;   55.936;  144.911;  -76.840
684.200; -125.361; -576.088; -320.841
684.468;  -12.658;  -73.088; -124.841
684.736;  -35.655; -214.088; -175.841
685.004; -237.453;-1024.088; -982.842
685.272; -110.150; -880.088; -774.842
685.540; -111.447; -499.087; -557.843
685.808; -155.445; -651.087; -682.843
686.076; -231.742; -894.087; -969.843
686.343; -125.139; -601.087; -815.844
686.611;   99.964; -195.087; -224.844
686.879;  774.866; -530.086; -553.844
687.147; 4981.269; -483.086; -480.845
687.414; 1406.772;  -12.086; -169.845
687.682;  -22.725; -658.086; -757.846
687.950;  552.877;  259.915;  263.154
688.217;  -19.820; -792.085; -760.846
688.485;  -28.217; -632.085; -636.847
688.753;  815.786;  -11.085; -102.847
689.020;  174.588; -820.085; -851.847
689.288; -185.609; -853.084; -787.848
689.555;    4.094; -195.084; -148.848
689.823;  -30.904; -241.084; -345.849
690.090; -137.101; -546.084; -651.849
690.358; -309.498; -877.084; -897.849
690.625;   52.805;  120.917;   45.150
690.892; -123.593; -403.083; -369.850
691.160;   -2.690;   72.917;  -35.850
691.427;   63.913;  141.917;  130.149
691.694; -256.384; -855.083; -929.851
691.962; -259.682;-1177.082;-1060.852
692.229;   33.121;  127.918;   56.148
692.496;  194.324;  130.918;  -49.852
692.763;   39.227; -164.082; -201.853
693.031; -145.471; -739.082; -716.853
693.298;  -76.968; -509.081; -368.853
693.565;  553.735; -155.081; -163.854
693.832; 1829.437;   -5.081;   -9.854
694.099;  178.940; -643.081; -642.855
694.366;  -98.257; -882.081; -896.855
694.633; -111.554; -920.080; -633.855
694.900; 1547.648; 4367.920; -114.856
695.167;  620.751; -214.080; -380.856
695.434;  142.354; -646.080; -623.856
695.701;  333.257;  121.921;  -61.857
695.968;  698.359; -365.079; -361.857
696.234; 1787.362; -415.079; -646.858
696.501;16569.365; -776.079; -614.858
696.768; 7844.067; -554.079; -617.858
697.035;  511.270; -632.078; -667.859
697.302;   33.473; -448.078; -552.859
697.568;   46.876; -458.078; -497.859
697.835;  -48.622; -683.078; -624.860
698.102;  -11.319; -498.078; -407.860
698.368;  184.484;  384.923;  396.139
698.635;  -46.213;  -47.077; -424.861
698.901;   -1.411; -240.077; -348.861
699.168;  134.992; -534.077; -456.862
699.435;  161.095;  -72.077;  -13.862
699.701; -208.202; -868.076; -764.862
699.968;  -74.300;  144.924; -441.863
700.234; -177.297; -783.076; -822.863
700.500; -108.394; -448.076; -539.864
700.767;   73.408;   -1.075;   26.136
701.033; -254.589;-1015.075; -963.864
701.299;  -90.586; -450.075; -483.865
701.566;  252.817;  950.925;  763.135
701.832;   69.919;  -31.075;  -76.865
702.098; -185.978;-1054.074;-1034.866
702.365; -188.775;-1098.074;-1030.866
702.631;  -56.672;-1038.074;-1063.867
702.897; 2164.830; -765.074; -676.867
703.163; 3184.333;  348.926;  254.133
703.429;  293.536; -256.073; -273.868
703.695;  -97.262; -796.073; -792.868
703.961;   84.141; -214.073; -210.868
704.227;  -62.756; -630.073; -725.869
704.493;  289.747;  613.927;  510.131
704.759;  -22.451; -565.072; -540.870
705.025;   73.652; -203.072; -194.870
705.291;  -33.045; -666.072; -562.870
705.557;  370.358;  719.928;   34.129
705.823;  -13.640; -742.072; -694.871
706.089;  232.163; -307.071; -326.871
706.355;  623.466; -315.071; -244.872
706.620; 8973.069; -776.071; -729.872
706.886;11231.971; -309.071; -362.873
707.152;  998.974; -818.070; -973.873
707.418;  -59.323;-1153.070;-1186.873
707.683;   23.679; -550.070; -530.874
707.949;  -60.718; -547.070; -578.874
708.215;   25.785; -129.070; -207.874
708.480;  -18.312; -520.069; -420.875
708.746;  221.190;   68.931;   28.125
709.011;  -80.407; -578.069; -612.876
709.277; -131.204; -538.069; -543.876
709.542;  -59.601; -428.069; -387.876
709.808;   29.001;  -59.068;   89.123
710.073; -153.396; -577.068; -695.877
710.339;   -8.393; -242.068; -228.877
710.604;  120.910; -780.068; -845.878
710.869;  445.212; -277.068; -366.878
711.135; -134.485; -715.067; -628.879
711.400; -113.982; -507.067; -608.879
711.665;  -75.580; -404.067; -479.879
711.931; -167.777; -661.067; -677.880
712.196; -210.974; -876.067; -954.880
712.461;  197.929; -402.066; -490.880
712.726;  159.931; -727.066; -771.881
712.991; -166.466; -647.066; -664.881
713.256;  -52.063; -350.066; -332.882
713.521;  -64.660; -417.065; -381.882
713.787; -103.958; -454.065; -472.882
714.052;    1.145; -214.065; -400.883
714.317; -177.652;-1045.065; -981.883
714.581; 1664.550; -374.065; -268.883
714.846; 1963.553; -822.064; -888.884
715.111;  245.156;  261.936;  257.116
715.376;  -24.241;  -86.064; -223.885
715.641;  -10.939; -365.064; -367.885
715.906;  431.564;   15.936; -551.885
716.171;  276.867;  221.937;  209.114
716.436;  112.270;  -78.063; -104.886
716.700; -195.328; -818.063; -692.886
716.965; -212.325; -794.063; -807.887
717.230;  -85.422; -339.063; -392.887
717.494;   -0.019;  -40.062; -134.888
717.759; -182.617; -784.062; -640.888
718.024;   66.986;  269.938;  250.112
718.288;  182.189;  685.938;  395.111
718.553; -265.709; -803.062; -977.889
718.817; -262.606; -883.061; -899.889
719.082;    7.797; -115.061; -125.890
719.346; -249.100;-1000.061; -947.890
719.611;  -31.698; -300.061; -255.891
719.875; -168.095; -568.060; -537.891
720.140; -100.992; -453.060; -603.891
720.404;   92.611; -136.060; -249.892
720.668; 1298.413; -475.060; -411.892
720.933;  522.916;  146.940;  137.108
721.197; -150.181; -667.059; -600.893
721.461; -229.578; -851.059; -826.893
721.725;   19.424;  -21.059; -250.894
721.990;  -78.573; -284.059; -204.894
722.254;    9.630;  -26.059; -108.894
722.518; -103.968; -286.058; -442.895
722.782; -126.765; -743.058; -594.895
723.046;  276.238;  614.942;  570.105
723.310;  116.341;  374.942;  210.104
723.574; -167.357; -654.058; -614.896
723.838; -165.754; -576.057; -642.897
724.102;  -35.651; -226.057; -239.897
724.366; -261.648;-1032.057; -978.897
724.630; -150.646; -749.057; -571.898
724.894; -115.743; -722.057; -514.898
725.158;   31.160;   38.944; -295.898
725.422;  -59.438; -394.056; -327.899
725.685;  -96.335; -441.056; -349.899
725.949; -141.232; -566.056; -519.900
726.213; -139.529; -732.056; -811.900
726.477;  245.173;-1020.055; -933.900
726.740;  232.276; -274.055; -104.901
727.004;  568.079; -384.055; -510.901
727.268; 5019.582; -442.055; -400.901
727.531; 1234.584; -961.055; -775.902
727.795;  -80.813; -713.054; -673.902
728.059; -114.310; -552.054; -557.903
728.322; -130.207; -841.054; -669.903
728.586;   46.495; -692.054; -701.903
728.849; -160.802; -695.053; -756.904
729.112; -195.399; -812.053; -912.904
729.376; -212.197; -959.053; -905.904
729.639; -112.294; -536.053; -536.905
729.903; -158.991; -733.053; -699.905
730.166;  -74.188; -437.052; -399.906
730.429;  -18.086; -317.052; -468.906
730.693; -106.383; -355.052; -894.906
730.956;  433.420;  810.948;  651.093
731.219; 1004.723; -310.052; -103.907
731.482;  172.625;-1003.051; -894.907
731.745;   75.528; -794.051; -935.908
732.009;   74.731;  -30.051;   50.092
732.272; -166.366; -904.051; -771.909
732.535;  -32.064; -300.051; -310.909
732.798; -274.861;-1083.050;-1166.909
733.061;  -84.358; -430.050; -456.910
733.324;   66.044;   31.950; -180.910
733.587;  195.947;  290.950;  365.090
733.850; -123.550; -973.049;-1050.911
734.113;   69.653;   33.951;   32.089
734.376;   28.255; -328.049; -447.912
734.639;  468.958; 1188.951; 1011.088
734.901;  135.361; -180.049; -402.912
735.164;  872.964; -883.048; -837.913
735.427; 1833.266; -166.048; -355.913
735.690;  205.869; -205.048; -234.913
735.952;  -88.028; -923.048; -925.914
736.215;  -60.926;-1113.048;-1009.914
736.478;   47.777; -771.047; -774.915
736.740;  380.480;   33.953;  129.085
737.003; 1256.183; -658.047; -672.915
737.266; 6011.285;  -94.047;   46.084
737.528;  675.288; -682.047; -660.916
737.791;  527.291; -316.046; -327.916
738.053; 1450.794;  465.954;  649.083
738.316;17327.296; -162.046; -136.917
738.578;10728.799; -770.046; -736.918
738.841;  687.302; -382.046; -446.918
739.103;  266.905; -875.045; -777.918
739.365;  759.307;   79.955;  -69.919
739.628;   -0.190; -884.045; -805.919
739.890;  -41.687; -758.045; -710.919
740.152;  -76.685; -692.044; -754.920
740.414;  -11.782; -408.044; -359.920
740.677;  -62.679; -785.044; -634.921
740.939;  -47.776; -587.044; -487.921
741.201;  406.726; -432.044; -572.921
741.463;   34.629; -689.043; -745.922
741.725;   59.832;  -21.043; -199.922
741.987;  162.735;  220.957;  116.078
742.249;  -13.863; -751.043; -859.923
742.511;  265.040; -703.043; -794.923
742.773;   -3.457; -546.042; -546.924
743.035;  259.645;  796.958;  533.076
743.297;  -65.752; -963.042;-1013.924
743.559; 1164.251; -278.042; -262.925
743.821;   53.154; -735.042; -744.925
744.083;   47.556;  -44.041; -149.925
744.345; -121.841; -869.041; -892.926
744.607;  118.462;   75.959;  122.074
744.868; -100.135; -490.041; -554.927
745.130; -213.533; -994.041;-1008.927
745.392;  125.770;   -1.040;  -44.927
745.653;   15.573; -411.040; -378.928
745.915;  344.476;  896.960;  631.072
746.177;  117.978;   35.960;  -43.928
746.438;   -6.719; -428.040; -543.929
746.700;  -92.516; -947.039; -988.929
746.961;    6.586; -659.039; -740.930
747.223;  232.289; -190.039;  -74.930
747.484;  187.692; -391.039; -471.930
747.746;  277.395;  -23.038; -106.931
748.007;  172.397; -647.038; -689.931
748.269;  518.600; -468.038; -440.931
748.530;  710.703; -852.038; -638.932
748.791;  400.706; -354.038; -420.932
749.053;  739.108;  286.963;  163.067
749.314;  703.711; -236.037; -169.933
749.575;  785.414; -945.037; -905.933
749.836; 1270.717; -217.037;   86.066
750.098; 4354.019;  -60.037;  -21.934
750.359;54452.522;  414.964;  555.066
750.620;12325.225; -121.036; -220.935
750.881; 1631.127; -585.036; -513.935
751.142; 2154.430; -950.036; -938.936
751.403;26807.933; -789.036; -705.936
751.664;10017.536;-1034.035; -999.936
751.925;  775.038; -175.035; -262.937
752.186;  506.841; -298.035; -278.937
752.447;  229.844; -590.035; -445.937
752.708;   86.947; -532.035; -648.938
752.969;   24.049; -566.034; -576.938
753.230;  -11.248; -777.034; -672.939
753.491;   -2.545; -650.034; -631.939
753.751;  152.857;  109.966;   19.061
754.012;  201.360;  258.967;  181.060
754.273;  134.663; -174.033;  -71.940
754.534;   -7.034; -487.033; -580.940
754.794; -162.732; -926.033; -911.941
755.055;  338.871; 1051.967;  881.059
755.316;  -70.526; -700.032; -566.942
755.576;  -29.123; -606.032; -576.942
755.837;  -51.521; -527.032; -695.942
756.097;  -32.418; -530.032; -564.943
756.358; -154.315; -725.032; -770.943
756.618;  -82.812; -705.031; -641.943
756.879;   22.090; -254.031; -349.944
757.139; -219.407;-1098.031;-1116.944
757.400;  -97.604; -538.031; -553.945
757.660;  -14.702; -365.031; -401.945
757.920;   75.901; -266.030; -228.945
758.181;  -12.396; -468.030; -351.946
758.441; -158.493; -870.030; -809.946
758.701;  -16.291; -308.030; -215.946
758.961;   19.912; -220.030; -278.947
759.222;  -72.185; -574.029; -502.947
759.482; -112.982; -683.029; -723.948
759.742; -113.280; -706.029; -547.948
760.002;   57.823;  -83.029; -143.948
760.262;   81.626;   50.972;  182.051
760.522;  -35.071; -498.028; -574.949
760.782;  -74.269; -738.028; -612.949
761.042;  -37.466; -618.028; -573.950
761.302;  122.137;   55.972;  -18.950
761.562;  136.239; -164.027; -154.951
761.822;  117.642; -710.027; -551.951
762.082;  -84.755;-1104.027;-1093.951
762.342;  132.848; -328.027; -403.952
762.601;  142.550; -567.027; -506.952
762.861;  605.053; -281.026; -207.952
763.121;  853.056; -406.026; -411.953
763.381;14052.359; -499.026; -485.953
763.640;12832.361; -139.026; -307.954
763.900;  678.564; -242.026; -203.954
764.160;  185.867; -458.025; -491.954
764.419;  -22.631; -726.025; -782.955
764.679; -107.828; -795.025; -726.955
764.939;   14.675; -124.025; -210.955
765.198; -106.422; -608.025; -563.956
765.458; -126.620; -710.024; -612.956
765.717; -112.717; -454.024; -590.957
765.976; -107.214; -428.024; -411.957
766.236; -119.311; -475.024; -610.957
766.495;  136.491;  260.977;   73.042
766.755; -188.206;-1090.023; -987.958
767.014;   19.797; -594.023; -665.958
767.273;  -83.000; -373.023; -397.959
767.533;  -30.098; -228.023; -307.959
767.792;   -0.795; -151.022; -188.960
768.051;  -19.192; -228.022; -276.960
768.310; -139.790; -546.022; -650.960
768.569;   23.613; -161.022;    4.039
768.828;    7.116; -285.022; -363.961
769.088; -201.781;-1050.021; -942.961
769.347; -152.379; -755.021; -599.962
769.606; -154.276; -876.021; -857.962
769.865; -218.373;-1016.021;-1033.963
770.124;   37.230; -411.021; -336.963
770.383;  -90.868; -778.020; -910.963
770.641;   24.835; -398.020; -400.964
770.900; -121.462; -953.020; -846.964
771.159;  -76.359; -851.020; -951.964
771.418;  -30.857; -917.020; -779.965
771.677;  224.446; -224.019; -293.965
771.936;  213.449; -794.019; -865.966
772.194; 4296.051; -465.019; -437.966
772.453;16536.754; -213.019; -391.966
772.712; 1227.557;  416.982;  329.033
772.970;  293.860;   32.982;   63.033
773.229;  203.162;  -22.018;  102.033
773.488; -156.635; -814.018; -770.968
773.746;  165.668;  296.982;  335.032
774.005;   53.671;  190.983;  -22.969
774.263;   42.473;  243.983;  177.031
774.522; -118.724; -422.017; -548.969
774.780; -120.521; -484.017; -417.970
775.039; -111.019; -551.017; -531.970
775.297;  -13.316; -135.016; -351.970
775.555; -174.413; -489.016; -612.971
775.814; -185.510; -618.016; -570.971
776.072; -193.608; -749.016; -740.971
776.330; -146.905; -630.016; -520.972
776.589; -180.302; -703.015; -721.972
776.847; -212.599; -645.015; -624.973
777.105; -270.297;-1016.015;-1032.973
777.363;  -92.194; -459.015; -454.973
777.621; -234.791; -660.015; -717.974
777.879;   -4.788;  -42.014;   32.026
778.138; -126.886; -554.014; -717.974
778.396; -160.983; -585.014; -526.975
778.654; -285.380;-1015.014; -970.975
778.912;  -84.878; -269.014; -371.976
779.170; -225.575; -880.013; -803.976
779.427; -249.272; -922.013; -897.976
779.685; -214.469; -880.013; -832.977
779.943; -125.767; -654.013; -593.977
780.201; -263.764; -964.012; -883.978
780.459; -203.461; -651.012; -610.978
780.717;  -81.858; -440.012; -390.978
780.974; -135.456; -449.012; -490.979
781.232;  -90.253; -358.012; -338.979
781.490; -137.150; -551.011; -472.979
781.747; -147.248; -555.011; -476.980
782.005;   87.455;  462.989;  254.020
782.263; -273.742; -542.011;-1004.981
782.520; -102.439; -326.011; -501.981
782.778; -295.337;-1013.010;-1051.981
783.035; -293.134; -962.010; -938.982
783.293;  -58.731; -248.010; -206.982
783.550;  -50.728; -134.010; -198.982
783.808; -211.226; -764.010; -776.983
784.065; -275.023; -745.009; -874.983
784.322;  -49.720;   25.991;  -86.984
784.580; -245.217; -915.009; -771.984
784.837; -145.115; -392.009; -466.984
785.094; -195.712; -783.009; -762.985
785.352;  -84.509; -304.008; -404.985
785.609; -199.007; -934.008; -839.985
785.866; -130.204; -345.008; -401.986
786.123; -118.801; -639.008; -583.986
786.380; -140.598; -665.008; -604.987
786.637;  -16.696; -225.007; -380.987
786.895;  -54.493; -456.007; -543.987
787.152;  -44.290; -135.007; -267.988
787.409;  -32.087; -123.007; -225.988
787.666;  -94.285; -299.006; -378.988
787.923; -164.282; -616.006; -695.989
788.179; -151.179; -551.006; -584.989
788.436; -164.076; -585.006; -585.990
788.693;  -18.974;  -92.006;  -87.990
788.950;  306.429; -125.005; -112.990
789.207;  290.632; -381.005; -372.991
789.464;  -33.566; -161.005; -301.991
789.720;   49.537;  150.995;  110.009
789.977; -290.660;-1003.005; -671.992
790.234;   12.643;   44.996;  -66.992
790.490; -246.755; -884.004;-1031.993
790.747;    7.448;  -85.004;   22.007
791.004;    0.051; -426.004; -348.993
791.260; -116.446; -430.004; -560.994
791.517; -176.744; -843.003; -788.994
791.773;  -71.241; -379.003; -342.994
792.030; -154.438; -596.003; -660.995
792.286; -144.036; -686.003; -636.995
792.543;   24.467;  -74.002; -159.995
792.799;  -39.230; -584.002; -382.996
793.055; -272.027;-1179.002;-1210.996
793.312; -178.725; -827.002; -816.997
793.568;  -72.022; -746.002; -599.997
793.824;   78.181; -226.001; -284.997
794.081;   60.184; -447.001; -508.998
794.337;  172.186; -664.001; -561.998
794.593; 2819.389; -319.001; -271.999
794.849;10405.792; -746.001; -772.999
795.105;  519.795; -270.000; -261.999
795.361;   67.197; -490.000; -457.000
795.617;  -81.300; -875.000; -945.000
795.873;  -61.100; -360.000; -407.000
796.129;  -36.500; -368.000; -306.000
796.385;   20.600; -124.000; -156.000
796.641;  197.800;  412.000;  550.000
796.897; -127.000; -666.000; -635.000
797.153;  191.200;  453.000;  357.000
797.409; -195.800; -785.000; -868.000
797.665;  -93.200; -625.000; -732.000
797.921; -130.200; -775.000; -762.000
798.176;  -68.500; -744.000; -747.000
798.432;  -95.700; -824.000; -596.000
798.688; -140.800;-1174.000;-1078.000
798.943;  183.900; -165.000; -147.000
799.199;  -10.800;-1005.000; -959.000
799.455;  448.100;  369.000;  316.000
799.710;  233.300; -813.000; -380.000
799.966;  481.900; -162.000; -160.000
800.221;  775.600; -638.000; -721.000
800.477;18117.300; -743.000; -710.000
800.732;12550.200; -773.000; -800.000
800.988; 1008.900;  205.000;  -19.000
801.243; 3566.300; -454.000; -344.000
801.498;11928.000; -814.000; -739.000
801.754;  645.700; -289.000; -163.000
802.009;  184.400; -257.000; -335.000
802.264; -100.700; -967.000;-1033.000
802.520;  123.800;  222.000;   -3.000
802.775;  -73.400; -524.000; -359.000
803.030;  146.700;  395.000;  356.000
803.285; -179.200; -840.000; -903.000
803.540;  -83.500; -686.000; -699.000
803.795;  -48.100; -648.000; -583.000
804.051;  -23.400; -279.000; -346.000
804.306;  123.000;  168.000;  128.000
804.561;  326.700;  451.000;  362.000
804.816;  339.900;  714.000;  861.000
805.071;   75.400; -185.000; -280.000
805.325;  414.200; -257.000; -427.000
805.580; -183.800; -841.000; -877.000
805.835;    1.300; -204.000; -297.000
806.090;  -95.700; -760.000; -676.000
806.345;   26.100; -344.000; -264.000
806.600;  -17.000; -549.000; -632.000
806.854;  -16.000; -408.000; -538.000
807.109;   12.100; -493.000; -577.000
807.364;   42.200; -407.000; -328.000
807.618;   16.600; -415.000; -381.000
807.873;   91.700; -470.000; -494.000
808.128;  243.400; -257.000; -518.000
808.382;  223.800; -224.000; -332.000
808.637;  138.300; -440.000; -511.000
808.891;  371.000; -257.000; -180.000
809.146;  162.400; -902.000; -794.000
809.400;  444.800; -848.000; -923.000
809.654;  509.500; -779.000; -551.000
809.909;  811.100; -841.000; -927.000
810.163;12819.100; -813.000; -651.000
810.418;25668.700; -940.000; -861.000
810.672; 1564.300; -685.000; -690.000
810.926; 1228.900; -993.000; -973.000
811.180; 2677.600; -439.000; -372.000
811.434;56734.500;  240.000;  135.000
811.689;17870.400; -231.000; -365.000
811.943; 1014.700; -936.000; -953.000
812.197;  549.400; -893.000; -671.000
812.451;  227.300; -379.000; -514.000
812.705;    6.100; -809.000; -619.000
812.959;  -15.600; -263.000; -388.000
813.213;   64.700; -283.000; -209.000
813.467;  159.600;  470.000;  253.000
813.721; -156.900; -764.000; -792.000
813.975; -165.800; -826.000; -877.000
814.229;  149.700;  430.000;  353.000
814.482; -111.800; -517.000; -566.000
814.736; -166.700; -766.000; -744.000
814.990; -199.500; -779.000; -872.000
815.244;  -45.000; -228.000; -285.000
815.497; -141.100; -636.000; -601.000
815.751;   36.800; -141.000;   82.000
816.005;  -95.600; -470.000; -586.000
816.258;  -93.100; -510.000; -363.000
816.512; -153.400; -693.000; -610.000
816.766;   45.400;  121.000;  157.000
817.019;  101.000;  148.000;  149.000
817.273; -191.800;-1000.000; -802.000
817.526;   -3.700; -206.000; -173.000
817.779;  -86.000;-1049.000; -960.000
818.033; -140.100; -693.000; -807.000
818.286; -198.500; -725.000; -792.000
818.540; -113.600; -403.000; -403.000
818.793;  -91.700; -402.000; -489.000
819.046; -165.300; -582.000; -520.000
819.299;  -15.000; -157.000; -166.000
819.553; -172.500; -552.000; -592.000
819.806; -280.400;-1016.000; -838.000
820.059;  -66.100; -334.000; -354.000
820.312;   84.000;  152.000;  185.000
820.565;   39.800;  110.000;  -27.000
820.818;  -17.300;  -59.000; -173.000
821.071; -290.600;-1041.000; -957.000
821.324; -141.200; -536.000; -540.000
821.577; -150.600; -457.000; -483.000
821.830;  -77.300; -270.000; -172.000
822.083; -214.200; -733.000; -288.000
822.336;  -15.100; -261.000; -167.000
822.589; -232.900; -805.000; -688.000
822.842; -222.900; -875.000; -770.000
823.094; -310.300;-1076.000;-1114.000
823.347; -208.300; -925.000; -729.000
823.600;   88.700;  402.000;  187.000
823.853;  -56.500; -311.000; -267.000
824.105;  -94.200; -331.000; -575.000
824.358; -177.100; -617.000; -716.000
824.611;  100.600;  234.000;   40.000
824.863; -113.700; -612.000; -591.000
825.116;  128.000;  -33.000;   27.000
825.368;  138.200; -366.000; -372.000
825.621;  234.700; -186.000; -240.000
825.873;   98.400; -704.000; -737.000
826.126; 1146.000; -669.000; -641.000
826.378;18922.700; -389.000; -505.000
826.630; 3376.000; -890.000; -898.000
826.883;   54.100; -754.000; -693.000
827.135;   80.300; -279.000; -270.000
827.387; -186.400; -893.000; -839.000
827.639;   -5.800;  -86.000;   32.000
827.892; -192.400; -742.000; -582.000
828.144; -241.400; -848.000; -804.000
828.396;  -41.800;  104.000;  -80.000
828.648; -133.800; -440.000; -333.000
828.900; -211.100; -702.000; -795.000
829.152; -159.800; -684.000; -683.000
829.404;  -62.100; -215.000; -267.000
829.656;    4.700;  321.000;  214.000
829.908;    9.900;  393.000;  229.000
830.160; -284.500;-1064.000;-1047.000
830.412; -125.400; -481.000; -430.000
830.664; -185.500; -557.000; -665.000
830.916; -105.300; -268.000; -206.000
831.167; -293.200;-1073.000; -951.000
831.419; -182.100; -623.000; -566.000
831.671; -230.400; -764.000; -809.000
831.923; -121.300; -311.000; -447.000
832.174;  -95.200; -273.000; -331.000
832.426; -155.000; -493.000; -582.000
832.678; -315.400;-1043.000;-1091.000
832.929; -266.900; -947.000; -935.000
833.181; -119.100; -575.000; -677.000
833.432;  -45.800;  -59.000; -186.000
833.684;   26.400;  112.000;  -27.000
833.935; -190.900; -610.000; -566.000
834.187; -193.800; -829.000; -823.000
834.438;   -0.600;  -58.000;  -25.000
834.689;  -78.200; -255.000; -123.000
834.941;  -41.800; -343.000; -244.000
835.192; -155.400; -590.000; -533.000
835.443; -103.800; -419.000; -506.000
835.695;   38.000;  138.000;  -16.000
835.946; -111.800; -608.000; -378.000
836.197; -139.200; -599.000; -622.000
836.448; -134.500; -528.000; -395.000
836.699;  -49.800; -253.000; -341.000
836.950;   63.500;   72.000;    7.000
837.201; -227.100;-1003.000; -987.000
837.452;  -28.800; -356.000; -170.000
837.703; -202.500; -791.000; -737.000
837.954;  -37.300; -205.000; -365.000
838.205; -147.900;-1029.000;-1008.000
838.456;  267.400; -196.000; -282.000
838.707;   45.100; -423.000; -519.000
838.958;   48.100; -634.000; -647.000
839.209;  527.500;   18.000;   40.000
839.460;  215.700; -439.000; -201.000
839.710;  313.200; -135.000; -297.000
839.961;  781.900;  730.000;  612.000
840.212;  573.300; -382.000; -497.000
840.462; 2015.700; -328.000; -277.000
840.713;30379.600; -571.000; -536.000
840.964; 9096.900;  -62.000; -143.000
841.214;  780.800; -384.000; -624.000
841.465;  984.300; -214.000; -141.000
841.715;  853.000; -417.000; -380.000
841.966; 1142.600; -746.000; -685.000
842.216;18652.600; -330.000; -431.000
842.466;53743.400; -169.000; -313.000
842.717; 2106.400; -964.000; -952.000
842.967;  586.500; -635.000; -641.000
843.217;  527.200;   20.000;   28.000
843.468;  166.500; -104.000; -132.000
843.718;  -21.100; -718.000; -726.000
843.968; -128.800; -837.000; -765.000
844.218;   85.800; -315.000; -262.000
844.469;  -59.900; -577.000; -561.000
844.719; -151.900; -537.000; -682.000
844.969; -134.300; -550.000; -580.000
845.219; -201.300; -814.000; -862.000
845.469; -102.100; -392.000; -342.000
845.719; -229.600; -792.000; -884.000
845.969;   46.800;  119.000;  174.000
846.219; -164.100; -738.000; -720.000
846.469;  118.300;  464.000;  432.000
846.718;  -16.900; -115.000;   31.000
846.968; -199.400; -827.000; -827.000
847.218;  -26.500; -224.000; -371.000
847.468; -161.100; -586.000; -555.000
847.718; -223.100; -827.000; -798.000
847.967; -203.900; -826.000; -915.000
848.217; -103.800; -449.000; -569.000
848.467;  -81.800; -405.000; -376.000
848.716; -141.800; -708.000; -725.000
848.966;   23.600; -372.000; -358.000
849.215;  -65.600; -428.000; -419.000
849.465; -161.900; -785.000; -615.000
849.714; -257.300;-1132.000;-1150.000
849.964;  -70.500; -551.000; -613.000
850.213;   13.900; -393.000; -355.000
850.463;  186.200;  137.000;  340.000
850.712;  -18.000; -542.000; -567.000
850.961;   22.700; -739.000; -678.000
851.211;  136.300; -513.000; -504.000
851.460;  270.400; -635.000; -650.000
851.709; 1032.800;  -25.000;   18.000
851.958;18568.200; -912.000; -750.000
852.208;17313.900; -859.000; -879.000
852.457;  703.400; -181.000;  -13.000
852.706;  118.400; -791.000; -823.000
852.955;    9.700; -507.000; -528.000
853.204;  -86.300; -521.000; -461.000
853.453; -109.700; -418.000; -458.000
853.702; -196.900; -660.000; -750.000
853.951; -153.000; -532.000; -520.000
854.200; -187.900; -613.000; -562.000
854.449; -192.700; -695.000; -661.000
854.698; -152.600; -340.000; -279.000
854.946;  -69.400; -181.000; -284.000
855.195; -234.700; -843.000; -868.000
855.444; -121.000; -395.000; -420.000
855.693; -188.000; -345.000; -432.000
855.941; -170.600; -387.000; -516.000
856.190;  -63.300; -256.000; -382.000
856.439; -190.100; -652.000; -703.000
856.687;  -24.900;  -99.000;  -72.000
856.936; -182.300; -621.000; -323.000
857.184; -325.300;-1067.000;-1020.000
857.433; -138.200; -423.000; -512.000
857.681; -244.100; -989.000; -953.000
857.930;  -97.100; -282.000; -433.000
858.178; -305.400; -856.000; -929.000
858.427; -241.100; -802.000; -781.000
858.675; -174.500; -377.000; -544.000
858.923; -162.600; -527.000; -819.000
859.172; -297.200;-1094.000;-1070.000
859.420; -108.600; -339.000; -239.000
859.668; -211.000; -624.000; -628.000
859.916;   25.100;  109.000;  115.000
860.164; -174.600; -699.000; -603.000
860.413;  499.000; -878.000; -696.000
860.661;  237.400; -709.000; -577.000
860.909; -112.100; -339.000; -325.000
861.157; -115.400; -277.000; -444.000
861.405; -171.400; -534.000; -670.000
861.653;   87.500;  310.000;  310.000
861.901;  324.600; -543.000; -613.000
862.149;  -42.100; -801.000; -824.000
862.396; -123.500; -297.000; -187.000
862.644; -142.800; -368.000; -347.000
862.892;    3.000;   98.000;  138.000
863.140; -186.600; -549.000; -530.000
863.388; -252.900; -815.000; -759.000
863.635; -156.400; -642.000; -601.000
863.883;   36.300;  231.000;  190.000
864.131; -124.800; -288.000; -357.000
864.378; -199.700; -675.000; -540.000
864.626; -157.100; -347.000; -415.000
864.873; -190.000; -556.000; -505.000
865.121; -228.600; -714.000; -799.000
865.368;    3.200; -173.000;   75.000
865.616;  -17.600;  -33.000;  -40.000
865.863; -109.300; -462.000; -506.000
866.111; -222.300; -795.000; -824.000
866.358;   68.600; -426.000; -420.000
866.605; 4111.600;  -64.000; -804.000
866.853; 3108.500; -621.000; -537.000
867.100;  -94.800; -728.000; -775.000
867.347; -170.300; -672.000; -611.000
867.594; -102.900; -740.000; -714.000
867.841;  188.900;   97.000;   17.000
868.089; -255.800; -746.000; -698.000
868.336; -142.800; -477.000; -420.000
868.583; -208.500; -637.000; -741.000
868.830;  -40.600; -131.000; -170.000
869.077; -299.800; -859.000; -787.000
869.324; -186.200; -502.000; -458.000
869.571; -208.900; -398.000; -430.000
869.818; -176.000; -485.000; -439.000
870.065; -169.800; -439.000; -513.000
870.311; -158.900; -456.000; -542.000
870.558; -145.900; -332.000; -311.000
870.805; -112.200; -320.000; -384.000
871.052; -158.000; -494.000; -369.000
871.298;  -36.000; -204.000; -131.000
871.545;  -71.100; -151.000; -185.000
871.792;  -94.700; -173.000; -222.000
872.038;  -60.700;   43.000; -126.000
872.285; -178.300; -496.000; -387.000
872.532; -138.800; -357.000; -387.000
872.778;   98.800;  556.000;  403.000
873.025; -148.400; -384.000; -359.000
873.271;   85.000;  501.000;  578.000
873.517;  -32.100; -133.000; -209.000
873.764;  -36.200; -193.000;  -80.000
874.010;  -72.600; -143.000; -230.000
874.257;   -9.900;  123.000;   90.000
874.503; -211.000; -579.000; -479.000
874.749;  -45.400;   31.000;  275.000
874.995;  -49.900;  -80.000;  -20.000
875.242; -173.100; -540.000; -478.000
875.488; -154.800; -414.000; -439.000
875.734;  -18.300; -106.000; -234.000
875.980;  373.300; -872.000;-1032.000
876.226;  526.100; -157.000; -255.000
876.472;   32.100;  343.000;  237.000
876.718;  -15.400;  184.000;  158.000
876.964;    1.300;   56.000;   55.000
877.210; -221.000; -547.000; -677.000
877.456; -200.300; -630.000; -557.000
877.702; -285.500; -821.000; -832.000
877.948; -137.900; -377.000; -497.000
878.193;   40.800;  361.000;  255.000
878.439; -130.500; -487.000; -472.000
878.685; -168.300; -272.000; -343.000
878.931; -198.300; -618.000; -676.000
879.176;  -84.900; -201.000; -201.000
879.422; -304.800; -933.000; -820.000
879.668;  218.900;   10.000;   79.000
879.913;  261.200;   53.000;  137.000
880.159;  -55.700; -112.000;  -17.000
880.404;  -40.600; -152.000; -162.000
880.650;   -8.400;   91.000;  141.000
880.895; -225.800; -670.000; -710.000
881.141; -191.900; -454.000; -428.000
881.386; -222.400; -503.000; -658.000
881.631; -109.600; -311.000; -166.000
881.877;   30.400;  112.000;  -13.000
882.122; -193.600; -684.000; -600.000
882.367; -114.200; -136.000; -186.000
882.612;  -79.200;  -80.000; -176.000
882.858; -283.500; -877.000; -823.000
883.103; -125.500; -297.000; -267.000
883.348; -216.100; -759.000; -852.000
883.593; -240.400; -677.000; -602.000
883.838;  -26.600; -311.000;  -24.000
884.083;  107.100;  353.000;  288.000
884.328; -107.300; -564.000; -545.000
884.573;  -50.300; -196.000; -143.000
884.818;  390.100; -694.000; -531.000
885.063;  240.300; -348.000; -315.000
885.308; -126.700; -475.000; -398.000
885.553;   65.000;  245.000;  325.000
885.797; -184.500; -545.000; -615.000
886.042;  -20.700;    8.000;   58.000
886.287; -119.100; -253.000; -211.000
886.532;   10.000;   26.000;  204.000
886.776; -123.800; -407.000; -525.000
887.021; -241.300; -621.000; -574.000
887.265; -250.100; -685.000; -689.000
887.510; -226.900; -557.000; -496.000
887.755; -107.600; -194.000; -164.000
887.999; -215.500; -552.000; -575.000
888.244;  -55.900;  -58.000;  161.000
888.488;   87.000;  371.000;  393.000
888.732; -189.100; -368.000; -520.000
888.977; -198.600; -622.000; -567.000
889.221; -280.900; -683.000; -659.000
889.465; -202.100; -422.000; -566.000
889.710;  -90.700;  -56.000; -299.000
889.954;   95.800;  579.000;  467.000
890.198; -236.400; -584.000; -707.000
890.442; -273.700; -716.000; -712.000
890.687; -268.000; -800.000; -753.000
890.931;  -76.200; -273.000; -210.000
891.175; -194.600; -502.000; -500.000
891.419;  -82.700; -105.000; -110.000
891.663; -113.300; -239.000; -112.000
891.907; -260.200; -801.000; -545.000
892.151; -293.300; -920.000; -815.000
892.395; -147.700; -274.000; -387.000
892.638;  -10.100;  408.000;  291.000
892.882; -302.600; -780.000; -867.000
893.126;   92.700;  758.000;  558.000
893.370; -126.500; -167.000; -168.000
893.614; -224.600; -714.000; -715.000
893.857;  -99.100; -183.000; -197.000
894.101; -220.600; -527.000; -631.000
894.345;  -40.800;  300.000;  150.000
894.588;  105.300;  569.000;  380.000
894.832; -104.700; -178.000;  -84.000
895.075;  -76.700;   15.000;  -92.000
895.319; -197.400; -552.000; -420.000
895.563; -166.300; -413.000; -353.000
895.806; -249.900; -628.000; -741.000
896.049;  -35.600; -576.000; -368.000
896.293;  222.100;  527.000;  405.000
896.536;  -80.900; -465.000; -468.000
896.779;  -47.200; -149.000;   -1.000
897.023; -207.500; -751.000; -714.000
897.266;   28.700;  325.000;  269.000
897.509; -320.800; -900.000; -901.000
897.752;  -48.500;  149.000;  171.000
897.996; -351.700; -972.000; -864.000
898.239;  -31.000;  168.000;  102.000
898.482; -198.400; -431.000; -453.000
898.725;   -4.100;  101.000;   53.000
898.968; -258.000; -609.000; -744.000
899.211; -148.100; -513.000; -361.000
899.454; -205.700; -633.000; -539.000
899.697;  -75.900;   90.000;  -43.000
899.940; -254.600; -761.000; -757.000
900.182; -175.200; -335.000; -405.000
900.425; -124.100; -150.000; -298.000
900.668;   19.800;  491.000;  350.000
900.911; -150.200; -292.000; -345.000
901.154;  -24.500;  141.000;   -3.000
901.396; -182.000; -407.000; -412.000
901.639; -208.700; -430.000; -496.000
901.882; -282.800; -790.000; -809.000
902.124;  -71.700;  -29.000; -143.000
902.367; -153.400; -315.000; -361.000
902.609; -189.900; -476.000; -453.000
902.852; -120.200; -108.000; -260.000
903.094; -197.500; -458.000; -337.000
903.337;  -35.800;  -26.000;   53.000
903.579; -182.100; -228.000; -441.000
903.821; -260.900; -597.000; -744.000
904.064;  -20.900;   85.000;  127.000
904.306; -118.400; -126.000; -166.000
904.548; -140.000; -152.000; -366.000
904.790; -114.400; -195.000; -340.000
905.033; -170.200; -625.000; -577.000
905.275; -187.700; -513.000; -524.000
905.517;  119.200;  468.000;  256.000
905.759; -121.000; -667.000; -761.000
906.001; -158.100; -322.000; -369.000
906.243; -104.200; -162.000; -224.000
906.485;  259.100; -265.000; -207.000
906.727;  140.200; -499.000; -542.000
906.969;  -12.200;  -30.000; -135.000
907.211;  260.500; -316.000; -382.000
907.453;  472.400; -188.000; -237.000
907.695;   12.500; -158.000; -385.000
907.936;  183.000;  818.000;  706.000
908.178;  -41.900;   92.000; -135.000
908.420;  -89.000; -111.000; -162.000
908.662; -203.900; -633.000; -682.000
908.903; -103.000; -208.000; -123.000
909.145;  -61.200; -240.000; -305.000
909.386;   85.400;  315.000;  280.000
909.628;  126.500;  363.000;  397.000
909.870;   43.600;   29.000;  264.000
910.111; -152.500; -809.000; -949.000
910.353;   46.300; -123.000; -161.000
910.594;   37.100; -574.000; -606.000
910.835;  193.100; -265.000; -326.000
911.077;  275.800; -503.000; -604.000
911.318;  582.900; -505.000; -471.000
911.559;  859.600; -577.000; -880.000
911.801; 2685.800; -284.000; -280.000
912.042;23290.100;  -50.000; -159.000
912.283;48454.300;  404.000;  371.000
912.524; 5654.400; -396.000; -457.000
912.765;  917.500; -193.000;   79.000
913.006;  486.300; -307.000; -338.000
913.247;  109.600; -270.000; -290.000
913.488;   38.300;  -43.000;   30.000
913.729;  -98.600; -373.000; -373.000
913.970;  -75.900;  -96.000; -292.000
914.211; -107.200; -160.000; -198.000
914.452;  -48.200; -118.000;  -11.000
914.693;  107.400;  510.000;  592.000
914.934;   80.900;  510.000;  440.000
915.175;  -34.500;   53.000;  -95.000
915.415;  -69.100; -137.000;   27.000
915.656;  -54.900;  -28.000;  192.000
915.897; -146.700; -252.000;  -82.000
916.137;  -83.700;   74.000;   -9.000
916.378; -191.700; -573.000; -517.000
916.619; -106.100; -159.000;  -63.000
916.859;   31.300;  303.000;  330.000
917.100;  373.300; 1655.000; 1070.000
917.340;  177.400;  930.000;  728.000
917.581;  167.800;  965.000;  789.000
917.821;   16.400; -171.000;  143.000
918.061;   51.900; -199.000;  -72.000
918.302;  -67.000; -152.000; -211.000
918.542;    1.900;  -22.000;    3.000
918.782;  115.400;  369.000;  377.000
919.023;  293.000;  360.000;  427.000
919.263; 2742.300; 8131.000;  202.000
919.503; 1722.400; -137.000;  -54.000
919.743; 1132.000;  390.000;  266.000
919.983;  390.800; -134.000;  -26.000
920.223;  176.900;  135.000;   14.000
920.463;  348.000;  631.000;  554.000
920.703;  259.100;   84.000;   39.000
920.943;  294.700; -110.000;   90.000
921.183;  353.800; -414.000; -405.000
921.423;  949.700;  307.000;  546.000
921.663; 1224.600; -174.000; -257.000
921.903; 2800.300;  237.000;  173.000
922.143;17098.800;  372.000;  389.000
922.383;57851.300;  158.000;  115.000
922.622;14853.700; -120.000;  -15.000
922.862; 1874.200;  796.000;  785.000
923.102;  781.100;  -51.000;   33.000
923.341;  297.200;   59.000;   74.000
923.581;  206.400;  450.000;  360.000
923.821;  102.800;  301.000;  398.000
924.060;   64.500;  351.000;  193.000
924.300;  -79.300;  -16.000; -128.000
924.539;   27.600;  584.000;  473.000
924.779;  115.100;  812.000;  597.000
925.018;  -21.200;  247.000;  353.000
925.257;   55.400;  595.000;  666.000
925.497;   19.300;  447.000;  412.000
925.736;  -87.900;  -35.000;  102.000
925.975;   62.100;  687.000;  669.000
926.214;  168.300;  907.000;  850.000
926.454;  127.200;  706.000;  757.000
926.693;    6.700;  419.000;  543.000
926.932;  139.500; 1021.000;  825.000
927.171;  229.600; 1107.000; 1044.000
927.410;  212.700; 1144.000;  967.000
927.649;  157.200;  924.000;  742.000
927.888;   92.400;  590.000;  564.000
928.127;   36.900;  680.000;  678.000
928.366;  113.000;  842.000;  826.000
928.605;  153.600;  831.000;  737.000
928.844;  525.600; 1451.000; 1393.000
929.083; 1104.800;  770.000;  613.000
929.321;  541.100; 1335.000; 1359.000
929.560;  234.000; 1158.000; 1122.000
929.799;    8.600;  574.000;  475.000
930.038;  243.300; 1025.000; 1394.000
930.276;  -23.300;  334.000;  397.000
930.515;   50.700;  827.000;  681.000
930.753;    8.200;  614.000;  589.000
930.992;   45.800;  664.000;  717.000
931.230;   92.300;  847.000;  847.000
931.469;  405.900; 2162.000;  892.000
931.707;  233.900;  840.000;  751.000
931.946;  212.900; 1278.000; 1344.000
932.184;  245.200; 1437.000; 1175.000
932.423;  216.300; 1265.000;  963.000
932.661;  241.200; 1296.000; 1428.000
932.899;  123.400;  987.000;  821.000
933.137;   92.000;  754.000;  564.000
933.376;  364.300; 1664.000; 1335.000
933.614;  394.200; 1759.000; 1196.000
933.852;  190.300; 1357.000; 1171.000
934.090;  331.700; 1722.000; 1747.000
934.328;  243.300; 1252.000; 1457.000
934.566;  257.100; 1431.000; 1110.000
934.804;  303.300; 1263.000; 1309.000
935.042;  917.800; 1861.000; 1850.000
935.280; 3425.100; 2088.000; 2063.000
935.518; 2651.700; 2113.000; 2007.000
935.756;  707.600; 2481.000; 2316.000
935.994;  432.100; 1808.000; 1751.000
936.231;  809.400; 2890.000; 2950.000
936.469;  443.800; 2367.000; 2378.000
936.707;  413.600; 2220.000; 2167.000
936.945;  526.500; 2825.000; 2882.000
937.182;  490.700; 2679.000; 2741.000
937.420;  687.700; 3602.000; 3031.000
937.657;  926.500; 3365.000; 3478.000
937.895;  777.300; 3331.000; 3488.000
938.133;  692.300; 3540.000; 3528.000
938.370;  785.100; 3896.000; 4191.000
938.607;  905.800; 4488.000; 4205.000
938.845; 1180.200; 5587.000; 5549.000
939.082; 1065.600; 5387.000; 5177.000
939.320; 1192.000; 5799.000; 5728.000
939.557; 1333.400; 6549.000; 6491.000
939.794; 1588.000; 7285.000; 7097.000
940.031; 1909.900; 8421.000; 8368.000
940.269; 2325.700; 9552.000; 9107.000
940.506; 2313.700;10901.000;10507.000

