
Integration time [ms]: 200.000
Averaging Nr. [scans]: 10
Smoothing Nr. [pixels]: 0
Data measured with spectrometer [name]: 2101013U2
Wave   ;Sample   ;Dark     ;Reference
[nm]   ;[counts] ;[counts] ;[counts] 

394.013;  121.549; -450.257; -315.536
394.305;  438.846; -461.258; -419.536
394.596; 1903.697; -676.269; -527.514
394.887; 4321.521; -796.268; -654.518
395.178; 1775.665;  145.736;   11.476
395.470;  155.581; -210.263; -356.526
395.761;  444.542;  305.734;  394.479
396.052;  720.517; -545.284; -306.489
396.343;  749.317; -557.276; -454.503
396.634;  223.372; -200.279; -290.497
396.926;  213.117; -618.268; -565.517
397.217;  235.824;   11.725;  -17.504
397.508;  100.447; -366.273; -154.507
397.799;   72.472; -555.279; -571.497
398.090;  -16.236; -973.280; -902.495
398.381;  248.408;   11.708;  -11.473
398.672;   -8.390; -585.292; -742.473
398.963;   89.081; -348.279; -373.498
399.254;  163.923;   54.709; -209.475
399.545;  -90.862;-1017.266; -883.520
399.836;   93.701; -407.277; -343.501
400.127;  123.274; -205.295; -209.468
400.418;   68.339; -423.274; -392.506
400.709;  126.945; -359.281; -333.493
401.000;  117.029; -268.291; -309.476
401.290;  217.283;  225.698;  115.545
401.581;  133.492; -166.286; -228.485
401.872;   43.234; -542.298; -486.462
402.163;   72.063; -313.296; -252.467
402.454;  170.024; -123.291; -163.475
402.744;  105.551; -844.297; -813.465
403.035;  793.496; -226.293;  -86.471
403.326; 1009.914; -366.292; -384.474
403.617;  616.126;  204.701;  165.539
403.907;  375.825; -593.283; -679.490
404.198; 3987.416; -545.307; -599.446
404.489;10253.432; -618.283; -588.491
404.779; 3595.388; -618.302; -660.456
405.070;  432.457;  -67.304; -174.451
405.360;  582.998; -259.293; -238.472
405.651;  636.304;  125.699;   98.542
405.942;  377.385;  209.714;  127.516
406.232;  517.206; -432.285; -413.487
406.523;  960.888;  641.706;  758.530
406.813;  183.488; -579.286; -644.484
407.104;  648.407;  261.708;  144.527
407.394;  296.127; -604.299; -591.462
407.685;  309.104;  336.715;  222.513
407.975;  130.630; -400.283; -382.490
408.265;  209.445; -134.289; -190.478
408.556;  106.819; -472.291; -459.475
408.846;  374.089;  474.706;  429.530
409.137;  161.657;   -1.288; -216.480
409.427;  118.205; -193.285; -271.487
409.717;   35.451; -776.273; -692.508
410.007;  238.596;    4.715; -170.486
410.298;  165.078; -360.295; -342.469
410.588;  106.502; -495.285; -510.486
410.878;    5.673; -792.287; -873.482
411.168;  199.437; -481.298; -478.463
411.459;  232.822; -295.283; -242.489
411.749;  120.217; -609.292; -507.474
412.039;  103.654; -755.289; -386.480
412.329;  381.591;   40.722;  132.501
412.619;  372.089;  -62.286; -148.485
412.909;  705.849;  639.711;  594.521
413.199;  571.964; -130.280; -251.495
413.490;  736.635;  521.710;  352.523
413.780;  213.570;-1013.279; -913.496
414.070;  565.919;  -46.276;  235.497
414.360;  618.786; -729.278; -666.498
414.650;  686.967; -726.288; -688.482
414.940;  850.669; -538.280; -441.496
415.230; 1524.763;   50.712;   74.519
415.520;10297.996;  155.730;   66.486
415.809;38953.545; -305.281; -125.493
416.099;31048.205; -388.277; -229.501
416.389; 8349.835;  435.726;  236.494
416.679; 5024.686;   91.738;   85.473
416.969;  874.379; -527.287; -503.483
417.259; 1045.173;  341.721;  171.503
417.549; 1192.043;  522.718;  318.508
417.838; 2663.320; -205.268; -147.518
418.128; 8802.743;  650.710;  492.522
418.418; 7380.060; -491.272; -579.509
418.708; 5079.636;    9.726;  -48.506
418.997;18586.530; -474.275; -480.505
419.287;19419.345; -733.273; -790.507
419.577;18260.021; -160.283; -123.489
419.866;58216.902; -588.277; -498.501
420.156;60233.190; -242.270;  -55.513
420.446;11570.976; -112.263;  -26.526
420.735; 1479.981; -376.271; -446.512
421.025; 1575.384; 1830.722;  315.502
421.314; 1267.179; -203.271; -226.512
421.604; 2534.910;   89.732;  233.484
421.893; 1511.973; -705.271; -602.511
422.183;  418.176; -487.263; -461.526
422.472;  698.075;  -36.271; -107.511
422.762;  735.146; -416.266; -379.521
423.051;  365.819; -916.276; -916.503
423.341;  519.048; -491.273; -439.507
423.630;  675.055; -121.265;   15.477
423.919;  635.929;   58.725;   49.495
424.209;  619.984;  -31.263;   56.473
424.498;  831.117;   68.732;  161.483
424.787; 1700.726; -535.267; -601.518
425.077; 5365.453;   34.735;   29.478
425.366; 7615.292; -734.262; -744.528
425.655;15598.049;  639.727;  259.493
425.945;32548.178; -313.247; -268.554
426.234;18842.725;  117.741;  300.467
426.523; 8236.932;  -86.259; -350.534
426.812;11283.540;  107.734;  159.480
427.101;16423.805; -127.269; -323.515
427.390;20628.696;  -55.270;  -86.514
427.680; 4919.260; -624.257; -411.538
427.969;  843.876; -330.255; -301.540
428.258;  551.048; -385.257; -477.536
428.547;  947.466;  449.728;  397.490
428.836; 2061.799; -421.253; -398.543
429.125; 2982.835; -199.259;  -72.534
429.414; 1404.032; -330.251; -294.548
429.703; 5109.032; -231.251; -213.548
429.992;14734.137; -938.250; -828.549
430.281; 9963.166; -397.264; -331.524
430.570; 1060.018;  -21.252;   32.454
430.859; 1051.431;  279.741;  352.466
431.148;  858.372;  636.752;  631.446
431.437;  534.518;  391.748;  367.454
431.725;  248.050; -544.257; -481.536
432.014;  169.410; -845.253; -756.545
432.303;  691.281; -149.239; -105.569
432.592;  981.875; -460.263; -178.525
432.881; 1695.373; -601.248; -437.554
433.169; 9728.577; -343.255;  -61.540
433.458;19560.830;  445.765;  540.424
433.747; 8560.000; -397.261; -289.529
434.036; 1538.546; -275.242; -280.564
434.324; 3395.355; -395.249; -379.551
434.613; 5737.137;   40.757;  159.437
434.902; 2094.167;  333.760;  439.433
435.190; 1060.479;   75.761;  295.431
435.479;  592.911;  -52.245;   83.441
435.767;  183.222; -411.244; -427.561
436.056;  357.140; -340.242; -294.563
436.345;  584.370; -372.240; -223.568
436.633;  703.348;   60.750;  383.450
436.922;  523.573;  208.760;  414.432
437.210; 1081.615; -194.236;    1.426
437.499; 3361.427; -583.235; -432.576
437.787; 3763.915; -339.236;  -10.574
438.075; 1067.587;   56.761;  162.430
438.364; 1306.691;  -44.238;  250.429
438.652;  845.142; -286.226; -138.592
438.941;  267.190;    3.770;  269.415
439.229;    8.514; -665.252; -466.545
439.517;   92.139; -160.234;  -85.577
439.806;  -13.236; -501.225; -290.595
440.094;  357.250;  377.766;  650.421
440.382;  306.255; -653.233; -302.580
440.670;  363.126; -361.235; -285.576
440.959;   42.489; -347.223; -170.599
441.247;  150.306; -151.229; -109.587
441.535;  166.236; -266.235;   31.423
441.823;  103.846; -497.234; -305.578
442.111;  342.612;  173.771;  327.412
442.400;  893.410; -628.245; -335.559
442.688; 2436.649; -111.234; -620.579
442.976; 1717.116; -786.213; -450.617
443.264;  195.174; -324.224; -364.597
443.552;  182.943; -258.226;   51.408
443.840;  328.735;  602.765;  876.423
444.128;  198.354;  265.767;  269.420
444.416;  -11.684; -694.228; -312.588
444.704;   52.932; -465.219;  -92.605
444.992;  134.447;   -0.226;  240.407
445.280;   59.191; -517.230;  -94.585
445.568;   34.521; -694.212; -396.618
445.856;  614.309; -174.221;  357.398
446.143; 1290.927;  -54.220;   -7.604
446.431; 1091.621;  -25.228;  625.411
446.719;  482.760;  489.783;  675.391
447.007;  338.983;  481.769;  705.416
447.295;  382.285;  597.777;  871.402
447.583;  138.703; -464.229;  -34.587
447.870;  250.505; -434.221; -202.601
448.158;  687.989; -104.230;  129.415
448.446;  476.128; -800.219; -338.604
448.733;  295.676;   13.776;  269.403
449.021;  441.920;   60.788;  341.382
449.309;  286.442; -296.210;  208.379
449.596;  367.554;  128.783;   59.392
449.884;  205.195; -571.222; -325.600
450.172;  170.429; -756.227; -406.590
450.459;  724.192;  645.786;  780.387
450.747; 3590.052; -411.218; -147.608
451.034;11461.323;  493.772;  889.411
451.322; 9522.696; -413.214; -170.614
451.609;  883.078;  292.777;  508.403
451.897;  910.333; -550.203; -183.634
452.184; 2768.186; -622.223; -400.598
452.472; 2641.173;   97.792;  269.375
452.759;  624.329;  512.781;  864.395
453.047;  200.317; -407.212; -125.617
453.334;  154.240; -732.219; -216.606
453.621;  166.499; -438.214; -161.615
453.909;  251.521;   13.796;  384.368
454.196;  178.286; -299.199; -123.641
454.483;  386.651;  317.798;  540.364
454.771;  246.477; -215.208;  196.374
455.058;   96.582; -316.207;  102.374
455.345;  205.066;   71.807;  344.347
455.632;  169.987; -128.207;  235.373
455.919;  116.119;  -82.196;  182.354
456.207; -140.507; -774.198; -450.642
456.494;  -31.731; -475.200;  -66.639
456.781;   43.845; -399.202; -198.635
457.068;  107.596; -253.206;  -29.628
457.355;  -26.302; -698.206; -401.629
457.642;    1.105; -552.205; -290.630
457.929;   -1.947; -778.194; -417.651
458.216;   54.817; -575.212; -354.617
458.503;  369.360; -173.193;  -19.652
458.790;  293.074; -864.208; -630.625
459.077;  427.652;  -77.202;  110.364
459.364; 1230.143; -350.195; -210.649
459.651; 2585.593;  -46.206;  220.372
459.938; 1188.060; -864.209; -665.623
460.225;  290.157;  132.799;  276.363
460.512;  -99.685; -836.197; -688.645
460.799;  193.451;  -32.218;  320.392
461.086;  117.475; -370.200; -251.640
461.372;   55.493; -509.198; -279.642
461.659;  190.021; -165.196;  108.354
461.946;  115.258; -445.193;  -54.651
462.233;  475.472;  842.800;  888.361
462.519;  515.567; -814.201; -464.639
462.806; 1511.915; -768.197; -497.645
463.093; 1386.187; -445.191;  -66.656
463.380;  -76.953; -920.186; -824.664
463.666;  124.018; -259.197;  -18.646
463.953;  146.635; -406.195; -243.648
464.239;  250.235; -173.195;  -77.648
464.526;  670.151;  413.806;  743.350
464.813;  505.704; -565.190; -304.658
465.099;  662.759;  606.807;  607.348
465.386;  615.065;  903.807;  921.348
465.672;   35.716; -694.197; -522.645
465.959;   31.930; -598.188; -520.662
466.245;   36.665; -468.193; -359.652
466.532;  217.232; -109.195;   63.352
466.818;  184.046; -357.186; -216.664
467.104;   -4.196; -488.182; -415.672
467.391;  -35.493; -628.189; -459.658
467.677;   87.252; -289.186;    9.335
467.964;   -6.484; -682.189; -471.660
468.250;  134.956; -331.186; -160.665
468.536;  182.609;   90.811;  180.341
468.822;  -76.527; -821.184; -574.668
469.109;  304.920;  351.827;  471.311
469.395;  384.979;  729.808;  787.346
469.681;  343.713;   46.811;  156.341
469.967; 1903.520; -699.188; -382.660
470.254; 3984.931; -494.188; -306.662
470.540; 2718.819; -601.196; -476.646
470.826;  361.420; -488.181; -397.675
471.112;  506.278;  288.816;  113.331
471.398;  168.984; -253.183;  -58.670
471.684;   64.661; -626.177; -447.680
471.970;  -53.174; -918.180; -981.675
472.256;   42.677; -521.192; -441.654
472.542;   51.436; -499.171; -434.691
472.828;   23.799; -743.182; -607.672
473.114;   93.999; -380.166; -283.700
473.400;   16.985; -504.175; -293.684
473.686;   58.908; -452.166; -400.701
473.972;   78.606; -230.174; -131.687
474.258; -103.579; -925.173; -843.689
474.544;  314.549; -183.178;   -2.679
474.830;  484.187;  -65.175;   45.316
475.116;  743.106; -123.190; -196.658
475.401;  887.329; -558.180; -467.676
475.687;  279.328; -725.180; -718.676
475.973;  -24.390; -673.181; -770.673
476.259;  444.190;  736.825;  764.315
476.544;  541.873; -539.176; -437.682
476.830; 1132.231; -398.172; -322.690
477.116; 1035.771; -430.177; -336.682
477.401;  289.228;  346.820;  358.324
477.687;  -22.415; -289.175; -405.684
477.973;  118.115;   21.819;   28.326
478.258;  -11.163; -448.163; -348.706
478.544;  110.663;   21.815;   61.334
478.829; -106.656; -818.171; -738.692
479.115;  -98.970; -749.172; -651.690
479.401;  -30.601; -444.174; -449.686
479.686;   58.727; -253.180;  -74.676
479.972;  -97.144; -886.178; -776.680
480.257;   86.601; -258.166;  -65.700
480.542;  -12.150; -614.170; -469.693
480.828;  476.582; 1288.824; 1392.317
481.113;  -41.821; -464.176; -426.683
481.399;    3.072; -236.161; -202.711
481.684; -104.900; -620.166; -462.700
481.969;   64.391; -158.159;  -73.713
482.255;  -17.935; -439.169; -285.695
482.540;    0.957; -569.178; -441.680
482.825;  -25.860; -395.187; -404.663
483.110;  169.370;  -85.169; -105.696
483.396;  235.822; -840.157; -652.718
483.681;  801.606;  543.826;  730.313
483.966;  222.782; -696.160; -700.712
484.251;   33.605; -404.174; -310.687
484.536;   18.916; -356.165; -378.703
484.822;   36.009; -205.173; -218.687
485.107;  -43.223; -599.152; -502.726
485.392;  264.824;  662.836;  541.296
485.677;  140.484;  354.832;  163.302
485.962;  225.918;  160.843;  270.283
486.247;  181.849;  -14.162;   -8.707
486.532;  112.403; -178.166; -325.701
486.817;  284.763;  381.839;  431.291
487.102;  165.952; -453.154; -514.722
487.387;  957.125; -637.156; -652.718
487.672; 1645.031; -154.164;  -38.705
487.957; 1068.174; -394.160; -286.711
488.241;  299.501; -290.150; -314.729
488.526; 1072.579; -280.152; -148.726
488.811; 1642.160; -881.177; -818.680
489.096; 1271.156; -666.154; -702.723
489.381;  759.774;    3.847;  162.275
489.666;  523.771; -428.161; -510.710
489.950;  326.961;  558.846;  627.277
490.235;  -70.806; -480.151; -458.728
490.520;  -84.630; -756.161; -723.710
490.804; -114.972; -827.156; -736.719
491.089;  -15.676; -469.149; -299.732
491.374;   70.029; -132.164;  -75.704
491.658;  -53.160; -817.147; -717.735
491.943;  226.885; -657.152; -609.727
492.227;  410.046; -178.155;  -38.721
492.512;   99.218; -294.157; -341.717
492.797; -137.985; -713.149; -716.731
493.081;  -97.156; -588.147; -598.735
493.366;  -98.428; -751.161; -635.711
493.650;  445.621;  831.859;  917.254
493.935;   54.639; -648.147; -447.734
494.219;  -83.298; -778.142; -687.743
494.503;  -88.592; -585.150; -487.730
494.788;   92.206;   46.842;   74.285
495.072;  217.503;  184.850;  434.271
495.356;  247.428; -463.148; -343.733
495.641;  671.354; -812.146; -736.736
495.925;  643.035; -976.156; -903.719
496.209;   88.123; -599.149; -451.732
496.494;  -94.797; -763.142; -544.744
496.778;   35.453; -364.154; -360.722
497.062; -127.866; -819.156; -627.719
497.346;  -55.124; -869.160; -640.711
497.631;  285.833;  580.852;  560.266
497.915;  170.069;  -64.145;  175.261
498.199;   80.822; -341.157; -277.718
498.483;   40.976; -562.152; -508.725
498.767;  350.004;  301.850;  300.271
499.051;  275.819; -126.149; -100.732
499.335;   15.217; -693.149; -739.731
499.619;  -54.434; -381.129; -423.767
499.903;   65.745; -272.155;  -65.721
500.187;   47.063; -588.153; -316.724
500.471;  -12.616; -796.152; -595.727
500.755;  171.870;   62.839;  -96.710
501.039;   39.345; -270.155; -357.721
501.323;  223.323;  -21.141;  264.254
501.607;   58.138; -447.163; -503.706
501.891;  -38.376; -607.156; -512.718
502.174; -107.615; -726.144; -585.741
502.458;  155.190;   89.849;  370.273
502.742;   73.057; -180.138; -191.751
503.026;  116.539; -412.147; -254.734
503.310;  212.089; -437.159; -375.713
503.593;  162.841; -464.147; -325.735
503.877;  202.815; -232.133; -156.760
504.161;  274.466;    2.847;  -50.724
504.444;  156.309; -841.158; -710.716
504.728;  639.928; -487.164; -522.704
505.012; 1054.700; -257.150;  -76.729
505.295;  810.872; -417.161; -212.711
505.579;  781.634; -256.156; -496.719
505.862; 1040.863; -555.145; -333.738
506.146; 1026.393; -681.159; -758.714
506.429;  697.294;  568.841;  461.286
506.713;   83.396; -732.151; -667.728
506.996;  502.252;   90.846;  295.278
507.280;  440.621; -633.165; -474.703
507.563;  333.043; -469.155; -261.721
507.847;  113.964; -423.153; -112.724
508.130;  107.473; -665.161; -456.711
508.413;  145.395; -758.167; -577.700
508.697;  390.795; -151.167;   12.300
508.980;  197.666; -422.153; -312.724
509.263;  -22.163; -466.155; -450.720
509.547;   41.900; -124.150;   82.271
509.830;  103.276; -172.160;  140.289
510.113;  154.733;  128.844;  298.281
510.396;   56.574; -530.152; -300.725
510.680;  238.965; -818.145; -812.738
510.963; 1128.758;  184.846;  180.277
511.246;  926.911; -493.150; -357.730
511.529;  418.772; -482.145;  -83.739
511.812;  534.910; -250.134;   10.241
512.095;  342.392; -740.151; -396.728
512.378;  113.247; -317.147; -245.736
512.661;   28.968; -703.137; -623.753
512.944;    3.405; -750.142; -637.744
513.227;   87.064; -170.137; -171.752
513.510;   -3.015; -479.144; -671.741
513.793;   23.929; -485.140; -435.747
514.076;  223.496;  -43.127;  -39.771
514.359;  163.324; -294.149; -135.732
514.642;  113.509; -442.142; -567.744
514.925; 1189.627;  581.860;  561.253
515.208; 1368.005; -498.134; -443.758
515.491;  942.825; -276.133; -182.761
515.773;  542.090; -410.143; -337.742
516.056; 3088.577;  249.864;  409.246
516.339; 4004.383; -754.136; -652.755
516.622; 2927.407; -518.150; -488.730
516.904; 2197.100;  882.857;  975.257
517.187;  948.662; -730.138; -523.752
517.470;  597.098; -568.143; -510.743
517.752;  581.087; -624.136; -470.756
518.035;  464.544; -708.139; -725.749
518.318;  482.383; -799.136; -744.755
518.600; 3348.830; -300.132; -325.762
518.883; 4557.708;  310.858;   88.256
519.165; 2266.952; -585.138; -426.751
519.448;  624.630;  -61.132;  -19.762
519.730;  245.707; -573.126; -415.773
520.013;  552.019;  588.867;  664.240
520.295; 1428.413;  -94.134;  -15.759
520.578; 3042.948; -335.131; -305.764
520.860; 3398.130; -254.132;   56.238
521.143; 1731.990; -763.135; -584.756
521.425;  725.325; -251.125; -279.775
521.707;  994.396; -622.127; -380.771
521.990; 2628.097; -199.127;  167.229
522.272; 2908.432; -116.140;   -4.748
522.554; 1369.791; -237.143; -157.742
522.836;  640.510;  -24.134;   99.241
523.119;  321.737; -496.148; -189.734
523.401;  224.058; -448.130; -314.766
523.683;   77.269; -865.137; -693.753
523.965;  439.160;  408.862;  260.248
524.247;  430.756;   54.878;  170.220
524.529;  263.113; -451.134; -367.759
524.812;  596.661;   -3.130;  191.234
525.094; 1143.859; -773.138; -631.751
525.376; 1938.038; -143.124;   78.223
525.658; 1170.279; -441.136; -339.754
525.940;    2.944; -805.131; -671.764
526.222;   68.884; -188.136;  -88.755
526.504;  225.541; -190.131;   32.237
526.786;  278.016; -960.133; -647.760
527.068;  520.946; -124.123;  -67.778
527.349;  181.674; -865.137; -774.754
527.631;  197.829; -137.132;   22.238
527.913;  181.595; -664.127; -450.771
528.195;  148.415; -761.125; -639.774
528.477;  353.805;  -93.134;  -30.758
528.759;  133.561; -648.130; -522.766
529.040;   55.544; -569.123; -293.778
529.322;   67.819; -235.125;  -10.774
529.604;  256.264;  -47.130;   93.233
529.886;  159.206; -546.126; -302.773
530.167;  253.852;  232.870;  192.235
530.449;   82.346;    1.853;   63.265
530.731;  -10.545; -572.122; -459.779
531.012;   67.284; -513.120; -216.784
531.294;  127.241; -118.116;  -43.792
531.575;  259.825;  290.875;  538.225
531.857;   32.998; -548.135; -266.757
532.138;  141.421; -113.141;   40.254
532.420;  293.093;  294.865;  403.244
532.701;  285.520; -722.133; -751.760
532.983;  563.424;  232.867;  182.239
533.264;  216.503; -243.126;  175.228
533.546;  -77.716; -491.136; -508.755
533.827;   80.715;  173.867;   -1.759
534.109;   88.198; -352.135;  -80.757
534.390;  109.135; -725.132; -582.762
534.671;  402.692; -270.135;  -82.756
534.953;  161.248; -751.123; -611.779
535.234;   49.619; -426.117; -255.789
535.515; -187.404; -891.119; -735.785
535.796;  -38.510; -431.128; -193.770
536.078; -214.062;-1050.124; -904.777
536.359;   19.949;  -22.123;    3.221
536.640;  -37.483; -480.125; -197.774
536.921;  287.372;  225.871;  143.232
537.202;  559.554;  -87.138;  -16.751
537.483;  669.048;  251.869;  377.236
537.764;  289.352;   17.870;   98.235
538.045;  -62.796; -543.134; -371.758
538.326;  -68.326; -596.129; -447.768
538.607;  -27.202; -686.127; -476.771
538.888;  266.172;   98.879;    5.218
539.169;  228.564; -704.122; -535.781
539.450;  504.070;  236.871;   16.233
539.731;  298.277; -361.121; -182.783
540.012;  235.184;  199.880;  412.216
540.293;  135.430;   82.876;  158.224
540.574;  -33.230; -895.113; -717.796
540.855;  706.075;  435.879;  377.218
541.136;  791.160;   47.878;  139.220
541.416;  413.462; -161.130; -220.766
541.697;  266.841; -274.131; -170.763
541.978; 1440.796; -270.135; -315.757
542.259; 1845.597; -211.127; -236.771
542.539;  921.332; -191.116; -186.790
542.820;  313.225;  461.875;  480.225
543.101;  205.468;  -52.145;  -77.738
543.381;    4.397; -638.127; -591.771
543.662;  418.394;  159.873; -254.771
543.942;  740.791; -751.127; -830.770
544.223; 1540.662;  193.878;  161.219
544.504;  959.437; -275.124; -182.777
544.784;  871.006; -592.126; -408.773
545.065; 2361.537;  104.884; -254.791
545.345; 2785.297;  227.881;   14.215
545.626; 1856.469;  -14.113; -108.796
545.906; 1254.051;   77.869;   98.235
546.186;  501.213;   92.874;  -95.773
546.467;  311.741;   99.877;  -95.778
546.747;  500.531;  264.884;  327.210
547.027;  541.735;   91.876;  111.223
547.308;  417.490; -376.127; -530.770
547.588;  603.275;  299.871;  371.232
547.868;  333.853;  458.870;  588.235
548.149;  365.748;  609.885;  593.207
548.429;  188.095; -347.127; -299.771
548.709;  196.184; -645.120; -461.784
548.989;  739.010;   84.882;   88.213
549.269; 3022.027;   10.868;  139.239
549.550; 6648.047;  215.877;  117.222
549.830; 5953.595; -758.111; -556.799
550.110; 1230.706; -468.110; -320.801
550.390; 1210.855; -128.122;  -56.779
550.670; 1535.363; -868.114; -783.795
550.950; 1097.674; -509.121; -471.782
551.230;  345.669;  549.879;  460.218
551.510;  -16.727; -381.121; -326.782
551.790;   47.517; -173.109; -127.803
552.070;  487.341;  940.877; 1181.223
552.350;  543.102; -492.119; -377.786
552.630;  842.866;   -2.121;   77.219
552.909;  508.638;  181.884;   73.209
553.189;  346.637;  -49.132;   33.237
553.469;  237.502; -703.119; -514.786
553.749;  232.099; -469.127; -357.772
554.029;  252.325;   33.883;  -24.790
554.308;  240.454; -154.115;  -37.794
554.588;   71.588; -196.128; -204.770
554.868;   61.476; -366.121;  -47.782
555.147;  231.650; -114.115;  -46.793
555.427;  891.741; -260.116; -250.792
555.707; 5413.447; -284.115; -200.793
555.986; 6422.300; -719.111; -538.800
556.266; 3581.130;   23.884;   72.210
556.546;  130.673; -888.121; -675.782
556.825;  312.760; -657.114; -556.794
557.105; 2510.285; -125.128;   17.230
557.384; 2866.736;  122.884;  187.209
557.664; 1064.140; -717.116; -508.792
557.943;  145.175; -557.121; -411.782
558.222;  221.415; -345.118; -344.788
558.502;  361.152; -116.115;  -76.793
558.781;  753.445;  194.885;  499.208
559.061;  507.114; -232.118; -227.788
559.340;  479.022;  302.883;  353.211
559.619; 1018.529;   93.884;  148.210
559.899; 1383.924; -239.117; -266.789
560.178; 1314.451; -778.115; -593.793
560.457; 4480.027; -623.117; -562.790
560.736; 5972.102; -472.111; -482.800
561.015; 4131.782; -500.128; -502.769
561.295;  572.246;  180.893;  215.193
561.574;  573.948;  119.885;  116.207
561.853;  722.523;  274.891;  303.197
562.132;  711.955;  -45.114;  182.206
562.411;  677.666;  396.879;  553.219
562.690;  160.445; -592.115; -458.792
562.969;  285.480;  472.888;  630.203
563.248;  968.163; 2966.878; 2487.219
563.527;  356.801; -290.111; -408.800
563.806;  491.995; -650.127; -521.771
564.085;  548.267; -297.105; -206.810
564.364;  289.029; -594.117; -405.790
564.643;  751.067; -276.121; -223.781
564.922; 2629.815;  221.890;  397.198
565.201; 2495.920; -640.109; -700.803
565.479; 1107.843; -297.115; -219.792
565.758;  404.286; -810.128; -712.770
566.037;  666.421; -155.109; -100.803
566.316;  349.737; -286.116;  -28.791
566.595;   98.447;  -17.115;  -12.793
566.873;  219.903; -166.111;  -79.801
567.152; -121.121; -490.113; -590.797
567.431;   29.431; -113.116;    6.210
567.709;   32.346; -344.107; -212.807
567.988;  331.860; -810.114; -769.794
568.266;  749.147; -160.115;  -68.793
568.545;  501.535; -644.100; -514.819
568.824;  849.542;  160.885;  356.208
569.102;  711.059; -351.114; -235.794
569.381;  246.041; -492.116; -407.792
569.659;  -83.926; -553.113; -553.796
569.938;   -6.039; -743.122; -465.780
570.216;  148.925; -225.109; -225.804
570.494;  -83.136; -632.114; -572.795
570.773;  105.073;  202.879;  114.218
571.051;    0.045; -373.123; -357.778
571.330;   82.570; -221.113; -174.796
571.608;   66.261; -181.098; -173.823
571.886; -143.308; -671.111; -581.799
572.164; -144.824; -739.121; -621.782
572.443; -105.427; -562.105; -512.811
572.721;  -79.873; -399.117; -289.790
572.999;  -24.582; -280.117; -168.788
573.277;  161.763;  379.894;  620.191
573.555;  454.466;   94.894;   37.190
573.834; 1798.317;  -86.117; -114.788
574.112; 2239.249;  880.893;  811.193
574.390;  645.102; -143.111;  -96.801
574.668;   18.280;  -91.112;  -61.797
574.946;  -23.033; -165.106; -187.810
575.224;   16.319;   71.891;  -16.803
575.502;  -35.767; -200.116; -204.791
575.780; -157.118; -767.112; -829.798
576.058;  288.201; 1589.889; 1004.200
576.336;  -16.591; -210.110; -129.801
576.614; -118.418; -511.112; -340.798
576.891;   -2.947; -711.115; -823.794
577.169;  660.737; -158.108; -285.805
577.447;  804.348;  169.893;  202.193
577.725;  424.289;  629.888;  854.201
578.003;    9.886;  -71.112; -371.798
578.280;  157.386; -208.104; -242.812
578.558;   65.752; -450.115; -422.793
578.836;  208.664; -210.114; -145.795
579.114;    9.380; -630.112; -670.797
579.391;  125.720;   -6.117;  -18.789
579.669; -151.446; -595.114; -704.794
579.947;  243.744; -326.107; -127.806
580.224;  392.944; -692.107; -524.806
580.502;  436.550;  127.893;   76.193
580.779;   60.028;  -42.117;   75.210
581.057; -125.674; -584.109; -470.804
581.334; -185.693; -726.102; -695.815
581.612;   96.468;   54.895;  511.190
581.889;  -40.074;  -83.101; -129.818
582.167;  -65.354; -298.099; -190.821
582.444; -218.182; -845.102; -814.817
582.721;  216.419;  657.899;  715.183
582.999;   56.443; -326.100; -167.821
583.276;  639.951; -812.123; -713.779
583.553;  918.212; -364.102; -294.816
583.831;  258.081; -607.104; -631.812
584.108;   89.234;  349.892;  174.195
584.385;   26.306; -122.102;  -98.815
584.662; -144.896; -651.111; -828.801
584.940;   67.603;  204.889;  204.199
585.217;  -44.527;  -73.113; -303.796
585.494;   61.816;   71.890;  118.198
585.771;  268.527; -250.109; -354.804
586.048;  679.873; -196.113;  -76.796
586.325;  408.708; -721.110; -773.801
586.602;  161.386;  230.896;  213.188
586.879;  -63.062; -499.100; -580.820
587.156;   68.069; -156.105; -331.810
587.433; -101.185; -701.102; -667.817
587.710;  149.683;  152.888;  234.202
587.987;  409.577; -264.105; -236.811
588.264; 1101.485;  315.888;  387.202
588.541; 1990.390;  -61.104;   26.187
588.818; 3718.930;   72.892;  171.196
589.095; 3253.483; -163.104; -174.812
589.371;  530.224; -459.109; -414.804
589.648;    3.649; -581.107; -437.807
589.925;   17.465; -517.114; -621.795
590.202;  -32.917; -741.112; -607.798
590.478;  131.379; -166.105;  -73.811
590.755;  400.139; -241.108; -132.806
591.032; 3457.611; -741.110; -699.802
591.308; 4506.118; -732.094; -790.831
591.585; 2425.510; -573.110; -560.802
591.862;  125.817;-1056.102; -950.817
592.138;   80.435; -475.108; -474.805
592.415;  211.187; -486.104; -495.813
592.691; 2201.084;  460.896;  518.188
592.968; 2596.663; -208.098; -123.824
593.244; 1283.631; -695.116; -595.790
593.521;  122.118; -105.102;  -42.817
593.797;  -94.643; -810.122; -720.780
594.074;  427.082; -611.096; -588.826
594.350; 1051.997;  828.905;  729.172
594.626;  430.404; -303.111; -283.801
594.903;  100.519; -643.101; -645.817
595.179;  301.593;  243.896;  418.187
595.455;    1.151; -136.107; -150.807
595.731;   46.395;  -19.103;  -38.814
596.008;  -70.304; -464.111; -434.800
596.284;   19.641; -187.100; -242.820
596.560;   68.927; -501.093; -493.833
596.836;  271.472; -173.105;  -70.810
597.112;  457.136; -582.108; -437.805
597.388;  428.578;  -49.097;  -48.826
597.665;  196.777;  437.887;  530.203
597.941; -137.830; -572.089; -658.839
598.217;   15.715; -323.110; -293.802
598.493;  402.029;   61.891; -204.804
598.769;  670.833; -175.100;  -50.819
599.045;  375.740; -490.108; -562.806
599.321;   50.140; -193.100; -261.820
599.597;  169.028; -355.109; -476.804
599.872;  683.490;  409.896;  429.187
600.148;  526.781;  -61.097; -172.826
600.424;  417.847;   91.893;  202.193
600.700;  321.350; -170.107; -280.807
600.976;  155.072; -442.097; -464.825
601.252;  317.523; -226.109; -272.803
601.527;  188.391; -833.104; -840.813
601.803;  171.980; -453.105; -404.812
602.079;  259.933; -124.100; -118.819
602.354;  746.042; -620.092; -531.835
602.630; 1129.973; -140.113; -482.796
602.906; 3287.026; -910.101; -863.818
603.181; 8991.502; -627.119; -534.786
603.457; 7909.877;   98.903; -278.826
603.733; 1113.478; -605.120; -626.783
604.008; 1388.867; -245.106; -164.810
604.284; 4027.021; -636.101; -580.817
604.559; 3723.589;   -3.112;  -42.799
604.835;  667.872; -163.105; -225.810
605.110;  502.347; -732.099; -892.821
605.385;  971.631;  224.907;  267.167
605.661;  856.701; -625.095; -729.829
605.936; 1474.141; -664.108; -737.806
606.211; 1323.504;  -17.103; -170.815
606.487;  243.358; -329.114; -376.794
606.762;  -59.198; -791.119; -745.786
607.037;  -33.428; -501.105; -433.810
607.313; -117.108; -589.096; -574.828
607.588;  -35.933; -375.106; -137.810
607.863;   64.325;  -28.101; -143.818
608.138;  298.513;  513.890;  516.198
608.413;   -8.747; -576.099; -592.822
608.688;   74.535; -203.108; -267.805
608.964;  252.559; -509.106; -218.809
609.239;  359.468; -107.105; -212.810
609.514;  395.779;  281.895;  240.188
609.789;  842.586; -187.104; -716.812
610.064; 1139.790; -435.096; -609.827
610.339; 1153.824; -855.109; -799.804
610.614; 1530.540; -131.100; -315.820
610.889;  927.280;  215.895;  107.188
611.163;    7.781; -407.104; -591.812
611.438;  112.759;   81.886; -167.794
611.713;    5.821; -467.101; -499.817
611.988;   66.024; -144.101; -328.818
612.263; -107.693; -771.102; -717.815
612.538;  347.872;  385.887;  251.204
612.812;  159.142; -832.100; -911.820
613.087;  156.460; -358.098; -338.823
613.362; -121.249; -497.107; -557.807
613.637;   92.199;  261.897;  138.186
613.911;    3.142; -256.092; -345.835
614.186;  181.848; -249.107; -292.807
614.460;  800.077; -842.081; -758.854
614.735; 1030.003;  -55.087;  -17.843
615.010;  251.689;   43.912;  -82.841
615.284;  413.135;  360.892;  246.195
615.559;  460.241; -792.092; -955.835
615.833;  411.150;  -76.099;  -87.822
616.108;    0.658; -225.090; -390.837
616.382;  275.205;  274.913;  402.156
616.656;  195.958; -241.090; -232.837
616.931;  638.351; -785.099; -700.822
617.205; 1349.792; -973.104; -979.813
617.480; 1305.022;  -91.125;    6.225
617.754;  210.119; -396.125; -128.774
618.028;   -4.224; -369.129; -382.768
618.302;  102.633;   73.892;  -25.805
618.577;  -85.499; -371.103; -518.815
618.851; -130.281; -399.109; -600.803
619.125; -106.387; -335.134; -378.759
619.399;  -63.908; -244.104; -374.813
619.673;  -79.758; -330.115; -515.792
619.947;  -68.037; -333.114; -448.795
620.222;  -30.894; -198.110; -204.801
620.496;  -18.325;  -47.121;  -96.782
620.770;   26.063; -187.122;  -93.781
621.044;  313.069;  323.895;  346.190
621.318;  979.879; -653.120; -614.783
621.592;  873.176; -430.121; -409.783
621.866;  416.590; -476.112; -572.799
622.140;   28.633; -207.116; -356.791
622.413;  134.496;  138.889;  112.200
622.687;  -73.979; -746.101; -492.817
622.961;   66.433; -130.108; -143.805
623.235; -119.603; -633.111; -661.800
623.509; -206.421; -816.105; -848.811
623.783;   60.545;  -12.107;   48.193
624.056;  -44.819; -254.120; -280.783
624.330;  113.780;   63.888;   -3.797
624.604;   75.829; -271.116; -355.790
624.877;  113.112;  180.890;   26.198
625.151;   49.856; -249.114; -238.794
625.425;  -88.305; -150.103; -283.814
625.698;  -97.106; -367.119; -374.785
625.972; -198.685; -799.110; -765.802
626.245;  208.031;  685.884;  484.210
626.519; -107.413; -426.120; -340.784
626.792;  -33.550; -192.107; -380.807
627.066; -170.247; -485.122; -662.779
627.339; -196.590; -736.110; -663.802
627.613;   92.985;  351.880;  148.216
627.886;   89.618;  187.891; -612.803
628.160;  -38.221;  312.880; -161.783
628.433; -160.374; -695.125; -703.775
628.706; -150.213; -517.120; -615.784
628.979;   45.935;  296.876;  117.223
629.253; -193.399; -785.119; -833.786
629.526;  522.604; -334.126; -253.772
629.799;  365.346; -641.123; -479.778
630.072;  217.678; -497.128; -516.769
630.346; -204.969;-1115.116;-1080.790
630.619;  577.852; -467.107; -545.808
630.892;  910.198;  709.889;  593.200
631.165;  548.792;  790.896;  679.187
631.438; -216.114;-1092.112;-1055.798
631.711;  127.950;  453.877;  257.221
631.984;  -98.475; -523.117; -624.789
632.257; -161.180; -636.117; -681.789
632.530;  -94.005; -412.119; -433.785
632.803;   93.853; -109.115;    7.207
633.076; -117.959; -360.123; -422.777
633.349;   64.284;  173.872;  121.231
633.622;  -74.807; -187.119; -240.785
633.895; -232.019; -903.120; -823.783
634.167; -114.093; -496.126; -525.773
634.440;   -5.560;  -19.116; -137.792
634.713;    1.200;  -22.119; -120.786
634.986;  177.970;  593.871;  453.233
635.258; -169.550; -507.115; -597.793
635.531;  247.014;  742.882; -343.788
635.804;  -58.477; -303.117; -318.789
636.077; -176.265; -830.116; -852.791
636.349;  -46.552; -586.115; -474.793
636.622;  757.103; 1695.874; 1392.228
636.894;  338.987; -474.120; -909.784
637.167;  133.594; -836.127; -789.771
637.439;   41.889; -278.128; -213.770
637.712;  -39.095; -312.126; -293.772
637.984; -169.364; -635.116; -707.791
638.257;  649.442;  515.877;  488.222
638.529;  707.028; -881.125; -924.776
638.802;  308.078; -508.128; -449.769
639.074; -247.038; -927.122; -952.781
639.346; -208.700; -942.135; -930.757
639.619;    9.607;  -79.142; -319.744
639.891;    5.553;  -83.122; -168.779
640.163; -154.144; -689.122; -756.780
640.435;   79.058;  273.878;  103.220
640.708;   49.061;  -72.122; -132.780
640.980;  -44.236; -366.122; -362.781
641.252;  343.266;  -25.121;  -71.781
641.524; 2633.869;  580.879;  573.219
641.796; 2423.272;-1094.121; -907.782
642.068;  486.374; -191.121; -300.782
642.340;  -91.523; -486.121; -566.783
642.613;  130.579;  294.880;  323.217
642.885; -148.618; -787.120; -878.783
643.157;  -99.415; -810.120; -658.784
643.428;  134.087;  170.880;  218.216
643.700; -122.710; -498.120; -425.784
643.972;  -36.607;  -16.119; -133.785
644.244; -138.405; -474.119; -559.785
644.516;  -65.402; -250.119; -114.786
644.788;  189.500;  662.881;  548.214
645.060;  -10.997;  -12.119; -124.786
645.332; -139.494; -525.118; -535.787
645.603;   95.408;  479.882;  342.213
645.875; -132.289; -334.118; -369.787
646.147;  391.114; 1487.882; 1242.212
646.418; -173.884; -931.117; -918.788
646.690;  116.419; -714.117; -715.789
646.962;    4.421; -413.117; -451.789
647.233;   27.124;   15.883;   11.211
647.505; -163.073; -595.117; -475.790
647.776;  117.829;  328.884;  229.210
648.048;   -4.168; -248.116; -418.790
648.320; -148.865; -752.116; -679.791
648.591; -284.963;-1055.116; -958.791
648.862; -161.260; -505.116; -577.792
649.134;   51.242;  115.885;  198.208
649.405;  -84.955; -661.115; -618.792
649.677; -104.752; -475.115; -598.793
649.948;  -18.050; -181.115; -296.793
650.219;   23.853;  -37.115; -147.793
650.491; -136.144; -431.114; -520.794
650.762; -205.342; -705.114; -731.794
651.033; -136.239; -437.114; -424.795
651.304; -200.937; -743.114; -728.795
651.576; -143.134; -680.114; -645.795
651.847;  -21.931; -250.113; -140.796
652.118;   -1.029;  -32.113; -189.796
652.389; -180.326; -639.113; -722.796
652.660;  -29.323; -147.113;  -89.797
652.931; -260.721; -897.112; -871.797
653.202; -145.818; -382.112; -541.798
653.473; -101.516; -633.112; -533.798
653.744;  172.387; -595.112; -590.798
654.015;  178.490; -356.112; -303.799
654.286; -117.808; -642.111; -663.799
654.557; -125.605; -586.111; -521.799
654.828; -294.902;-1114.111;-1088.800
655.099; -155.900; -404.111; -291.800
655.370; -179.797; -427.111; -543.801
655.641; -224.495; -656.110; -714.801
655.911; -183.692; -618.110; -638.801
656.182;  138.411;  437.890;  387.198
656.453;  258.213;  830.890;  746.198
656.724;  -86.084; -466.110; -426.802
656.994; -118.881; -553.109; -568.803
657.265; -191.979; -862.109; -873.803
657.536; -154.176; -500.109; -377.804
657.806; -175.474; -561.109; -593.804
658.077; -260.071; -866.109; -950.804
658.347; -170.568; -523.108; -598.805
658.618; -233.366; -646.108; -694.805
658.888;   -9.263;  -41.108;  112.195
659.159; -116.460; -432.108; -548.806
659.429;  -18.958; -292.108; -349.806
659.700;   25.145; -435.107; -390.807
659.970;   -7.253; -370.107; -359.807
660.241;  -18.650; -754.107; -921.807
660.511;  688.253; -147.107; -174.808
660.781;   83.655; -793.106; -748.808
661.052;  -72.042; -222.106; -381.808
661.322;    3.461;   21.894;   -9.809
661.592;   60.463;  257.894;  148.191
661.862; -124.934; -369.106; -382.810
662.133; -164.932; -551.105; -502.810
662.403; -194.029; -770.105; -676.810
662.673;  -70.326; -256.105; -213.811
662.943; -189.824; -612.105; -551.811
663.213;   -5.321;  -85.105;  -81.811
663.483; -144.818; -593.104; -568.812
663.753;  -72.916; -194.104; -152.812
664.023;   46.787;   68.896;  -32.813
664.293;  -71.111; -319.104; -126.813
664.563; -195.208; -694.104; -648.813
664.833; -205.905; -743.103; -608.814
665.103; -239.203; -730.103; -793.814
665.373; -216.100; -766.103; -806.814
665.643; -210.897; -863.103; -918.815
665.913;   11.305; -534.103; -714.815
666.182;  157.008; -685.102; -719.816
666.452;  308.810;  -22.102;  -89.816
666.722;  -80.387; -724.102; -784.816
666.992; -243.484; -948.102; -921.817
667.261; -182.882; -824.102; -808.817
667.531;  346.921;  134.899;   45.183
667.801;  717.824; -440.101; -412.818
668.070;  455.126;  714.899;  697.182
668.340; -174.971; -883.101; -840.819
668.609;  193.932;  588.900;  301.181
668.879; -147.966; -490.100; -558.819
669.149; -105.563; -539.100; -516.820
669.418; -175.761; -698.100; -726.820
669.688;  -45.158; -482.100; -666.820
669.957;   30.645; -423.099; -546.821
670.226;  -59.953; -268.099; -331.821
670.496; -163.550; -431.099; -635.822
670.765; -124.747; -418.099; -501.822
671.034; -241.745; -872.099; -828.822
671.304;  -10.342;   55.902; -111.823
671.573; -291.040;-1085.098; -957.823
671.842;   55.263; -380.098; -294.823
672.112;   -7.934; -692.098; -586.824
672.381;   -6.132; -239.098; -214.824
672.650; -223.329;-1005.097;-1021.825
672.919; -118.326; -631.097; -507.825
673.188; -200.324; -681.097; -878.825
673.457; -289.321;-1101.097;-1143.826
673.726; -141.319; -579.096; -646.826
673.995;  -85.216; -533.096; -479.826
674.265;  -30.113; -263.096; -333.827
674.534;   -9.311; -183.096; -235.827
674.802;  -34.508; -618.096; -703.828
675.071; 1394.195; -886.095; -801.828
675.340; 4896.097; -464.095; -339.828
675.609; 1737.200;  103.905;   82.171
675.878;   22.002; -949.095; -893.829
676.147;   89.605;  -26.095;   -8.829
676.416;  128.608; -210.094; -294.830
676.685; 1058.410; 1000.906; -622.830
676.953;  126.413; -603.094; -452.831
677.222;  -34.384; -193.094; -273.831
677.491;  -22.282;  -24.094; -127.831
677.759;   15.021;   11.907;  172.168
678.028;   -5.177; -279.093; -222.832
678.297;   30.126;   71.907;  197.168
678.565; -273.971; -898.093; -944.833
678.834;  -51.969; -311.093; -268.833
679.102; -103.966; -411.092; -391.834
679.371; -250.763; -898.092; -727.834
679.639; -241.961; -797.092; -786.834
679.908; -229.858; -794.092; -724.835
680.176; -283.356; -895.091; -941.835
680.445; -114.153; -346.091; -352.835
680.713;   16.750;  -58.091;  -23.836
680.982; -147.648; -523.091; -525.836
681.250; -185.145; -578.091; -507.837
681.518; -152.442; -534.090; -751.837
681.787;  -29.740; -204.090; -167.837
682.055; -125.637; -490.090; -422.838
682.323; -274.335; -993.090; -992.838
682.591;   63.668; -216.090; -538.838
682.859;  137.271;    9.911;  -35.839
683.128;   53.473;  232.911;  497.161
683.396; -326.024;-1102.089;-1122.840
683.664;  -72.921; -241.089;   21.160
683.932;   50.881;  144.911;  -76.840
684.200; -132.916; -576.088; -320.841
684.468;   12.486;  -73.088; -124.841
684.736;  -16.511; -214.088; -175.841
685.004; -214.408;-1024.088; -982.842
685.272; -149.306; -880.088; -774.842
685.540; -115.503; -499.087; -557.843
685.808; -142.600; -651.087; -682.843
686.076; -212.298; -894.087; -969.843
686.343;  -96.495; -601.087; -815.844
686.611;   76.707; -195.087; -224.844
686.879;  743.410; -530.086; -553.844
687.147; 4354.713; -483.086; -480.845
687.414; 1267.115;  -12.086; -169.845
687.682;  -57.582; -658.086; -757.846
687.950;  451.421;  259.915;  263.154
688.217;  -30.777; -792.085; -760.846
688.485;  -22.074; -632.085; -636.847
688.753;  675.628;  -11.085; -102.847
689.020;  138.331; -820.085; -851.847
689.288; -205.366; -853.084; -787.848
689.555;  -25.864; -195.084; -148.848
689.823;  -42.061; -241.084; -345.849
690.090; -145.358; -546.084; -651.849
690.358; -266.656; -877.084; -897.849
690.625;   13.547;  120.917;   45.150
690.892; -137.951; -403.083; -369.850
691.160;  -26.048;   72.917;  -35.850
691.427;   55.755;  141.917;  130.149
691.694; -244.243; -855.083; -929.851
691.962; -266.840;-1177.082;-1060.852
692.229;   51.563;  127.918;   56.148
692.496;  122.065;  130.918;  -49.852
692.763;   32.668; -164.082; -201.853
693.031;  -93.830; -739.082; -716.853
693.298;  -75.427; -509.081; -368.853
693.565;  463.576; -155.081; -163.854
693.832; 1675.078;   -5.081;   -9.854
694.099;  153.281; -643.081; -642.855
694.366; -141.116; -882.081; -896.855
694.633; -114.814; -920.080; -633.855
694.900; 1520.889; 4367.920; -114.856
695.167;  599.692; -214.080; -380.856
695.434;  112.494; -646.080; -623.856
695.701;  344.197;  121.921;  -61.857
695.968;  657.199; -365.079; -361.857
696.234; 1666.602; -415.079; -646.858
696.501;15955.205; -776.079; -614.858
696.768; 7703.807; -554.079; -617.858
697.035;  519.810; -632.078; -667.859
697.302;   46.013; -448.078; -552.859
697.568;   28.515; -458.078; -497.859
697.835;  -64.182; -683.078; -624.860
698.102;  -52.980; -498.078; -407.860
698.368;  201.523;  384.923;  396.139
698.635;  -41.274;  -47.077; -424.861
698.901;  -13.772; -240.077; -348.861
699.168;   92.531; -534.077; -456.862
699.435;  117.334;  -72.077;  -13.862
699.701; -246.264; -868.076; -764.862
699.968;  -48.661;  144.924; -441.863
700.234; -181.259; -783.076; -822.863
700.500;  -98.256; -448.076; -539.864
700.767;   47.047;   -1.075;   26.136
701.033; -249.151;-1015.075; -963.864
701.299;  -82.048; -450.075; -483.865
701.566;  242.755;  950.925;  763.135
701.832;   78.957;  -31.075;  -76.865
702.098; -190.440;-1054.074;-1034.866
702.365; -167.138;-1098.074;-1030.866
702.631;  -67.735;-1038.074;-1063.867
702.897; 2004.068; -765.074; -676.867
703.163; 2933.270;  348.926;  254.133
703.429;  249.973; -256.073; -273.868
703.695;  -98.724; -796.073; -792.868
703.961;   73.478; -214.073; -210.868
704.227; -115.119; -630.073; -725.869
704.493;  259.783;  613.927;  510.131
704.759;    1.286; -565.072; -540.870
705.025;   70.489; -203.072; -194.870
705.291;   -9.309; -666.072; -562.870
705.557;  390.394;  719.928;   34.129
705.823;   31.297; -742.072; -694.871
706.089;  246.299; -307.071; -326.871
706.355;  661.502; -315.071; -244.872
706.620; 9112.004; -776.071; -729.872
706.886;11445.407; -309.071; -362.873
707.152;  985.710; -818.070; -973.873
707.418;  -76.388;-1153.070;-1186.873
707.683;    5.415; -550.070; -530.874
707.949;  -66.882; -547.070; -578.874
708.215;   34.820; -129.070; -207.874
708.480;    0.623; -520.069; -420.875
708.746;  166.225;   68.931;   28.125
709.011; -119.272; -578.069; -612.876
709.277; -141.969; -538.069; -543.876
709.542;  -74.867; -428.069; -387.876
709.808;   26.936;  -59.068;   89.123
710.073; -143.761; -577.068; -695.877
710.339;  -15.959; -242.068; -228.877
710.604;   86.144; -780.068; -845.878
710.869;  415.746; -277.068; -366.878
711.135; -146.951; -715.067; -628.879
711.400; -119.148; -507.067; -608.879
711.665; -118.046; -404.067; -479.879
711.931; -179.243; -661.067; -677.880
712.196; -194.540; -876.067; -954.880
712.461;  124.262; -402.066; -490.880
712.726;  140.865; -727.066; -771.881
712.991; -148.633; -647.066; -664.881
713.256;  -59.430; -350.066; -332.882
713.521;  -74.227; -417.065; -381.882
713.787;  -89.625; -454.065; -472.882
714.052;  -61.822; -214.065; -400.883
714.317; -167.819;-1045.065; -981.883
714.581; 1645.083; -374.065; -268.883
714.846; 1933.686; -822.064; -888.884
715.111;  274.588;  261.936;  257.116
715.376;  -15.709;  -86.064; -223.885
715.641;  -38.406; -365.064; -367.885
715.906;  388.996;   15.936; -551.885
716.171;  245.099;  221.937;  209.114
716.436;   88.602;  -78.063; -104.886
716.700; -182.496; -818.063; -692.886
716.965; -207.793; -794.063; -807.887
717.230;  -95.091; -339.063; -392.887
717.494;  -27.788;  -40.062; -134.888
717.759; -167.885; -784.062; -640.888
718.024;   59.417;  269.938;  250.112
718.288;  179.120;  685.938;  395.111
718.553; -268.477; -803.062; -977.889
718.817; -269.275; -883.061; -899.889
719.082;  -27.472; -115.061; -125.890
719.346; -238.669;-1000.061; -947.890
719.611;  -49.567; -300.061; -255.891
719.875; -139.964; -568.060; -537.891
720.140;  -97.962; -453.060; -603.891
720.404;   69.341; -136.060; -249.892
720.668; 1135.744; -475.060; -411.892
720.933;  411.646;  146.940;  137.108
721.197; -183.151; -667.059; -600.893
721.461; -221.448; -851.059; -826.893
721.725;   32.854;  -21.059; -250.894
721.990;  -91.943; -284.059; -204.894
722.254;   -2.741;  -26.059; -108.894
722.518;  -81.638; -286.058; -442.895
722.782; -151.435; -743.058; -594.895
723.046;  284.967;  614.942;  570.105
723.310;   73.370;  374.942;  210.104
723.574; -148.427; -654.058; -614.896
723.838; -173.425; -576.057; -642.897
724.102;  -39.822; -226.057; -239.897
724.366; -235.520;-1032.057; -978.897
724.630; -156.417; -749.057; -571.898
724.894; -137.514; -722.057; -514.898
725.158;   36.488;   38.944; -295.898
725.422;  -68.809; -394.056; -327.899
725.685;  -78.406; -441.056; -349.899
725.949; -143.404; -566.056; -519.900
726.213; -132.801; -732.056; -811.900
726.477;  162.401;-1020.055; -933.900
726.740;  213.704; -274.055; -104.901
727.004;  560.607; -384.055; -510.901
727.268; 5016.909; -442.055; -400.901
727.531; 1206.712; -961.055; -775.902
727.795;  -82.085; -713.054; -673.902
728.059;  -75.783; -552.054; -557.903
728.322; -139.180; -841.054; -669.903
728.586;   11.422; -692.054; -701.903
728.849; -158.175; -695.053; -756.904
729.112; -203.472; -812.053; -912.904
729.376; -222.070; -959.053; -905.904
729.639; -139.867; -536.053; -536.905
729.903; -194.464; -733.053; -699.905
730.166;  -62.762; -437.052; -399.906
730.429;  -12.859; -317.052; -468.906
730.693; -101.757; -355.052; -894.906
730.956;  421.946;  810.948;  651.093
731.219;  908.149; -310.052; -103.907
731.482;  134.451;-1003.051; -894.907
731.745;   56.054; -794.051; -935.908
732.009;   48.357;  -30.051;   50.092
732.272; -151.041; -904.051; -771.909
732.535;  -63.138; -300.051; -310.909
732.798; -282.036;-1083.050;-1166.909
733.061;  -83.733; -430.050; -456.910
733.324;   34.570;   31.950; -180.910
733.587;  174.672;  290.950;  365.090
733.850;  -96.525; -973.049;-1050.911
734.113;   93.078;   33.951;   32.089
734.376;   21.080; -328.049; -447.912
734.639;  441.783; 1188.951; 1011.088
734.901;  132.485; -180.049; -402.912
735.164;  727.488; -883.048; -837.913
735.427; 1656.891; -166.048; -355.913
735.690;  205.393; -205.048; -234.913
735.952; -129.904; -923.048; -925.914
736.215;  -97.001;-1113.048;-1009.914
736.478;   23.101; -771.047; -774.915
736.740;  351.904;   33.953;  129.085
737.003; 1096.606; -658.047; -672.915
737.266; 5456.209;  -94.047;   46.084
737.528;  569.112; -682.047; -660.916
737.791;  479.014; -316.046; -327.916
738.053; 1322.117;  465.954;  649.083
738.316;17048.220; -162.046; -136.917
738.578;10349.622; -770.046; -736.918
738.841;  651.525; -382.046; -446.918
739.103;  252.927; -875.045; -777.918
739.365;  733.730;   79.955;  -69.919
739.628;  -20.567; -884.045; -805.919
739.890;  -77.465; -758.045; -710.919
740.152;  -81.162; -692.044; -754.920
740.414;  -28.059; -408.044; -359.920
740.677;  -89.957; -785.044; -634.921
740.939;  -74.354; -587.044; -487.921
741.201;  315.948; -432.044; -572.921
741.463;   10.351; -689.043; -745.922
741.725;   62.054;  -21.043; -199.922
741.987;  155.556;  220.957;  116.078
742.249;  -19.241; -751.043; -859.923
742.511;  265.862; -703.043; -794.923
742.773;  -14.136; -546.042; -546.924
743.035;  235.167;  796.958;  533.076
743.297;  -49.731; -963.042;-1013.924
743.559; 1040.072; -278.042; -262.925
743.821;   34.975; -735.042; -744.925
744.083;   48.777;  -44.041; -149.925
744.345; -192.520; -869.041; -892.926
744.607;   89.683;   75.959;  122.074
744.868;  -51.215; -490.041; -554.927
745.130; -219.012; -994.041;-1008.927
745.392;  121.791;   -1.040;  -44.927
745.653;   -5.107; -411.040; -378.928
745.915;  327.996;  896.960;  631.072
746.177;  100.598;   35.960;  -43.928
746.438;  -23.199; -428.040; -543.929
746.700; -101.896; -947.039; -988.929
746.961;  -17.894; -659.039; -740.930
747.223;  224.009; -190.039;  -74.930
747.484;  125.312; -391.039; -471.930
747.746;  288.514;  -23.038; -106.931
748.007;  179.317; -647.038; -689.931
748.269;  454.319; -468.038; -440.931
748.530;  612.222; -852.038; -638.932
748.791;  375.325; -354.038; -420.932
749.053;  656.527;  286.963;  163.067
749.314;  689.930; -236.037; -169.933
749.575;  687.133; -945.037; -905.933
749.836; 1238.235; -217.037;   86.066
750.098; 4147.338;  -60.037;  -21.934
750.359;50623.240;  414.964;  555.066
750.620;11651.343; -121.036; -220.935
750.881; 1512.246; -585.036; -513.935
751.142; 2026.648; -950.036; -938.936
751.403;25293.451; -789.036; -705.936
751.664; 9539.754;-1034.035; -999.936
751.925;  750.356; -175.035; -262.937
752.186;  453.859; -298.035; -278.937
752.447;  217.661; -590.035; -445.937
752.708;   79.664; -532.035; -648.938
752.969;   15.167; -566.034; -576.938
753.230;  -27.431; -777.034; -672.939
753.491;  -17.028; -650.034; -631.939
753.751;  116.075;  109.966;   19.061
754.012;  202.377;  258.967;  181.060
754.273;  137.880; -174.033;  -71.940
754.534;    5.582; -487.033; -580.940
754.794; -167.215; -926.033; -911.941
755.055;  339.088; 1051.967;  881.059
755.316;  -81.010; -700.032; -566.942
755.576;   -4.507; -606.032; -576.942
755.837;  -52.604; -527.032; -695.942
756.097;  -57.502; -530.032; -564.943
756.358; -135.499; -725.032; -770.943
756.618; -102.497; -705.031; -641.943
756.879;   15.806; -254.031; -349.944
757.139; -247.091;-1098.031;-1116.944
757.400;  -81.289; -538.031; -553.945
757.660;    2.514; -365.031; -401.945
757.920;   28.017; -266.030; -228.945
758.181;    7.119; -468.030; -351.946
758.441; -172.278; -870.030; -809.946
758.701;  -11.876; -308.030; -215.946
758.961;   20.127; -220.030; -278.947
759.222;  -68.070; -574.029; -502.947
759.482; -109.468; -683.029; -723.948
759.742; -152.565; -706.029; -547.948
760.002;   62.538;  -83.029; -143.948
760.262;  112.140;   50.972;  182.051
760.522;  -39.157; -498.028; -574.949
760.782;  -93.955; -738.028; -612.949
761.042;  -28.952; -618.028; -573.950
761.302;  150.151;   55.972;  -18.950
761.562;  107.553; -164.027; -154.951
761.822;  122.756; -710.027; -551.951
762.082;  -64.541;-1104.027;-1093.951
762.342;  147.761; -328.027; -403.952
762.601;  154.164; -567.027; -506.952
762.861;  548.666; -281.026; -207.952
763.121;  720.469; -406.026; -411.953
763.381;13492.172; -499.026; -485.953
763.640;12233.974; -139.026; -307.954
763.900;  643.477; -242.026; -203.954
764.160;  161.080; -458.025; -491.954
764.419;   -6.418; -726.025; -782.955
764.679;  -95.115; -795.025; -726.955
764.939;   12.287; -124.025; -210.955
765.198; -134.910; -608.025; -563.956
765.458; -123.807; -710.024; -612.956
765.717; -112.705; -454.024; -590.957
765.976;  -48.702; -428.024; -411.957
766.236;  -85.499; -475.024; -610.957
766.495;   80.803;  260.977;   73.042
766.755; -167.794;-1090.023; -987.958
767.014;  -40.392; -594.023; -665.958
767.273;  -55.589; -373.023; -397.959
767.533;  -18.986; -228.023; -307.959
767.792;   -4.384; -151.022; -188.960
768.051;  -50.081; -228.022; -276.960
768.310; -109.678; -546.022; -650.960
768.569;   52.924; -161.022;    4.039
768.828;    3.427; -285.022; -363.961
769.088; -216.071;-1050.021; -942.961
769.347; -149.368; -755.021; -599.962
769.606; -155.865; -876.021; -857.962
769.865; -205.363;-1016.021;-1033.963
770.124;    8.940; -411.021; -336.963
770.383;  -95.057; -778.020; -910.963
770.641;   15.545; -398.020; -400.964
770.900; -125.752; -953.020; -846.964
771.159; -101.549; -851.020; -951.964
771.418;  -70.847; -917.020; -779.965
771.677;  226.356; -224.019; -293.965
771.936;  246.858; -794.019; -865.966
772.194; 4158.261; -465.019; -437.966
772.453;16382.464; -213.019; -391.966
772.712; 1258.066;  416.982;  329.033
772.970;  233.769;   32.982;   63.033
773.229;  209.372;  -22.018;  102.033
773.488; -155.626; -814.018; -770.968
773.746;  203.277;  296.982;  335.032
774.005;   76.679;  190.983;  -22.969
774.263;   90.482;  243.983;  177.031
774.522; -167.515; -422.017; -548.969
774.780; -117.213; -484.017; -417.970
775.039; -115.910; -551.017; -531.970
775.297;   18.493; -135.016; -351.970
775.555; -169.705; -489.016; -612.971
775.814; -215.702; -618.016; -570.971
776.072; -201.400; -749.016; -740.971
776.330; -171.497; -630.016; -520.972
776.589; -198.094; -703.015; -721.972
776.847; -214.692; -645.015; -624.973
777.105; -307.789;-1016.015;-1032.973
777.363; -117.886; -459.015; -454.973
777.621; -223.584; -660.015; -717.974
777.879;   21.119;  -42.014;   32.026
778.138; -161.279; -554.014; -717.974
778.396; -142.176; -585.014; -526.975
778.654; -292.273;-1015.014; -970.975
778.912;  -82.471; -269.014; -371.976
779.170; -194.468; -880.013; -803.976
779.427; -237.465; -922.013; -897.976
779.685; -214.663; -880.013; -832.977
779.943; -150.060; -654.013; -593.977
780.201; -281.158; -964.012; -883.978
780.459; -186.655; -651.012; -610.978
780.717;  -99.352; -440.012; -390.978
780.974; -126.350; -449.012; -490.979
781.232;  -85.847; -358.012; -338.979
781.490; -128.144; -551.011; -472.979
781.747; -157.842; -555.011; -476.980
782.005;  125.061;  462.989;  254.020
782.263; -307.737; -542.011;-1004.981
782.520; -156.634; -326.011; -501.981
782.778; -290.431;-1013.010;-1051.981
783.035; -298.729; -962.010; -938.982
783.293;  -55.226; -248.010; -206.982
783.550;  -73.223; -134.010; -198.982
783.808; -195.721; -764.010; -776.983
784.065; -283.918; -745.009; -874.983
784.322;  -35.916;   25.991;  -86.984
784.580; -237.313; -915.009; -771.984
784.837; -126.610; -392.009; -466.984
785.094; -219.508; -783.009; -762.985
785.352;  -90.305; -304.008; -404.985
785.609; -204.502; -934.008; -839.985
785.866;  -87.200; -345.008; -401.986
786.123; -117.497; -639.008; -583.986
786.380; -177.195; -665.008; -604.987
786.637;  -52.292; -225.007; -380.987
786.895;  -52.089; -456.007; -543.987
787.152;  -12.287; -135.007; -267.988
787.409;  -35.584; -123.007; -225.988
787.666; -137.781; -299.006; -378.988
787.923; -155.479; -616.006; -695.989
788.179; -150.276; -551.006; -584.989
788.436; -210.374; -585.006; -585.990
788.693;  -23.071;  -92.006;  -87.990
788.950;  248.132; -125.005; -112.990
789.207;  253.334; -381.005; -372.991
789.464;  -42.463; -161.005; -301.991
789.720;   55.840;  150.995;  110.009
789.977; -301.558;-1003.005; -671.992
790.234;  -16.455;   44.996;  -66.992
790.490; -260.153; -884.004;-1031.993
790.747;   -6.250;  -85.004;   22.007
791.004;  -48.647; -426.004; -348.993
791.260; -112.145; -430.004; -560.994
791.517; -159.542; -843.003; -788.994
791.773;  -70.439; -379.003; -342.994
792.030; -147.737; -596.003; -660.995
792.286; -152.734; -686.003; -636.995
792.543;   27.968;  -74.002; -159.995
792.799;  -75.929; -584.002; -382.996
793.055; -285.926;-1179.002;-1210.996
793.312; -150.524; -827.002; -816.997
793.568;  -80.021; -746.002; -599.997
793.824;   29.082; -226.001; -284.997
794.081;   66.784; -447.001; -508.998
794.337;  133.787; -664.001; -561.998
794.593; 2671.589; -319.001; -271.999
794.849;10001.092; -746.001; -772.999
795.105;  519.995; -270.000; -261.999
795.361;   47.497; -490.000; -457.000
795.617;  -97.500; -875.000; -945.000
795.873;  -63.600; -360.000; -407.000
796.129;  -36.200; -368.000; -306.000
796.385;   16.500; -124.000; -156.000
796.641;  168.400;  412.000;  550.000
796.897;  -97.000; -666.000; -635.000
797.153;  206.300;  453.000;  357.000
797.409; -169.200; -785.000; -868.000
797.665; -104.400; -625.000; -732.000
797.921; -157.200; -775.000; -762.000
798.176;  -99.000; -744.000; -747.000
798.432; -119.000; -824.000; -596.000
798.688; -147.800;-1174.000;-1078.000
798.943;  157.500; -165.000; -147.000
799.199;  -27.300;-1005.000; -959.000
799.455;  472.400;  369.000;  316.000
799.710;  181.500; -813.000; -380.000
799.966;  477.800; -162.000; -160.000
800.221;  768.100; -638.000; -721.000
800.477;17551.100; -743.000; -710.000
800.732;12084.600; -773.000; -800.000
800.988; 1060.300;  205.000;  -19.000
801.243; 3715.800; -454.000; -344.000
801.498;12362.000; -814.000; -739.000
801.754;  722.500; -289.000; -163.000
802.009;  198.400; -257.000; -335.000
802.264;  -63.200; -967.000;-1033.000
802.520;   90.800;  222.000;   -3.000
802.775;  -57.000; -524.000; -359.000
803.030;  184.800;  395.000;  356.000
803.285; -171.600; -840.000; -903.000
803.540;  -84.900; -686.000; -699.000
803.795;  -53.200; -648.000; -583.000
804.051;  -54.000; -279.000; -346.000
804.306;   87.400;  168.000;  128.000
804.561;  265.100;  451.000;  362.000
804.816;  324.900;  714.000;  861.000
805.071;   21.000; -185.000; -280.000
805.325;  270.400; -257.000; -427.000
805.580; -184.500; -841.000; -877.000
805.835;   -4.900; -204.000; -297.000
806.090; -130.400; -760.000; -676.000
806.345;   -5.600; -344.000; -264.000
806.600;  -48.200; -549.000; -632.000
806.854;  -55.700; -408.000; -538.000
807.109;  -10.600; -493.000; -577.000
807.364;   31.600; -407.000; -328.000
807.618;    8.600; -415.000; -381.000
807.873;   89.600; -470.000; -494.000
808.128;  201.500; -257.000; -518.000
808.382;  204.600; -224.000; -332.000
808.637;  118.000; -440.000; -511.000
808.891;  334.600; -257.000; -180.000
809.146;  160.700; -902.000; -794.000
809.400;  356.800; -848.000; -923.000
809.654;  526.200; -779.000; -551.000
809.909;  754.500; -841.000; -927.000
810.163;11853.700; -813.000; -651.000
810.418;23557.300; -940.000; -861.000
810.672; 1532.600; -685.000; -690.000
810.926; 1199.900; -993.000; -973.000
811.180; 2599.600; -439.000; -372.000
811.434;55208.100;  240.000;  135.000
811.689;17073.200; -231.000; -365.000
811.943;  914.100; -936.000; -953.000
812.197;  561.300; -893.000; -671.000
812.451;  205.700; -379.000; -514.000
812.705;  -17.800; -809.000; -619.000
812.959;  -61.200; -263.000; -388.000
813.213;   37.100; -283.000; -209.000
813.467;  184.800;  470.000;  253.000
813.721; -166.500; -764.000; -792.000
813.975; -168.400; -826.000; -877.000
814.229;  128.400;  430.000;  353.000
814.482;  -83.500; -517.000; -566.000
814.736; -189.500; -766.000; -744.000
814.990; -176.200; -779.000; -872.000
815.244;  -45.800; -228.000; -285.000
815.497; -126.200; -636.000; -601.000
815.751;   32.500; -141.000;   82.000
816.005; -116.700; -470.000; -586.000
816.258;  -64.300; -510.000; -363.000
816.512; -178.400; -693.000; -610.000
816.766;   61.900;  121.000;  157.000
817.019;   90.100;  148.000;  149.000
817.273; -193.900;-1000.000; -802.000
817.526;   -3.300; -206.000; -173.000
817.779; -121.400;-1049.000; -960.000
818.033; -134.900; -693.000; -807.000
818.286; -193.100; -725.000; -792.000
818.540; -144.700; -403.000; -403.000
818.793;  -76.800; -402.000; -489.000
819.046; -166.000; -582.000; -520.000
819.299;  -38.900; -157.000; -166.000
819.553; -142.700; -552.000; -592.000
819.806; -282.000;-1016.000; -838.000
820.059;  -55.400; -334.000; -354.000
820.312;   80.100;  152.000;  185.000
820.565;   18.000;  110.000;  -27.000
820.818;  -53.900;  -59.000; -173.000
821.071; -316.500;-1041.000; -957.000
821.324; -181.900; -536.000; -540.000
821.577; -137.500; -457.000; -483.000
821.830;  -55.300; -270.000; -172.000
822.083; -215.500; -733.000; -288.000
822.336;  -36.600; -261.000; -167.000
822.589; -211.200; -805.000; -688.000
822.842; -243.100; -875.000; -770.000
823.094; -312.600;-1076.000;-1114.000
823.347; -222.900; -925.000; -729.000
823.600;   84.800;  402.000;  187.000
823.853;  -71.200; -311.000; -267.000
824.105;  -95.500; -331.000; -575.000
824.358; -170.500; -617.000; -716.000
824.611;  105.300;  234.000;   40.000
824.863;  -51.800; -612.000; -591.000
825.116;  127.900;  -33.000;   27.000
825.368;  114.200; -366.000; -372.000
825.621;  243.300; -186.000; -240.000
825.873;  126.600; -704.000; -737.000
826.126; 1026.200; -669.000; -641.000
826.378;18357.100; -389.000; -505.000
826.630; 3198.400; -890.000; -898.000
826.883;   61.100; -754.000; -693.000
827.135;   74.200; -279.000; -270.000
827.387; -191.800; -893.000; -839.000
827.639;   -9.600;  -86.000;   32.000
827.892; -166.300; -742.000; -582.000
828.144; -212.100; -848.000; -804.000
828.396;  -23.200;  104.000;  -80.000
828.648; -118.600; -440.000; -333.000
828.900; -227.500; -702.000; -795.000
829.152; -184.900; -684.000; -683.000
829.404;  -43.600; -215.000; -267.000
829.656;  -32.200;  321.000;  214.000
829.908;   24.100;  393.000;  229.000
830.160; -263.100;-1064.000;-1047.000
830.412; -102.100; -481.000; -430.000
830.664; -169.400; -557.000; -665.000
830.916; -101.100; -268.000; -206.000
831.167; -297.700;-1073.000; -951.000
831.419; -170.900; -623.000; -566.000
831.671; -251.400; -764.000; -809.000
831.923; -109.800; -311.000; -447.000
832.174; -102.000; -273.000; -331.000
832.426; -178.100; -493.000; -582.000
832.678; -317.300;-1043.000;-1091.000
832.929; -284.800; -947.000; -935.000
833.181;  -80.100; -575.000; -677.000
833.432;  -58.100;  -59.000; -186.000
833.684;   46.500;  112.000;  -27.000
833.935; -172.800; -610.000; -566.000
834.187; -200.900; -829.000; -823.000
834.438;  -25.400;  -58.000;  -25.000
834.689;  -42.300; -255.000; -123.000
834.941;  -30.800; -343.000; -244.000
835.192; -142.300; -590.000; -533.000
835.443; -126.000; -419.000; -506.000
835.695;   60.300;  138.000;  -16.000
835.946; -120.300; -608.000; -378.000
836.197; -174.900; -599.000; -622.000
836.448; -135.200; -528.000; -395.000
836.699;  -91.400; -253.000; -341.000
836.950;   32.900;   72.000;    7.000
837.201; -278.500;-1003.000; -987.000
837.452;  -55.700; -356.000; -170.000
837.703; -173.100; -791.000; -737.000
837.954;  -17.100; -205.000; -365.000
838.205; -165.700;-1029.000;-1008.000
838.456;  226.800; -196.000; -282.000
838.707;   -6.000; -423.000; -519.000
838.958;   10.800; -634.000; -647.000
839.209;  461.900;   18.000;   40.000
839.460;  186.900; -439.000; -201.000
839.710;  300.600; -135.000; -297.000
839.961;  766.100;  730.000;  612.000
840.212;  526.900; -382.000; -497.000
840.462; 1963.900; -328.000; -277.000
840.713;29367.100; -571.000; -536.000
840.964; 8737.900;  -62.000; -143.000
841.214;  703.300; -384.000; -624.000
841.465;  912.800; -214.000; -141.000
841.715;  794.300; -417.000; -380.000
841.966;  987.300; -746.000; -685.000
842.216;16685.300; -330.000; -431.000
842.466;48443.000; -169.000; -313.000
842.717; 1960.100; -964.000; -952.000
842.967;  491.300; -635.000; -641.000
843.217;  425.800;   20.000;   28.000
843.468;  166.200; -104.000; -132.000
843.718;  -34.600; -718.000; -726.000
843.968; -139.300; -837.000; -765.000
844.218;   62.500; -315.000; -262.000
844.469;  -61.300; -577.000; -561.000
844.719; -173.100; -537.000; -682.000
844.969; -150.500; -550.000; -580.000
845.219; -229.400; -814.000; -862.000
845.469;  -77.800; -392.000; -342.000
845.719; -205.000; -792.000; -884.000
845.969;   28.100;  119.000;  174.000
846.219; -220.400; -738.000; -720.000
846.469;   99.000;  464.000;  432.000
846.718;  -41.200; -115.000;   31.000
846.968; -234.900; -827.000; -827.000
847.218;  -56.400; -224.000; -371.000
847.468; -165.400; -586.000; -555.000
847.718; -225.500; -827.000; -798.000
847.967; -216.500; -826.000; -915.000
848.217;  -94.600; -449.000; -569.000
848.467;  -75.000; -405.000; -376.000
848.716; -183.600; -708.000; -725.000
848.966;   28.900; -372.000; -358.000
849.215;  -65.100; -428.000; -419.000
849.465; -146.700; -785.000; -615.000
849.714; -284.300;-1132.000;-1150.000
849.964;  -91.300; -551.000; -613.000
850.213;    9.600; -393.000; -355.000
850.463;  160.400;  137.000;  340.000
850.712;  -44.300; -542.000; -567.000
850.961;    4.100; -739.000; -678.000
851.211;  154.500; -513.000; -504.000
851.460;  271.300; -635.000; -650.000
851.709;  956.600;  -25.000;   18.000
851.958;17891.400; -912.000; -750.000
852.208;16652.700; -859.000; -879.000
852.457;  629.900; -181.000;  -13.000
852.706;   82.800; -791.000; -823.000
852.955;   37.200; -507.000; -528.000
853.204;  -81.800; -521.000; -461.000
853.453; -120.900; -418.000; -458.000
853.702; -229.400; -660.000; -750.000
853.951; -145.300; -532.000; -520.000
854.200; -194.500; -613.000; -562.000
854.449; -191.100; -695.000; -661.000
854.698; -137.700; -340.000; -279.000
854.946;  -63.900; -181.000; -284.000
855.195; -220.800; -843.000; -868.000
855.444; -137.600; -395.000; -420.000
855.693; -204.700; -345.000; -432.000
855.941; -154.300; -387.000; -516.000
856.190;  -55.600; -256.000; -382.000
856.439; -169.700; -652.000; -703.000
856.687;  -45.100;  -99.000;  -72.000
856.936; -182.800; -621.000; -323.000
857.184; -307.100;-1067.000;-1020.000
857.433; -128.100; -423.000; -512.000
857.681; -263.400; -989.000; -953.000
857.930; -113.300; -282.000; -433.000
858.178; -297.000; -856.000; -929.000
858.427; -245.100; -802.000; -781.000
858.675; -189.300; -377.000; -544.000
858.923; -150.500; -527.000; -819.000
859.172; -330.000;-1094.000;-1070.000
859.420; -102.100; -339.000; -239.000
859.668; -210.400; -624.000; -628.000
859.916;   14.700;  109.000;  115.000
860.164; -154.800; -699.000; -603.000
860.413;  383.200; -878.000; -696.000
860.661;  186.500; -709.000; -577.000
860.909; -123.100; -339.000; -325.000
861.157; -118.200; -277.000; -444.000
861.405; -196.300; -534.000; -670.000
861.653;   78.200;  310.000;  310.000
861.901;  254.200; -543.000; -613.000
862.149;  -71.600; -801.000; -824.000
862.396; -102.200; -297.000; -187.000
862.644; -114.800; -368.000; -347.000
862.892;   11.000;   98.000;  138.000
863.140; -179.200; -549.000; -530.000
863.388; -259.200; -815.000; -759.000
863.635; -189.700; -642.000; -601.000
863.883;   86.500;  231.000;  190.000
864.131; -141.800; -288.000; -357.000
864.378; -208.300; -675.000; -540.000
864.626; -146.100; -347.000; -415.000
864.873; -204.200; -556.000; -505.000
865.121; -225.300; -714.000; -799.000
865.368;  -44.100; -173.000;   75.000
865.616;  -32.900;  -33.000;  -40.000
865.863;  -98.800; -462.000; -506.000
866.111; -194.000; -795.000; -824.000
866.358;   79.500; -426.000; -420.000
866.605; 4260.200;  -64.000; -804.000
866.853; 3111.800; -621.000; -537.000
867.100;  -74.900; -728.000; -775.000
867.347; -178.000; -672.000; -611.000
867.594; -135.300; -740.000; -714.000
867.841;  155.200;   97.000;   17.000
868.089; -236.600; -746.000; -698.000
868.336; -163.600; -477.000; -420.000
868.583; -205.000; -637.000; -741.000
868.830;  -19.600; -131.000; -170.000
869.077; -288.300; -859.000; -787.000
869.324; -197.500; -502.000; -458.000
869.571; -169.400; -398.000; -430.000
869.818; -183.200; -485.000; -439.000
870.065; -142.000; -439.000; -513.000
870.311; -182.400; -456.000; -542.000
870.558; -138.400; -332.000; -311.000
870.805;  -95.000; -320.000; -384.000
871.052; -157.100; -494.000; -369.000
871.298;  -60.100; -204.000; -131.000
871.545;  -86.700; -151.000; -185.000
871.792; -132.000; -173.000; -222.000
872.038;  -74.400;   43.000; -126.000
872.285; -209.800; -496.000; -387.000
872.532; -139.200; -357.000; -387.000
872.778;  106.400;  556.000;  403.000
873.025; -120.100; -384.000; -359.000
873.271;  100.300;  501.000;  578.000
873.517;  -26.200; -133.000; -209.000
873.764;  -17.100; -193.000;  -80.000
874.010;  -85.600; -143.000; -230.000
874.257;  -18.400;  123.000;   90.000
874.503; -184.900; -579.000; -479.000
874.749;  -58.500;   31.000;  275.000
874.995;  -64.800;  -80.000;  -20.000
875.242; -202.300; -540.000; -478.000
875.488; -142.900; -414.000; -439.000
875.734;  -41.600; -106.000; -234.000
875.980;  251.800; -872.000;-1032.000
876.226;  437.000; -157.000; -255.000
876.472;   46.300;  343.000;  237.000
876.718;   -7.500;  184.000;  158.000
876.964;  -14.100;   56.000;   55.000
877.210; -220.900; -547.000; -677.000
877.456; -233.500; -630.000; -557.000
877.702; -309.700; -821.000; -832.000
877.948; -138.200; -377.000; -497.000
878.193;   43.000;  361.000;  255.000
878.439; -151.900; -487.000; -472.000
878.685; -124.700; -272.000; -343.000
878.931; -211.800; -618.000; -676.000
879.176; -117.800; -201.000; -201.000
879.422; -299.300; -933.000; -820.000
879.668;  188.600;   10.000;   79.000
879.913;  214.400;   53.000;  137.000
880.159;  -58.300; -112.000;  -17.000
880.404;  -56.000; -152.000; -162.000
880.650;  -16.400;   91.000;  141.000
880.895; -253.200; -670.000; -710.000
881.141; -177.400; -454.000; -428.000
881.386; -229.500; -503.000; -658.000
881.631; -128.100; -311.000; -166.000
881.877;   -7.100;  112.000;  -13.000
882.122; -213.500; -684.000; -600.000
882.367; -137.500; -136.000; -186.000
882.612;  -70.800;  -80.000; -176.000
882.858; -293.800; -877.000; -823.000
883.103; -136.800; -297.000; -267.000
883.348; -221.700; -759.000; -852.000
883.593; -246.100; -677.000; -602.000
883.838;  -43.800; -311.000;  -24.000
884.083;   79.500;  353.000;  288.000
884.328; -110.600; -564.000; -545.000
884.573;  -56.300; -196.000; -143.000
884.818;  317.200; -694.000; -531.000
885.063;  219.600; -348.000; -315.000
885.308; -172.200; -475.000; -398.000
885.553;   51.400;  245.000;  325.000
885.797; -215.000; -545.000; -615.000
886.042;  -56.600;    8.000;   58.000
886.287; -105.700; -253.000; -211.000
886.532;  -35.400;   26.000;  204.000
886.776; -137.500; -407.000; -525.000
887.021; -198.900; -621.000; -574.000
887.265; -217.900; -685.000; -689.000
887.510; -177.600; -557.000; -496.000
887.755; -117.200; -194.000; -164.000
887.999; -225.500; -552.000; -575.000
888.244;  -32.100;  -58.000;  161.000
888.488;   54.900;  371.000;  393.000
888.732; -196.500; -368.000; -520.000
888.977; -211.700; -622.000; -567.000
889.221; -271.600; -683.000; -659.000
889.465; -168.400; -422.000; -566.000
889.710;  -83.100;  -56.000; -299.000
889.954;   75.700;  579.000;  467.000
890.198; -235.500; -584.000; -707.000
890.442; -259.000; -716.000; -712.000
890.687; -292.500; -800.000; -753.000
890.931;  -98.800; -273.000; -210.000
891.175; -208.200; -502.000; -500.000
891.419;  -78.400; -105.000; -110.000
891.663; -106.900; -239.000; -112.000
891.907; -267.800; -801.000; -545.000
892.151; -283.100; -920.000; -815.000
892.395; -130.000; -274.000; -387.000
892.638;   41.900;  408.000;  291.000
892.882; -303.500; -780.000; -867.000
893.126;   91.900;  758.000;  558.000
893.370; -113.600; -167.000; -168.000
893.614; -260.700; -714.000; -715.000
893.857; -146.900; -183.000; -197.000
894.101; -215.000; -527.000; -631.000
894.345;  -14.600;  300.000;  150.000
894.588;  102.700;  569.000;  380.000
894.832;  -67.500; -178.000;  -84.000
895.075;  -60.400;   15.000;  -92.000
895.319; -204.300; -552.000; -420.000
895.563; -165.900; -413.000; -353.000
895.806; -266.500; -628.000; -741.000
896.049;  -95.000; -576.000; -368.000
896.293;  225.900;  527.000;  405.000
896.536; -103.800; -465.000; -468.000
896.779;  -46.500; -149.000;   -1.000
897.023; -219.700; -751.000; -714.000
897.266;   -1.000;  325.000;  269.000
897.509; -299.100; -900.000; -901.000
897.752;    0.900;  149.000;  171.000
897.996; -333.300; -972.000; -864.000
898.239;  -50.800;  168.000;  102.000
898.482; -175.900; -431.000; -453.000
898.725;  -15.100;  101.000;   53.000
898.968; -260.000; -609.000; -744.000
899.211; -155.400; -513.000; -361.000
899.454; -221.200; -633.000; -539.000
899.697;  -73.900;   90.000;  -43.000
899.940; -231.200; -761.000; -757.000
900.182; -137.500; -335.000; -405.000
900.425; -122.600; -150.000; -298.000
900.668;   16.400;  491.000;  350.000
900.911; -140.600; -292.000; -345.000
901.154;   17.100;  141.000;   -3.000
901.396; -219.500; -407.000; -412.000
901.639; -209.800; -430.000; -496.000
901.882; -303.900; -790.000; -809.000
902.124; -103.100;  -29.000; -143.000
902.367; -196.400; -315.000; -361.000
902.609; -206.200; -476.000; -453.000
902.852;  -77.600; -108.000; -260.000
903.094; -183.200; -458.000; -337.000
903.337;   -2.100;  -26.000;   53.000
903.579; -146.300; -228.000; -441.000
903.821; -276.800; -597.000; -744.000
904.064;  -38.600;   85.000;  127.000
904.306;  -97.600; -126.000; -166.000
904.548; -150.100; -152.000; -366.000
904.790; -134.700; -195.000; -340.000
905.033; -197.100; -625.000; -577.000
905.275; -180.400; -513.000; -524.000
905.517;  121.300;  468.000;  256.000
905.759; -140.500; -667.000; -761.000
906.001; -141.800; -322.000; -369.000
906.243;  -82.900; -162.000; -224.000
906.485;  231.300; -265.000; -207.000
906.727;   91.900; -499.000; -542.000
906.969;  -53.200;  -30.000; -135.000
907.211;  254.600; -316.000; -382.000
907.453;  422.600; -188.000; -237.000
907.695;    2.600; -158.000; -385.000
907.936;  158.100;  818.000;  706.000
908.178;  -55.700;   92.000; -135.000
908.420;  -93.000; -111.000; -162.000
908.662; -217.100; -633.000; -682.000
908.903;  -84.700; -208.000; -123.000
909.145;  -48.800; -240.000; -305.000
909.386;  117.300;  315.000;  280.000
909.628;  127.900;  363.000;  397.000
909.870;   62.900;   29.000;  264.000
910.111; -134.100; -809.000; -949.000
910.353;   72.900; -123.000; -161.000
910.594;   34.300; -574.000; -606.000
910.835;  189.600; -265.000; -326.000
911.077;  285.600; -503.000; -604.000
911.318;  488.200; -505.000; -471.000
911.559;  789.000; -577.000; -880.000
911.801; 2621.200; -284.000; -280.000
912.042;22457.100;  -50.000; -159.000
912.283;46466.700;  404.000;  371.000
912.524; 5537.700; -396.000; -457.000
912.765;  889.500; -193.000;   79.000
913.006;  434.800; -307.000; -338.000
913.247;  102.900; -270.000; -290.000
913.488;    0.700;  -43.000;   30.000
913.729; -121.000; -373.000; -373.000
913.970;  -60.200;  -96.000; -292.000
914.211;  -66.000; -160.000; -198.000
914.452;  -53.200; -118.000;  -11.000
914.693;  115.800;  510.000;  592.000
914.934;  101.600;  510.000;  440.000
915.175;  -41.300;   53.000;  -95.000
915.415;  -92.400; -137.000;   27.000
915.656;  -68.000;  -28.000;  192.000
915.897; -102.000; -252.000;  -82.000
916.137;  -76.500;   74.000;   -9.000
916.378; -199.300; -573.000; -517.000
916.619;  -93.300; -159.000;  -63.000
916.859;    0.800;  303.000;  330.000
917.100;  329.400; 1655.000; 1070.000
917.340;  159.500;  930.000;  728.000
917.581;  174.100;  965.000;  789.000
917.821;  -35.300; -171.000;  143.000
918.061;   17.200; -199.000;  -72.000
918.302;  -93.500; -152.000; -211.000
918.542;  -37.200;  -22.000;    3.000
918.782;  117.000;  369.000;  377.000
919.023;  277.000;  360.000;  427.000
919.263; 3479.700; 8131.000;  202.000
919.503; 1576.900; -137.000;  -54.000
919.743;  976.400;  390.000;  266.000
919.983;  346.200; -134.000;  -26.000
920.223;  170.000;  135.000;   14.000
920.463;  324.700;  631.000;  554.000
920.703;  255.200;   84.000;   39.000
920.943;  296.000; -110.000;   90.000
921.183;  380.700; -414.000; -405.000
921.423;  941.700;  307.000;  546.000
921.663; 1274.500; -174.000; -257.000
921.903; 2850.900;  237.000;  173.000
922.143;17042.300;  372.000;  389.000
922.383;57183.900;  158.000;  115.000
922.622;14538.600; -120.000;  -15.000
922.862; 1863.300;  796.000;  785.000
923.102;  714.300;  -51.000;   33.000
923.341;  345.100;   59.000;   74.000
923.581;  236.800;  450.000;  360.000
923.821;   43.900;  301.000;  398.000
924.060;   88.000;  351.000;  193.000
924.300;  -70.700;  -16.000; -128.000
924.539;   47.100;  584.000;  473.000
924.779;   70.300;  812.000;  597.000
925.018;  -26.200;  247.000;  353.000
925.257;   51.900;  595.000;  666.000
925.497;    3.100;  447.000;  412.000
925.736;  -72.100;  -35.000;  102.000
925.975;   99.600;  687.000;  669.000
926.214;  112.000;  907.000;  850.000
926.454;  114.800;  706.000;  757.000
926.693;    7.500;  419.000;  543.000
926.932;  125.100; 1021.000;  825.000
927.171;  211.000; 1107.000; 1044.000
927.410;  213.400; 1144.000;  967.000
927.649;  122.400;  924.000;  742.000
927.888;   69.300;  590.000;  564.000
928.127;   38.200;  680.000;  678.000
928.366;  145.600;  842.000;  826.000
928.605;  153.100;  831.000;  737.000
928.844;  556.900; 1451.000; 1393.000
929.083; 1041.600;  770.000;  613.000
929.321;  588.100; 1335.000; 1359.000
929.560;  235.700; 1158.000; 1122.000
929.799;  -36.800;  574.000;  475.000
930.038;  281.300; 1025.000; 1394.000
930.276;  -23.500;  334.000;  397.000
930.515;   69.400;  827.000;  681.000
930.753;   52.200;  614.000;  589.000
930.992;   16.300;  664.000;  717.000
931.230;  130.700;  847.000;  847.000
931.469;  443.100; 2162.000;  892.000
931.707;  257.300;  840.000;  751.000
931.946;  195.300; 1278.000; 1344.000
932.184;  254.900; 1437.000; 1175.000
932.423;  175.000; 1265.000;  963.000
932.661;  244.900; 1296.000; 1428.000
932.899;  135.500;  987.000;  821.000
933.137;   92.700;  754.000;  564.000
933.376;  348.800; 1664.000; 1335.000
933.614;  383.400; 1759.000; 1196.000
933.852;  195.200; 1357.000; 1171.000
934.090;  361.500; 1722.000; 1747.000
934.328;  274.200; 1252.000; 1457.000
934.566;  249.600; 1431.000; 1110.000
934.804;  293.400; 1263.000; 1309.000
935.042;  957.000; 1861.000; 1850.000
935.280; 3615.400; 2088.000; 2063.000
935.518; 2796.000; 2113.000; 2007.000
935.756;  696.800; 2481.000; 2316.000
935.994;  382.100; 1808.000; 1751.000
936.231;  758.600; 2890.000; 2950.000
936.469;  486.500; 2367.000; 2378.000
936.707;  410.300; 2220.000; 2167.000
936.945;  555.400; 2825.000; 2882.000
937.182;  500.600; 2679.000; 2741.000
937.420;  679.400; 3602.000; 3031.000
937.657;  882.100; 3365.000; 3478.000
937.895;  722.600; 3331.000; 3488.000
938.133;  732.000; 3540.000; 3528.000
938.370;  788.500; 3896.000; 4191.000
938.607;  847.900; 4488.000; 4205.000
938.845; 1207.500; 5587.000; 5549.000
939.082; 1089.700; 5387.000; 5177.000
939.320; 1171.300; 5799.000; 5728.000
939.557; 1391.000; 6549.000; 6491.000
939.794; 1555.200; 7285.000; 7097.000
940.031; 1904.700; 8421.000; 8368.000
940.269; 2250.000; 9552.000; 9107.000
940.506; 2325.600;10901.000;10507.000

