
Integration time [ms]: 200.000
Averaging Nr. [scans]: 10
Smoothing Nr. [pixels]: 0
Data measured with spectrometer [name]: 2101013U2
Wave   ;Sample   ;Dark     ;Reference
[nm]   ;[counts] ;[counts] ;[counts] 

394.013;  140.688; -450.257; -315.536
394.305;  449.585; -461.258; -419.536
394.596; 1627.334; -676.269; -527.514
394.887; 3468.358; -796.268; -654.518
395.178; 1488.903;  145.736;   11.476
395.470;  166.320; -210.263; -356.526
395.761;  501.280;  305.734;  394.479
396.052;  774.950; -545.284; -306.489
396.343;  777.953; -557.276; -454.503
396.634;  245.907; -200.279; -290.497
396.926;  281.754; -618.268; -565.517
397.217;  304.159;   11.725;  -17.504
397.508;  119.682; -366.273; -154.507
397.799;  110.407; -555.279; -571.497
398.090;   12.198; -973.280; -902.495
398.381;  279.140;   11.708;  -11.473
398.672;    4.641; -585.292; -742.473
398.963;   98.216; -348.279; -373.498
399.254;  247.855;   54.709; -209.475
399.545;  -45.825;-1017.266; -883.520
399.836;  126.936; -407.277; -343.501
400.127;  129.705; -205.295; -209.468
400.418;  151.874; -423.274; -392.506
400.709;  233.979; -359.281; -333.493
401.000;  163.161; -268.291; -309.476
401.290;  208.412;  225.698;  115.545
401.581;  168.625; -166.286; -228.485
401.872;   48.764; -542.298; -486.462
402.163;  104.194; -313.296; -252.467
402.454;  212.456; -123.291; -163.475
402.744;  162.481; -844.297; -813.465
403.035;  868.727; -226.293;  -86.471
403.326; 1111.946; -366.292; -384.474
403.617;  721.656;  204.701;  165.539
403.907;  385.158; -593.283; -679.490
404.198; 3251.944; -545.307; -599.446
404.489; 8372.966; -618.283; -588.491
404.779; 3281.117; -618.302; -660.456
405.070;  452.185;  -67.304; -174.451
405.360;  494.730; -259.293; -238.472
405.651;  620.333;  125.699;   98.542
405.942;  382.418;  209.714;  127.516
406.232;  645.139; -432.285; -413.487
406.523; 1090.019;  641.706;  758.530
406.813;  248.821; -579.286; -644.484
407.104;  818.438;  261.708;  144.527
407.394;  494.257; -604.299; -591.462
407.685;  382.938;  336.715;  222.513
407.975;  157.963; -400.283; -382.490
408.265;  247.877; -134.289; -190.478
408.556;  141.451; -472.291; -459.475
408.846;  373.821;  474.706;  429.530
409.137;  173.289;   -1.288; -216.480
409.427;  101.539; -193.285; -271.487
409.717;   57.287; -776.273; -692.508
410.007;  299.029;    4.715; -170.486
410.298;  211.009; -360.295; -342.469
410.588;  177.235; -495.285; -510.486
410.878;   21.706; -792.287; -873.482
411.168;  215.467; -481.298; -478.463
411.459;  223.456; -295.283; -242.489
411.749;  107.249; -609.292; -507.474
412.039;  137.787; -755.289; -386.480
412.329;  398.326;   40.722;  132.501
412.619;  349.521;  -62.286; -148.485
412.909;  727.981;  639.711;  594.521
413.199;  641.299; -130.280; -251.495
413.490;  812.567;  521.710;  352.523
413.780;  213.405;-1013.279; -913.496
414.070;  601.254;  -46.276;  235.497
414.360;  657.920; -729.278; -666.498
414.650;  637.700; -726.288; -688.482
414.940;  817.504; -538.280; -441.496
415.230; 1460.395;   50.712;   74.519
415.520; 9138.233;  155.730;   66.486
415.809;33736.279; -305.281; -125.493
416.099;26762.740; -388.277; -229.501
416.389; 6872.271;  435.726;  236.494
416.679; 4118.925;   91.738;   85.473
416.969;  755.912; -527.287; -503.483
417.259;  936.807;  341.721;  171.503
417.549; 1119.577;  522.718;  318.508
417.838; 2337.858; -205.268; -147.518
418.128; 7236.175;  650.710;  492.522
418.418; 6010.396; -491.272; -579.509
418.708; 4319.771;    9.726;  -48.506
418.997;15134.765; -474.275; -480.505
419.287;15741.181; -733.273; -790.507
419.577;14401.454; -160.283; -123.489
419.866;47262.637; -588.277; -498.501
420.156;50609.727; -242.270;  -55.513
420.446;10100.014; -112.263;  -26.526
420.735; 1582.218; -376.271; -446.512
421.025; 1528.919; 1830.722;  315.502
421.314; 1419.915; -203.271; -226.512
421.604; 3232.047;   89.732;  233.484
421.893; 1935.710; -705.271; -602.511
422.183;  385.914; -487.263; -461.526
422.472;  679.412;  -36.271; -107.511
422.762;  801.184; -416.266; -379.521
423.051;  401.955; -916.276; -916.503
423.341;  553.484; -491.273; -439.507
423.630;  716.093; -121.265;   15.477
423.919;  679.064;   58.725;   49.495
424.209;  583.822;  -31.263;   56.473
424.498;  819.354;   68.732;  161.483
424.787; 1518.363; -535.267; -601.518
425.077; 4771.690;   34.735;   29.478
425.366; 7307.730; -734.262; -744.528
425.655;13029.985;  639.727;  259.493
425.945;23725.520; -313.247; -268.554
426.234;14127.064;  117.741;  300.467
426.523; 7162.271;  -86.259; -350.534
426.812; 9935.778;  107.734;  159.480
427.101;13890.542; -127.269; -323.515
427.390;17742.932;  -55.270;  -86.514
427.680; 5060.800; -624.257; -411.538
427.969;  963.216; -330.255; -301.540
428.258;  579.288; -385.257; -477.536
428.547; 1017.103;  449.728;  397.490
428.836; 2415.840; -421.253; -398.543
429.125; 3557.774; -199.259;  -72.534
429.414; 1546.073; -330.251; -294.548
429.703; 4543.973; -231.251; -213.548
429.992;12578.778; -938.250; -828.549
430.281; 8421.004; -397.264; -331.524
430.570; 1151.659;  -21.252;   32.454
430.859; 1317.671;  279.741;  352.466
431.148; 1089.914;  636.752;  631.446
431.437;  720.358;  391.748;  367.454
431.725;  302.690; -544.257; -481.536
432.014;  186.551; -845.253; -756.545
432.303;  706.825; -149.239; -105.569
432.592; 1117.613; -460.263; -178.525
432.881; 1512.015; -601.248; -437.554
433.169; 8080.117; -343.255;  -61.540
433.458;15968.874;  445.765;  540.424
433.747; 7410.739; -397.261; -289.529
434.036; 1755.889; -275.242; -280.564
434.324; 3111.397; -395.249; -379.551
434.613; 4972.580;   40.757;  159.437
434.902; 2069.710;  333.760;  439.433
435.190; 1530.023;   75.761;  295.431
435.479;  885.853;  -52.245;   83.441
435.767;  313.065; -411.244; -427.561
436.056;  464.483; -340.242; -294.563
436.345;  634.714; -372.240; -223.568
436.633;  685.590;   60.750;  383.450
436.922;  649.517;  208.760;  414.432
437.210; 1626.460; -194.236;    1.426
437.499; 4948.972; -583.235; -432.576
437.787; 5480.359; -339.236;  -10.574
438.075; 1397.631;   56.761;  162.430
438.364; 1739.735;  -44.238;  250.429
438.652; 1114.489; -286.226; -138.592
438.941;  337.736;    3.770;  269.415
439.229;   71.255; -665.252; -466.545
439.517;  140.184; -160.234;  -85.577
439.806;   40.112; -501.225; -290.595
440.094;  443.195;  377.766;  650.421
440.382;  471.101; -653.233; -302.580
440.670;  485.771; -361.235; -285.576
440.959;  119.637; -347.223; -170.599
441.247;  186.753; -151.229; -109.587
441.535;  260.181; -266.235;   31.423
441.823;  119.991; -497.234; -305.578
442.111;  383.959;  173.771;  327.412
442.400; 1227.852; -628.245; -335.559
442.688; 3346.694; -111.234; -620.579
442.976; 2527.966; -786.213; -450.617
443.264;  290.822; -324.224; -364.597
443.552;  211.090; -258.226;   51.408
443.840;  386.480;  602.765;  876.423
444.128;  258.099;  265.767;  269.420
444.416;   39.963; -694.228; -312.588
444.704;   78.481; -465.219;  -92.605
444.992;  172.194;   -0.226;  240.407
445.280;  130.137; -517.230;  -94.585
445.568;  102.671; -694.212; -396.618
445.856;  773.857; -174.221;  357.398
446.143; 1663.175;  -54.220;   -7.604
446.431; 1397.068;  -25.228;  625.411
446.719;  523.009;  489.783;  675.391
447.007;  415.129;  481.769;  705.416
447.295;  403.333;  597.777;  871.402
447.583;  168.349; -464.229;  -34.587
447.870;  325.653; -434.221; -202.601
448.158;  827.035; -104.230;  129.415
448.446;  612.677; -800.219; -338.604
448.733;  337.624;   13.776;  269.403
449.021;  474.471;   60.788;  341.382
449.309;  333.393; -296.210;  208.379
449.596;  375.603;  128.783;   59.392
449.884;  243.543; -571.222; -325.600
450.172;  172.376; -756.227; -406.590
450.459;  657.541;  645.786;  780.387
450.747; 2927.201; -411.218; -147.608
451.034; 9095.370;  493.772;  889.411
451.322; 7516.746; -413.214; -170.614
451.609;  782.226;  292.777;  508.403
451.897;  764.785; -550.203; -183.634
452.184; 2269.433; -622.223; -400.598
452.472; 2307.724;   97.792;  269.375
452.759;  676.278;  512.781;  864.395
453.047;  254.867; -407.212; -125.617
453.334;  209.189; -732.219; -216.606
453.621;  197.949; -438.214; -161.615
453.909;  293.373;   13.796;  384.368
454.196;  283.140; -299.199; -123.641
454.483;  495.504;  317.798;  540.364
454.771;  313.028; -215.208;  196.374
455.058;  111.833; -316.207;  102.374
455.345;  217.821;   71.807;  344.347
455.632;  134.638; -128.207;  235.373
455.919;  112.873;  -82.196;  182.354
456.207;  -92.854; -774.198; -450.642
456.494;    5.322; -475.200;  -66.639
456.781;   30.398; -399.202; -198.635
457.068;  166.048; -253.206;  -29.628
457.355;   50.449; -698.206; -401.629
457.642;   48.057; -552.205; -290.630
457.929;   35.708; -778.194; -417.651
458.216;  108.667; -575.212; -354.617
458.503;  323.814; -173.193;  -19.652
458.790;  256.125; -864.208; -630.625
459.077;  459.405;  -77.202;  110.364
459.364; 1113.097; -350.195; -210.649
459.651; 2179.845;  -46.206;  220.372
459.938; 1076.011; -864.209; -665.623
460.225;  329.710;  132.799;  276.363
460.512;  -57.931; -836.197; -688.645
460.799;  284.099;  -32.218;  320.392
461.086;  242.828; -370.200; -251.640
461.372;  168.947; -509.198; -279.642
461.659;  293.575; -165.196;  108.354
461.946;  157.212; -445.193;  -54.651
462.233;  505.025;  842.800;  888.361
462.519;  536.120; -814.201; -464.639
462.806; 1396.569; -768.197; -497.645
463.093; 1147.643; -445.191;  -66.656
463.380;  -45.297; -920.186; -824.664
463.666;  154.172; -259.197;  -18.646
463.953;  188.690; -406.195; -243.648
464.239;  289.690; -173.195;  -77.648
464.526;  751.305;  413.806;  743.350
464.813;  604.660; -565.190; -304.658
465.099;  685.414;  606.807;  607.348
465.386;  700.620;  903.807;  921.348
465.672;  152.870; -694.197; -522.645
465.959;   96.386; -598.188; -520.662
466.245;  126.920; -468.193; -359.652
466.532;  224.886; -109.195;   63.352
466.818;  196.003; -357.186; -216.664
467.104;   53.962; -488.182; -415.672
467.391;   13.562; -628.189; -459.658
467.677;  126.408; -289.186;    9.335
467.964;   69.872; -682.189; -471.660
468.250;  211.012; -331.186; -160.665
468.536;  241.964;   90.811;  180.341
468.822;  -11.271; -821.184; -574.668
469.109;  351.080;  351.827;  471.311
469.395;  416.734;  729.808;  787.346
469.681;  406.869;   46.811;  156.341
469.967; 1756.675; -699.188; -382.660
470.254; 3413.387; -494.188; -306.662
470.540; 2298.273; -601.196; -476.646
470.826;  366.678; -488.181; -397.675
471.112;  453.435;  288.816;  113.331
471.398;  248.441; -253.183;  -58.670
471.684;  134.719; -626.177; -447.680
471.970;   -4.117; -918.180; -981.675
472.256;   62.332; -521.192; -441.654
472.542;   94.196; -499.171; -434.691
472.828;   55.556; -743.182; -607.672
473.114;  123.760; -380.166; -283.700
473.400;   78.544; -504.175; -293.684
473.686;  142.569; -452.166; -400.701
473.972;  168.465; -230.174; -131.687
474.258;  -71.720; -925.173; -843.689
474.544;  242.807; -183.178;   -2.679
474.830;  396.846;  -65.175;   45.316
475.116;  553.262; -123.190; -196.658
475.401;  703.687; -558.180; -467.676
475.687;  266.585; -725.180; -718.676
475.973;   26.568; -673.181; -770.673
476.259;  572.249;  736.825;  764.315
476.544;  588.231; -539.176; -437.682
476.830;  931.390; -398.172; -322.690
477.116;  762.129; -430.177; -336.682
477.401;  281.386;  346.820;  358.324
477.687;    3.244; -289.175; -405.684
477.973;  119.373;   21.819;   28.326
478.258;   -9.001; -448.163; -348.706
478.544;  123.320;   21.815;   61.334
478.829;  -66.896; -818.171; -738.692
479.115;  -61.210; -749.172; -651.690
479.401;   32.358; -444.174; -449.686
479.686;   43.784; -253.180;  -74.676
479.972;  -75.985; -886.178; -776.680
480.257;   84.162; -258.166;  -65.700
480.542;   43.210; -614.170; -469.693
480.828;  514.641; 1288.824; 1392.317
481.113;  -20.962; -464.176; -426.683
481.399;   28.834; -236.161; -202.711
481.684;  -62.539; -620.166; -462.700
481.969;   88.454; -158.159;  -73.713
482.255;   41.926; -439.169; -285.695
482.540;   21.315; -569.178; -441.680
482.825;   24.696; -395.187; -404.663
483.110;  162.630;  -85.169; -105.696
483.396;  192.185; -840.157; -652.718
483.681;  690.465;  543.826;  730.313
483.966;  155.745; -696.160; -700.712
484.251;   55.964; -404.174; -310.687
484.536;   94.377; -356.165; -378.703
484.822;   50.268; -205.173; -218.687
485.107;  -37.059; -599.152; -502.726
485.392;  308.485;  662.836;  541.296
485.677;  206.645;  354.832;  163.302
485.962;  247.082;  160.843;  270.283
486.247;  260.511;  -14.162;   -8.707
486.532;  103.464; -178.166; -325.701
486.817;  316.726;  381.839;  431.291
487.102;  164.516; -453.154; -514.722
487.387;  742.288; -637.156; -652.718
487.672; 1292.693; -154.164;  -38.705
487.957;  860.136; -394.160; -286.711
488.241;  246.766; -290.150; -314.729
488.526;  896.943; -280.152; -148.726
488.811; 1317.218; -881.177; -818.680
489.096; 1004.520; -666.154; -702.723
489.381;  640.038;    3.847;  162.275
489.666;  371.234; -428.161; -510.710
489.950;  362.325;  558.846;  627.277
490.235;   -0.842; -480.151; -458.728
490.520;  -55.568; -756.161; -723.710
490.804; -103.109; -827.156; -736.719
491.089;    1.289; -469.149; -299.732
491.374;   86.091; -132.164;  -75.704
491.658;  -12.894; -817.147; -717.735
491.943;  287.449; -657.152; -609.727
492.227;  438.510; -178.155;  -38.721
492.512;  129.081; -294.157; -341.717
492.797; -117.220; -713.149; -716.731
493.081;  -50.890; -588.147; -598.735
493.366;  -51.066; -751.161; -635.711
493.650;  447.987;  831.859;  917.254
493.935;   -6.395; -648.147; -447.734
494.219;  -82.431; -778.142; -687.743
494.503;  -63.428; -585.150; -487.730
494.788;  116.169;   46.842;   74.285
495.072;  219.268;  184.850;  434.271
495.356;  259.793; -463.148; -343.733
495.641;  640.519; -812.146; -736.736
495.925;  671.298; -976.156; -903.719
496.209;   97.588; -599.149; -451.732
496.494;  -70.630; -763.142; -544.744
496.778;   60.316; -364.154; -360.722
497.062;  -87.103; -819.156; -627.719
497.346;  -99.261; -869.160; -640.711
497.631;  303.699;  580.852;  560.266
497.915;  178.135;  -64.145;  175.261
498.199;  154.885; -341.157; -277.718
498.483;  114.841; -562.152; -508.725
498.767;  335.269;  301.850;  300.271
499.051;  307.285; -126.149; -100.732
499.335;   57.882; -693.149; -739.731
499.619;  -44.064; -381.129; -423.767
499.903;   97.008; -272.155;  -65.721
500.187;   84.227; -588.153; -316.724
500.471;   18.548; -796.152; -595.727
500.755;  226.333;   62.839;  -96.710
501.039;   59.009; -270.155; -357.721
501.323;  229.090;  -21.141;  264.254
501.607;  140.800; -447.163; -503.706
501.891;   24.287; -607.156; -512.718
502.174;  -39.649; -726.144; -585.741
502.458;  142.354;   89.849;  370.273
502.742;  112.525; -180.138; -191.751
503.026;  119.604; -412.147; -254.734
503.310;  181.252; -437.159; -375.713
503.593;  139.207; -464.147; -325.735
503.877;  252.484; -232.133; -156.760
504.161;  304.431;    2.847;  -50.724
504.444;  149.972; -841.158; -710.716
504.728;  519.989; -487.164; -522.704
505.012;  893.165; -257.150;  -76.729
505.295;  703.134; -417.161; -212.711
505.579;  672.097; -256.156; -496.719
505.862;  837.429; -555.145; -333.738
506.146;  788.256; -681.159; -758.714
506.429;  577.656;  568.841;  461.286
506.713;   77.660; -732.151; -667.728
506.996;  453.916;   90.846;  295.278
507.280;  393.382; -633.165; -474.703
507.563;  287.106; -469.155; -261.721
507.847;  118.828; -423.153; -112.724
508.130;   74.135; -665.161; -456.711
508.413;  117.856; -758.167; -577.700
508.697;  322.156; -151.167;   12.300
508.980;  210.930; -422.153; -312.724
509.263;  -19.799; -466.155; -450.720
509.547;  122.164; -124.150;   82.271
509.830;  116.638; -172.160;  140.289
510.113;  207.397;  128.844;  298.281
510.396;   79.638; -530.152; -300.725
510.680;  441.731; -818.145; -812.738
510.963; 1657.222;  184.846;  180.277
511.246; 1421.676; -493.150; -357.730
511.529;  524.638; -482.145;  -83.739
511.812;  454.379; -250.134;   10.241
512.095;  285.156; -740.151; -396.728
512.378;  118.312; -317.147; -245.736
512.661;   35.336; -703.137; -623.753
512.944;   -5.228; -750.142; -637.744
513.227;  117.332; -170.137; -171.752
513.510;   52.851; -479.144; -671.741
513.793;   58.396; -485.140; -435.747
514.076;  274.366;  -43.127;  -39.771
514.359;  195.289; -294.149; -135.732
514.642;  106.776; -442.142; -567.744
514.925;  981.994;  581.860;  561.253
515.208; 1047.674; -498.134; -443.758
515.491;  764.594; -276.133; -182.761
515.773;  454.856; -410.143; -337.742
516.056; 2416.945;  249.864;  409.246
516.339; 3290.951; -754.136; -652.755
516.622; 3107.272; -518.150; -488.730
516.904; 2810.567;  882.857;  975.257
517.187; 1231.930; -730.138; -523.752
517.470;  628.665; -568.143; -510.743
517.752;  499.455; -624.136; -470.756
518.035;  371.612; -708.139; -725.749
518.318;  336.051; -799.136; -744.755
518.600; 2604.099; -300.132; -325.762
518.883; 3595.675;  310.858;   88.256
519.165; 1806.020; -585.138; -426.751
519.448;  608.899;  -61.132;  -19.762
519.730;  358.677; -573.126; -415.773
520.013;  645.188;  588.867;  664.240
520.295; 1910.081;  -94.134;  -15.759
520.578; 4027.718; -335.131; -305.764
520.860; 4415.799; -254.132;   56.238
521.143; 2226.559; -763.135; -584.756
521.425;  712.096; -251.125; -279.775
521.707;  891.367; -622.127; -380.771
521.990; 2058.767; -199.127;  167.229
522.272; 2329.599; -116.140;   -4.748
522.554; 1301.457; -237.143; -157.742
522.836;  699.478;  -24.134;   99.241
523.119;  403.902; -496.148; -189.734
523.401;  223.028; -448.130; -314.766
523.683;   84.837; -865.137; -693.753
523.965;  402.127;  408.862;  260.248
524.247;  337.027;   54.878;  170.220
524.529;  230.481; -451.134; -367.759
524.812;  548.431;   -3.130;  191.234
525.094;  961.426; -773.138; -631.751
525.376; 1450.109; -143.124;   78.223
525.658;  913.747; -441.136; -339.754
525.940;   -2.787; -805.131; -671.764
526.222;   91.252; -188.136;  -88.755
526.504;  250.810; -190.131;   32.237
526.786;  435.485; -960.133; -647.760
527.068;  696.117; -124.123;  -67.778
527.349;  321.442; -865.137; -774.754
527.631;  199.098; -137.132;   22.238
527.913;  106.766; -664.127; -450.771
528.195;  105.986; -761.125; -639.774
528.477;  342.274;  -93.134;  -30.758
528.759;  102.130; -648.130; -522.766
529.040;   36.916; -569.123; -293.778
529.322;   89.890; -235.125;  -10.774
529.604;  286.234;  -47.130;   93.233
529.886;  202.877; -546.126; -302.773
530.167;  267.921;  232.870;  192.235
530.449;  123.112;    1.853;   63.265
530.731;   -5.274; -572.122; -459.779
531.012;   67.356; -513.120; -216.784
531.294;   97.813; -118.116;  -43.792
531.575;  247.796;  290.875;  538.225
531.857;   19.966; -548.135; -266.757
532.138;  225.388; -113.141;   40.254
532.420;  350.461;  294.865;  403.244
532.701;  380.388; -722.133; -751.760
532.983;  674.893;  232.867;  182.239
533.264;  267.574; -243.126;  175.228
533.546;  -47.548; -491.136; -508.755
533.827;  150.183;  173.867;   -1.759
534.109;   94.866; -352.135;  -80.757
534.390;  175.404; -725.132; -582.762
534.671;  373.361; -270.135;  -82.756
534.953;  145.720; -751.123; -611.779
535.234;   42.092; -426.117; -255.789
535.515; -142.531; -891.119; -735.785
535.796;  -23.040; -431.128; -193.770
536.078; -204.691;-1050.124; -904.777
536.359;   21.621;  -22.123;    3.221
536.640;    6.188; -480.125; -197.774
536.921;  292.441;  225.871;  143.232
537.202;  474.422;  -87.138;  -16.751
537.483;  593.917;  251.869;  377.236
537.764;  243.122;   17.870;   98.235
538.045;  -55.027; -543.134; -371.758
538.326;  -37.456; -596.129; -447.768
538.607;  -34.332; -686.127; -476.771
538.888;  239.543;   98.879;    5.218
539.169;  208.735; -704.122; -535.781
539.450;  498.640;  236.871;   16.233
539.731;  301.049; -361.121; -182.783
540.012;  225.856;  199.880;  412.216
540.293;  149.301;   82.876;  158.224
540.574;   33.144; -895.113; -717.796
540.855;  775.947;  435.879;  377.218
541.136;  762.031;   47.878;  139.220
541.416;  369.731; -161.130; -220.766
541.697;  225.511; -274.131; -170.763
541.978; 1217.664; -270.135; -315.757
542.259; 1438.768; -211.127; -236.771
542.539;  734.605; -191.116; -186.790
542.820;  350.295;  461.875;  480.225
543.101;  211.034;  -52.145;  -77.738
543.381;    9.667; -638.127; -591.771
543.662;  395.464;  159.873; -254.771
543.942;  593.361; -751.127; -830.770
544.223; 1239.034;  193.878;  161.219
544.504;  757.308; -275.124; -182.777
544.784;  716.977; -592.126; -408.773
545.065; 2009.410;  104.884; -254.791
545.345; 2351.469;  227.881;   14.215
545.626; 1526.043;  -14.113; -108.796
545.906;  997.721;   77.869;   98.235
546.186;  420.583;   92.874;  -95.773
546.467;  288.512;   99.877;  -95.778
546.747;  394.004;  264.884;  327.210
547.027;  487.406;   91.876;  111.223
547.308;  354.360; -376.127; -530.770
547.588;  512.645;  299.871;  371.232
547.868;  330.922;  458.870;  588.235
548.149;  326.621;  609.885;  593.207
548.429;  119.465; -347.127; -299.771
548.709;  194.856; -645.120; -461.784
548.989;  593.483;   84.882;   88.213
549.269; 2364.496;   10.868;  139.239
549.550; 5267.318;  215.877;  117.222
549.830; 4781.269; -758.111; -556.799
550.110; 1003.180; -468.110; -320.801
550.390; 1024.026; -128.122;  -56.779
550.670; 1187.836; -868.114; -783.795
550.950;  849.146; -509.121; -471.782
551.230;  321.241;  549.879;  460.218
551.510;  -20.756; -381.121; -326.782
551.790;   52.591; -173.109; -127.803
552.070;  497.412;  940.877; 1181.223
552.350;  422.174; -492.119; -377.786
552.630;  655.137;   -2.121;   77.219
552.909;  428.911;  181.884;   73.209
553.189;  287.406;  -49.132;   33.237
553.469;  147.274; -703.119; -514.786
553.749;  180.670; -469.127; -357.772
554.029;  215.198;   33.883;  -24.790
554.308;  184.527; -154.115;  -37.794
554.588;   65.658; -196.128; -204.770
554.868;   61.347; -366.121;  -47.782
555.147;  173.123; -114.115;  -46.793
555.427;  684.114; -260.116; -250.792
555.707; 4392.120; -284.115; -200.793
555.986; 4830.974; -719.111; -538.800
556.266; 2713.402;   23.884;   72.210
556.546;   53.845; -888.121; -675.782
556.825;  235.233; -657.114; -556.794
557.105; 2058.355; -125.128;   17.230
557.384; 2248.209;  122.884;  187.209
557.664;  800.713; -717.116; -508.792
557.943;   77.446; -557.121; -411.782
558.222;  187.987; -345.118; -344.788
558.502;  347.125; -116.115;  -76.793
558.781;  628.318;  194.885;  499.208
559.061;  438.587; -232.118; -227.788
559.340;  395.594;  302.883;  353.211
559.619;  772.702;   93.884;  148.210
559.899; 1014.897; -239.117; -266.789
560.178;  958.824; -778.115; -593.793
560.457; 3487.999; -623.117; -562.790
560.736; 4474.076; -472.111; -482.800
561.015; 3096.452; -500.128; -502.769
561.295;  475.320;  180.893;  215.193
561.574;  449.321;  119.885;  116.207
561.853;  641.798;  274.891;  303.197
562.132;  570.228;  -45.114;  182.206
562.411;  537.838;  396.879;  553.219
562.690;   90.618; -592.115; -458.792
562.969;  254.553;  472.888;  630.203
563.248;  961.635; 2966.878; 2487.219
563.527;  297.775; -290.111; -408.800
563.806;  328.565; -650.127; -521.771
564.085;  420.143; -297.105; -206.810
564.364;  216.201; -594.117; -405.790
564.643;  540.739; -276.121; -223.781
564.922; 1941.289;  221.890;  397.198
565.201; 1879.694; -640.109; -700.803
565.479;  865.316; -297.115; -219.792
565.758;  324.456; -810.128; -712.770
566.037;  540.796; -155.109; -100.803
566.316;  268.010; -286.116;  -28.791
566.595;   82.720;  -17.115;  -12.793
566.873;  222.177; -166.111;  -79.801
567.152; -122.148; -490.113; -590.797
567.431;   61.404; -113.116;    6.210
567.709;   39.821; -344.107; -212.807
567.988;  232.733; -810.114; -769.794
568.266;  603.020; -160.115;  -68.793
568.545;  387.611; -644.100; -514.819
568.824;  699.515;  160.885;  356.208
569.102;  538.532; -351.114; -235.794
569.381;  183.014; -492.116; -407.792
569.659;  -55.053; -553.113; -553.796
569.938;  -27.668; -743.122; -465.780
570.216;  128.200; -225.109; -225.804
570.494;  -69.263; -632.114; -572.795
570.773;  110.444;  202.879;  114.218
571.051;    0.916; -373.123; -357.778
571.330;   82.444; -221.113; -174.796
571.608;   21.938; -181.098; -173.823
571.886; -140.534; -671.111; -581.799
572.164; -136.153; -739.121; -621.782
572.443;  -90.752; -562.105; -512.811
572.721;  -71.701; -399.117; -289.790
572.999;  -31.610; -280.117; -168.788
573.277;  192.939;  379.894;  620.191
573.555;  351.242;   94.894;   37.190
573.834; 1409.389;  -86.117; -114.788
574.112; 1719.224;  880.893;  811.193
574.390;  494.676; -143.111;  -96.801
574.668;   -0.246;  -91.112;  -61.797
574.946;   15.342; -165.106; -187.810
575.224;   45.194;   71.891;  -16.803
575.502;  -52.594; -200.116; -204.791
575.780; -161.744; -767.112; -829.798
576.058;  506.375; 1589.889; 1004.200
576.336;  -37.217; -210.110; -129.801
576.614;  -99.144; -511.112; -340.798
576.891;  -23.074; -711.115; -823.794
577.169;  497.211; -158.108; -285.805
577.447;  664.823;  169.893;  202.193
577.725;  381.862;  629.888;  854.201
578.003;   36.860;  -71.112; -371.798
578.280;  139.261; -208.104; -242.812
578.558;   64.025; -450.115; -422.793
578.836;  228.337; -210.114; -145.795
579.114;   88.353; -630.112; -670.797
579.391;  132.292;   -6.117;  -18.789
579.669; -112.772; -595.114; -704.794
579.947;  202.919; -326.107; -127.806
580.224;  270.618; -692.107; -524.806
580.502;  344.025;  127.893;   76.193
580.779;   68.101;  -42.117;   75.210
581.057; -136.200; -584.109; -470.804
581.334; -156.717; -726.102; -695.815
581.612;   88.043;   54.895;  511.190
581.889;  -20.598;  -83.101; -129.818
582.167;  -25.377; -298.099; -190.821
582.444; -203.106; -845.102; -814.817
582.721;  245.195;  657.899;  715.183
582.999;   83.219; -326.100; -167.821
583.276;  475.323; -812.123; -713.779
583.553;  678.488; -364.102; -294.816
583.831;  176.056; -607.104; -631.812
584.108;  128.208;  349.892;  174.195
584.385;   30.582; -122.102;  -98.815
584.662; -139.522; -651.111; -828.801
584.940;   92.777;  204.889;  204.199
585.217;   10.646;  -73.113; -303.796
585.494;   84.790;   71.890;  118.198
585.771;  249.801; -250.109; -354.804
586.048;  581.346; -196.113;  -76.796
586.325;  319.882; -721.110; -773.801
586.602;  176.462;  230.896;  213.188
586.879;  -67.486; -499.100; -580.820
587.156;   33.144; -156.105; -331.810
587.433; -109.409; -701.102; -667.817
587.710;  128.857;  152.888;  234.202
587.987;  389.852; -264.105; -236.811
588.264; 1017.559;  315.888;  387.202
588.541; 1726.765;  -61.104;   26.187
588.818; 3185.904;   72.892;  171.196
589.095; 2814.559; -163.104; -174.812
589.371;  467.998; -459.109; -414.804
589.648;   23.824; -581.107; -437.807
589.925;   -4.662; -517.114; -621.795
590.202;  -37.244; -741.112; -607.798
590.478;   94.855; -166.105;  -73.811
590.755;  294.213; -241.108; -132.806
591.032; 2648.285; -741.110; -699.802
591.308; 3376.296; -732.094; -790.831
591.585; 1799.184; -573.110; -560.802
591.862;   45.994;-1056.102; -950.817
592.138;   22.610; -475.108; -474.805
592.415;  131.063; -486.104; -495.813
592.691; 1822.360;  460.896;  518.188
592.968; 2037.040; -208.098; -123.824
593.244;  928.204; -695.116; -595.790
593.521;   96.894; -105.102;  -42.817
593.797; -111.772; -810.122; -720.780
594.074;  347.759; -611.096; -588.826
594.350;  905.775;  828.905;  729.172
594.626;  368.678; -303.111; -283.801
594.903;   45.095; -643.101; -645.817
595.179;  285.468;  243.896;  418.187
595.455;   21.826; -136.107; -150.807
595.731;   28.071;  -19.103;  -38.814
596.008;  -86.830; -464.111; -434.800
596.284;   45.618; -187.100; -242.820
596.560;   11.106; -501.093; -493.833
596.836;  213.947; -173.105;  -70.810
597.112;  346.411; -582.108; -437.805
597.388;  321.156;  -49.097;  -48.826
597.665;  174.650;  437.887;  530.203
597.941; -126.251; -572.089; -658.839
598.217;   -9.611; -323.110; -293.802
598.493;  299.103;   61.891; -204.804
598.769;  543.809; -175.100;  -50.819
599.045;  278.415; -490.108; -562.806
599.321;   41.516; -193.100; -261.820
599.597;  144.402; -355.109; -476.804
599.872;  652.865;  409.896;  429.187
600.148;  430.758;  -61.097; -172.826
600.424;  353.122;   91.893;  202.193
600.700;  253.225; -170.107; -280.807
600.976;   89.250; -442.097; -464.825
601.252;  277.497; -226.109; -272.803
601.527;  143.067; -833.104; -840.813
601.803;  155.955; -453.105; -404.812
602.079;  249.209; -124.100; -118.819
602.354;  594.020; -620.092; -531.835
602.630;  874.146; -140.113; -482.796
602.906; 2701.902; -910.101; -863.818
603.181; 7190.274; -627.119; -534.786
603.457; 6321.355;   98.903; -278.826
603.733;  932.750; -605.120; -626.783
604.008; 1219.043; -245.106; -164.810
604.284; 3199.597; -636.101; -580.817
604.559; 3024.462;   -3.112;  -42.799
604.835;  522.547; -163.105; -225.810
605.110;  405.024; -732.099; -892.821
605.385;  833.810;  224.907;  267.167
605.661;  651.779; -625.095; -729.829
605.936; 1100.515; -664.108; -737.806
606.211; 1093.180;  -17.103; -170.815
606.487;  215.331; -329.114; -376.794
606.762;  -62.225; -791.119; -745.786
607.037;  -71.953; -501.105; -433.810
607.313; -104.131; -589.096; -574.828
607.588;    1.342; -375.106; -137.810
607.863;   40.202;  -28.101; -143.818
608.138;  259.088;  513.890;  516.198
608.413;  -50.170; -576.099; -592.822
608.688;   26.810; -203.108; -267.805
608.964;  193.634; -509.106; -218.809
609.239;  220.343; -107.105; -212.810
609.514;  358.155;  281.895;  240.188
609.789;  645.661; -187.104; -716.812
610.064;  927.867; -435.096; -609.827
610.339;  873.998; -855.109; -799.804
610.614; 1198.217; -131.100; -315.820
610.889;  698.655;  215.895;  107.188
611.163;   14.756; -407.104; -591.812
611.438;   78.332;   81.886; -167.794
611.713;  -34.903; -467.101; -499.817
611.988;   71.000; -144.101; -328.818
612.263; -111.717; -771.102; -717.815
612.538;  312.846;  385.887;  251.204
612.812;   76.619; -832.100; -911.820
613.087;   99.737; -358.098; -338.823
613.362; -126.374; -497.107; -557.807
613.637;   83.575;  261.897;  138.186
613.911;  -23.379; -256.092; -345.835
614.186;   92.123; -249.107; -292.807
614.460;  558.258; -842.081; -758.854
614.735;  787.483;  -55.087;  -17.843
615.010;  209.268;   43.912;  -82.841
615.284;  356.909;  360.892;  246.195
615.559;  294.819; -792.092; -955.835
615.833;  356.427;  -76.099;  -87.822
616.108;    3.137; -225.090; -390.837
616.382;  227.285;  274.913;  402.156
616.656;  154.237; -241.090; -232.837
616.931;  468.328; -785.099; -700.822
617.205; 1101.467; -973.104; -979.813
617.480; 1065.793;  -91.125;    6.225
617.754;  164.289; -396.125; -128.774
618.028;  -36.354; -369.129; -382.768
618.302;  116.707;   73.892;  -25.805
618.577; -110.723; -371.103; -518.815
618.851;  -91.107; -399.109; -600.803
619.125;  -89.219; -335.134; -378.759
619.399;  -35.932; -244.104; -374.813
619.673;  -72.385; -330.115; -515.792
619.947; -103.363; -333.114; -448.795
620.222;  -23.220; -198.110; -204.801
620.496;   -5.453;  -47.121;  -96.782
620.770;   21.135; -187.122;  -93.781
621.044;  304.244;  323.895;  346.190
621.318;  795.351; -653.120; -614.783
621.592;  687.348; -430.121; -409.783
621.866;  310.764; -476.112; -572.799
622.140;   30.806; -207.116; -356.791
622.413;   88.870;  138.889;  112.200
622.687; -103.103; -746.101; -492.817
622.961;   74.607; -130.108; -143.805
623.235; -125.929; -633.111; -661.800
623.509; -213.046; -816.105; -848.811
623.783;   28.220;  -12.107;   48.193
624.056;  -65.547; -254.120; -280.783
624.330;  107.354;   63.888;   -3.797
624.604;   31.901; -271.116; -355.790
624.877;  103.286;  180.890;   26.198
625.151;   41.829; -249.114; -238.794
625.425;  -42.829; -150.103; -283.814
625.698;  -97.434; -367.119; -374.785
625.972; -164.910; -799.110; -765.802
626.245;  196.404;  685.884;  484.210
626.519;  -52.841; -426.120; -340.784
626.792;  -52.275; -192.107; -380.807
627.066; -166.476; -485.122; -662.779
627.339; -193.716; -736.110; -663.802
627.613;  125.756;  351.880;  148.216
627.886;  131.692;  187.891; -612.803
628.160;  -28.250;  312.880; -161.783
628.433; -172.503; -695.125; -703.775
628.706; -120.441; -517.120; -615.784
628.979;   78.806;  296.876;  117.223
629.253; -148.827; -785.119; -833.786
629.526;  330.774; -334.126; -253.772
629.799;  243.917; -641.123; -479.778
630.072;   97.748; -497.128; -516.769
630.346; -201.096;-1115.116;-1080.790
630.619;  434.527; -467.107; -545.808
630.892;  738.372;  709.889;  593.200
631.165;  449.268;  790.896;  679.187
631.438; -225.641;-1092.112;-1055.798
631.711;  113.921;  453.877;  257.221
631.984; -135.603; -523.117; -624.789
632.257; -139.408; -636.117; -681.789
632.530;  -68.433; -412.119; -433.785
632.803;   62.226; -109.115;    7.207
633.076; -126.488; -360.123; -422.777
633.349;   43.054;  173.872;  121.231
633.622;  -40.835; -187.119; -240.785
633.895; -245.848; -903.120; -823.783
634.167; -107.523; -496.126; -525.773
634.440;    5.413;  -19.116; -137.792
634.713;   -0.228;  -22.119; -120.786
634.986;  169.339;  593.871;  453.233
635.258; -131.377; -507.115; -597.793
635.531;  258.086;  742.882; -343.788
635.804;  -27.505; -303.117; -318.789
636.077; -150.692; -830.116; -852.791
636.349;  -83.379; -586.115; -474.793
636.622;  676.473; 1695.874; 1392.228
636.894;  195.559; -474.120; -909.784
637.167;   80.464; -836.127; -789.771
637.439;   23.759; -278.128; -213.770
637.712;  -67.424; -312.126; -293.772
637.984; -136.891; -635.116; -707.791
638.257;  529.013;  515.877;  488.222
638.529;  572.298; -881.125; -924.776
638.802;  274.848; -508.128; -449.769
639.074; -226.667; -927.122; -952.781
639.346; -218.831; -942.135; -930.757
639.619;   37.874;  -79.142; -319.744
639.891;   27.524;  -83.122; -168.779
640.163; -138.073; -689.122; -756.780
640.435;   82.130;  273.878;  103.220
640.708;   35.332;  -72.122; -132.780
640.980;  -57.365; -366.122; -362.781
641.252;  319.738;  -25.121;  -71.781
641.524; 2437.840;  580.879;  573.219
641.796; 2233.543;-1094.121; -907.782
642.068;  405.846; -191.121; -300.782
642.340;  -99.552; -486.121; -566.783
642.613;  113.451;  294.880;  323.217
642.885; -167.546; -787.120; -878.783
643.157; -133.444; -810.120; -658.784
643.428;  119.859;  170.880;  218.216
643.700; -101.938; -498.120; -425.784
643.972;  -28.335;  -16.119; -133.785
644.244; -110.633; -474.119; -559.785
644.516;  -28.330; -250.119; -114.786
644.788;  161.673;  662.881;  548.214
645.060;   -0.925;  -12.119; -124.786
645.332; -156.822; -525.118; -535.787
645.603;  118.981;  479.882;  342.213
645.875; -121.617; -334.118; -369.787
646.147;  361.386; 1487.882; 1242.212
646.418; -191.211; -931.117; -918.788
646.690;   32.391; -714.117; -715.789
646.962;   -7.506; -413.117; -451.789
647.233;   23.197;   15.883;   11.211
647.505; -156.501; -595.117; -475.790
647.776;   98.702;  328.884;  229.210
648.048;  -44.095; -248.116; -418.790
648.320; -166.993; -752.116; -679.791
648.591; -274.490;-1055.116; -958.791
648.862; -115.387; -505.116; -577.792
649.134;   51.315;  115.885;  198.208
649.405; -130.382; -661.115; -618.792
649.677; -140.579; -475.115; -598.793
649.948;   16.723; -181.115; -296.793
650.219;   35.126;  -37.115; -147.793
650.491; -107.771; -431.114; -520.794
650.762; -230.169; -705.114; -731.794
651.033; -126.666; -437.114; -424.795
651.304; -176.863; -743.114; -728.795
651.576; -141.061; -680.114; -645.795
651.847;  -25.258; -250.113; -140.796
652.118;  -10.355;  -32.113; -189.796
652.389; -177.753; -639.113; -722.796
652.660;  -20.550; -147.113;  -89.797
652.931; -232.447; -897.112; -871.797
653.202; -140.345; -382.112; -541.798
653.473; -114.042; -633.112; -533.798
653.744;  100.261; -595.112; -590.798
654.015;  136.163; -356.112; -303.799
654.286; -114.834; -642.111; -663.799
654.557; -140.131; -586.111; -521.799
654.828; -278.028;-1114.111;-1088.800
655.099; -117.226; -404.111; -291.800
655.370; -135.223; -427.111; -543.801
655.641; -209.120; -656.110; -714.801
655.911; -121.718; -618.110; -638.801
656.182;  199.385;  437.890;  387.198
656.453;  285.688;  830.890;  746.198
656.724;  -86.210; -466.110; -426.802
656.994; -125.907; -553.109; -568.803
657.265; -198.004; -862.109; -873.803
657.536; -113.402; -500.109; -377.804
657.806; -156.099; -561.109; -593.804
658.077; -224.996; -866.109; -950.804
658.347; -112.394; -523.108; -598.805
658.618; -217.391; -646.108; -694.805
658.888;   -1.188;  -41.108;  112.195
659.159; -110.886; -432.108; -548.806
659.429;  -33.383; -292.108; -349.806
659.700;    9.020; -435.107; -390.807
659.970;  -28.578; -370.107; -359.807
660.241;  -54.875; -754.107; -921.807
660.511;  591.528; -147.107; -174.808
660.781;   40.530; -793.106; -748.808
661.052;  -79.467; -222.106; -381.808
661.322;    8.636;   21.894;   -9.809
661.592;   69.838;  257.894;  148.191
661.862; -112.559; -369.106; -382.810
662.133; -149.056; -551.105; -502.810
662.403; -198.254; -770.105; -676.810
662.673;  -59.951; -256.105; -213.811
662.943; -178.148; -612.105; -551.811
663.213;   -8.946;  -85.105;  -81.811
663.483; -134.843; -593.104; -568.812
663.753;  -46.640; -194.104; -152.812
664.023;   35.362;   68.896;  -32.813
664.293;  -72.835; -319.104; -126.813
664.563; -164.532; -694.104; -648.813
664.833; -215.030; -743.103; -608.814
665.103; -211.727; -730.103; -793.814
665.373; -204.824; -766.103; -806.814
665.643; -208.621; -863.103; -918.815
665.913;   -8.119; -534.103; -714.815
666.182;  107.884; -685.102; -719.816
666.452;  287.287;  -22.102;  -89.816
666.722;  -72.711; -724.102; -784.816
666.992; -240.808; -948.102; -921.817
667.261; -176.105; -824.102; -808.817
667.531;  333.497;  134.899;   45.183
667.801;  752.300; -440.101; -412.818
668.070;  436.103;  714.899;  697.182
668.340; -196.895; -883.101; -840.819
668.609;  181.008;  588.900;  301.181
668.879; -121.689; -490.100; -558.819
669.149; -115.487; -539.100; -516.820
669.418; -173.884; -698.100; -726.820
669.688;  -64.281; -482.100; -666.820
669.957;   53.121; -423.099; -546.821
670.226;  -47.776; -268.099; -331.821
670.496; -152.473; -431.099; -635.822
670.765; -110.771; -418.099; -501.822
671.034; -232.668; -872.099; -828.822
671.304;   17.335;   55.902; -111.823
671.573; -292.163;-1085.098; -957.823
671.842;   35.840; -380.098; -294.823
672.112;  -57.857; -692.098; -586.824
672.381;  -19.855; -239.098; -214.824
672.650; -218.152;-1005.097;-1021.825
672.919; -184.249; -631.097; -507.825
673.188; -139.547; -681.097; -878.825
673.457; -299.744;-1101.097;-1143.826
673.726; -144.641; -579.096; -646.826
673.995; -112.739; -533.096; -479.826
674.265;  -25.336; -263.096; -333.827
674.534;  -10.433; -183.096; -235.827
674.802;  -38.731; -618.096; -703.828
675.071; 1130.072; -886.095; -801.828
675.340; 4115.575; -464.095; -339.828
675.609; 1421.277;  103.905;   82.171
675.878;  -11.920; -949.095; -893.829
676.147;   43.583;  -26.095;   -8.829
676.416;  107.686; -210.094; -294.830
676.685;  921.788; 1000.906; -622.830
676.953;   73.191; -603.094; -452.831
677.222;  -39.906; -193.094; -273.831
677.491;   -0.504;  -24.094; -127.831
677.759;   15.599;   11.907;  172.168
678.028;  -31.498; -279.093; -222.832
678.297;   -5.796;   71.907;  197.168
678.565; -259.693; -898.093; -944.833
678.834;  -67.890; -311.093; -268.833
679.102; -138.188; -411.092; -391.834
679.371; -241.085; -898.092; -727.834
679.639; -206.482; -797.092; -786.834
679.908; -209.080; -794.092; -724.835
680.176; -263.677; -895.091; -941.835
680.445;  -85.874; -346.091; -352.835
680.713;   47.728;  -58.091;  -23.836
680.982; -143.669; -523.091; -525.836
681.250; -142.466; -578.091; -507.837
681.518; -168.264; -534.090; -751.837
681.787;  -15.461; -204.090; -167.837
682.055; -106.058; -490.090; -422.838
682.323; -279.856; -993.090; -992.838
682.591;   43.247; -216.090; -538.838
682.859;  141.150;    9.911;  -35.839
683.128;   73.552;  232.911;  497.161
683.396; -276.345;-1102.089;-1122.840
683.664;  -53.442; -241.089;   21.160
683.932;   21.160;  144.911;  -76.840
684.200; -146.537; -576.088; -320.841
684.468;  -25.934;  -73.088; -124.841
684.736;  -32.232; -214.088; -175.841
685.004; -244.429;-1024.088; -982.842
685.272; -161.226; -880.088; -774.842
685.540; -120.224; -499.087; -557.843
685.808; -160.521; -651.087; -682.843
686.076; -224.218; -894.087; -969.843
686.343; -127.215; -601.087; -815.844
686.611;  105.587; -195.087; -224.844
686.879;  539.390; -530.086; -553.844
687.147; 3508.793; -483.086; -480.845
687.414; 1000.595;  -12.086; -169.845
687.682;  -51.602; -658.086; -757.846
687.950;  386.601;  259.915;  263.154
688.217;  -67.397; -792.085; -760.846
688.485;  -41.894; -632.085; -636.847
688.753;  575.409;  -11.085; -102.847
689.020;   47.811; -820.085; -851.847
689.288; -198.786; -853.084; -787.848
689.555;  -18.983; -195.084; -148.848
689.823;  -34.181; -241.084; -345.849
690.090; -147.378; -546.084; -651.849
690.358; -281.075; -877.084; -897.849
690.625;   62.227;  120.917;   45.150
690.892; -123.670; -403.083; -369.850
691.160;    2.133;   72.917;  -35.850
691.427;   46.435;  141.917;  130.149
691.694; -242.462; -855.083; -929.851
691.962; -289.959;-1177.082;-1060.852
692.229;   30.643;  127.918;   56.148
692.496;  170.346;  130.918;  -49.852
692.763;   38.249; -164.082; -201.853
693.031; -117.149; -739.082; -716.853
693.298;  -79.546; -509.081; -368.853
693.565;  404.657; -155.081; -163.854
693.832; 1371.259;   -5.081;   -9.854
694.099;  147.062; -643.081; -642.855
694.366; -107.435; -882.081; -896.855
694.633; -100.333; -920.080; -633.855
694.900; 1502.870; 4367.920; -114.856
695.167;  525.773; -214.080; -380.856
695.434;  100.675; -646.080; -623.856
695.701;  340.678;  121.921;  -61.857
695.968;  595.281; -365.079; -361.857
696.234; 1703.183; -415.079; -646.858
696.501;16345.886; -776.079; -614.858
696.768; 7983.189; -554.079; -617.858
697.035;  491.292; -632.078; -667.859
697.302;   89.494; -448.078; -552.859
697.568;   74.497; -458.078; -497.859
697.835;  -55.000; -683.078; -624.860
698.102;   -8.698; -498.078; -407.860
698.368;  197.505;  384.923;  396.139
698.635;  -22.092;  -47.077; -424.861
698.901;   -6.890; -240.077; -348.861
699.168;   79.013; -534.077; -456.862
699.435;  113.516;  -72.077;  -13.862
699.701; -198.882; -868.076; -764.862
699.968;  -44.679;  144.924; -441.863
700.234; -164.376; -783.076; -822.863
700.500;  -81.074; -448.076; -539.864
700.767;   47.329;   -1.075;   26.136
701.033; -218.668;-1015.075; -963.864
701.299;  -45.666; -450.075; -483.865
701.566;  293.137;  950.925;  763.135
701.832;   75.240;  -31.075;  -76.865
702.098; -152.758;-1054.074;-1034.866
702.365; -178.855;-1098.074;-1030.866
702.631;  -98.752;-1038.074;-1063.867
702.897; 1779.450; -765.074; -676.867
703.163; 2737.753;  348.926;  254.133
703.429;  230.056; -256.073; -273.868
703.695;  -92.542; -796.073; -792.868
703.961;   39.561; -214.073; -210.868
704.227;  -72.436; -630.073; -725.869
704.493;  287.266;  613.927;  510.131
704.759;  -31.831; -565.072; -540.870
705.025;   78.472; -203.072; -194.870
705.291;  -14.226; -666.072; -562.870
705.557;  430.377;  719.928;   34.129
705.823;   50.080; -742.072; -694.871
706.089;  309.482; -307.071; -326.871
706.355;  688.185; -315.071; -244.872
706.620;10339.588; -776.071; -729.872
706.886;12141.090; -309.071; -362.873
707.152; 1037.993; -818.070; -973.873
707.418;  -62.404;-1153.070;-1186.873
707.683;   12.499; -550.070; -530.874
707.949;  -73.099; -547.070; -578.874
708.215;   45.404; -129.070; -207.874
708.480;  -19.993; -520.069; -420.875
708.746;  137.409;   68.931;   28.125
709.011;  -97.988; -578.069; -612.876
709.277; -108.985; -538.069; -543.876
709.542;  -57.183; -428.069; -387.876
709.808;   58.020;  -59.068;   89.123
710.073; -109.877; -577.068; -695.877
710.339;  -29.975; -242.068; -228.877
710.604;   65.628; -780.068; -845.878
710.869;  353.131; -277.068; -366.878
711.135; -116.467; -715.067; -628.879
711.400; -131.164; -507.067; -608.879
711.665;  -71.361; -404.067; -479.879
711.931; -160.259; -661.067; -677.880
712.196; -221.556; -876.067; -954.880
712.461;  110.347; -402.066; -490.880
712.726;   70.449; -727.066; -771.881
712.991; -146.948; -647.066; -664.881
713.256;  -59.345; -350.066; -332.882
713.521;  -56.343; -417.065; -381.882
713.787;  -69.840; -454.065; -472.882
714.052;  -30.537; -214.065; -400.883
714.317; -160.835;-1045.065; -981.883
714.581; 1818.568; -374.065; -268.883
714.846; 2185.671; -822.064; -888.884
715.111;  276.873;  261.936;  257.116
715.376;   -6.124;  -86.064; -223.885
715.641;    5.079; -365.064; -367.885
715.906;  342.181;   15.936; -551.885
716.171;  206.284;  221.937;  209.114
716.436;   44.487;  -78.063; -104.886
716.700; -194.311; -818.063; -692.886
716.965; -190.408; -794.063; -807.887
717.230;  -77.505; -339.063; -392.887
717.494;  -15.003;  -40.062; -134.888
717.759; -157.100; -784.062; -640.888
718.024;   60.703;  269.938;  250.112
718.288;  168.006;  685.938;  395.111
718.553; -213.992; -803.062; -977.889
718.817; -246.489; -883.061; -899.889
719.082;  -19.386; -115.061; -125.890
719.346; -234.684;-1000.061; -947.890
719.611;  -33.981; -300.061; -255.891
719.875; -155.678; -568.060; -537.891
720.140; -126.376; -453.060; -603.891
720.404;   57.727; -136.060; -249.892
720.668;  952.530; -475.060; -411.892
720.933;  406.832;  146.940;  137.108
721.197; -156.565; -667.059; -600.893
721.461; -235.862; -851.059; -826.893
721.725;   38.240;  -21.059; -250.894
721.990;  -44.057; -284.059; -204.894
722.254;   16.746;  -26.059; -108.894
722.518; -110.752; -286.058; -442.895
722.782; -119.549; -743.058; -594.895
723.046;  242.754;  614.942;  570.105
723.310;   94.056;  374.942;  210.104
723.574; -170.141; -654.058; -614.896
723.838; -143.238; -576.057; -642.897
724.102;  -33.636; -226.057; -239.897
724.366; -230.133;-1032.057; -978.897
724.630; -146.230; -749.057; -571.898
724.894;  -84.428; -722.057; -514.898
725.158;   22.875;   38.944; -295.898
725.422;  -73.922; -394.056; -327.899
725.685;  -92.920; -441.056; -349.899
725.949;  -92.717; -566.056; -519.900
726.213; -132.514; -732.056; -811.900
726.477;   83.388;-1020.055; -933.900
726.740;  211.391; -274.055; -104.901
727.004;  565.494; -384.055; -510.901
727.268; 5359.796; -442.055; -400.901
727.531; 1378.599; -961.055; -775.902
727.795;  -66.698; -713.054; -673.902
728.059;  -78.596; -552.054; -557.903
728.322; -141.393; -841.054; -669.903
728.586;  -52.090; -692.054; -701.903
728.849; -142.587; -695.053; -756.904
729.112; -164.985; -812.053; -912.904
729.376; -215.182; -959.053; -905.904
729.639; -119.179; -536.053; -536.905
729.903; -181.077; -733.053; -699.905
730.166;  -47.174; -437.052; -399.906
730.429;  -61.371; -317.052; -468.906
730.693; -114.769; -355.052; -894.906
730.956;  388.834;  810.948;  651.093
731.219;  784.337; -310.052; -103.907
731.482;   59.939;-1003.051; -894.907
731.745;   34.442; -794.051; -935.908
732.009;   85.445;  -30.051;   50.092
732.272; -163.853; -904.051; -771.909
732.535;  -49.650; -300.051; -310.909
732.798; -282.347;-1083.050;-1166.909
733.061;  -65.545; -430.050; -456.910
733.324;   40.858;   31.950; -180.910
733.587;  157.261;  290.950;  365.090
733.850;  -67.737; -973.049;-1050.911
734.113;  102.866;   33.951;   32.089
734.376;   10.669; -328.049; -447.912
734.639;  434.671; 1188.951; 1011.088
734.901;   94.474; -180.049; -402.912
735.164;  604.777; -883.048; -837.913
735.427; 1477.479; -166.048; -355.913
735.690;  159.582; -205.048; -234.913
735.952; -121.515; -923.048; -925.914
736.215;  -77.313;-1113.048;-1009.914
736.478;   -0.410; -771.047; -774.915
736.740;  317.893;   33.953;  129.085
737.003;  911.595; -658.047; -672.915
737.266; 4754.798;  -94.047;   46.084
737.528;  523.501; -682.047; -660.916
737.791;  470.203; -316.046; -327.916
738.053; 1390.706;  465.954;  649.083
738.316;16732.409; -162.046; -136.917
738.578;10307.511; -770.046; -736.918
738.841;  650.214; -382.046; -446.918
739.103;  243.017; -875.045; -777.918
739.365;  643.120;   79.955;  -69.919
739.628;  -32.478; -884.045; -805.919
739.890;  -47.875; -758.045; -710.919
740.152; -108.272; -692.044; -754.920
740.414;    0.930; -408.044; -359.920
740.677;  -74.867; -785.044; -634.921
740.939;  -83.164; -587.044; -487.921
741.201;  295.338; -432.044; -572.921
741.463;   -1.559; -689.043; -745.922
741.725;   53.044;  -21.043; -199.922
741.987;  118.746;  220.957;  116.078
742.249;  -70.451; -751.043; -859.923
742.511;  202.152; -703.043; -794.923
742.773;   -8.546; -546.042; -546.924
743.035;  289.557;  796.958;  533.076
743.297;  -79.440; -963.042;-1013.924
743.559;  969.762; -278.042; -262.925
743.821;   44.465; -735.042; -744.925
744.083;   55.668;  -44.041; -149.925
744.345; -154.330; -869.041; -892.926
744.607;  127.273;   75.959;  122.074
744.868;  -91.424; -490.041; -554.927
745.130; -198.822; -994.041;-1008.927
745.392;  104.881;   -1.040;  -44.927
745.653;   -6.316; -411.040; -378.928
745.915;  379.386;  896.960;  631.072
746.177;  113.989;   35.960;  -43.928
746.438;  -24.408; -428.040; -543.929
746.700;  -95.706; -947.039; -988.929
746.961;   25.597; -659.039; -740.930
747.223;  188.100; -190.039;  -74.930
747.484;  114.202; -391.039; -471.930
747.746;  223.205;  -23.038; -106.931
748.007;  150.708; -647.038; -689.931
748.269;  440.310; -468.038; -440.931
748.530;  537.513; -852.038; -638.932
748.791;  346.816; -354.038; -420.932
749.053;  662.418;  286.963;  163.067
749.314;  631.121; -236.037; -169.933
749.575;  601.124; -945.037; -905.933
749.836; 1204.527; -217.037;   86.066
750.098; 3757.929;  -60.037;  -21.934
750.359;47684.232;  414.964;  555.066
750.620;10949.735; -121.036; -220.935
750.881; 1344.537; -585.036; -513.935
751.142; 1973.640; -950.036; -938.936
751.403;25788.943; -789.036; -705.936
751.664; 9754.045;-1034.035; -999.936
751.925;  774.348; -175.035; -262.937
752.186;  470.751; -298.035; -278.937
752.447;  218.953; -590.035; -445.937
752.708;   99.456; -532.035; -648.938
752.969;    9.359; -566.034; -576.938
753.230;   -1.039; -777.034; -672.939
753.491;    9.864; -650.034; -631.939
753.751;  147.867;  109.966;   19.061
754.012;  204.969;  258.967;  181.060
754.273;  100.572; -174.033;  -71.940
754.534;   -0.225; -487.033; -580.940
754.794; -138.223; -926.033; -911.941
755.055;  322.680; 1051.967;  881.059
755.316;  -70.017; -700.032; -566.942
755.576;  -56.015; -606.032; -576.942
755.837;  -53.712; -527.032; -695.942
756.097;  -51.409; -530.032; -564.943
756.358; -134.907; -725.032; -770.943
756.618;  -74.904; -705.031; -641.943
756.879;   37.299; -254.031; -349.944
757.139; -228.699;-1098.031;-1116.944
757.400;  -51.396; -538.031; -553.945
757.660;  -19.993; -365.031; -401.945
757.920;   21.909; -266.030; -228.945
758.181;  -19.988; -468.030; -351.946
758.441; -146.185; -870.030; -809.946
758.701;  -31.683; -308.030; -215.946
758.961;   12.120; -220.030; -278.947
759.222;  -79.477; -574.029; -502.947
759.482; -142.975; -683.029; -723.948
759.742; -132.872; -706.029; -547.948
760.002;   66.831;  -83.029; -143.948
760.262;   99.234;   50.972;  182.051
760.522;  -11.064; -498.028; -574.949
760.782;  -57.361; -738.028; -612.949
761.042;  -28.258; -618.028; -573.950
761.302;  107.544;   55.972;  -18.950
761.562;  151.147; -164.027; -154.951
761.822;   99.550; -710.027; -551.951
762.082;  -81.548;-1104.027;-1093.951
762.342;  109.355; -328.027; -403.952
762.601;  139.058; -567.027; -506.952
762.861;  526.960; -281.026; -207.952
763.121;  764.063; -406.026; -411.953
763.381;13238.666; -499.026; -485.953
763.640;12114.368; -139.026; -307.954
763.900;  627.371; -242.026; -203.954
764.160;  165.374; -458.025; -491.954
764.419;  -35.424; -726.025; -782.955
764.679;  -94.921; -795.025; -726.955
764.939;   63.082; -124.025; -210.955
765.198; -119.116; -608.025; -563.956
765.458; -116.013; -710.024; -612.956
765.717; -156.510; -454.024; -590.957
765.976;  -67.408; -428.024; -411.957
766.236; -101.605; -475.024; -610.957
766.495;   87.598;  260.977;   73.042
766.755; -206.500;-1090.023; -987.958
767.014;  -56.597; -594.023; -665.958
767.273;  -25.894; -373.023; -397.959
767.533;  -39.192; -228.023; -307.959
767.792;    7.911; -151.022; -188.960
768.051;  -47.186; -228.022; -276.960
768.310;  -71.684; -546.022; -650.960
768.569;   55.119; -161.022;    4.039
768.828;   11.322; -285.022; -363.961
769.088; -198.576;-1050.021; -942.961
769.347; -112.773; -755.021; -599.962
769.606; -138.670; -876.021; -857.962
769.865; -202.268;-1016.021;-1033.963
770.124;   39.035; -411.021; -336.963
770.383;  -89.262; -778.020; -910.963
770.641;   63.541; -398.020; -400.964
770.900;  -86.457; -953.020; -846.964
771.159;  -63.054; -851.020; -951.964
771.418;  -36.951; -917.020; -779.965
771.677;  270.151; -224.019; -293.965
771.936;  297.854; -794.019; -865.966
772.194; 4847.957; -465.019; -437.966
772.453;18405.559; -213.019; -391.966
772.712; 1341.862;  416.982;  329.033
772.970;  313.565;   32.982;   63.033
773.229;  219.567;  -22.018;  102.033
773.488; -111.630; -814.018; -770.968
773.746;  146.173;  296.982;  335.032
774.005;   71.975;  190.983;  -22.969
774.263;  116.478;  243.983;  177.031
774.522; -101.219; -422.017; -548.969
774.780;  -92.817; -484.017; -417.970
775.039; -143.014; -551.017; -531.970
775.297;    0.289; -135.016; -351.970
775.555; -147.809; -489.016; -612.971
775.814; -144.106; -618.016; -570.971
776.072; -173.903; -749.016; -740.971
776.330; -128.901; -630.016; -520.972
776.589; -175.198; -703.015; -721.972
776.847; -217.495; -645.015; -624.973
777.105; -287.793;-1016.015;-1032.973
777.363; -135.690; -459.015; -454.973
777.621; -223.387; -660.015; -717.974
777.879;    8.615;  -42.014;   32.026
778.138; -130.082; -554.014; -717.974
778.396; -167.879; -585.014; -526.975
778.654; -275.477;-1015.014; -970.975
778.912;  -47.274; -269.014; -371.976
779.170; -194.171; -880.013; -803.976
779.427; -248.869; -922.013; -897.976
779.685; -258.466; -880.013; -832.977
779.943; -144.763; -654.013; -593.977
780.201; -219.061; -964.012; -883.978
780.459; -167.258; -651.012; -610.978
780.717; -112.555; -440.012; -390.978
780.974; -146.352; -449.012; -490.979
781.232;  -69.850; -358.012; -338.979
781.490; -155.947; -551.011; -472.979
781.747; -133.244; -555.011; -476.980
782.005;  118.258;  462.989;  254.020
782.263; -304.539; -542.011;-1004.981
782.520; -124.036; -326.011; -501.981
782.778; -282.934;-1013.010;-1051.981
783.035; -300.131; -962.010; -938.982
783.293;  -71.728; -248.010; -206.982
783.550;  -22.626; -134.010; -198.982
783.808; -216.823; -764.010; -776.983
784.065; -252.720; -745.009; -874.983
784.322;  -30.318;   25.991;  -86.984
784.580; -212.615; -915.009; -771.984
784.837; -135.112; -392.009; -466.984
785.094; -220.610; -783.009; -762.985
785.352; -106.607; -304.008; -404.985
785.609; -214.404; -934.008; -839.985
785.866; -101.602; -345.008; -401.986
786.123; -122.199; -639.008; -583.986
786.380; -146.396; -665.008; -604.987
786.637;  -30.894; -225.007; -380.987
786.895;  -69.391; -456.007; -543.987
787.152;  -70.788; -135.007; -267.988
787.409;  -12.686; -123.007; -225.988
787.666; -110.283; -299.006; -378.988
787.923; -130.580; -616.006; -695.989
788.179; -150.378; -551.006; -584.989
788.436; -131.975; -585.006; -585.990
788.693;  -19.172;  -92.006;  -87.990
788.950;  220.130; -125.005; -112.990
789.207;  187.133; -381.005; -372.991
789.464;  -54.064; -161.005; -301.991
789.720;   47.238;  150.995;  110.009
789.977; -271.059;-1003.005; -671.992
790.234;    8.244;   44.996;  -66.992
790.490; -253.954; -884.004;-1031.993
790.747;   21.949;  -85.004;   22.007
791.004;  -49.548; -426.004; -348.993
791.260; -106.645; -430.004; -560.994
791.517; -157.943; -843.003; -788.994
791.773;  -51.340; -379.003; -342.994
792.030; -159.137; -596.003; -660.995
792.286; -134.635; -686.003; -636.995
792.543;   33.468;  -74.002; -159.995
792.799;  -73.729; -584.002; -382.996
793.055; -279.127;-1179.002;-1210.996
793.312; -153.624; -827.002; -816.997
793.568;  -88.521; -746.002; -599.997
793.824;   43.981; -226.001; -284.997
794.081;   65.984; -447.001; -508.998
794.337;   83.287; -664.001; -561.998
794.593; 2524.589; -319.001; -271.999
794.849; 9737.992; -746.001; -772.999
795.105;  492.395; -270.000; -261.999
795.361;   21.397; -490.000; -457.000
795.617; -102.700; -875.000; -945.000
795.873;  -70.000; -360.000; -407.000
796.129;  -30.900; -368.000; -306.000
796.385;    7.100; -124.000; -156.000
796.641;  177.700;  412.000;  550.000
796.897;  -92.800; -666.000; -635.000
797.153;  229.600;  453.000;  357.000
797.409; -175.700; -785.000; -868.000
797.665;  -91.600; -625.000; -732.000
797.921; -106.400; -775.000; -762.000
798.176;  -94.300; -744.000; -747.000
798.432;  -60.500; -824.000; -596.000
798.688; -120.600;-1174.000;-1078.000
798.943;  184.400; -165.000; -147.000
799.199;   14.900;-1005.000; -959.000
799.455;  469.800;  369.000;  316.000
799.710;  264.100; -813.000; -380.000
799.966;  516.900; -162.000; -160.000
800.221;  779.500; -638.000; -721.000
800.477;17722.300; -743.000; -710.000
800.732;12456.800; -773.000; -800.000
800.988; 1108.500;  205.000;  -19.000
801.243; 4556.200; -454.000; -344.000
801.498;15520.500; -814.000; -739.000
801.754;  904.800; -289.000; -163.000
802.009;  243.500; -257.000; -335.000
802.264;  -56.600; -967.000;-1033.000
802.520;  130.400;  222.000;   -3.000
802.775;  -72.800; -524.000; -359.000
803.030;  191.300;  395.000;  356.000
803.285; -179.300; -840.000; -903.000
803.540;  -77.300; -686.000; -699.000
803.795;  -55.300; -648.000; -583.000
804.051;   -6.400; -279.000; -346.000
804.306;   99.900;  168.000;  128.000
804.561;  259.600;  451.000;  362.000
804.816;  336.100;  714.000;  861.000
805.071;   21.100; -185.000; -280.000
805.325;  229.000; -257.000; -427.000
805.580; -198.100; -841.000; -877.000
805.835;    5.000; -204.000; -297.000
806.090;  -88.500; -760.000; -676.000
806.345;   29.400; -344.000; -264.000
806.600;  -44.500; -549.000; -632.000
806.854;  -56.000; -408.000; -538.000
807.109;   33.000; -493.000; -577.000
807.364;   57.000; -407.000; -328.000
807.618;   41.000; -415.000; -381.000
807.873;   86.600; -470.000; -494.000
808.128;  196.500; -257.000; -518.000
808.382;  180.400; -224.000; -332.000
808.637;  124.800; -440.000; -511.000
808.891;  326.000; -257.000; -180.000
809.146;  114.600; -902.000; -794.000
809.400;  358.500; -848.000; -923.000
809.654;  503.400; -779.000; -551.000
809.909;  770.700; -841.000; -927.000
810.163;10940.000; -813.000; -651.000
810.418;22237.000; -940.000; -861.000
810.672; 1472.100; -685.000; -690.000
810.926; 1113.900; -993.000; -973.000
811.180; 2557.900; -439.000; -372.000
811.434;55459.800;  240.000;  135.000
811.689;17432.400; -231.000; -365.000
811.943;  955.400; -936.000; -953.000
812.197;  575.800; -893.000; -671.000
812.451;  229.600; -379.000; -514.000
812.705;  -30.300; -809.000; -619.000
812.959;  -50.200; -263.000; -388.000
813.213;   48.900; -283.000; -209.000
813.467;  231.900;  470.000;  253.000
813.721; -138.400; -764.000; -792.000
813.975; -174.300; -826.000; -877.000
814.229;  150.100;  430.000;  353.000
814.482; -107.400; -517.000; -566.000
814.736; -158.300; -766.000; -744.000
814.990; -206.800; -779.000; -872.000
815.244;   -3.500; -228.000; -285.000
815.497; -129.000; -636.000; -601.000
815.751;   33.000; -141.000;   82.000
816.005;  -97.300; -470.000; -586.000
816.258;  -66.700; -510.000; -363.000
816.512; -153.200; -693.000; -610.000
816.766;  101.400;  121.000;  157.000
817.019;  119.400;  148.000;  149.000
817.273; -189.200;-1000.000; -802.000
817.526;   -7.400; -206.000; -173.000
817.779; -137.500;-1049.000; -960.000
818.033; -144.300; -693.000; -807.000
818.286; -198.200; -725.000; -792.000
818.540;  -98.900; -403.000; -403.000
818.793; -104.800; -402.000; -489.000
819.046; -144.100; -582.000; -520.000
819.299;   -1.500; -157.000; -166.000
819.553; -155.500; -552.000; -592.000
819.806; -258.700;-1016.000; -838.000
820.059;  -20.300; -334.000; -354.000
820.312;   43.500;  152.000;  185.000
820.565;   44.200;  110.000;  -27.000
820.818;  -66.600;  -59.000; -173.000
821.071; -284.400;-1041.000; -957.000
821.324; -174.900; -536.000; -540.000
821.577; -138.900; -457.000; -483.000
821.830;  -70.600; -270.000; -172.000
822.083; -187.900; -733.000; -288.000
822.336;  -36.800; -261.000; -167.000
822.589; -197.400; -805.000; -688.000
822.842; -262.900; -875.000; -770.000
823.094; -323.100;-1076.000;-1114.000
823.347; -241.400; -925.000; -729.000
823.600;  115.800;  402.000;  187.000
823.853;  -46.500; -311.000; -267.000
824.105; -110.500; -331.000; -575.000
824.358; -183.000; -617.000; -716.000
824.611;  116.800;  234.000;   40.000
824.863;  -84.900; -612.000; -591.000
825.116;  121.800;  -33.000;   27.000
825.368;  132.700; -366.000; -372.000
825.621;  255.100; -186.000; -240.000
825.873;  130.300; -704.000; -737.000
826.126; 1086.800; -669.000; -641.000
826.378;18648.000; -389.000; -505.000
826.630; 3341.800; -890.000; -898.000
826.883;   63.600; -754.000; -693.000
827.135;  121.800; -279.000; -270.000
827.387; -154.700; -893.000; -839.000
827.639;   -0.300;  -86.000;   32.000
827.892; -212.200; -742.000; -582.000
828.144; -195.500; -848.000; -804.000
828.396;  -30.100;  104.000;  -80.000
828.648; -139.200; -440.000; -333.000
828.900; -219.900; -702.000; -795.000
829.152; -184.200; -684.000; -683.000
829.404;  -55.900; -215.000; -267.000
829.656;   54.000;  321.000;  214.000
829.908;   27.900;  393.000;  229.000
830.160; -269.600;-1064.000;-1047.000
830.412; -120.900; -481.000; -430.000
830.664; -167.900; -557.000; -665.000
830.916;  -93.800; -268.000; -206.000
831.167; -282.700;-1073.000; -951.000
831.419; -172.800; -623.000; -566.000
831.671; -216.800; -764.000; -809.000
831.923; -131.200; -311.000; -447.000
832.174;  -98.800; -273.000; -331.000
832.426; -177.900; -493.000; -582.000
832.678; -333.300;-1043.000;-1091.000
832.929; -277.200; -947.000; -935.000
833.181;  -99.200; -575.000; -677.000
833.432;  -45.900;  -59.000; -186.000
833.684;   12.700;  112.000;  -27.000
833.935; -173.700; -610.000; -566.000
834.187; -181.100; -829.000; -823.000
834.438;  -23.300;  -58.000;  -25.000
834.689;  -60.600; -255.000; -123.000
834.941;  -39.200; -343.000; -244.000
835.192; -128.200; -590.000; -533.000
835.443; -105.600; -419.000; -506.000
835.695;   37.000;  138.000;  -16.000
835.946; -117.200; -608.000; -378.000
836.197; -172.100; -599.000; -622.000
836.448; -108.900; -528.000; -395.000
836.699;  -39.100; -253.000; -341.000
836.950;   61.400;   72.000;    7.000
837.201; -247.700;-1003.000; -987.000
837.452;  -42.800; -356.000; -170.000
837.703; -182.700; -791.000; -737.000
837.954;  -11.600; -205.000; -365.000
838.205; -132.200;-1029.000;-1008.000
838.456;  244.900; -196.000; -282.000
838.707;   38.800; -423.000; -519.000
838.958;  -15.100; -634.000; -647.000
839.209;  460.000;   18.000;   40.000
839.460;  221.400; -439.000; -201.000
839.710;  251.300; -135.000; -297.000
839.961;  752.300;  730.000;  612.000
840.212;  570.200; -382.000; -497.000
840.462; 2012.800; -328.000; -277.000
840.713;30312.400; -571.000; -536.000
840.964; 9365.100;  -62.000; -143.000
841.214;  683.700; -384.000; -624.000
841.465;  836.500; -214.000; -141.000
841.715;  738.000; -417.000; -380.000
841.966;  916.200; -746.000; -685.000
842.216;15128.200; -330.000; -431.000
842.466;44397.800; -169.000; -313.000
842.717; 1790.500; -964.000; -952.000
842.967;  484.200; -635.000; -641.000
843.217;  432.000;   20.000;   28.000
843.468;  147.800; -104.000; -132.000
843.718;  -71.300; -718.000; -726.000
843.968; -182.500; -837.000; -765.000
844.218;   30.100; -315.000; -262.000
844.469;  -63.400; -577.000; -561.000
844.719; -160.800; -537.000; -682.000
844.969; -111.300; -550.000; -580.000
845.219; -229.500; -814.000; -862.000
845.469; -127.800; -392.000; -342.000
845.719; -201.300; -792.000; -884.000
845.969;   47.800;  119.000;  174.000
846.219; -180.800; -738.000; -720.000
846.469;   99.400;  464.000;  432.000
846.718;  -39.600; -115.000;   31.000
846.968; -206.000; -827.000; -827.000
847.218;  -26.000; -224.000; -371.000
847.468; -167.000; -586.000; -555.000
847.718; -249.200; -827.000; -798.000
847.967; -234.100; -826.000; -915.000
848.217; -101.400; -449.000; -569.000
848.467;  -36.500; -405.000; -376.000
848.716; -165.900; -708.000; -725.000
848.966;   -5.200; -372.000; -358.000
849.215;  -72.600; -428.000; -419.000
849.465; -138.000; -785.000; -615.000
849.714; -249.800;-1132.000;-1150.000
849.964;  -64.800; -551.000; -613.000
850.213;  -25.000; -393.000; -355.000
850.463;  193.100;  137.000;  340.000
850.712;   29.000; -542.000; -567.000
850.961;   11.100; -739.000; -678.000
851.211;  143.100; -513.000; -504.000
851.460;  269.800; -635.000; -650.000
851.709;  974.100;  -25.000;   18.000
851.958;18224.200; -912.000; -750.000
852.208;16992.100; -859.000; -879.000
852.457;  691.100; -181.000;  -13.000
852.706;   86.300; -791.000; -823.000
852.955;   -7.700; -507.000; -528.000
853.204;  -68.300; -521.000; -461.000
853.453;  -96.000; -418.000; -458.000
853.702; -196.100; -660.000; -750.000
853.951; -158.000; -532.000; -520.000
854.200; -173.100; -613.000; -562.000
854.449; -218.100; -695.000; -661.000
854.698; -136.400; -340.000; -279.000
854.946;  -71.200; -181.000; -284.000
855.195; -247.100; -843.000; -868.000
855.444; -129.300; -395.000; -420.000
855.693; -152.500; -345.000; -432.000
855.941; -137.800; -387.000; -516.000
856.190;  -50.700; -256.000; -382.000
856.439; -185.200; -652.000; -703.000
856.687;  -49.700;  -99.000;  -72.000
856.936; -170.500; -621.000; -323.000
857.184; -297.300;-1067.000;-1020.000
857.433; -147.600; -423.000; -512.000
857.681; -249.800; -989.000; -953.000
857.930;  -76.500; -282.000; -433.000
858.178; -259.200; -856.000; -929.000
858.427; -242.300; -802.000; -781.000
858.675; -154.700; -377.000; -544.000
858.923; -156.200; -527.000; -819.000
859.172; -277.900;-1094.000;-1070.000
859.420; -110.000; -339.000; -239.000
859.668; -202.600; -624.000; -628.000
859.916;   14.900;  109.000;  115.000
860.164; -191.500; -699.000; -603.000
860.413;  301.000; -878.000; -696.000
860.661;  119.300; -709.000; -577.000
860.909; -110.600; -339.000; -325.000
861.157;  -98.000; -277.000; -444.000
861.405; -202.600; -534.000; -670.000
861.653;   70.900;  310.000;  310.000
861.901;  184.800; -543.000; -613.000
862.149; -150.200; -801.000; -824.000
862.396;  -71.300; -297.000; -187.000
862.644;  -80.200; -368.000; -347.000
862.892;   26.800;   98.000;  138.000
863.140; -163.000; -549.000; -530.000
863.388; -250.500; -815.000; -759.000
863.635; -201.500; -642.000; -601.000
863.883;   48.800;  231.000;  190.000
864.131; -115.300; -288.000; -357.000
864.378; -196.100; -675.000; -540.000
864.626;  -83.100; -347.000; -415.000
864.873; -171.600; -556.000; -505.000
865.121; -206.300; -714.000; -799.000
865.368;  -18.900; -173.000;   75.000
865.616;   14.200;  -33.000;  -40.000
865.863;  -58.100; -462.000; -506.000
866.111; -139.700; -795.000; -824.000
866.358;  149.000; -426.000; -420.000
866.605; 5446.900;  -64.000; -804.000
866.853; 4279.400; -621.000; -537.000
867.100;  -27.600; -728.000; -775.000
867.347; -102.700; -672.000; -611.000
867.594; -119.300; -740.000; -714.000
867.841;  125.300;   97.000;   17.000
868.089; -237.100; -746.000; -698.000
868.336; -129.500; -477.000; -420.000
868.583; -176.200; -637.000; -741.000
868.830;  -24.400; -131.000; -170.000
869.077; -274.600; -859.000; -787.000
869.324; -191.900; -502.000; -458.000
869.571; -159.700; -398.000; -430.000
869.818; -184.700; -485.000; -439.000
870.065; -126.200; -439.000; -513.000
870.311; -143.400; -456.000; -542.000
870.558; -116.700; -332.000; -311.000
870.805;  -96.100; -320.000; -384.000
871.052; -137.700; -494.000; -369.000
871.298;  -62.700; -204.000; -131.000
871.545;  -58.300; -151.000; -185.000
871.792; -122.900; -173.000; -222.000
872.038;  -37.900;   43.000; -126.000
872.285; -164.600; -496.000; -387.000
872.532; -138.500; -357.000; -387.000
872.778;  125.700;  556.000;  403.000
873.025;  -99.000; -384.000; -359.000
873.271;  131.400;  501.000;  578.000
873.517;  -42.500; -133.000; -209.000
873.764;  -38.700; -193.000;  -80.000
874.010;  -79.200; -143.000; -230.000
874.257;  -26.000;  123.000;   90.000
874.503; -196.600; -579.000; -479.000
874.749;  -71.000;   31.000;  275.000
874.995;  -66.600;  -80.000;  -20.000
875.242; -200.200; -540.000; -478.000
875.488; -139.800; -414.000; -439.000
875.734;  -25.400; -106.000; -234.000
875.980;  206.700; -872.000;-1032.000
876.226;  345.400; -157.000; -255.000
876.472;   49.000;  343.000;  237.000
876.718;  -24.700;  184.000;  158.000
876.964;  -37.900;   56.000;   55.000
877.210; -209.900; -547.000; -677.000
877.456; -200.300; -630.000; -557.000
877.702; -297.000; -821.000; -832.000
877.948; -159.100; -377.000; -497.000
878.193;   72.100;  361.000;  255.000
878.439; -131.700; -487.000; -472.000
878.685; -123.800; -272.000; -343.000
878.931; -167.700; -618.000; -676.000
879.176;  -97.200; -201.000; -201.000
879.422; -288.500; -933.000; -820.000
879.668;  163.000;   10.000;   79.000
879.913;  167.400;   53.000;  137.000
880.159;  -66.500; -112.000;  -17.000
880.404;  -35.300; -152.000; -162.000
880.650;  -17.900;   91.000;  141.000
880.895; -265.500; -670.000; -710.000
881.141; -188.100; -454.000; -428.000
881.386; -198.000; -503.000; -658.000
881.631; -120.700; -311.000; -166.000
881.877;    7.700;  112.000;  -13.000
882.122; -175.500; -684.000; -600.000
882.367;  -81.200; -136.000; -186.000
882.612;  -85.200;  -80.000; -176.000
882.858; -233.700; -877.000; -823.000
883.103; -117.400; -297.000; -267.000
883.348; -236.500; -759.000; -852.000
883.593; -224.700; -677.000; -602.000
883.838;  -54.200; -311.000;  -24.000
884.083;  117.000;  353.000;  288.000
884.328; -101.500; -564.000; -545.000
884.573;  -43.600; -196.000; -143.000
884.818;  255.200; -694.000; -531.000
885.063;  143.800; -348.000; -315.000
885.308; -135.300; -475.000; -398.000
885.553;   33.700;  245.000;  325.000
885.797; -193.200; -545.000; -615.000
886.042;  -34.200;    8.000;   58.000
886.287;  -96.700; -253.000; -211.000
886.532;  -33.700;   26.000;  204.000
886.776; -131.000; -407.000; -525.000
887.021; -218.900; -621.000; -574.000
887.265; -227.100; -685.000; -689.000
887.510; -179.400; -557.000; -496.000
887.755;  -95.000; -194.000; -164.000
887.999; -214.200; -552.000; -575.000
888.244;  -34.700;  -58.000;  161.000
888.488;   68.900;  371.000;  393.000
888.732; -186.400; -368.000; -520.000
888.977; -184.100; -622.000; -567.000
889.221; -270.300; -683.000; -659.000
889.465; -175.000; -422.000; -566.000
889.710;  -73.700;  -56.000; -299.000
889.954;   81.900;  579.000;  467.000
890.198; -214.500; -584.000; -707.000
890.442; -239.800; -716.000; -712.000
890.687; -218.800; -800.000; -753.000
890.931;  -99.600; -273.000; -210.000
891.175; -186.500; -502.000; -500.000
891.419;  -69.000; -105.000; -110.000
891.663;  -98.500; -239.000; -112.000
891.907; -241.400; -801.000; -545.000
892.151; -255.300; -920.000; -815.000
892.395; -134.900; -274.000; -387.000
892.638;   69.900;  408.000;  291.000
892.882; -295.100; -780.000; -867.000
893.126;  149.600;  758.000;  558.000
893.370; -110.200; -167.000; -168.000
893.614; -208.600; -714.000; -715.000
893.857; -123.800; -183.000; -197.000
894.101; -207.900; -527.000; -631.000
894.345;  -47.300;  300.000;  150.000
894.588;  146.700;  569.000;  380.000
894.832;  -53.700; -178.000;  -84.000
895.075; -105.300;   15.000;  -92.000
895.319; -189.100; -552.000; -420.000
895.563; -162.800; -413.000; -353.000
895.806; -244.400; -628.000; -741.000
896.049;  -57.200; -576.000; -368.000
896.293;  204.400;  527.000;  405.000
896.536; -121.000; -465.000; -468.000
896.779;  -43.300; -149.000;   -1.000
897.023; -237.400; -751.000; -714.000
897.266;    6.000;  325.000;  269.000
897.509; -294.600; -900.000; -901.000
897.752;   15.100;  149.000;  171.000
897.996; -293.800; -972.000; -864.000
898.239;    5.100;  168.000;  102.000
898.482; -165.000; -431.000; -453.000
898.725;  -27.000;  101.000;   53.000
898.968; -269.600; -609.000; -744.000
899.211; -158.100; -513.000; -361.000
899.454; -194.400; -633.000; -539.000
899.697;  -66.000;   90.000;  -43.000
899.940; -229.200; -761.000; -757.000
900.182; -121.100; -335.000; -405.000
900.425;  -97.100; -150.000; -298.000
900.668;   46.100;  491.000;  350.000
900.911; -127.400; -292.000; -345.000
901.154;  -51.800;  141.000;   -3.000
901.396; -212.600; -407.000; -412.000
901.639; -191.900; -430.000; -496.000
901.882; -321.300; -790.000; -809.000
902.124;  -73.400;  -29.000; -143.000
902.367; -144.900; -315.000; -361.000
902.609; -206.700; -476.000; -453.000
902.852; -101.800; -108.000; -260.000
903.094; -160.000; -458.000; -337.000
903.337;  -14.300;  -26.000;   53.000
903.579; -123.800; -228.000; -441.000
903.821; -234.200; -597.000; -744.000
904.064;  -23.500;   85.000;  127.000
904.306;  -92.800; -126.000; -166.000
904.548; -125.000; -152.000; -366.000
904.790; -123.100; -195.000; -340.000
905.033; -210.900; -625.000; -577.000
905.275; -195.000; -513.000; -524.000
905.517;  145.600;  468.000;  256.000
905.759; -144.400; -667.000; -761.000
906.001; -139.200; -322.000; -369.000
906.243;  -99.600; -162.000; -224.000
906.485;  170.200; -265.000; -207.000
906.727;   80.600; -499.000; -542.000
906.969;  -35.400;  -30.000; -135.000
907.211;  147.800; -316.000; -382.000
907.453;  306.900; -188.000; -237.000
907.695;  -22.100; -158.000; -385.000
907.936;  155.700;  818.000;  706.000
908.178;  -36.300;   92.000; -135.000
908.420;  -69.600; -111.000; -162.000
908.662; -191.500; -633.000; -682.000
908.903;  -90.700; -208.000; -123.000
909.145;  -32.100; -240.000; -305.000
909.386;   76.500;  315.000;  280.000
909.628;  148.500;  363.000;  397.000
909.870;  101.500;   29.000;  264.000
910.111; -146.100; -809.000; -949.000
910.353;   82.200; -123.000; -161.000
910.594;   26.700; -574.000; -606.000
910.835;  209.800; -265.000; -326.000
911.077;  286.400; -503.000; -604.000
911.318;  552.900; -505.000; -471.000
911.559;  831.500; -577.000; -880.000
911.801; 2654.900; -284.000; -280.000
912.042;22742.500;  -50.000; -159.000
912.283;47718.700;  404.000;  371.000
912.524; 5764.900; -396.000; -457.000
912.765;  880.400; -193.000;   79.000
913.006;  478.600; -307.000; -338.000
913.247;  123.800; -270.000; -290.000
913.488;   60.900;  -43.000;   30.000
913.729;  -98.400; -373.000; -373.000
913.970;  -34.900;  -96.000; -292.000
914.211;  -75.100; -160.000; -198.000
914.452;  -64.800; -118.000;  -11.000
914.693;   96.700;  510.000;  592.000
914.934;  116.100;  510.000;  440.000
915.175;  -58.500;   53.000;  -95.000
915.415;  -71.700; -137.000;   27.000
915.656;  -49.000;  -28.000;  192.000
915.897; -142.900; -252.000;  -82.000
916.137;  -52.000;   74.000;   -9.000
916.378; -191.900; -573.000; -517.000
916.619; -105.700; -159.000;  -63.000
916.859;   26.600;  303.000;  330.000
917.100;  381.200; 1655.000; 1070.000
917.340;  211.300;  930.000;  728.000
917.581;  211.700;  965.000;  789.000
917.821;  -24.900; -171.000;  143.000
918.061;   10.000; -199.000;  -72.000
918.302;  -36.200; -152.000; -211.000
918.542;  -25.200;  -22.000;    3.000
918.782;  137.800;  369.000;  377.000
919.023;  291.100;  360.000;  427.000
919.263; 2558.000; 8131.000;  202.000
919.503; 1487.300; -137.000;  -54.000
919.743;  856.500;  390.000;  266.000
919.983;  340.900; -134.000;  -26.000
920.223;  183.300;  135.000;   14.000
920.463;  325.800;  631.000;  554.000
920.703;  293.900;   84.000;   39.000
920.943;  325.200; -110.000;   90.000
921.183;  443.700; -414.000; -405.000
921.423;  993.400;  307.000;  546.000
921.663; 1396.000; -174.000; -257.000
921.903; 3063.900;  237.000;  173.000
922.143;18389.700;  372.000;  389.000
922.383;61979.000;  158.000;  115.000
922.622;16478.300; -120.000;  -15.000
922.862; 2091.400;  796.000;  785.000
923.102;  875.400;  -51.000;   33.000
923.341;  392.800;   59.000;   74.000
923.581;  248.000;  450.000;  360.000
923.821;  108.000;  301.000;  398.000
924.060;   99.500;  351.000;  193.000
924.300;  -81.400;  -16.000; -128.000
924.539;   84.500;  584.000;  473.000
924.779;  153.000;  812.000;  597.000
925.018;   12.500;  247.000;  353.000
925.257;   71.200;  595.000;  666.000
925.497;   21.700;  447.000;  412.000
925.736;  -74.000;  -35.000;  102.000
925.975;   95.500;  687.000;  669.000
926.214;  151.000;  907.000;  850.000
926.454;  107.600;  706.000;  757.000
926.693;    9.400;  419.000;  543.000
926.932;  185.500; 1021.000;  825.000
927.171;  222.100; 1107.000; 1044.000
927.410;  226.600; 1144.000;  967.000
927.649;  181.100;  924.000;  742.000
927.888;   73.100;  590.000;  564.000
928.127;   65.400;  680.000;  678.000
928.366;  128.300;  842.000;  826.000
928.605;  140.800;  831.000;  737.000
928.844;  510.900; 1451.000; 1393.000
929.083; 1016.300;  770.000;  613.000
929.321;  555.000; 1335.000; 1359.000
929.560;  255.300; 1158.000; 1122.000
929.799;  -17.800;  574.000;  475.000
930.038;  287.800; 1025.000; 1394.000
930.276;    4.200;  334.000;  397.000
930.515;   96.600;  827.000;  681.000
930.753;   62.800;  614.000;  589.000
930.992;   60.600;  664.000;  717.000
931.230;   85.600;  847.000;  847.000
931.469;  422.600; 2162.000;  892.000
931.707;  257.500;  840.000;  751.000
931.946;  204.200; 1278.000; 1344.000
932.184;  222.400; 1437.000; 1175.000
932.423;  226.200; 1265.000;  963.000
932.661;  298.700; 1296.000; 1428.000
932.899;  129.500;  987.000;  821.000
933.137;  110.700;  754.000;  564.000
933.376;  364.900; 1664.000; 1335.000
933.614;  379.100; 1759.000; 1196.000
933.852;  208.200; 1357.000; 1171.000
934.090;  412.000; 1722.000; 1747.000
934.328;  317.300; 1252.000; 1457.000
934.566;  308.300; 1431.000; 1110.000
934.804;  355.500; 1263.000; 1309.000
935.042; 1162.200; 1861.000; 1850.000
935.280; 4746.500; 2088.000; 2063.000
935.518; 3537.400; 2113.000; 2007.000
935.756;  787.900; 2481.000; 2316.000
935.994;  396.100; 1808.000; 1751.000
936.231;  746.700; 2890.000; 2950.000
936.469;  488.100; 2367.000; 2378.000
936.707;  432.300; 2220.000; 2167.000
936.945;  567.600; 2825.000; 2882.000
937.182;  485.700; 2679.000; 2741.000
937.420;  718.500; 3602.000; 3031.000
937.657;  853.000; 3365.000; 3478.000
937.895;  780.000; 3331.000; 3488.000
938.133;  737.400; 3540.000; 3528.000
938.370;  805.200; 3896.000; 4191.000
938.607;  935.700; 4488.000; 4205.000
938.845; 1228.300; 5587.000; 5549.000
939.082; 1071.800; 5387.000; 5177.000
939.320; 1197.800; 5799.000; 5728.000
939.557; 1390.700; 6549.000; 6491.000
939.794; 1504.000; 7285.000; 7097.000
940.031; 1851.400; 8421.000; 8368.000
940.269; 2200.400; 9552.000; 9107.000
940.506; 2335.900;10901.000;10507.000

