
Integration time [ms]: 100.000
Averaging Nr. [scans]: 40
Smoothing Nr. [pixels]: 0
Data measured with spectrometer [name]: 2101013U2
Wave   ;Sample   ;Dark     ;Reference
[nm]   ;[counts] ;[counts] ;[counts] 

394.013;   45.478; -450.257; -315.536
394.305;  158.676; -461.258; -419.536
394.596; 1097.323; -676.269; -527.514
394.887; 2789.340; -796.268; -654.518
395.178; 1074.395;  145.736;   11.476
395.470;   60.981; -210.263; -356.526
395.761;  175.055;  305.734;  394.479
396.052;  218.348; -545.284; -306.489
396.343;  218.818; -557.276; -454.503
396.634;   84.862; -200.279; -290.497
396.926;   79.087; -618.268; -565.517
397.217;   84.723;   11.725;  -17.504
397.508;   39.063; -366.273; -154.507
397.799;   24.262; -555.279; -571.497
398.090;   -4.944; -973.280; -902.495
398.381;   83.224;   11.708;  -11.473
398.672;   -6.075; -585.292; -742.473
398.963;   32.093; -348.279; -373.498
399.254;   88.759;   54.709; -209.475
399.545;  -45.074;-1017.266; -883.520
399.836;   45.957; -407.277; -343.501
400.127;   35.625; -205.295; -209.468
400.418;   34.108; -423.274; -392.506
400.709;   33.118; -359.281; -333.493
401.000;   34.813; -268.291; -309.476
401.290;   92.087;  225.698;  115.545
401.581;   61.706; -166.286; -228.485
401.872;    4.672; -542.298; -486.462
402.163;   49.443; -313.296; -252.467
402.454;   74.510; -123.291; -163.475
402.744;   60.384; -844.297; -813.465
403.035;  378.540; -226.293;  -86.471
403.326;  481.478; -366.292; -384.474
403.617;  330.817;  204.701;  165.539
403.907;  246.404; -593.283; -679.490
404.198; 2441.866; -545.307; -599.446
404.489; 6315.334; -618.283; -588.491
404.779; 2062.265; -618.302; -660.456
405.070;  226.344;  -67.304; -174.451
405.360;  332.592; -259.293; -238.472
405.651;  362.576;  125.699;   98.542
405.942;  156.701;  209.714;  127.516
406.232;  227.441; -432.285; -413.487
406.523;  403.160;  641.706;  758.530
406.813;   78.929; -579.286; -644.484
407.104;  284.223;  261.708;  144.527
407.394;  144.668; -604.299; -591.462
407.685;  145.315;  336.715;  222.513
407.975;   49.833; -400.283; -382.490
408.265;   94.124; -134.289; -190.478
408.556;   56.181; -472.291; -459.475
408.846;  168.561;  474.706;  429.530
409.137;   82.757;   -1.288; -216.480
409.427;   31.966; -193.285; -271.487
409.717;   27.416; -776.273; -692.508
410.007;  139.784;    4.715; -170.486
410.298;   86.878; -360.295; -342.469
410.588;   48.513; -495.285; -510.486
410.878;   28.893; -792.287; -873.482
411.168;   99.500; -481.298; -478.463
411.459;  117.302; -295.283; -242.489
411.749;   46.080; -609.292; -507.474
412.039;   44.706; -755.289; -386.480
412.329;  188.400;   40.722;  132.501
412.619;  191.254;  -62.286; -148.485
412.909;  358.977;  639.711;  594.521
413.199;  310.656; -130.280; -251.495
413.490;  364.942;  521.710;  352.523
413.780;  120.685;-1013.279; -913.496
414.070;  320.144;  -46.276;  235.497
414.360;  348.971; -729.278; -666.498
414.650;  398.689; -726.288; -688.482
414.940;  535.710; -538.280; -441.496
415.230;  922.186;   50.712;   74.519
415.520; 6176.647;  155.730;   66.486
415.809;24299.293; -305.281; -125.493
416.099;19050.134; -388.277; -229.501
416.389; 5385.331;  435.726;  236.494
416.679; 3138.585;   91.738;   85.473
416.969;  521.573; -527.287; -503.483
417.259;  598.912;  341.721;  171.503
417.549;  687.867;  522.718;  318.508
417.838; 1669.814; -205.268; -147.518
418.128; 5670.423;  650.710;  492.522
418.418; 4718.373; -491.272; -579.509
418.708; 3206.481;    9.726;  -48.506
418.997;12022.802; -474.275; -480.505
419.287;12623.063; -733.273; -790.507
419.577;11944.777; -160.283; -123.489
419.866;39342.132; -588.277; -498.501
420.156;40171.493; -242.270;  -55.513
420.446; 7203.177; -112.263;  -26.526
420.735;  805.337; -376.271; -446.512
421.025;  811.720; 1830.722;  315.502
421.314;  596.560; -203.271; -226.512
421.604; 1139.182;   89.732;  233.484
421.893;  681.257; -705.271; -602.511
422.183;  214.578; -487.263; -461.526
422.472;  385.958;  -36.271; -107.511
422.762;  430.232; -416.266; -379.521
423.051;  228.895; -916.276; -916.503
423.341;  282.614; -491.273; -439.507
423.630;  382.988; -121.265;   15.477
423.919;  368.476;   58.725;   49.495
424.209;  357.558;  -31.263;   56.473
424.498;  483.237;   68.732;  161.483
424.787; 1110.368; -535.267; -601.518
425.077; 3330.887;   34.735;   29.478
425.366; 4505.289; -734.262; -744.528
425.655;10028.290;  639.727;  259.493
425.945;22895.042; -313.247; -268.554
426.234;12764.511;  117.741;  300.467
426.523; 5117.816;  -86.259; -350.534
426.812; 7099.878;  107.734;  159.480
427.101;10430.978; -127.269; -323.515
427.390;13063.172;  -55.270;  -86.514
427.680; 2725.786; -624.257; -411.538
427.969;  449.272; -330.255; -301.540
428.258;  292.903; -385.257; -477.536
428.547;  487.302;  449.728;  397.490
428.836; 1075.363; -421.253; -398.543
429.125; 1548.943; -199.259;  -72.534
429.414;  759.561; -330.251; -294.548
429.703; 3189.561; -231.251; -213.548
429.992; 9589.089; -938.250; -828.549
430.281; 6286.496; -397.264; -331.524
430.570;  542.026;  -21.252;   32.454
430.859;  509.791;  279.741;  352.466
431.148;  418.588;  636.752;  631.446
431.437;  266.976;  391.748;  367.454
431.725;  145.329; -544.257; -481.536
432.014;  115.695; -845.253; -756.545
432.303;  357.288; -149.239; -105.569
432.592;  525.427; -460.263; -178.525
432.881; 1051.964; -601.248; -437.554
433.169; 6410.398; -343.255;  -61.540
433.458;13027.572;  445.765;  540.424
433.747; 5425.344; -397.261; -289.529
434.036;  835.989; -275.242; -280.564
434.324; 2083.976; -395.249; -379.551
434.613; 3711.083;   40.757;  159.437
434.902; 1199.779;  333.760;  439.433
435.190;  460.212;   75.761;  295.431
435.479;  256.640;  -52.245;   83.441
435.767;  100.023; -411.244; -427.561
436.056;  183.735; -340.242; -294.563
436.345;  356.056; -372.240; -223.568
436.633;  384.397;   60.750;  383.450
436.922;  232.358;  208.760;  414.432
437.210;  463.487; -194.236;    1.426
437.499; 1373.770; -583.235; -432.576
437.787; 1598.862; -339.236;  -10.574
438.075;  442.718;   56.761;  162.430
438.364;  556.845;  -44.238;  250.429
438.652;  329.300; -286.226; -138.592
438.941;   98.014;    3.770;  269.415
439.229;  -20.752; -665.252; -466.545
439.517;   22.379; -160.234;  -85.577
439.806;   -3.585; -501.225; -290.595
440.094;  161.686;  377.766;  650.421
440.382;  139.965; -653.233; -302.580
440.670;  139.595; -361.235; -285.576
440.959;   19.358; -347.223; -170.599
441.247;   56.550; -151.229; -109.587
441.535;   99.177; -266.235;   31.423
441.823;   11.358; -497.234; -305.578
442.111;  167.104;  173.771;  327.412
442.400;  402.539; -628.245; -335.559
442.688; 1056.661; -111.234; -620.579
442.976;  731.495; -786.213; -450.617
443.264;   87.172; -324.224; -364.597
443.552;   75.951; -258.226;   51.408
443.840;  168.126;  602.765;  876.423
444.128;   95.314;  265.767;  269.420
444.416;  -14.318; -694.228; -312.588
444.704;    6.962; -465.219;  -92.605
444.992;   65.654;   -0.226;  240.407
445.280;   16.390; -517.230;  -94.585
445.568;   15.599; -694.212; -396.618
445.856;  274.496; -174.221;  357.398
446.143;  603.508;  -54.220;   -7.604
446.431;  513.711;  -25.228;  625.411
446.719;  226.706;  489.783;  675.391
447.007;  150.334;  481.769;  705.416
447.295;  173.655;  597.777;  871.402
447.583;   59.923; -464.229;  -34.587
447.870;  135.118; -434.221; -202.601
448.158;  336.863; -104.230;  129.415
448.446;  238.709; -800.219; -338.604
448.733;  141.373;   13.776;  269.403
449.021;  217.923;   60.788;  341.382
449.309;  148.788; -296.210;  208.379
449.596;  202.978;  128.783;   59.392
449.884;  143.212; -571.222; -325.600
450.172;  158.616; -756.227; -406.590
450.459;  440.128;  645.786;  780.387
450.747; 2494.076; -411.218; -147.608
451.034; 7973.887;  493.772;  889.411
451.322; 6615.431; -413.214; -170.614
451.609;  553.800;  292.777;  508.403
451.897;  598.526; -550.203; -183.634
452.184; 1873.130; -622.223; -400.598
452.472; 1742.534;   97.792;  269.375
452.759;  315.510;  512.781;  864.395
453.047;   98.696; -407.212; -125.617
453.334;   36.143; -732.219; -216.606
453.621;   55.409; -438.214; -161.615
453.909;   99.968;   13.796;  384.368
454.196;   93.738; -299.199; -123.641
454.483;  177.939;  317.798;  540.364
454.771;  118.112; -215.208;  196.374
455.058;   32.691; -316.207;  102.374
455.345;  121.293;   71.807;  344.347
455.632;   78.119; -128.207;  235.373
455.919;   42.610;  -82.196;  182.354
456.207;  -68.283; -774.198; -450.642
456.494;   -5.249; -475.200;  -66.639
456.781;  -11.116; -399.202; -198.635
457.068;   60.400; -253.206;  -29.628
457.355;  -20.549; -698.206; -401.629
457.642;   -2.068; -552.205; -290.630
457.929;  -19.791; -778.194; -417.651
458.216;   63.446; -575.212; -354.617
458.503;  231.664; -173.193;  -19.652
458.790;  243.460; -864.208; -630.625
459.077;  266.139;  -77.202;  110.364
459.364;  813.452; -350.195; -210.649
459.651; 1729.023;  -46.206;  220.372
459.938;  817.001; -864.209; -665.623
460.225;  114.467;  132.799;  276.363
460.512;  -38.818; -836.197; -688.645
460.799;   91.850;  -32.218;  320.392
461.086;   51.355; -370.200; -251.640
461.372;   20.518; -509.198; -279.642
461.659;  104.687; -165.196;  108.354
461.946;   34.487; -445.193;  -54.651
462.233;  237.453;  842.800;  888.361
462.519;  340.950; -814.201; -464.639
462.806; 1023.383; -768.197; -497.645
463.093;  911.833; -445.191;  -66.656
463.380;  -25.201; -920.186; -824.664
463.666;   34.260; -259.197;  -18.646
463.953;  108.197; -406.195; -243.648
464.239;  209.372; -173.195;  -77.648
464.526;  382.282;  413.806;  743.350
464.813;  299.444; -565.190; -304.658
465.099;  331.363;  606.807;  607.348
465.386;  297.792;  903.807;  921.348
465.672;   15.458; -694.197; -522.645
465.959;    7.137; -598.188; -520.662
466.245;  -14.533; -468.193; -359.652
466.532;   64.695; -109.195;   63.352
466.818;   52.273; -357.186; -216.664
467.104;  -18.787; -488.182; -415.672
467.391;  -20.304; -628.189; -459.658
467.677;   15.702; -289.186;    9.335
467.964;    5.378; -682.189; -471.660
468.250;   36.180; -331.186; -160.665
468.536;   69.872;   90.811;  180.341
468.822;  -35.083; -821.184; -574.668
469.109;  139.044;  351.827;  471.311
469.395;  190.702;  729.808;  787.346
469.681;  201.100;   46.811;  156.341
469.967; 1272.955; -699.188; -382.660
470.254; 2773.238; -494.188; -306.662
470.540; 1808.210; -601.196; -476.646
470.826;  256.299; -488.181; -397.675
471.112;  312.320;  288.816;  113.331
471.398;   73.500; -253.183;  -58.670
471.684;   17.778; -626.177; -447.680
471.970;    1.628; -918.180; -981.675
472.256;   17.876; -521.192; -441.654
472.542;   10.555; -499.171; -434.691
472.828;   -6.441; -743.182; -607.672
473.114;   39.098; -380.166; -283.700
473.400;   -3.306; -504.175; -293.684
473.686;   33.379; -452.166; -400.701
473.972;   40.784; -230.174; -131.687
474.258;  -30.556; -925.173; -843.689
474.544;  198.919; -183.178;   -2.679
474.830;  332.496;  -65.175;   45.316
475.116;  514.171; -123.190; -196.658
475.401;  691.556; -558.180; -467.676
475.687;  197.905; -725.180; -718.676
475.973;   -2.833; -673.181; -770.673
476.259;  218.298;  736.825;  764.315
476.544;  360.486; -539.176; -437.682
476.830;  887.601; -398.172; -322.690
477.116;  785.209; -430.177; -336.682
477.401;  135.405;  346.820;  358.324
477.687;  -12.081; -289.175; -405.684
477.973;   27.596;   21.819;   28.326
478.258;    0.725; -448.163; -348.706
478.544;   47.060;   21.815;   61.334
478.829;  -52.590; -818.171; -738.692
479.115;  -43.325; -749.172; -651.690
479.401;  -12.896; -444.174; -449.686
479.686;   32.879; -253.180;  -74.676
479.972;  -34.101; -886.178; -776.680
480.257;   31.324; -258.166;  -65.700
480.542;    6.814; -614.170; -469.693
480.828;  225.042; 1288.824; 1392.317
481.113;  -31.485; -464.176; -426.683
481.399;  -29.502; -236.161; -202.711
481.684;  -60.326; -620.166; -462.700
481.969;  -15.113; -158.159;  -73.713
482.255;  -15.125; -439.169; -285.695
482.540;    1.675; -569.178; -441.680
482.825;   16.094; -395.187; -404.663
483.110;   95.703;  -85.169; -105.696
483.396;  206.383; -840.157; -652.718
483.681;  520.259;  543.826;  730.313
483.966;  165.731; -696.160; -700.712
484.251;   -9.267; -404.174; -310.687
484.536;   -4.391; -356.165; -378.703
484.822;    3.236; -205.173; -218.687
485.107;  -31.579; -599.152; -502.726
485.392;  122.615;  662.836;  541.296
485.677;   83.113;  354.832;  163.302
485.962;   98.506;  160.843;  270.283
486.247;   92.032;  -14.162;   -8.707
486.532;   25.425; -178.166; -325.701
486.817;  163.218;  381.839;  431.291
487.102;  106.004; -453.154; -514.722
487.387;  716.185; -637.156; -652.718
487.672; 1241.645; -154.164;  -38.705
487.957;  774.775; -394.160; -286.711
488.241;  218.488; -290.150; -314.729
488.526;  770.597; -280.152; -148.726
488.811; 1264.277; -881.177; -818.680
489.096;  945.632; -666.154; -702.723
489.381;  495.319;    3.847;  162.275
489.666;  410.748; -428.161; -510.710
489.950;  178.585;  558.846;  627.277
490.235;  -30.942; -480.151; -458.728
490.520;  -49.178; -756.161; -723.710
490.804;  -57.313; -827.156; -736.719
491.089;  -18.547; -469.149; -299.732
491.374;   47.244; -132.164;  -75.704
491.658;  -25.060; -817.147; -717.735
491.943;  133.177; -657.152; -609.727
492.227;  212.250; -178.155;  -38.721
492.512;   35.355; -294.157; -341.717
492.797;  -75.528; -713.149; -716.731
493.081;  -61.908; -588.147; -598.735
493.366;  -48.877; -751.161; -635.711
493.650;  201.320;  831.859;  917.254
493.935;   18.239; -648.147; -447.734
494.219;  -38.343; -778.142; -687.743
494.503;  -54.083; -585.150; -487.730
494.788;   43.547;   46.842;   74.285
495.072;   90.014;  184.850;  434.271
495.356;  167.156; -463.148; -343.733
495.641;  437.774; -812.146; -736.736
495.925;  427.892; -976.156; -903.719
496.209;   28.178; -599.149; -451.732
496.494;  -54.742; -763.142; -544.744
496.778;   -3.746; -364.154; -360.722
497.062;  -55.459; -819.156; -627.719
497.346;  -42.899; -869.160; -640.711
497.631;  163.635;  580.852;  560.266
497.915;   73.884;  -64.145;  175.261
498.199;   26.458; -341.157; -277.718
498.483;   29.271; -562.152; -508.725
498.767;  193.715;  301.850;  300.271
499.051;  177.600; -126.149; -100.732
499.335;   28.449; -693.149; -739.731
499.619;  -45.604; -381.129; -423.767
499.903;   32.649; -272.155;  -65.721
500.187;   19.236; -588.153; -316.724
500.471;    5.226; -796.152; -595.727
500.755;   97.847;   62.839;  -96.710
501.039;   14.974; -270.155; -357.721
501.323;   69.472;  -21.141;  264.254
501.607;    7.425; -447.163; -503.706
501.891;  -20.466; -607.156; -512.718
502.174;  -37.204; -726.144; -585.741
502.458;   52.630;   89.849;  370.273
502.742;   33.171; -180.138; -191.751
503.026;  114.389; -412.147; -254.734
503.310;  196.160; -437.159; -375.713
503.593;  119.640; -464.147; -325.735
503.877;  118.236; -232.133; -156.760
504.161;  155.439;    2.847;  -50.724
504.444;  130.074; -841.158; -710.716
504.728;  479.418; -487.164; -522.704
505.012;  737.737; -257.150;  -76.729
505.295;  549.498; -417.161; -212.711
505.579;  561.416; -256.156; -496.719
505.862;  787.256; -555.145; -333.738
506.146;  772.688; -681.159; -758.714
506.429;  417.413;  568.841;  461.286
506.713;   74.884; -732.151; -667.728
506.996;  321.929;   90.846;  295.278
507.280;  354.038; -633.165; -474.703
507.563;  252.272; -469.155; -261.721
507.847;  102.237; -423.153; -112.724
508.130;   84.749; -665.161; -456.711
508.413;  135.320; -758.167; -577.700
508.697;  256.620; -151.167;   12.300
508.980;  169.813; -422.153; -312.724
509.263;   -7.006; -466.155; -450.720
509.547;   25.362; -124.150;   82.271
509.830;   44.576; -172.160;  140.289
510.113;   95.491;  128.844;  298.281
510.396;   28.469; -530.152; -300.725
510.680;  110.532; -818.145; -812.738
510.963;  468.433;  184.846;  180.277
511.246;  396.094; -493.150; -357.730
511.529;  233.612; -482.145;  -83.739
511.812;  413.182; -250.134;   10.241
512.095;  285.731; -740.151; -396.728
512.378;   79.419; -317.147; -245.736
512.661;   29.253; -703.137; -623.753
512.944;   28.410; -750.142; -637.744
513.227;   65.326; -170.137; -171.752
513.510;   15.945; -479.144; -671.741
513.793;   13.076; -485.140; -435.747
514.076;  149.816;  -43.127;  -39.771
514.359;   96.754; -294.149; -135.732
514.642;   86.287; -442.142; -567.744
514.925;  790.800;  581.860;  561.253
515.208; 1059.804; -498.134; -443.758
515.491;  707.842; -276.133; -182.761
515.773;  395.874; -410.143; -337.742
516.056; 2226.010;  249.864;  409.246
516.339; 2950.839; -754.136; -652.755
516.622; 1828.992; -518.150; -488.730
516.904; 1055.806;  882.857;  975.257
517.187;  441.199; -730.138; -523.752
517.470;  381.180; -568.143; -510.743
517.752;  432.366; -624.136; -470.756
518.035;  365.237; -708.139; -725.749
518.318;  380.989; -799.136; -744.755
518.600; 2619.046; -300.132; -325.762
518.883; 3558.137;  310.858;   88.256
519.165; 1721.967; -585.138; -426.751
519.448;  374.196;  -61.132;  -19.762
519.730;  188.374; -573.126; -415.773
520.013;  288.664;  588.867;  664.240
520.295;  669.909;  -94.134;  -15.759
520.578; 1478.834; -335.131; -305.764
520.860; 1692.846; -254.132;   56.238
521.143;  913.543; -763.135; -584.756
521.425;  481.112; -251.125; -279.775
521.707;  703.592; -622.127; -380.771
521.990; 1868.067; -199.127;  167.229
522.272; 2155.528; -116.140;   -4.748
522.554;  927.900; -237.143; -157.742
522.836;  316.182;  -24.134;   99.241
523.119;  192.887; -496.148; -189.734
523.401;  137.815; -448.130; -314.766
523.683;  108.554; -865.137; -693.753
523.965;  293.022;  408.862;  260.248
524.247;  291.508;   54.878;  170.220
524.529;  201.459; -451.134; -367.759
524.812;  362.992;   -3.130;  191.234
525.094;  910.946; -773.138; -631.751
525.376; 1439.546; -143.124;   78.223
525.658;  879.236; -441.136; -339.754
525.940;   20.030; -805.131; -671.764
526.222;   34.539; -188.136;  -88.755
526.504;   99.153; -190.131;   32.237
526.786;  128.811; -960.133; -647.760
527.068;  241.476; -124.123;  -67.778
527.349;   68.782; -865.137; -774.754
527.631;  126.345; -137.132;   22.238
527.913;  144.066; -664.127; -450.771
528.195;  185.580; -761.125; -639.774
528.477;  255.104;  -93.134;  -30.758
528.759;  149.042; -648.130; -522.766
529.040;   69.225; -569.123; -293.778
529.322;   63.407; -235.125;  -10.774
529.604;  128.344;  -47.130;   93.233
529.886;  100.374; -546.126; -302.773
530.167;  117.036;  232.870;  192.235
530.449;   50.269;    1.853;   63.265
530.731;   30.882; -572.122; -459.779
531.012;   63.728; -513.120; -216.784
531.294;   78.541; -118.116;  -43.792
531.575;  168.487;  290.875;  538.225
531.857;   52.699; -548.135; -266.757
532.138;  102.020; -113.141;   40.254
532.420;  174.145;  294.865;  403.244
532.701;  171.439; -722.133; -751.760
532.983;  294.767;  232.867;  182.239
533.264;  105.547; -243.126;  175.228
533.546;  -44.836; -491.136; -508.755
533.827;   50.735;  173.867;   -1.759
534.109;   27.674; -352.135;  -80.757
534.390;   74.425; -725.132; -582.762
534.671;  247.370; -270.135;  -82.756
534.953;  133.103; -751.123; -611.779
535.234;   20.077; -426.117; -255.789
535.515;  -73.439; -891.119; -735.785
535.796;  -20.538; -431.128; -193.770
536.078; -120.380;-1050.124; -904.777
536.359;   -2.122;  -22.123;    3.221
536.640;  -13.894; -480.125; -197.774
536.921;  149.075;  225.871;  143.232
537.202;  369.418;  -87.138;  -16.751
537.483;  480.283;  251.869;  377.236
537.764;  197.461;   17.870;   98.235
538.045;  -37.297; -543.134; -371.758
538.326;  -43.599; -596.129; -447.768
538.607;   25.468; -686.127; -476.771
538.888;  186.994;   98.879;    5.218
539.169;  175.988; -704.122; -535.781
539.450;  340.624;  236.871;   16.233
539.731;  221.573; -361.121; -182.783
540.012;  116.203;  199.880;  412.216
540.293;   73.090;   82.876;  158.224
540.574;   -4.238; -895.113; -717.796
540.855;  425.271;  435.879;  377.218
541.136;  519.286;   47.878;  139.220
541.416;  275.818; -161.130; -220.766
541.697;  212.229; -274.131; -170.763
541.978; 1080.697; -270.135; -315.757
542.259; 1367.117; -211.127; -236.771
542.539;  661.860; -191.116; -186.790
542.820;  189.611;  461.875;  480.225
543.101;  133.459;  -52.145;  -77.738
543.381;   35.142; -638.127; -591.771
543.662;  261.040;  159.873; -254.771
543.942;  626.213; -751.127; -830.770
544.223; 1116.462;  193.878;  161.219
544.504;  742.295; -275.124; -182.777
544.784;  610.348; -592.126; -408.773
545.065; 1716.739;  104.884; -254.791
545.345; 2027.111;  227.881;   14.215
545.626; 1374.161;  -14.113; -108.796
545.906;  922.211;   77.869;   98.235
546.186;  380.078;   92.874;  -95.773
546.467;  208.523;   99.877;  -95.778
546.747;  357.635;  264.884;  327.210
547.027;  385.819;   91.876;  111.223
547.308;  337.637; -376.127; -530.770
547.588;  401.902;  299.871;  371.232
547.868;  224.287;  458.870;  588.235
548.149;  191.546;  609.885;  593.207
548.429;  146.191; -347.127; -299.771
548.709;  203.327; -645.120; -461.784
548.989;  503.321;   84.882;   88.213
549.269; 2257.119;   10.868;  139.239
549.550; 5167.177;  215.877;  117.222
549.830; 4612.104; -758.111; -556.799
550.110;  949.162; -468.110; -320.801
550.390;  854.732; -128.122;  -56.779
550.670; 1193.457; -868.114; -783.795
550.950;  847.996; -509.121; -471.782
551.230;  194.542;  549.879;  460.218
551.510;    2.345; -381.121; -326.782
551.790;   48.169; -173.109; -127.803
552.070;  277.148;  940.877; 1181.223
552.350;  441.065; -492.119; -377.786
552.630;  631.465;   -2.121;   77.219
552.909;  392.765;  181.884;   73.209
553.189;  250.101;  -49.132;   33.237
553.469;  219.690; -703.119; -514.786
553.749;  193.044; -469.127; -357.772
554.029;  185.931;   33.883;  -24.790
554.308;  132.476; -154.115;  -37.794
554.588;   71.536; -196.128; -204.770
554.868;   74.422; -366.121;  -47.782
555.147;  162.323; -114.115;  -46.793
555.427;  642.792; -260.116; -250.792
555.707; 4157.946; -284.115; -200.793
555.986; 5030.232; -719.111; -538.800
556.266; 2679.759;   23.884;   72.210
556.546;  111.270; -888.121; -675.782
556.825;  278.755; -657.114; -556.794
557.105; 1904.384; -125.128;   17.230
557.384; 2258.513;  122.884;  187.209
557.664;  850.316; -717.116; -508.792
557.943;  142.496; -557.121; -411.782
558.222;  188.824; -345.118; -344.788
558.502;  293.424; -116.115;  -76.793
558.781;  524.570;  194.885;  499.208
559.061;  437.748; -232.118; -227.788
559.340;  314.703;  302.883;  353.211
559.619;  759.709;   93.884;  148.210
559.899; 1103.930; -239.117; -266.789
560.178; 1024.124; -778.115; -593.793
560.457; 3379.707; -623.117; -562.790
560.736; 4673.309; -472.111; -482.800
561.015; 3149.682; -500.128; -502.769
561.295;  402.539;  180.893;  215.193
561.574;  344.121;  119.885;  116.207
561.853;  528.248;  274.891;  303.197
562.132;  525.051;  -45.114;  182.206
562.411;  481.390;  396.879;  553.219
562.690;  150.494; -592.115; -458.792
562.969;  148.193;  472.888;  630.203
563.248;  500.738; 2966.878; 2487.219
563.527;  295.158; -290.111; -408.800
563.806;  405.391; -650.127; -521.771
564.085;  480.454; -297.105; -206.810
564.364;  259.933; -594.117; -405.790
564.643;  537.466; -276.121; -223.781
564.922; 2030.892;  221.890;  397.198
565.201; 2057.096; -640.109; -700.803
565.479;  863.768; -297.115; -219.792
565.758;  371.359; -810.128; -712.770
566.037;  502.297; -155.109; -100.803
566.316;  252.314; -286.116;  -28.791
566.595;   42.521;  -17.115;  -12.793
566.873;   90.685; -166.111;  -79.801
567.152;  -73.132; -490.113; -590.797
567.431;   10.210; -113.116;    6.210
567.709;    3.789; -344.107; -212.807
567.988;  277.030; -810.114; -769.794
568.266;  561.346; -160.115;  -68.793
568.545;  418.776; -644.100; -514.819
568.824;  613.217;  160.885;  356.208
569.102;  592.754; -351.114; -235.794
569.381;  245.417; -492.116; -407.792
569.659;  -38.236; -553.113; -553.796
569.938;   30.686; -743.122; -465.780
570.216;  124.600; -225.109; -225.804
570.494;  -25.942; -632.114; -572.795
570.773;   46.144;  202.879;  114.218
571.051;   -3.424; -373.123; -357.778
571.330;   68.337; -221.113; -174.796
571.608;   31.568; -181.098; -173.823
571.886;  -58.023; -671.111; -581.799
572.164;  -60.728; -739.121; -621.782
572.443;  -37.392; -562.105; -512.811
572.721;  -52.943; -399.117; -289.790
572.999;  -28.099; -280.117; -168.788
573.277;   75.426;  379.894;  620.191
573.555;  318.003;   94.894;   37.190
573.834; 1455.175;  -86.117; -114.788
574.112; 1708.067;  880.893;  811.193
574.390;  506.184; -143.111;  -96.801
574.668;   19.369;  -91.112;  -61.797
574.946;  -13.696; -165.106; -187.810
575.224;    4.621;   71.891;  -16.803
575.502;  -27.514; -200.116; -204.791
575.780; -100.680; -767.112; -829.798
576.058;  185.658; 1589.889; 1004.200
576.336;  -24.361; -210.110; -129.801
576.614;  -47.755; -511.112; -340.798
576.891;   79.475; -711.115; -823.794
577.169;  508.633; -158.108; -285.805
577.447;  616.316;  169.893;  202.193
577.725;  271.125;  629.888;  854.201
578.003;   17.798;  -71.112; -371.798
578.280;   78.217; -208.104; -242.812
578.558;   63.724; -450.115; -422.793
578.836;  114.707; -210.114; -145.795
579.114;   47.994; -630.112; -670.797
579.391;   57.577;   -6.117;  -18.789
579.669;  -86.674; -595.114; -704.794
579.947;  168.113; -326.107; -127.806
580.224;  351.488; -692.107; -524.806
580.502;  340.517;  127.893;   76.193
580.779;   23.558;  -42.117;   75.210
581.057;  -80.350; -584.109; -470.804
581.334;  -96.344; -726.102; -695.815
581.612;   41.754;   54.895;  511.190
581.889;  -20.630;  -83.101; -129.818
582.167;  -52.891; -298.099; -190.821
582.444;  -98.311; -845.102; -814.817
582.721;  106.115;  657.899;  715.183
582.999;   57.056; -326.100; -167.821
583.276;  567.180; -812.123; -713.779
583.553;  776.460; -364.102; -294.816
583.831;  251.888; -607.104; -631.812
584.108;   49.881;  349.892;  174.195
584.385;    7.556; -122.102;  -98.815
584.662;  -74.865; -651.111; -828.801
584.940;   19.884;  204.889;  204.199
585.217;  -20.711;  -73.113; -303.796
585.494;   21.343;   71.890;  118.198
585.771;  215.151; -250.109; -354.804
586.048;  512.914; -196.113;  -76.796
586.325;  329.338; -721.110; -773.801
586.602;   83.642;  230.896;  213.188
586.879;  -16.122; -499.100; -580.820
587.156;   41.430; -156.105; -331.810
587.433;  -33.513; -701.102; -667.817
587.710;   57.046;  152.888;  234.202
587.987;  305.960; -264.105; -236.811
588.264;  807.222;  315.888;  387.202
588.541; 1430.519;  -61.104;   26.187
588.818; 2783.928;   72.892;  171.196
589.095; 2406.215; -163.104; -174.812
589.371;  384.099; -459.109; -414.804
589.648;    7.892; -581.107; -437.807
589.925;   32.408; -517.114; -621.795
590.202;   30.770; -741.112; -607.798
590.478;   92.862; -166.105;  -73.811
590.755;  279.384; -241.108; -132.806
591.032; 2661.040; -741.110; -699.802
591.308; 3642.883; -732.094; -790.831
591.585; 1895.014; -573.110; -560.802
591.862;  153.689;-1056.102; -950.817
592.138;   73.307; -475.108; -474.805
592.415;  169.118; -486.104; -495.813
592.691; 1519.066;  460.896;  518.188
592.968; 1936.770; -208.098; -123.824
593.244;  927.810; -695.116; -595.790
593.521;   72.614; -105.102;  -42.817
593.797;  -28.866; -810.122; -720.780
594.074;  360.008; -611.096; -588.826
594.350;  662.419;  828.905;  729.172
594.626;  325.660; -303.111; -283.801
594.903;  120.040; -643.101; -645.817
595.179;  196.497;  243.896;  418.187
595.455;    9.318; -136.107; -150.807
595.731;    1.723;  -19.103;  -38.814
596.008;  -48.270; -464.111; -434.800
596.284;   33.355; -187.100; -242.820
596.560;   67.315; -501.093; -493.833
596.836;  210.282; -173.105;  -70.810
597.112;  365.932; -582.108; -437.805
597.388;  296.656;  -49.097;  -48.826
597.665;  111.241;  437.887;  530.203
597.941;  -53.431; -572.089; -658.839
598.217;   12.518; -323.110; -293.802
598.493;  287.427;   61.891; -204.804
598.769;  545.549; -175.100;  -50.819
599.045;  319.210; -490.108; -562.806
599.321;   56.004; -193.100; -261.820
599.597;  148.602; -355.109; -476.804
599.872;  481.294;  409.896;  429.187
600.148;  381.557;  -61.097; -172.826
600.424;  285.390;   91.893;  202.193
600.700;  251.917; -170.107; -280.807
600.976;  113.802; -442.097; -464.825
601.252;  258.823; -226.109; -272.803
601.527;  227.545; -833.104; -840.813
601.803;  158.713; -453.105; -404.812
602.079;  201.599; -124.100; -118.819
602.354;  587.149; -620.092; -531.835
602.630;  846.139; -140.113; -482.796
602.906; 2500.645; -910.101; -863.818
603.181; 7092.440; -627.119; -534.786
603.457; 6076.805;   98.903; -278.826
603.733;  870.498; -605.120; -626.783
604.008; 1035.279; -245.106; -164.810
604.284; 3198.866; -636.101; -580.817
604.559; 2795.550;   -3.112;  -42.799
604.835;  520.532; -163.105; -225.810
605.110;  430.684; -732.099; -892.821
605.385;  719.867;  224.907;  267.167
605.661;  698.872; -625.095; -729.829
605.936; 1249.536; -664.108; -737.806
606.211; 1046.005;  -17.103; -170.815
606.487;  199.003; -329.114; -376.794
606.762;   18.890; -791.119; -745.786
607.037;   -6.893; -501.105; -433.810
607.313;  -48.960; -589.096; -574.828
607.588;   -3.696; -375.106; -137.810
607.863;   47.569;  -28.101; -143.818
608.138;  191.917;  513.890;  516.198
608.413;   41.963; -576.099; -592.822
608.688;   52.482; -203.108; -267.805
608.964;  211.398; -509.106; -218.809
609.239;  265.179; -107.105; -212.810
609.514;  274.837;  281.895;  240.188
609.789;  684.292; -187.104; -716.812
610.064;  908.814; -435.096; -609.827
610.339;  925.924; -855.109; -799.804
610.614; 1256.979; -131.100; -315.820
610.889;  707.413;  215.895;  107.188
611.163;   40.763; -407.104; -591.812
611.438;   85.129;   81.886; -167.794
611.713;    5.741; -467.101; -499.817
611.988;   48.368; -144.101; -328.818
612.263;   -8.244; -771.102; -717.815
612.538;  231.788;  385.887;  251.204
612.812;  204.356; -832.100; -911.820
613.087;  135.343; -358.098; -338.823
613.362;  -59.082; -497.107; -557.807
613.637;   45.026;  261.897;  138.186
613.911;   -1.000; -256.092; -345.835
614.186;  136.791; -249.107; -292.807
614.460;  730.168; -842.081; -758.854
614.735;  826.642;  -55.087;  -17.843
615.010;  170.657;   43.912;  -82.841
615.284;  257.056;  360.892;  246.195
615.559;  376.149; -792.092; -955.835
615.833;  309.786;  -76.099;  -87.822
616.108;    2.886; -225.090; -390.837
616.382;  156.543;  274.913;  402.156
616.656;  163.486; -241.090; -232.837
616.931;  520.487; -785.099; -700.822
617.205; 1114.471; -973.104; -979.813
617.480; 1033.360;  -91.125;    6.225
617.754;  176.832; -396.125; -128.774
618.028;   13.928; -369.129; -382.768
618.302;   80.355;   73.892;  -25.805
618.577;  -52.823; -371.103; -518.815
618.851;  -73.005; -399.109; -600.803
619.125;  -58.541; -335.134; -378.759
619.399;  -41.454; -244.104; -374.813
619.673;  -49.382; -330.115; -515.792
619.947;  -41.368; -333.114; -448.795
620.222;  -21.664; -198.110; -204.801
620.496;    8.821;  -47.121;  -96.782
620.770;   15.113; -187.122;  -93.781
621.044;  207.055;  323.895;  346.190
621.318;  773.149; -653.120; -614.783
621.592;  698.872; -430.121; -409.783
621.866;  394.125; -476.112; -572.799
622.140;   33.786; -207.116; -356.791
622.413;   47.555;  138.889;  112.200
622.687;  -37.584; -746.101; -492.817
622.961;    4.905; -130.108; -143.805
623.235;  -70.470; -633.111; -661.800
623.509; -114.463; -816.105; -848.811
623.783;   12.164;  -12.107;   48.193
624.056;  -27.400; -254.120; -280.783
624.330;   58.844;   63.888;   -3.797
624.604;   35.458; -271.116; -355.790
624.877;   81.266;  180.890;   26.198
625.151;   44.002; -249.114; -238.794
625.425;  -40.952; -150.103; -283.814
625.698;  -67.841; -367.119; -374.785
625.972;  -78.982; -799.110; -765.802
626.245;   78.310;  685.884;  484.210
626.519;  -48.971; -426.120; -340.784
626.792;  -32.508; -192.107; -380.807
627.066;  -93.469; -485.122; -662.779
627.339;  -94.511; -736.110; -663.802
627.613;   45.928;  351.880;  148.216
627.886;   45.345;  187.891; -612.803
628.160;  -10.776;  312.880; -161.783
628.433; -104.713; -695.125; -703.775
628.706;  -86.271; -517.120; -615.784
628.979;   15.444;  296.876;  117.223
629.253;  -84.036; -785.119; -833.786
629.526;  384.372; -334.126; -253.772
629.799;  358.501; -641.123; -479.778
630.072;  189.054; -497.128; -516.769
630.346;  -56.265;-1115.116;-1080.790
630.619;  479.968; -467.107; -545.808
630.892;  668.931;  709.889;  593.200
631.165;  348.546;  790.896;  679.187
631.438;  -82.228;-1092.112;-1055.798
631.711;   28.729;  453.877;  257.221
631.984;  -67.820; -523.117; -624.789
632.257;  -81.623; -636.117; -681.789
632.530;  -36.390; -412.119; -433.785
632.803;   14.925; -109.115;    7.207
633.076;  -75.777; -360.123; -422.777
633.349;   15.633;  173.872;  121.231
633.622;  -27.767; -187.119; -240.785
633.895; -129.475; -903.120; -823.783
634.167;  -62.901; -496.126; -525.773
634.440;  -15.384;  -19.116; -137.792
634.713;   -8.587;  -22.119; -120.786
634.986;   77.148;  593.871;  453.233
635.258;  -85.052; -507.115; -597.793
635.531;   93.248;  742.882; -343.788
635.804;  -28.246; -303.117; -318.789
636.077;  -95.663; -830.116; -852.791
636.349;    1.646; -586.115; -474.793
636.622;  402.846; 1695.874; 1392.228
636.894;  252.204; -474.120; -909.784
637.167;  168.215; -836.127; -789.771
637.439;   25.012; -278.128; -213.770
637.712;  -48.127; -312.126; -293.772
637.984;  -83.337; -635.116; -707.791
638.257;  383.998;  515.877;  488.222
638.529;  581.538; -881.125; -924.776
638.802;  242.179; -508.128; -449.769
639.074; -114.388; -927.122; -952.781
639.346; -140.250; -942.135; -930.757
639.619;   -1.814;  -79.142; -319.744
639.891;  -15.219;  -83.122; -168.779
640.163;  -75.742; -689.122; -756.780
640.435;   20.260;  273.878;  103.220
640.708;    4.686;  -72.122; -132.780
640.980;  -34.462; -366.122; -362.781
641.252;  195.590;  -25.121;  -71.781
641.524; 1825.492;  580.879;  573.219
641.796; 1855.019;-1094.121; -907.782
642.068;  329.270; -191.121; -300.782
642.340;  -50.053; -486.121; -566.783
642.613;   19.749;  294.880;  323.217
642.885; -104.074; -787.120; -878.783
643.157;  -54.447; -810.120; -658.784
643.428;   59.505;  170.880;  218.216
643.700;  -85.544; -498.120; -425.784
643.972;  -38.067;  -16.119; -133.785
644.244; -103.265; -474.119; -559.785
644.516;  -46.063; -250.119; -114.786
644.788;   48.314;  662.881;  548.214
645.060;  -24.910;  -12.119; -124.786
645.332;  -91.108; -525.118; -535.787
645.603;   17.969;  479.882;  342.213
645.875;  -83.029; -334.118; -369.787
646.147;  169.948; 1487.882; 1242.212
646.418;  -64.450; -931.117; -918.788
646.690;  157.101; -714.117; -715.789
646.962;   42.578; -413.117; -451.789
647.233;   -5.120;   15.883;   11.211
647.505;  -95.843; -595.117; -475.790
647.776;   35.484;  328.884;  229.210
648.048;  -14.265; -248.116; -418.790
648.320;  -77.438; -752.116; -679.791
648.591; -161.561;-1055.116; -958.791
648.862;  -82.534; -505.116; -577.792
649.134;    0.918;  115.885;  198.208
649.405;  -44.231; -661.115; -618.792
649.677;  -66.604; -475.115; -598.793
649.948;   -8.952; -181.115; -296.793
650.219;  -23.000;  -37.115; -147.793
650.491;  -76.648; -431.114; -520.794
650.762; -124.896; -705.114; -731.794
651.033;  -94.970; -437.114; -424.795
651.304;  -95.768; -743.114; -728.795
651.576;  -84.316; -680.114; -645.795
651.847;  -47.939; -250.113; -140.796
652.118;  -37.112;  -32.113; -189.796
652.389; -122.536; -639.113; -722.796
652.660;  -24.934; -147.113;  -89.797
652.931; -152.532; -897.112; -871.797
653.202;  -82.530; -382.112; -541.798
653.473;  -69.803; -633.112; -533.798
653.744;  172.849; -595.112; -590.798
654.015;  140.150; -356.112; -303.799
654.286;  -54.648; -642.111; -663.799
654.557;  -56.346; -586.111; -521.799
654.828; -163.419;-1114.111;-1088.800
655.099;  -92.742; -404.111; -291.800
655.370;  -89.266; -427.111; -543.801
655.641; -141.014; -656.110; -714.801
655.911; -104.762; -618.110; -638.801
656.182;   51.340;  437.890;  387.198
656.453;   86.867;  830.890;  746.198
656.724;  -87.332; -466.110; -426.802
656.994;  -84.155; -553.109; -568.803
657.265; -104.453; -862.109; -873.803
657.536;  -80.601; -500.109; -377.804
657.806; -119.549; -561.109; -593.804
658.077; -140.422; -866.109; -950.804
658.347; -100.046; -523.108; -598.805
658.618; -123.319; -646.108; -694.805
658.888;  -36.142;  -41.108;  112.195
659.159;  -92.415; -432.108; -548.806
659.429;  -21.088; -292.108; -349.806
659.700;   21.963; -435.107; -390.807
659.970;  -10.885; -370.107; -359.807
660.241;   14.142; -754.107; -921.807
660.511;  498.294; -147.107; -174.808
660.781;  114.571; -793.106; -748.808
661.052;  -48.152; -222.106; -381.808
661.322;  -26.526;   21.894;   -9.809
661.592;    5.301;  257.894;  148.191
661.862;  -84.072; -369.106; -382.810
662.133; -111.845; -551.105; -502.810
662.403; -125.318; -770.105; -676.810
662.673;  -61.267; -256.105; -213.811
662.943;  -99.240; -612.105; -551.811
663.213;  -17.113;  -85.105;  -81.811
663.483;  -78.661; -593.104; -568.812
663.753;  -49.534; -194.104; -152.812
664.023;  -12.958;   68.896;  -32.813
664.293;  -83.781; -319.104; -126.813
664.563; -109.304; -694.104; -648.813
664.833; -131.552; -743.103; -608.814
665.103; -138.350; -730.103; -793.814
665.373; -129.198; -766.103; -806.814
665.643;  -78.072; -863.103; -918.815
665.913;   38.755; -534.103; -714.815
666.182;  150.257; -685.102; -719.816
666.452;  270.809;  -22.102;  -89.816
666.722;  -13.764; -724.102; -784.816
666.992; -141.913; -948.102; -921.817
667.261;  -94.286; -824.102; -808.817
667.531;  208.966;  134.899;   45.183
667.801;  527.868; -440.101; -412.818
668.070;  223.670;  714.899;  697.182
668.340; -102.678; -883.101; -840.819
668.609;   81.548;  588.900;  301.181
668.879;  -85.250; -490.100; -558.819
669.149;  -70.248; -539.100; -516.820
669.418; -103.246; -698.100; -726.820
669.688;  -34.594; -482.100; -666.820
669.957;   69.057; -423.099; -546.821
670.226;  -32.466; -268.099; -331.821
670.496; -103.714; -431.099; -635.822
670.765;  -92.937; -418.099; -501.822
671.034; -151.510; -872.099; -828.822
671.304;  -28.084;   55.902; -111.823
671.573; -145.657;-1085.098; -957.823
671.842;   82.220; -380.098; -294.823
672.112;   36.072; -692.098; -586.824
672.381;    0.499; -239.098; -214.824
672.650; -118.149;-1005.097;-1021.825
672.919; -106.898; -631.097; -507.825
673.188; -107.221; -681.097; -878.825
673.457; -154.744;-1101.097;-1143.826
673.726;  -68.142; -579.096; -646.826
673.995;  -56.415; -533.096; -479.826
674.265;  -17.964; -263.096; -333.827
674.534;    7.713; -183.096; -235.827
674.802;   12.265; -618.096; -703.828
675.071; 1095.017; -886.095; -801.828
675.340; 4112.094; -464.095; -339.828
675.609; 1396.446;  103.905;   82.171
675.878;   73.447; -949.095; -893.829
676.147;   36.224;  -26.095;   -8.829
676.416;   89.176; -210.094; -294.830
676.685;  756.553; 1000.906; -622.830
676.953;  136.505; -603.094; -452.831
677.222;  -39.119; -193.094; -273.831
677.491;  -26.517;  -24.094; -127.831
677.759;    1.985;   11.907;  172.168
678.028;    4.162; -279.093; -222.832
678.297;  -10.286;   71.907;  197.168
678.565; -134.660; -898.093; -944.833
678.834;  -64.458; -311.093; -268.833
679.102;  -81.006; -411.092; -391.834
679.371; -154.879; -898.092; -727.834
679.639; -129.477; -797.092; -786.834
679.908; -122.925; -794.092; -724.835
680.176; -151.199; -895.091; -941.835
680.445;  -76.572; -346.091; -352.835
680.713;  -30.995;  -58.091;  -23.836
680.982; -105.093; -523.091; -525.836
681.250; -104.041; -578.091; -507.837
681.518; -109.790; -534.090; -751.837
681.787;  -17.438; -204.090; -167.837
682.055;  -64.686; -490.090; -422.838
682.323; -153.884; -993.090; -992.838
682.591;   37.293; -216.090; -538.838
682.859;   81.120;    9.911;  -35.839
683.128;    4.746;  232.911;  497.161
683.396; -161.827;-1102.089;-1122.840
683.664;  -39.875; -241.089;   21.160
683.932;    5.527;  144.911;  -76.840
684.200;  -94.071; -576.088; -320.841
684.468;  -24.345;  -73.088; -124.841
684.736;  -45.618; -214.088; -175.841
685.004; -121.516;-1024.088; -982.842
685.272;  -45.664; -880.088; -774.842
685.540;  -59.562; -499.087; -557.843
685.808;  -97.510; -651.087; -682.843
686.076; -120.609; -894.087; -969.843
686.343;  -69.682; -601.087; -815.844
686.611;   31.995; -195.087; -224.844
686.879;  515.772; -530.086; -553.844
687.147; 3459.399; -483.086; -480.845
687.414;  958.425;  -12.086; -169.845
687.682;    2.777; -658.086; -757.846
687.950;  317.979;  259.915;  263.154
688.217;   17.081; -792.085; -760.846
688.485;    7.158; -632.085; -636.847
688.753;  552.284;  -11.085; -102.847
689.020;  160.811; -820.085; -851.847
689.288;  -94.737; -853.084; -787.848
689.555;  -27.260; -195.084; -148.848
689.823;  -46.283; -241.084; -345.849
690.090; -107.906; -546.084; -651.849
690.358; -148.880; -877.084; -897.849
690.625;   -9.703;  120.917;   45.150
690.892;  -64.451; -403.083; -369.850
691.160;  -31.424;   72.917;  -35.850
691.427;    7.603;  141.917;  130.149
691.694; -146.396; -855.083; -929.851
691.962; -143.344;-1177.082;-1060.852
692.229;   17.983;  127.918;   56.148
692.496;   73.960;  130.918;  -49.852
692.763;   11.487; -164.082; -201.853
693.031;  -73.761; -739.082; -716.853
693.298;  -31.310; -509.081; -368.853
693.565;  335.867; -155.081; -163.854
693.832; 1337.194;   -5.081;   -9.854
694.099;  132.121; -643.081; -642.855
694.366;  -60.302; -882.081; -896.855
694.633;  -48.026; -920.080; -633.855
694.900;  745.551; 4367.920; -114.856
695.167;  444.528; -214.080; -380.856
695.434;   84.930; -646.080; -623.856
695.701;  199.632;  121.921;  -61.857
695.968;  479.308; -365.079; -361.857
696.234; 1045.460; -415.079; -646.858
696.501;10184.512; -776.079; -614.858
696.768; 5097.539; -554.079; -617.858
697.035;  296.491; -632.078; -667.859
697.302;   31.493; -448.078; -552.859
697.568;    6.894; -458.078; -497.859
697.835;  -42.229; -683.078; -624.860
698.102;  -26.177; -498.078; -407.860
698.368;   82.300;  384.923;  396.139
698.635;  -44.773;  -47.077; -424.861
698.901;  -16.247; -240.077; -348.861
699.168;   62.180; -534.077; -456.862
699.435;   71.982;  -72.077;  -13.862
699.701; -118.841; -868.076; -764.862
699.968;    9.436;  144.924; -441.863
700.234; -113.112; -783.076; -822.863
700.500;  -58.961; -448.076; -539.864
700.767;   -6.909;   -1.075;   26.136
701.033; -129.457;-1015.075; -963.864
701.299;  -56.080; -450.075; -483.865
701.566;  124.247;  950.925;  763.135
701.832;   24.998;  -31.075;  -76.865
702.098;  -95.800;-1054.074;-1034.866
702.365;  -88.298;-1098.074;-1030.866
702.631;  -30.996;-1038.074;-1063.867
702.897; 1402.806; -765.074; -676.867
703.163; 2261.357;  348.926;  254.133
703.429;  155.934; -256.073; -273.868
703.695;  -24.039; -796.073; -792.868
703.961;    5.963; -214.073; -210.868
704.227;  -48.960; -630.073; -725.869
704.493;  122.292;  613.927;  510.131
704.759;  -13.582; -565.072; -540.870
705.025;   23.970; -203.072; -194.870
705.291;  -12.853; -666.072; -562.870
705.557;  196.899;  719.928;   34.129
705.823;   30.051; -742.072; -694.871
706.089;  120.202; -307.071; -326.871
706.355;  340.079; -315.071; -244.872
706.620; 5349.356; -776.071; -729.872
706.886; 7480.158; -309.071; -362.873
707.152;  727.335; -818.070; -973.873
707.418;  -35.038;-1153.070;-1186.873
707.683;  -17.187; -550.070; -530.874
707.949;  -57.260; -547.070; -578.874
708.215;   -8.733; -129.070; -207.874
708.480;  -18.331; -520.069; -420.875
708.746;   85.871;   68.931;   28.125
709.011;  -56.378; -578.069; -612.876
709.277;  -88.951; -538.069; -543.876
709.542;  -54.224; -428.069; -387.876
709.808;  -12.722;  -59.068;   89.123
710.073;  -87.870; -577.068; -695.877
710.339;  -38.944; -242.068; -228.877
710.604;   83.683; -780.068; -845.878
710.869;  304.110; -277.068; -366.878
711.135;  -64.113; -715.067; -628.879
711.400;  -93.486; -507.067; -608.879
711.665;  -75.984; -404.067; -479.879
711.931; -102.508; -661.067; -677.880
712.196; -124.181; -876.067; -954.880
712.461;   96.246; -402.066; -490.880
712.726;  139.898; -727.066; -771.881
712.991; -101.200; -647.066; -664.881
713.256;  -35.349; -350.066; -332.882
713.521;  -55.597; -417.065; -381.882
713.787;  -59.395; -454.065; -472.882
714.052;  -48.193; -214.065; -400.883
714.317;  -97.741;-1045.065; -981.883
714.581; 1013.036; -374.065; -268.883
714.846; 1305.062; -822.064; -888.884
715.111;  124.089;  261.936;  257.116
715.376;  -29.384;  -86.064; -223.885
715.641;  -23.432; -365.064; -367.885
715.906;  301.945;   15.936; -551.885
716.171;  144.646;  221.937;  209.114
716.436;   34.723;  -78.063; -104.886
716.700; -108.950; -818.063; -692.886
716.965; -118.248; -794.063; -807.887
717.230;  -56.796; -339.063; -392.887
717.494;  -27.020;  -40.062; -134.888
717.759; -112.568; -784.062; -640.888
718.024;    1.934;  269.938;  250.112
718.288;   57.461;  685.938;  395.111
718.553; -151.312; -803.062; -977.889
718.817; -133.285; -883.061; -899.889
719.082;  -33.509; -115.061; -125.890
719.346; -150.657;-1000.061; -947.890
719.611;  -44.055; -300.061; -255.891
719.875; -113.653; -568.060; -537.891
720.140;  -59.801; -453.060; -603.891
720.404;   36.225; -136.060; -249.892
720.668;  883.352; -475.060; -411.892
720.933;  349.829;  146.940;  137.108
721.197;  -99.319; -667.059; -600.893
721.461; -146.042; -851.059; -826.893
721.725;    2.860;  -21.059; -250.894
721.990;  -58.114; -284.059; -204.894
722.254;  -25.087;  -26.059; -108.894
722.518;  -87.385; -286.058; -442.895
722.782;  -99.383; -743.058; -594.895
723.046;  114.144;  614.942;  570.105
723.310;   28.895;  374.942;  210.104
723.574; -100.153; -654.058; -614.896
723.838;  -96.701; -576.057; -642.897
724.102;  -49.699; -226.057; -239.897
724.366; -137.922;-1032.057; -978.897
724.630; -117.146; -749.057; -571.898
724.894;  -75.344; -722.057; -514.898
725.158;  -24.417;   38.944; -295.898
725.422;  -51.540; -394.056; -327.899
725.685;  -73.963; -441.056; -349.899
725.949;  -74.861; -566.056; -519.900
726.213;  -79.735; -732.056; -811.900
726.477;  180.992;-1020.055; -933.900
726.740;  143.569; -274.055; -104.901
727.004;  334.196; -384.055; -510.901
727.268; 3219.298; -442.055; -400.901
727.531;  861.324; -961.055; -775.902
727.795;  -60.249; -713.054; -673.902
728.059;  -66.297; -552.054; -557.903
728.322;  -77.345; -841.054; -669.903
728.586;   36.382; -692.054; -701.903
728.849;  -80.416; -695.053; -756.904
729.112; -120.715; -812.053; -912.904
729.376; -137.663; -959.053; -905.904
729.639;  -79.886; -536.053; -536.905
729.903; -121.584; -733.053; -699.905
730.166;  -47.557; -437.052; -399.906
730.429;  -45.531; -317.052; -468.906
730.693;  -70.379; -355.052; -894.906
730.956;  209.723;  810.948;  651.093
731.219;  707.625; -310.052; -103.907
731.482;  120.652;-1003.051; -894.907
731.745;   96.079; -794.051; -935.908
732.009;    8.080;  -30.051;   50.092
732.272;  -95.168; -904.051; -771.909
732.535;  -39.191; -300.051; -310.909
732.798; -143.689;-1083.050;-1166.909
733.061;  -72.162; -430.050; -456.910
733.324;    7.639;   31.950; -180.910
733.587;   52.741;  290.950;  365.090
733.850;  -78.007; -973.049;-1050.911
734.113;   27.570;   33.951;   32.089
734.376;   14.422; -328.049; -447.912
734.639;  219.023; 1188.951; 1011.088
734.901;   65.425; -180.049; -402.912
735.164;  542.052; -883.048; -837.913
735.427; 1342.779; -166.048; -355.913
735.690;  109.131; -205.048; -234.913
735.952;  -35.242; -923.048; -925.914
736.215;  -41.391;-1113.048;-1009.914
736.478;   36.761; -771.047; -774.915
736.740;  226.038;   33.953;  129.085
737.003;  741.465; -658.047; -672.915
737.266; 4244.642;  -94.047;   46.084
737.528;  425.068; -682.047; -660.916
737.791;  321.020; -316.046; -327.916
738.053;  806.647;  465.954;  649.083
738.316;10949.149; -162.046; -136.917
738.578; 7318.501; -770.046; -736.918
738.841;  415.978; -382.046; -446.918
739.103;  174.654; -875.045; -777.918
739.365;  488.156;   79.955;  -69.919
739.628;  -11.067; -884.045; -805.919
739.890;  -46.540; -758.045; -710.919
740.152;  -38.188; -692.044; -754.920
740.414;  -19.687; -408.044; -359.920
740.677;  -64.910; -785.044; -634.921
740.939;  -53.383; -587.044; -487.921
741.201;  280.494; -432.044; -572.921
741.463;   25.746; -689.043; -745.922
741.725;   29.597;  -21.043; -199.922
741.987;   53.074;  220.957;  116.078
742.249;    8.776; -751.043; -859.923
742.511;  212.778; -703.043; -794.923
742.773;    6.455; -546.042; -546.924
743.035;  122.732;  796.958;  533.076
743.297;  -33.717; -963.042;-1013.924
743.559;  738.160; -278.042; -262.925
743.821;   70.812; -735.042; -744.925
744.083;   11.639;  -44.041; -149.925
744.345;  -90.259; -869.041; -892.926
744.607;   35.092;   75.959;  122.074
744.868;  -51.831; -490.041; -554.927
745.130; -116.379; -994.041;-1008.927
745.392;   47.623;   -1.040;  -44.927
745.653;  -11.825; -411.040; -378.928
745.915;  137.227;  896.960;  631.072
746.177;   37.203;   35.960;  -43.928
746.438;    1.155; -428.040; -543.929
746.700;  -46.218; -947.039; -988.929
746.961;    7.409; -659.039; -740.930
747.223;  115.636; -190.039;  -74.930
747.484;   88.712; -391.039; -471.930
747.746;  150.664;  -23.038; -106.931
748.007;  119.166; -647.038; -689.931
748.269;  310.868; -468.038; -440.931
748.530;  476.470; -852.038; -638.932
748.791;  260.646; -354.038; -420.932
749.053;  446.098;  286.963;  163.067
749.314;  452.000; -236.037; -169.933
749.575;  515.727; -945.037; -905.933
749.836;  865.954; -217.037;   86.066
750.098; 2598.181;  -60.037;  -21.934
750.359;37660.182;  414.964;  555.066
750.620; 9282.834; -121.036; -220.935
750.881; 1037.936; -585.036; -513.935
751.142; 1391.838; -950.036; -938.936
751.403;17037.415; -789.036; -705.936
751.664; 7238.166;-1034.035; -999.936
751.925;  477.793; -175.035; -262.937
752.186;  275.095; -298.035; -278.937
752.447;  128.422; -590.035; -445.937
752.708;   45.124; -532.035; -648.938
752.969;    0.601; -566.034; -576.938
753.230;  -16.248; -777.034; -672.939
753.491;  -12.321; -650.034; -631.939
753.751;   68.706;  109.966;   19.061
754.012;   77.083;  258.967;  181.060
754.273;   47.435; -174.033;  -71.940
754.534;   -8.539; -487.033; -580.940
754.794;  -86.487; -926.033; -911.941
755.055;  141.015; 1051.967;  881.059
755.316;  -38.083; -700.032; -566.942
755.576;  -27.706; -606.032; -576.942
755.837;  -57.430; -527.032; -695.942
756.097;  -43.653; -530.032; -564.943
756.358;  -74.976; -725.032; -770.943
756.618;  -58.799; -705.031; -641.943
756.879;    5.803; -254.031; -349.944
757.139; -140.870;-1098.031;-1116.944
757.400;  -47.269; -538.031; -553.945
757.660;  -23.842; -365.031; -401.945
757.920;   12.985; -266.030; -228.945
758.181;  -22.388; -468.030; -351.946
758.441;  -89.361; -870.030; -809.946
758.701;  -37.235; -308.030; -215.946
758.961;  -16.858; -220.030; -278.947
759.222;  -50.781; -574.029; -502.947
759.482;  -80.979; -683.029; -723.948
759.742;  -81.352; -706.029; -547.948
760.002;    8.125;  -83.029; -143.948
760.262;   11.276;   50.972;  182.051
760.522;  -39.297; -498.028; -574.949
760.782;  -62.845; -738.028; -612.949
761.042;  -36.218; -618.028; -573.950
761.302;   51.059;   55.972;  -18.950
761.562;   40.935; -164.027; -154.951
761.822;   68.162; -710.027; -551.951
762.082;  -51.036;-1104.027;-1093.951
762.342;   70.366; -328.027; -403.952
762.601;   69.343; -567.027; -506.952
762.861;  364.444; -281.026; -207.952
763.121;  424.171; -406.026; -411.953
763.381; 7522.498; -499.026; -485.953
763.640; 7831.300; -139.026; -307.954
763.900;  339.527; -242.026; -203.954
764.160;   84.079; -458.025; -491.954
764.419;  -24.920; -726.025; -782.955
764.679;  -66.968; -795.025; -726.955
764.939;  -24.416; -124.025; -210.955
765.198;  -79.639; -608.025; -563.956
765.458;  -99.987; -710.024; -612.956
765.717;  -86.186; -454.024; -590.957
765.976;  -71.384; -428.024; -411.957
766.236;  -79.382; -475.024; -610.957
766.495;    7.795;  260.977;   73.042
766.755;  -91.978;-1090.023; -987.958
767.014;    6.624; -594.023; -665.958
767.273;  -63.700; -373.023; -397.959
767.533;  -43.448; -228.023; -307.959
767.792;  -33.221; -151.022; -188.960
768.051;  -61.544; -228.022; -276.960
768.310;  -82.442; -546.022; -650.960
768.569;   -9.791; -161.022;    4.039
768.828;  -19.714; -285.022; -363.961
769.088; -114.312;-1050.021; -942.961
769.347;  -82.660; -755.021; -599.962
769.606;  -99.758; -876.021; -857.962
769.865; -121.982;-1016.021;-1033.963
770.124;   -0.630; -411.021; -336.963
770.383;  -50.803; -778.020; -910.963
770.641;  -14.151; -398.020; -400.964
770.900;  -63.274; -953.020; -846.964
771.159;  -68.772; -851.020; -951.964
771.418;  -16.121; -917.020; -779.965
771.677;  121.506; -224.019; -293.965
771.936;  126.758; -794.019; -865.966
772.194; 2192.985; -465.019; -437.966
772.453;10542.112; -213.019; -391.966
772.712;  735.563;  416.982;  329.033
772.970;  117.565;   32.982;   63.033
773.229;   61.392;  -22.018;  102.033
773.488;  -80.481; -814.018; -770.968
773.746;   42.971;  296.982;  335.032
774.005;   -7.927;  190.983;  -22.969
774.263;   15.649;  243.983;  177.031
774.522;  -90.849; -422.017; -548.969
774.780;  -89.047; -484.017; -417.970
775.039;  -90.045; -551.017; -531.970
775.297;  -46.668; -135.016; -351.970
775.555;  -90.942; -489.016; -612.971
775.814; -132.540; -618.016; -570.971
776.072; -122.463; -749.016; -740.971
776.330; -109.336; -630.016; -520.972
776.589; -130.859; -703.015; -721.972
776.847; -126.332; -645.015; -624.973
777.105; -172.431;-1016.015;-1032.973
777.363;  -92.779; -459.015; -454.973
777.621; -145.477; -660.015; -717.974
777.879;  -25.850;  -42.014;   32.026
778.138; -110.398; -554.014; -717.974
778.396; -117.947; -585.014; -526.975
778.654; -170.770;-1015.014; -970.975
778.912;  -73.568; -269.014; -371.976
779.170; -132.491; -880.013; -803.976
779.427; -176.039; -922.013; -897.976
779.685; -139.613; -880.013; -832.977
779.943;  -94.361; -654.013; -593.977
780.201; -156.409; -964.012; -883.978
780.459; -134.807; -651.012; -610.978
780.717;  -95.180; -440.012; -390.978
780.974; -111.953; -449.012; -490.979
781.232;  -85.977; -358.012; -338.979
781.490;  -91.875; -551.011; -472.979
781.747; -108.323; -555.011; -476.980
782.005;   13.479;  462.989;  254.020
782.263; -172.094; -542.011;-1004.981
782.520;  -88.543; -326.011; -501.981
782.778; -171.966;-1013.010;-1051.981
783.035; -178.239; -962.010; -938.982
783.293;  -53.662; -248.010; -206.982
783.550;  -65.585; -134.010; -198.982
783.808; -129.983; -764.010; -776.983
784.065; -171.932; -745.009; -874.983
784.322;  -53.780;   25.991;  -86.984
784.580; -157.028; -915.009; -771.984
784.837;  -93.951; -392.009; -466.984
785.094; -133.174; -783.009; -762.985
785.352;  -78.598; -304.008; -404.985
785.609; -113.921; -934.008; -839.985
785.866;  -77.969; -345.008; -401.986
786.123;  -70.992; -639.008; -583.986
786.380; -109.015; -665.008; -604.987
786.637;  -36.289; -225.007; -380.987
786.895;  -23.062; -456.007; -543.987
787.152;  -60.685; -135.007; -267.988
787.409;  -41.458; -123.007; -225.988
787.666;  -90.681; -299.006; -378.988
787.923; -121.254; -616.006; -695.989
788.179;  -97.453; -551.006; -584.989
788.436; -119.376; -585.006; -585.990
788.693;  -37.174;  -92.006;  -87.990
788.950;  176.803; -125.005; -112.990
789.207;  218.205; -381.005; -372.991
789.464;  -47.619; -161.005; -301.991
789.720;  -19.192;  150.995;  110.009
789.977; -174.515;-1003.005; -671.992
790.234;  -49.613;   44.996;  -66.992
790.490; -154.136; -884.004;-1031.993
790.747;  -29.059;  -85.004;   22.007
791.004;  -10.483; -426.004; -348.993
791.260;  -89.181; -430.004; -560.994
791.517; -109.504; -843.003; -788.994
791.773;  -72.602; -379.003; -342.994
792.030; -113.700; -596.003; -660.995
792.286; -105.424; -686.003; -636.995
792.543;  -21.672;  -74.002; -159.995
792.799;  -73.570; -584.002; -382.996
793.055; -161.968;-1179.002;-1210.996
793.312; -112.116; -827.002; -816.997
793.568;  -64.815; -746.002; -599.997
793.824;    6.512; -226.001; -284.997
794.081;    7.614; -447.001; -508.998
794.337;   61.391; -664.001; -561.998
794.593; 1372.318; -319.001; -271.999
794.849; 6478.145; -746.001; -772.999
795.105;  320.871; -270.000; -261.999
795.361;   -0.227; -490.000; -457.000
795.617;  -64.400; -875.000; -945.000
795.873;  -54.825; -360.000; -407.000
796.129;  -41.225; -368.000; -306.000
796.385;  -29.725; -124.000; -156.000
796.641;   54.050;  412.000;  550.000
796.897;  -89.675; -666.000; -635.000
797.153;   59.625;  453.000;  357.000
797.409; -106.150; -785.000; -868.000
797.665;  -63.450; -625.000; -732.000
797.921;  -90.200; -775.000; -762.000
798.176;  -66.750; -744.000; -747.000
798.432;  -56.000; -824.000; -596.000
798.688;  -67.675;-1174.000;-1078.000
798.943;   87.325; -165.000; -147.000
799.199;    3.525;-1005.000; -959.000
799.455;  212.250;  369.000;  316.000
799.710;  110.750; -813.000; -380.000
799.966;  275.725; -162.000; -160.000
800.221;  483.875; -638.000; -721.000
800.477;10549.650; -743.000; -710.000
800.732; 8903.650; -773.000; -800.000
800.988;  600.025;  205.000;  -19.000
801.243; 1731.125; -454.000; -344.000
801.498; 7096.775; -814.000; -739.000
801.754;  398.175; -289.000; -163.000
802.009;   57.650; -257.000; -335.000
802.264;  -74.000; -967.000;-1033.000
802.520;   26.925;  222.000;   -3.000
802.775;  -57.275; -524.000; -359.000
803.030;   36.525;  395.000;  356.000
803.285; -115.200; -840.000; -903.000
803.540;  -56.100; -686.000; -699.000
803.795;  -40.875; -648.000; -583.000
804.051;  -48.225; -279.000; -346.000
804.306;   12.400;  168.000;  128.000
804.561;  148.500;  451.000;  362.000
804.816;  127.000;  714.000;  861.000
805.071;   12.700; -185.000; -280.000
805.325;  223.500; -257.000; -427.000
805.580; -118.875; -841.000; -877.000
805.835;  -25.150; -204.000; -297.000
806.090;  -80.925; -760.000; -676.000
806.345;  -19.650; -344.000; -264.000
806.600;  -39.625; -549.000; -632.000
806.854;  -33.200; -408.000; -538.000
807.109;  -26.250; -493.000; -577.000
807.364;    0.875; -407.000; -328.000
807.618;  -10.300; -415.000; -381.000
807.873;   52.250; -470.000; -494.000
808.128;   92.625; -257.000; -518.000
808.382;   99.800; -224.000; -332.000
808.637;   58.700; -440.000; -511.000
808.891;  175.400; -257.000; -180.000
809.146;   98.850; -902.000; -794.000
809.400;  251.775; -848.000; -923.000
809.654;  327.600; -779.000; -551.000
809.909;  511.425; -841.000; -927.000
810.163; 7117.700; -813.000; -651.000
810.418;17489.250; -940.000; -861.000
810.672; 1029.675; -685.000; -690.000
810.926;  726.975; -993.000; -973.000
811.180; 1390.950; -439.000; -372.000
811.434;31299.975;  240.000;  135.000
811.689;11925.300; -231.000; -365.000
811.943;  610.800; -936.000; -953.000
812.197;  297.300; -893.000; -671.000
812.451;  122.200; -379.000; -514.000
812.705;  -25.575; -809.000; -619.000
812.959;  -16.275; -263.000; -388.000
813.213;  -10.525; -283.000; -209.000
813.467;   60.125;  470.000;  253.000
813.721; -117.775; -764.000; -792.000
813.975; -113.675; -826.000; -877.000
814.229;   43.575;  430.000;  353.000
814.482;  -65.550; -517.000; -566.000
814.736; -132.325; -766.000; -744.000
814.990; -148.800; -779.000; -872.000
815.244;  -56.925; -228.000; -285.000
815.497; -106.000; -636.000; -601.000
815.751;  -38.150; -141.000;   82.000
816.005;  -86.375; -470.000; -586.000
816.258;  -63.625; -510.000; -363.000
816.512; -117.850; -693.000; -610.000
816.766;   -9.625;  121.000;  157.000
817.019;   32.925;  148.000;  149.000
817.273; -118.000;-1000.000; -802.000
817.526;  -34.425; -206.000; -173.000
817.779;  -40.800;-1049.000; -960.000
818.033;  -76.975; -693.000; -807.000
818.286; -126.700; -725.000; -792.000
818.540;  -81.450; -403.000; -403.000
818.793; -100.900; -402.000; -489.000
819.046; -106.875; -582.000; -520.000
819.299;  -50.875; -157.000; -166.000
819.553; -120.375; -552.000; -592.000
819.806; -165.525;-1016.000; -838.000
820.059;  -68.350; -334.000; -354.000
820.312;    2.625;  152.000;  185.000
820.565;  -21.600;  110.000;  -27.000
820.818;  -58.450;  -59.000; -173.000
821.071; -168.600;-1041.000; -957.000
821.324; -109.125; -536.000; -540.000
821.577; -104.025; -457.000; -483.000
821.830;  -85.800; -270.000; -172.000
822.083; -125.325; -733.000; -288.000
822.336;  -70.525; -261.000; -167.000
822.589; -141.325; -805.000; -688.000
822.842; -145.525; -875.000; -770.000
823.094; -185.175;-1076.000;-1114.000
823.347; -150.100; -925.000; -729.000
823.600;   24.200;  402.000;  187.000
823.853;  -63.750; -311.000; -267.000
824.105;  -62.375; -331.000; -575.000
824.358; -115.350; -617.000; -716.000
824.611;   19.900;  234.000;   40.000
824.863;  -56.150; -612.000; -591.000
825.116;   41.900;  -33.000;   27.000
825.368;   86.625; -366.000; -372.000
825.621;  144.250; -186.000; -240.000
825.873;   81.275; -704.000; -737.000
826.126;  621.900; -669.000; -641.000
826.378;11723.825; -389.000; -505.000
826.630; 2703.750; -890.000; -898.000
826.883;   31.400; -754.000; -693.000
827.135;   46.900; -279.000; -270.000
827.387; -128.825; -893.000; -839.000
827.639;  -24.425;  -86.000;   32.000
827.892; -131.025; -742.000; -582.000
828.144; -144.750; -848.000; -804.000
828.396;  -46.225;  104.000;  -80.000
828.648; -108.475; -440.000; -333.000
828.900; -163.450; -702.000; -795.000
829.152; -110.250; -684.000; -683.000
829.404;  -56.150; -215.000; -267.000
829.656;    2.550;  321.000;  214.000
829.908;  -26.325;  393.000;  229.000
830.160; -160.475;-1064.000;-1047.000
830.412; -100.750; -481.000; -430.000
830.664; -121.975; -557.000; -665.000
830.916;  -92.950; -268.000; -206.000
831.167; -184.175;-1073.000; -951.000
831.419; -116.250; -623.000; -566.000
831.671; -150.600; -764.000; -809.000
831.923; -108.750; -311.000; -447.000
832.174;  -68.150; -273.000; -331.000
832.426; -125.725; -493.000; -582.000
832.678; -193.600;-1043.000;-1091.000
832.929; -167.650; -947.000; -935.000
833.181;  -65.850; -575.000; -677.000
833.432;  -58.900;  -59.000; -186.000
833.684;  -26.400;  112.000;  -27.000
833.935; -134.425; -610.000; -566.000
834.187; -139.925; -829.000; -823.000
834.438;  -54.825;  -58.000;  -25.000
834.689;  -68.500; -255.000; -123.000
834.941;  -62.300; -343.000; -244.000
835.192; -102.425; -590.000; -533.000
835.443; -110.300; -419.000; -506.000
835.695;   -6.550;  138.000;  -16.000
835.946;  -94.225; -608.000; -378.000
836.197; -104.575; -599.000; -622.000
836.448;  -89.000; -528.000; -395.000
836.699;  -54.300; -253.000; -341.000
836.950;  -22.250;   72.000;    7.000
837.201; -151.475;-1003.000; -987.000
837.452;  -58.500; -356.000; -170.000
837.703; -122.725; -791.000; -737.000
837.954;  -38.650; -205.000; -365.000
838.205;  -92.425;-1029.000;-1008.000
838.456;  158.775; -196.000; -282.000
838.707;    8.000; -423.000; -519.000
838.958;    3.975; -634.000; -647.000
839.209;  278.925;   18.000;   40.000
839.460;  117.100; -439.000; -201.000
839.710;  166.950; -135.000; -297.000
839.961;  426.850;  730.000;  612.000
840.212;  344.800; -382.000; -497.000
840.462; 1161.400; -328.000; -277.000
840.713;18331.375; -571.000; -536.000
840.964; 6989.075;  -62.000; -143.000
841.214;  494.075; -384.000; -624.000
841.465;  568.575; -214.000; -141.000
841.715;  522.900; -417.000; -380.000
841.966;  707.025; -746.000; -685.000
842.216; 9919.050; -330.000; -431.000
842.466;35948.100; -169.000; -313.000
842.717; 1869.000; -964.000; -952.000
842.967;  328.375; -635.000; -641.000
843.217;  279.550;   20.000;   28.000
843.468;   66.550; -104.000; -132.000
843.718;  -34.550; -718.000; -726.000
843.968; -100.475; -837.000; -765.000
844.218;   18.425; -315.000; -262.000
844.469;  -52.125; -577.000; -561.000
844.719;  -89.375; -537.000; -682.000
844.969;  -89.275; -550.000; -580.000
845.219; -145.650; -814.000; -862.000
845.469;  -83.000; -392.000; -342.000
845.719; -133.275; -792.000; -884.000
845.969;  -24.025;  119.000;  174.000
846.219; -114.100; -738.000; -720.000
846.469;   18.650;  464.000;  432.000
846.718;  -48.400; -115.000;   31.000
846.968; -149.875; -827.000; -827.000
847.218;  -54.450; -224.000; -371.000
847.468;   -9.425; -586.000; -555.000
847.718; -134.750; -827.000; -798.000
847.967; -155.825; -826.000; -915.000
848.217;  -85.800; -449.000; -569.000
848.467;  -60.450; -405.000; -376.000
848.716; -114.975; -708.000; -725.000
848.966;   -9.075; -372.000; -358.000
849.215;  -58.550; -428.000; -419.000
849.465; -104.500; -785.000; -615.000
849.714; -149.850;-1132.000;-1150.000
849.964;  -93.600; -551.000; -613.000
850.213;  -30.375; -393.000; -355.000
850.463;   70.675;  137.000;  340.000
850.712;  -13.800; -542.000; -567.000
850.961;   -1.450; -739.000; -678.000
851.211;  103.675; -513.000; -504.000
851.460;  169.700; -635.000; -650.000
851.709;  573.325;  -25.000;   18.000
851.958;10638.650; -912.000; -750.000
852.208;12345.400; -859.000; -879.000
852.457;  453.400; -181.000;  -13.000
852.706;   60.025; -791.000; -823.000
852.955;    8.950; -507.000; -528.000
853.204;  -76.250; -521.000; -461.000
853.453;  -82.150; -418.000; -458.000
853.702; -130.000; -660.000; -750.000
853.951; -112.525; -532.000; -520.000
854.200; -110.325; -613.000; -562.000
854.449; -145.750; -695.000; -661.000
854.698; -103.125; -340.000; -279.000
854.946;  -85.600; -181.000; -284.000
855.195; -163.050; -843.000; -868.000
855.444; -109.375; -395.000; -420.000
855.693; -128.050; -345.000; -432.000
855.941; -112.350; -387.000; -516.000
856.190;  -50.975; -256.000; -382.000
856.439; -132.100; -652.000; -703.000
856.687;  -65.325;  -99.000;  -72.000
856.936; -134.425; -621.000; -323.000
857.184; -179.950;-1067.000;-1020.000
857.433; -119.100; -423.000; -512.000
857.681; -179.475; -989.000; -953.000
857.930;  -78.800; -282.000; -433.000
858.178; -163.700; -856.000; -929.000
858.427; -168.775; -802.000; -781.000
858.675; -128.025; -377.000; -544.000
858.923; -123.050; -527.000; -819.000
859.172; -189.725;-1094.000;-1070.000
859.420; -101.900; -339.000; -239.000
859.668; -140.900; -624.000; -628.000
859.916;  -39.925;  109.000;  115.000
860.164; -116.325; -699.000; -603.000
860.413;  288.200; -878.000; -696.000
860.661;  233.025; -709.000; -577.000
860.909; -105.525; -339.000; -325.000
861.157;  -83.175; -277.000; -444.000
861.405; -137.925; -534.000; -670.000
861.653;   11.325;  310.000;  310.000
861.901;  179.575; -543.000; -613.000
862.149;   -6.550; -801.000; -824.000
862.396;  -91.825; -297.000; -187.000
862.644; -102.975; -368.000; -347.000
862.892;  -39.000;   98.000;  138.000
863.140; -119.125; -549.000; -530.000
863.388; -182.125; -815.000; -759.000
863.635; -143.325; -642.000; -601.000
863.883;  -12.075;  231.000;  190.000
864.131; -108.700; -288.000; -357.000
864.378; -150.925; -675.000; -540.000
864.626; -116.675; -347.000; -415.000
864.873; -129.900; -556.000; -505.000
865.121; -152.625; -714.000; -799.000
865.368;  -69.675; -173.000;   75.000
865.616;  -34.900;  -33.000;  -40.000
865.863;  -88.775; -462.000; -506.000
866.111; -124.025; -795.000; -824.000
866.358;    6.975; -426.000; -420.000
866.605; 2161.150;  -64.000; -804.000
866.853; 2058.275; -621.000; -537.000
867.100;  -56.925; -728.000; -775.000
867.347; -122.175; -672.000; -611.000
867.594; -102.200; -740.000; -714.000
867.841;   69.275;   97.000;   17.000
868.089; -167.025; -746.000; -698.000
868.336; -123.075; -477.000; -420.000
868.583; -152.475; -637.000; -741.000
868.830;  -63.075; -131.000; -170.000
869.077; -170.200; -859.000; -787.000
869.324; -142.225; -502.000; -458.000
869.571; -134.850; -398.000; -430.000
869.818; -139.825; -485.000; -439.000
870.065; -115.125; -439.000; -513.000
870.311; -119.425; -456.000; -542.000
870.558; -108.075; -332.000; -311.000
870.805;  -99.925; -320.000; -384.000
871.052; -107.675; -494.000; -369.000
871.298;  -61.475; -204.000; -131.000
871.545;  -69.525; -151.000; -185.000
871.792;  -95.900; -173.000; -222.000
872.038;  -80.800;   43.000; -126.000
872.285; -141.025; -496.000; -387.000
872.532; -104.425; -357.000; -387.000
872.778;   -2.300;  556.000;  403.000
873.025;  -95.050; -384.000; -359.000
873.271;   25.725;  501.000;  578.000
873.517;  -30.575; -133.000; -209.000
873.764;  -45.950; -193.000;  -80.000
874.010;  -61.875; -143.000; -230.000
874.257;  -51.225;  123.000;   90.000
874.503; -133.250; -579.000; -479.000
874.749;  -70.075;   31.000;  275.000
874.995;  -75.150;  -80.000;  -20.000
875.242; -128.300; -540.000; -478.000
875.488; -114.025; -414.000; -439.000
875.734;  -61.500; -106.000; -234.000
875.980;  201.775; -872.000;-1032.000
876.226;  370.925; -157.000; -255.000
876.472;    4.025;  343.000;  237.000
876.718;  -56.325;  184.000;  158.000
876.964;  -55.725;   56.000;   55.000
877.210; -186.500; -547.000; -677.000
877.456; -159.050; -630.000; -557.000
877.702; -201.575; -821.000; -832.000
877.948; -113.550; -377.000; -497.000
878.193;   -7.225;  361.000;  255.000
878.439; -108.300; -487.000; -472.000
878.685; -105.575; -272.000; -343.000
878.931; -129.550; -618.000; -676.000
879.176;  -88.375; -201.000; -201.000
879.422; -187.975; -933.000; -820.000
879.668;   12.325;   10.000;   79.000
879.913;  152.175;   53.000;  137.000
880.159;  -59.425; -112.000;  -17.000
880.404;  -71.750; -152.000; -162.000
880.650;  -57.725;   91.000;  141.000
880.895; -164.125; -670.000; -710.000
881.141; -132.975; -454.000; -428.000
881.386; -165.150; -503.000; -658.000
881.631;  -93.425; -311.000; -166.000
881.877;  -46.300;  112.000;  -13.000
882.122; -143.925; -684.000; -600.000
882.367;  -92.275; -136.000; -186.000
882.612;  -76.950;  -80.000; -176.000
882.858; -179.550; -877.000; -823.000
883.103; -112.325; -297.000; -267.000
883.348; -148.675; -759.000; -852.000
883.593; -173.700; -677.000; -602.000
883.838;  -56.600; -311.000;  -24.000
884.083;   12.500;  353.000;  288.000
884.328;  -93.450; -564.000; -545.000
884.573;  -65.850; -196.000; -143.000
884.818;  208.875; -694.000; -531.000
885.063;  176.850; -348.000; -315.000
885.308; -108.275; -475.000; -398.000
885.553;  -19.475;  245.000;  325.000
885.797; -127.100; -545.000; -615.000
886.042;  -72.375;    8.000;   58.000
886.287;  -86.825; -253.000; -211.000
886.532;  -59.100;   26.000;  204.000
886.776; -100.550; -407.000; -525.000
887.021; -146.775; -621.000; -574.000
887.265; -164.650; -685.000; -689.000
887.510; -146.650; -557.000; -496.000
887.755; -103.825; -194.000; -164.000
887.999; -163.375; -552.000; -575.000
888.244;  -59.250;  -58.000;  161.000
888.488;   -7.125;  371.000;  393.000
888.732; -132.450; -368.000; -520.000
888.977; -134.375; -622.000; -567.000
889.221; -172.050; -683.000; -659.000
889.465; -137.200; -422.000; -566.000
889.710;  -91.525;  -56.000; -299.000
889.954;   -9.925;  579.000;  467.000
890.198; -158.450; -584.000; -707.000
890.442; -156.175; -716.000; -712.000
890.687; -170.350; -800.000; -753.000
890.931; -105.625; -273.000; -210.000
891.175; -134.725; -502.000; -500.000
891.419;  -94.625; -105.000; -110.000
891.663;  -88.525; -239.000; -112.000
891.907; -171.125; -801.000; -545.000
892.151; -185.800; -920.000; -815.000
892.395; -117.275; -274.000; -387.000
892.638;  -34.275;  408.000;  291.000
892.882; -199.525; -780.000; -867.000
893.126;   13.175;  758.000;  558.000
893.370; -113.200; -167.000; -168.000
893.614; -147.425; -714.000; -715.000
893.857; -110.625; -183.000; -197.000
894.101; -140.750; -527.000; -631.000
894.345;  -52.850;  300.000;  150.000
894.588;   15.850;  569.000;  380.000
894.832;  -90.875; -178.000;  -84.000
895.075;  -89.325;   15.000;  -92.000
895.319; -132.250; -552.000; -420.000
895.563; -120.475; -413.000; -353.000
895.806; -164.075; -628.000; -741.000
896.049;  -49.250; -576.000; -368.000
896.293;   79.150;  527.000;  405.000
896.536;  -76.475; -465.000; -468.000
896.779;  -58.250; -149.000;   -1.000
897.023; -150.425; -751.000; -714.000
897.266;  -50.225;  325.000;  269.000
897.509; -191.950; -900.000; -901.000
897.752;  -46.725;  149.000;  171.000
897.996; -198.225; -972.000; -864.000
898.239;  -57.450;  168.000;  102.000
898.482; -125.525; -431.000; -453.000
898.725;  -48.050;  101.000;   53.000
898.968; -152.125; -609.000; -744.000
899.211; -108.525; -513.000; -361.000
899.454; -119.625; -633.000; -539.000
899.697;  -82.200;   90.000;  -43.000
899.940; -184.350; -761.000; -757.000
900.182; -127.000; -335.000; -405.000
900.425;  -96.700; -150.000; -298.000
900.668;  -25.775;  491.000;  350.000
900.911; -107.375; -292.000; -345.000
901.154;  -59.675;  141.000;   -3.000
901.396; -149.375; -407.000; -412.000
901.639; -147.550; -430.000; -496.000
901.882; -189.675; -790.000; -809.000
902.124;  -85.325;  -29.000; -143.000
902.367; -115.300; -315.000; -361.000
902.609; -137.025; -476.000; -453.000
902.852;  -74.725; -108.000; -260.000
903.094; -122.675; -458.000; -337.000
903.337;  -52.825;  -26.000;   53.000
903.579; -124.175; -228.000; -441.000
903.821; -165.225; -597.000; -744.000
904.064;  -78.450;   85.000;  127.000
904.306;  -92.400; -126.000; -166.000
904.548; -118.275; -152.000; -366.000
904.790; -108.050; -195.000; -340.000
905.033; -147.900; -625.000; -577.000
905.275; -135.500; -513.000; -524.000
905.517;   34.850;  468.000;  256.000
905.759;  -85.725; -667.000; -761.000
906.001; -111.050; -322.000; -369.000
906.243;  -67.200; -162.000; -224.000
906.485;  111.300; -265.000; -207.000
906.727;  113.325; -499.000; -542.000
906.969;  -45.050;  -30.000; -135.000
907.211;  113.225; -316.000; -382.000
907.453;  268.425; -188.000; -237.000
907.695;   -5.575; -158.000; -385.000
907.936;   31.375;  818.000;  706.000
908.178;  -67.275;   92.000; -135.000
908.420;  -88.100; -111.000; -162.000
908.662; -138.625; -633.000; -682.000
908.903;  -93.125; -208.000; -123.000
909.145;  -63.525; -240.000; -305.000
909.386;  -16.450;  315.000;  280.000
909.628;   28.350;  363.000;  397.000
909.870;  -15.225;   29.000;  264.000
910.111; -112.425; -809.000; -949.000
910.353;    4.375; -123.000; -161.000
910.594;   -0.100; -574.000; -606.000
910.835;   64.975; -265.000; -326.000
911.077;  140.800; -503.000; -604.000
911.318;  280.625; -505.000; -471.000
911.559;  426.825; -577.000; -880.000
911.801; 1346.200; -284.000; -280.000
912.042;10674.950;  -50.000; -159.000
912.283;26516.475;  404.000;  371.000
912.524; 3820.900; -396.000; -457.000
912.765;  444.225; -193.000;   79.000
913.006;  220.850; -307.000; -338.000
913.247;   24.325; -270.000; -290.000
913.488;  -11.475;  -43.000;   30.000
913.729;  -90.050; -373.000; -373.000
913.970;  -75.675;  -96.000; -292.000
914.211;  -86.125; -160.000; -198.000
914.452;  -48.900; -118.000;  -11.000
914.693;    7.850;  510.000;  592.000
914.934;   21.950;  510.000;  440.000
915.175;  -71.675;   53.000;  -95.000
915.415;  -81.000; -137.000;   27.000
915.656;  -76.900;  -28.000;  192.000
915.897;  -93.450; -252.000;  -82.000
916.137;  -88.475;   74.000;   -9.000
916.378; -123.100; -573.000; -517.000
916.619; -102.200; -159.000;  -63.000
916.859;  -27.725;  303.000;  330.000
917.100;  127.525; 1655.000; 1070.000
917.340;   48.450;  930.000;  728.000
917.581;   41.275;  965.000;  789.000
917.821;  -28.375; -171.000;  143.000
918.061;   -0.100; -199.000;  -72.000
918.302;  -65.000; -152.000; -211.000
918.542;  -37.700;  -22.000;    3.000
918.782;   36.375;  369.000;  377.000
919.023;  110.425;  360.000;  427.000
919.263; 1821.575; 8131.000;  202.000
919.503; 1110.125; -137.000;  -54.000
919.743;  649.425;  390.000;  266.000
919.983;  260.550; -134.000;  -26.000
920.223;   75.350;  135.000;   14.000
920.463;  132.200;  631.000;  554.000
920.703;  116.325;   84.000;   39.000
920.943;  139.025; -110.000;   90.000
921.183;  210.250; -414.000; -405.000
921.423;  487.550;  307.000;  546.000
921.663;  712.625; -174.000; -257.000
921.903; 1541.125;  237.000;  173.000
922.143; 8733.325;  372.000;  389.000
922.383;32946.950;  158.000;  115.000
922.622;10496.475; -120.000;  -15.000
922.862; 1133.125;  796.000;  785.000
923.102;  423.675;  -51.000;   33.000
923.341;  158.225;   59.000;   74.000
923.581;   65.550;  450.000;  360.000
923.821;    2.100;  301.000;  398.000
924.060;    2.950;  351.000;  193.000
924.300;  -64.900;  -16.000; -128.000
924.539;  -19.450;  584.000;  473.000
924.779;    7.875;  812.000;  597.000
925.018;  -52.975;  247.000;  353.000
925.257;  -20.200;  595.000;  666.000
925.497;  -31.650;  447.000;  412.000
925.736;  -80.450;  -35.000;  102.000
925.975;    6.750;  687.000;  669.000
926.214;   13.500;  907.000;  850.000
926.454;   29.225;  706.000;  757.000
926.693;  -29.500;  419.000;  543.000
926.932;   36.925; 1021.000;  825.000
927.171;   48.300; 1107.000; 1044.000
927.410;   57.150; 1144.000;  967.000
927.649;   21.200;  924.000;  742.000
927.888;  -18.125;  590.000;  564.000
928.127;  -13.675;  680.000;  678.000
928.366;   24.150;  842.000;  826.000
928.605;   44.175;  831.000;  737.000
928.844;  237.500; 1451.000; 1393.000
929.083;  617.600;  770.000;  613.000
929.321;  318.950; 1335.000; 1359.000
929.560;   89.675; 1158.000; 1122.000
929.799;  -35.575;  574.000;  475.000
930.038;   66.150; 1025.000; 1394.000
930.276;  -48.350;  334.000;  397.000
930.515;  -13.325;  827.000;  681.000
930.753;  -17.650;  614.000;  589.000
930.992;  -36.450;  664.000;  717.000
931.230;   -2.025;  847.000;  847.000
931.469;  177.625; 2162.000;  892.000
931.707;   85.900;  840.000;  751.000
931.946;   43.225; 1278.000; 1344.000
932.184;   62.550; 1437.000; 1175.000
932.423;   40.850; 1265.000;  963.000
932.661;   83.325; 1296.000; 1428.000
932.899;   10.050;  987.000;  821.000
933.137;    9.750;  754.000;  564.000
933.376;  146.350; 1664.000; 1335.000
933.614;  161.075; 1759.000; 1196.000
933.852;   49.225; 1357.000; 1171.000
934.090;  130.350; 1722.000; 1747.000
934.328;   93.175; 1252.000; 1457.000
934.566;   92.250; 1431.000; 1110.000
934.804;  123.700; 1263.000; 1309.000
935.042;  425.750; 1861.000; 1850.000
935.280; 1682.775; 2088.000; 2063.000
935.518; 1553.050; 2113.000; 2007.000
935.756;  334.825; 2481.000; 2316.000
935.994;  142.875; 1808.000; 1751.000
936.231;  328.975; 2890.000; 2950.000
936.469;  182.575; 2367.000; 2378.000
936.707;  162.800; 2220.000; 2167.000
936.945;  214.125; 2825.000; 2882.000
937.182;  204.925; 2679.000; 2741.000
937.420;  299.700; 3602.000; 3031.000
937.657;  418.275; 3365.000; 3478.000
937.895;  371.975; 3331.000; 3488.000
938.133;  296.575; 3540.000; 3528.000
938.370;  351.375; 3896.000; 4191.000
938.607;  384.950; 4488.000; 4205.000
938.845;  561.200; 5587.000; 5549.000
939.082;  475.000; 5387.000; 5177.000
939.320;  526.625; 5799.000; 5728.000
939.557;  642.625; 6549.000; 6491.000
939.794;  721.950; 7285.000; 7097.000
940.031;  916.675; 8421.000; 8368.000
940.269; 1093.950; 9552.000; 9107.000
940.506; 1128.550;10901.000;10507.000

