
Integration time [ms]: 100.000
Averaging Nr. [scans]: 40
Smoothing Nr. [pixels]: 0
Data measured with spectrometer [name]: 2101013U2
Wave   ;Sample   ;Dark     ;Reference
[nm]   ;[counts] ;[counts] ;[counts] 

394.013;   88.246; -450.257; -315.536
394.305;  205.693; -461.258; -419.536
394.596; 1667.461; -676.269; -527.514
394.887; 4317.233; -796.268; -654.518
395.178; 1548.622;  145.736;   11.476
395.470;  105.786; -210.263; -356.526
395.761;  159.551;  305.734;  394.479
396.052;  115.251; -545.284; -306.489
396.343;   94.466; -557.276; -454.503
396.634;   68.251; -200.279; -290.497
396.926;   43.854; -618.268; -565.517
397.217;   85.821;   11.725;  -17.504
397.508;   49.567; -366.273; -154.507
397.799;   39.651; -555.279; -571.497
398.090;   36.868; -973.280; -902.495
398.381;  108.981;   11.708;  -11.473
398.672;    6.432; -585.292; -742.473
398.963;   53.083; -348.279; -373.498
399.254;  106.994;   54.709; -209.475
399.545;   -5.078;-1017.266; -883.520
399.836;   69.552; -407.277; -343.501
400.127;   69.600; -205.295; -209.468
400.418;   61.159; -423.274; -392.506
400.709;   52.402; -359.281; -333.493
401.000;   68.074; -268.291; -309.476
401.290;  136.494;  225.698;  115.545
401.581;  100.854; -166.286; -228.485
401.872;   68.740; -542.298; -486.462
402.163;  113.391; -313.296; -252.467
402.454;  157.619; -123.291; -163.475
402.744;  101.355; -844.297; -813.465
403.035;  278.894; -226.293;  -86.471
403.326;  354.761; -366.292; -384.474
403.617;  384.882;  204.701;  165.539
403.907;  439.784; -593.283; -679.490
404.198; 3787.911; -545.307; -599.446
404.489; 9471.190; -618.283; -588.491
404.779; 2646.324; -618.302; -660.456
405.070;  370.321;  -67.304; -174.451
405.360;  577.847; -259.293; -238.472
405.651;  533.388;  125.699;   98.542
405.942;  233.523;  209.714;  127.516
406.232;  153.967; -432.285; -413.487
406.523;  306.438;  641.706;  758.530
406.813;  117.626; -579.286; -644.484
407.104;  287.404;  261.708;  144.527
407.394;  153.584; -604.299; -591.462
407.685;  219.141;  336.715;  222.513
407.975;  128.388; -400.283; -382.490
408.265;  170.988; -134.289; -190.478
408.556;  111.865; -472.291; -459.475
408.846;  244.464;  474.706;  429.530
409.137;  155.624;   -1.288; -216.480
409.427;  130.066; -193.285; -271.487
409.717;   84.146; -776.273; -692.508
410.007;  191.433;    4.715; -170.486
410.298;  170.079; -360.295; -342.469
410.588;  166.963; -495.285; -510.486
410.878;   95.763; -792.287; -873.482
411.168;  170.693; -481.298; -478.463
411.459;  176.406; -295.283; -242.489
411.749;  151.289; -609.292; -507.474
412.039;  136.021; -755.289; -386.480
412.329;  279.067;   40.722;  132.501
412.619;  268.277;  -62.286; -148.485
412.909;  400.716;  639.711;  594.521
413.199;  392.119; -130.280; -251.495
413.490;  438.154;  521.710;  352.523
413.780;  238.074;-1013.279; -913.496
414.070;  438.542;  -46.276;  235.497
414.360;  451.313; -729.278; -666.498
414.650;  616.208; -726.288; -688.482
414.940;  824.723; -538.280; -441.496
415.230; 1308.404;   50.712;   74.519
415.520; 8968.360;  155.730;   66.486
415.809;36305.651; -305.281; -125.493
416.099;27001.104; -388.277; -229.501
416.389; 7936.032;  435.726;  236.494
416.679; 4615.690;   91.738;   85.473
416.969;  875.019; -527.287; -503.483
417.259;  740.776;  341.721;  171.503
417.549; 1007.975;  522.718;  318.508
417.838; 2555.182; -205.268; -147.518
418.128; 8643.461;  650.710;  492.522
418.418; 7007.029; -491.272; -579.509
418.708; 4720.157;    9.726;  -48.506
418.997;18367.952; -474.275; -480.505
419.287;18473.516; -733.273; -790.507
419.577;18001.105; -160.283; -123.489
419.866;57540.002; -588.277; -498.501
420.156;55971.430; -242.270;  -55.513
420.446; 9253.606; -112.263;  -26.526
420.735;  994.397; -376.271; -446.512
421.025;  994.887; 1830.722;  315.502
421.314;  626.145; -203.271; -226.512
421.604;  762.623;   89.732;  233.484
421.893;  494.915; -705.271; -602.511
422.183;  359.181; -487.263; -461.526
422.472;  463.492;  -36.271; -107.511
422.762;  460.780; -416.266; -379.521
423.051;  340.642; -916.276; -916.503
423.341;  387.593; -491.273; -439.507
423.630;  482.587; -121.265;   15.477
423.919;  481.401;   58.725;   49.495
424.209;  547.163;  -31.263;   56.473
424.498;  689.229;   68.732;  161.483
424.787; 1530.212; -535.267; -601.518
425.077; 4406.360;   34.735;   29.478
425.366; 4558.195; -734.262; -744.528
425.655;13181.869;  639.727;  259.493
425.945;34410.485; -313.247; -268.554
426.234;17987.099;  117.741;  300.467
426.523; 7749.981;  -86.259; -350.534
426.812;10332.924;  107.734;  159.480
427.101;15212.918; -127.269; -323.515
427.390;17614.110;  -55.270;  -86.514
427.680; 2430.306; -624.257; -411.538
427.969;  605.620; -330.255; -301.540
428.258;  435.220; -385.257; -477.536
428.547;  558.734;  449.728;  397.490
428.836;  720.415; -421.253; -398.543
429.125;  966.083; -199.259;  -72.534
429.414;  853.994; -330.251; -294.548
429.703; 4743.594; -231.251; -213.548
429.992;14589.899; -938.250; -828.549
430.281; 9139.922; -397.264; -331.524
430.570;  758.982;  -21.252;   32.454
430.859;  585.005;  279.741;  352.466
431.148;  594.005;  636.752;  631.446
431.437;  443.581;  391.748;  367.454
431.725;  298.772; -544.257; -481.536
432.014;  290.825; -845.253; -756.545
432.303;  507.751; -149.239; -105.569
432.592;  662.005; -460.263; -178.525
432.881; 1534.281; -601.248; -437.554
433.169; 9874.821; -343.255;  -61.540
433.458;19907.244;  445.765;  540.424
433.747; 7725.102; -397.261; -289.529
434.036; 1038.720; -275.242; -280.564
434.324; 3050.640; -395.249; -379.551
434.613; 5423.412;   40.757;  159.437
434.902; 1644.439;  333.760;  439.433
435.190;  376.100;   75.761;  295.431
435.479;  256.014;  -52.245;   83.441
435.767;  158.999; -411.244; -427.561
436.056;  304.915; -340.242; -294.563
436.345;  584.342; -372.240; -223.568
436.633;  521.159;   60.750;  383.450
436.922;  301.569;  208.760;  414.432
437.210;  320.782; -194.236;    1.426
437.499;  548.517; -583.235; -432.576
437.787;  620.731; -339.236;  -10.574
438.075;  280.132;   56.761;  162.430
438.364;  271.835;  -44.238;  250.429
438.652;  191.294; -286.226; -138.592
438.941;  168.698;    3.770;  269.415
439.229;   60.878; -665.252; -466.545
439.517;   95.152; -160.234;  -85.577
439.806;   59.764; -501.225; -290.595
440.094;  214.837;  377.766;  650.421
440.382;  103.392; -653.233; -302.580
440.670;  106.341; -361.235; -285.576
440.959;   62.261; -347.223; -170.599
441.247;  101.912; -151.229; -109.587
441.535;   94.975; -266.235;   31.423
441.823;   64.884; -497.234; -305.578
442.111;  203.193;  173.771;  327.412
442.400;  364.038; -628.245; -335.559
442.688;  561.762; -111.234; -620.579
442.976;  283.273; -786.213; -450.617
443.264;   83.472; -324.224; -364.597
443.552;   98.845; -258.226;   51.408
443.840;  169.724;  602.765;  876.423
444.128;  120.541;  265.767;  269.420
444.416;   37.471; -694.228; -312.588
444.704;   63.974; -465.219;  -92.605
444.992;  108.724;   -0.226;  240.407
445.280;   48.774; -517.230;  -94.585
445.568;   39.727; -694.212; -396.618
445.856;  177.303; -174.221;  357.398
446.143;  262.344;  -54.220;   -7.604
446.431;  270.226;  -25.228;  625.411
446.719;  188.198;  489.783;  675.391
447.007;  198.241;  481.769;  705.416
447.295;  203.507;  597.777;  871.402
447.583;  138.434; -464.229;  -34.587
447.870;  161.049; -434.221; -202.601
448.158;  288.247; -104.230;  129.415
448.446;  188.570; -800.219; -338.604
448.733;  189.099;   13.776;  269.403
449.021;  257.252;   60.788;  341.382
449.309;  250.121; -296.210;  208.379
449.596;  297.218;  128.783;   59.392
449.884;  309.991; -571.222; -325.600
450.172;  351.958; -756.227; -406.590
450.459;  741.251;  645.786;  780.387
450.747; 3933.317; -411.218; -147.608
451.034;12452.802;  493.772;  889.411
451.322; 9906.155; -413.214; -170.614
451.609;  815.401;  292.777;  508.403
451.897;  998.351; -550.203; -183.634
452.184; 2882.107; -622.223; -400.598
452.472; 2550.823;   97.792;  269.375
452.759;  423.596;  512.781;  864.395
453.047;  176.224; -407.212; -125.617
453.334;  135.956; -732.219; -216.606
453.621;  121.683; -438.214; -161.615
453.909;  187.916;   13.796;  384.368
454.196;  208.074; -299.199; -123.641
454.483;  353.043;  317.798;  540.364
454.771;  237.802; -215.208;  196.374
455.058;  131.781; -316.207;  102.374
455.345;  208.994;   71.807;  344.347
455.632;  211.110; -128.207;  235.373
455.919;  146.603;  -82.196;  182.354
456.207;   32.005; -774.198; -450.642
456.494;   79.983; -475.200;  -66.639
456.781;   95.062; -399.202; -198.635
457.068;  130.619; -253.206;  -29.628
457.355;   63.720; -698.206; -401.629
457.642;   84.302; -552.205; -290.630
457.929;  121.358; -778.194; -417.651
458.216;  175.999; -575.212; -354.617
458.503;  430.464; -173.193;  -19.652
458.790;  480.774; -864.208; -630.625
459.077;  491.994;  -77.202;  110.364
459.364; 1281.474; -350.195; -210.649
459.651; 2660.566;  -46.206;  220.372
459.938; 1200.437; -864.209; -665.623
460.225;  181.523;  132.799;  276.363
460.512;   35.999; -836.197; -688.645
460.799;  234.115;  -32.218;  320.392
461.086;  223.439; -370.200; -251.640
461.372;   86.905; -509.198; -279.642
461.659;  114.304; -165.196;  108.354
461.946;   88.712; -445.193;  -54.651
462.233;  252.711;  842.800;  888.361
462.519;  563.357; -814.201; -464.639
462.806; 1608.400; -768.197; -497.645
463.093; 1376.563; -445.191;  -66.656
463.380;   52.116; -920.186; -824.664
463.666;   94.627; -259.197;  -18.646
463.953;  157.842; -406.195; -243.648
464.239;  308.742; -173.195;  -77.648
464.526;  416.981;  413.806;  743.350
464.813;  363.178; -565.190; -304.658
465.099;  376.563;  606.807;  607.348
465.386;  330.393;  903.807;  921.348
465.672;   81.275; -694.197; -522.645
465.959;  161.101; -598.188; -520.662
466.245;   75.018; -468.193; -359.652
466.532;  128.565; -109.195;   63.352
466.818;   99.341; -357.186; -216.664
467.104;   86.567; -488.182; -415.672
467.391;   63.531; -628.189; -459.658
467.677;  123.670; -289.186;    9.335
467.964;   74.589; -682.189; -471.660
468.250;  147.299; -331.186; -160.665
468.536;  173.307;   90.811;  180.341
468.822;   70.414; -821.184; -574.668
469.109;  225.495;  351.827;  471.311
469.395;  283.231;  729.808;  787.346
469.681;  288.636;   46.811;  156.341
469.967; 1904.392; -699.188; -382.660
470.254; 4201.927; -494.188; -306.662
470.540; 2569.502; -601.196; -476.646
470.826;  406.406; -488.181; -397.675
471.112;  450.843;  288.816;  113.331
471.398;  166.649; -253.183;  -58.670
471.684;  119.642; -626.177; -447.680
471.970;   84.411; -918.180; -981.675
472.256;  142.104; -521.192; -441.654
472.542;  129.359; -499.171; -434.691
472.828;  138.862; -743.182; -607.672
473.114;  118.464; -380.166; -283.700
473.400;  113.088; -504.175; -293.684
473.686;  123.597; -452.166; -400.701
473.972;  124.357; -230.174; -131.687
474.258;   60.370; -925.173; -843.689
474.544;  375.107; -183.178;   -2.679
474.830;  532.315;  -65.175;   45.316
475.116;  823.630; -123.190; -196.658
475.401; 1105.339; -558.180; -467.676
475.687;  334.712; -725.180; -718.676
475.973;   57.497; -673.181; -770.673
476.259;  352.893;  736.825;  764.315
476.544;  627.627; -539.176; -437.682
476.830; 1437.004; -398.172; -322.690
477.116; 1215.101; -430.177; -336.682
477.401;  233.038;  346.820;  358.324
477.687;   54.288; -289.175; -405.684
477.973;  111.251;   21.819;   28.326
478.258;   27.798; -448.163; -348.706
478.544;   96.105;   21.815;   61.334
478.829;    3.641; -818.171; -738.692
479.115;   38.528; -749.172; -651.690
479.401;   62.926; -444.174; -449.686
479.686;  109.237; -253.180;  -74.676
479.972;   60.013; -886.178; -776.680
480.257;  117.091; -258.166;  -65.700
480.542;  110.846; -614.170; -469.693
480.828;  334.511; 1288.824; 1392.317
481.113;   33.708; -464.176; -426.683
481.399;   64.829; -236.161; -202.711
481.684;   18.440; -620.166; -462.700
481.969;   94.996; -158.159;  -73.713
482.255;   76.034; -439.169; -285.695
482.540;  114.489; -569.178; -441.680
482.825;  118.335; -395.187; -404.663
483.110;  234.138;  -85.169; -105.696
483.396;  445.773; -840.157; -652.718
483.681;  788.182;  543.826;  730.313
483.966;  345.388; -696.160; -700.712
484.251;   70.731; -404.174; -310.687
484.536;   63.179; -356.165; -378.703
484.822;  107.809; -205.173; -218.687
485.107;   44.472; -599.152; -502.726
485.392;  199.111;  662.836;  541.296
485.677;  127.626;  354.832;  163.302
485.962;  194.370;  160.843;  270.283
486.247;  192.483;  -14.162;   -8.707
486.532;  139.642; -178.166; -325.701
486.817;  218.496;  381.839;  431.291
487.102;  210.275; -453.154; -514.722
487.387; 1066.626; -637.156; -652.718
487.672; 1921.018; -154.164;  -38.705
487.957; 1227.380; -394.160; -286.711
488.241;  422.843; -290.150; -314.729
488.526; 1191.049; -280.152; -148.726
488.811; 1958.216; -881.177; -818.680
489.096; 1326.929; -666.154; -702.723
489.381;  732.669;    3.847;  162.275
489.666;  667.953; -428.161; -510.710
489.950;  247.358;  558.846;  627.277
490.235;   32.912; -480.151; -458.728
490.520;   20.377; -756.161; -723.710
490.804;   15.803; -827.156; -736.719
491.089;   78.988; -469.149; -299.732
491.374;   84.866; -132.164;  -75.704
491.658;   30.903; -817.147; -717.735
491.943;  151.204; -657.152; -609.727
492.227;  230.045; -178.155;  -38.721
492.512;   70.395; -294.157; -341.717
492.797;  -18.645; -713.149; -716.731
493.081;    9.781; -588.147; -598.735
493.366;   22.229; -751.161; -635.711
493.650;  268.549;  831.859;  917.254
493.935;  111.027; -648.147; -447.734
494.219;   17.233; -778.142; -687.743
494.503;   25.649; -585.150; -487.730
494.788;   84.784;   46.842;   74.285
495.072;  155.870;  184.850;  434.271
495.356;  253.067; -463.148; -343.733
495.641;  548.315; -812.146; -736.736
495.925;  458.259; -976.156; -903.719
496.209;   61.587; -599.149; -451.732
496.494;   16.834; -763.142; -544.744
496.778;   62.625; -364.154; -360.722
497.062;   -1.516; -819.156; -627.719
497.346;   54.233; -869.160; -640.711
497.631;  194.222;  580.852;  560.266
497.915;  140.603;  -64.145;  175.261
498.199;   82.448; -341.157; -277.718
498.483;   86.146; -562.152; -508.725
498.767;  271.371;  301.850;  300.271
499.051;  305.785; -126.149; -100.732
499.335;  112.632; -693.149; -739.731
499.619;   20.303; -381.129; -423.767
499.903;   64.468; -272.155;  -65.721
500.187;   71.609; -588.153; -316.724
500.471;   65.753; -796.152; -595.727
500.755;  133.777;   62.839;  -96.710
501.039;   42.294; -270.155; -357.721
501.323;  108.626;  -21.141;  264.254
501.607;   52.474; -447.163; -503.706
501.891;   33.325; -607.156; -512.718
502.174;  -14.958; -726.144; -585.741
502.458;  102.958;   89.849;  370.273
502.742;   77.332; -180.138; -191.751
503.026;  210.576; -412.147; -254.734
503.310;  337.794; -437.159; -375.713
503.593;  223.929; -464.147; -325.735
503.877;  170.483; -232.133; -156.760
504.161;  217.213;    2.847;  -50.724
504.444;  222.212; -841.158; -710.716
504.728;  803.715; -487.164; -522.704
505.012; 1125.942; -257.150;  -76.729
505.295;  851.929; -417.161; -212.711
505.579;  860.759; -256.156; -496.719
505.862; 1228.248; -555.145; -333.738
506.146; 1224.122; -681.159; -758.714
506.429;  607.623;  568.841;  461.286
506.713;  182.014; -732.151; -667.728
506.996;  530.175;   90.846;  295.278
507.280;  588.559; -633.165; -474.703
507.563;  413.341; -469.155; -261.721
507.847;  219.110; -423.153; -112.724
508.130;  219.580; -665.161; -456.711
508.413;  251.185; -758.167; -577.700
508.697;  450.611; -151.167;   12.300
508.980;  300.837; -422.153; -312.724
509.263;   56.912; -466.155; -450.720
509.547;   84.792; -124.150;   82.271
509.830;   89.982; -172.160;  140.289
510.113;  117.858;  128.844;  298.281
510.396;   78.219; -530.152; -300.725
510.680;   57.825; -818.145; -812.738
510.963;  224.630;  184.846;  180.277
511.246;  148.827; -493.150; -357.730
511.529;  296.406; -482.145;  -83.739
511.812;  622.354; -250.134;   10.241
512.095;  472.085; -740.151; -396.728
512.378;  129.884; -317.147; -245.736
512.661;  120.391; -703.137; -623.753
512.944;  123.735; -750.142; -637.744
513.227;  133.488; -170.137; -171.752
513.510;   95.842; -479.144; -671.741
513.793;   84.582; -485.140; -435.747
514.076;  188.404;  -43.127;  -39.771
514.359;  205.539; -294.149; -135.732
514.642;  163.539; -442.142; -567.744
514.925; 1129.455;  581.860;  561.253
515.208; 1635.974; -498.134; -443.758
515.491; 1007.842; -276.133; -182.761
515.773;  600.397; -410.143; -337.742
516.056; 3168.624;  249.864;  409.246
516.339; 4168.780; -754.136; -652.755
516.622; 1933.949; -518.150; -488.730
516.904;  547.831;  882.857;  975.257
517.187;  219.886; -730.138; -523.752
517.470;  422.079; -568.143; -510.743
517.752;  733.633; -624.136; -470.756
518.035;  604.995; -708.139; -725.749
518.318;  608.830; -799.136; -744.755
518.600; 3854.771; -300.132; -325.762
518.883; 5290.413;  310.858;   88.256
519.165; 2403.102; -585.138; -426.751
519.448;  479.246;  -61.132;  -19.762
519.730;  257.164; -573.126; -415.773
520.013;  273.262;  588.867;  664.240
520.295;  299.906;  -94.134;  -15.759
520.578;  589.962; -335.131; -305.764
520.860;  810.996; -254.132;   56.238
521.143;  607.711; -763.135; -584.756
521.425;  573.030; -251.125; -279.775
521.707;  948.055; -622.127; -380.771
521.990; 2720.705; -199.127;  167.229
522.272; 3156.734; -116.140;   -4.748
522.554; 1138.723; -237.143; -157.742
522.836;  262.303;  -24.134;   99.241
523.119;  196.875; -496.148; -189.734
523.401;  206.696; -448.130; -314.766
523.683;  187.967; -865.137; -693.753
523.965;  438.359;  408.862;  260.248
524.247;  463.707;   54.878;  170.220
524.529;  336.956; -451.134; -367.759
524.812;  506.348;   -3.130;  191.234
525.094; 1336.633; -773.138; -631.751
525.376; 2139.617; -143.124;   78.223
525.658; 1299.876; -441.136; -339.754
525.940;  135.158; -805.131; -671.764
526.222;   76.806; -188.136;  -88.755
526.504;  101.705; -190.131;   32.237
526.786;   51.484; -960.133; -647.760
527.068;  125.049; -124.123;  -67.778
527.349;   34.572; -865.137; -774.754
527.631;  144.970; -137.132;   22.238
527.913;  252.154; -664.127; -450.771
528.195;  321.646; -761.125; -639.774
528.477;  388.549;  -93.134;  -30.758
528.759;  277.548; -648.130; -522.766
529.040;  187.322; -569.123; -293.778
529.322;   98.675; -235.125;  -10.774
529.604;  117.901;  -47.130;   93.233
529.886;   62.839; -546.126; -302.773
530.167;  101.791;  232.870;  192.235
530.449;   61.533;    1.853;   63.265
530.731;  107.106; -572.122; -459.779
531.012;  168.408; -513.120; -216.784
531.294;  145.982; -118.116;  -43.792
531.575;  220.205;  290.875;  538.225
531.857;  152.568; -548.135; -266.757
532.138;  145.624; -113.141;   40.254
532.420;  132.638;  294.865;  403.244
532.701;   60.687; -722.133; -751.760
532.983;  204.491;  232.867;  182.239
533.264;   69.886; -243.126;  175.228
533.546;    2.580; -491.136; -508.755
533.827;   71.732;  173.867;   -1.759
534.109;   60.068; -352.135;  -80.757
534.390;  137.726; -725.132; -582.762
534.671;  326.863; -270.135;  -82.756
534.953;  224.151; -751.123; -611.779
535.234;   91.813; -426.117; -255.789
535.515;    1.743; -891.119; -735.785
535.796;   54.249; -431.128; -193.770
536.078;  -44.734;-1050.124; -904.777
536.359;   47.277;  -22.123;    3.221
536.640;   13.123; -480.125; -197.774
536.921;  197.558;  225.871;  143.232
537.202;  540.704;  -87.138;  -16.751
537.483;  683.712;  251.869;  377.236
537.764;  276.816;   17.870;   98.235
538.045;   15.248; -543.134; -371.758
538.326;    7.235; -596.129; -447.768
538.607;  100.106; -686.127; -476.771
538.888;  272.396;   98.879;    5.218
539.169;  319.989; -704.122; -535.781
539.450;  405.606;  236.871;   16.233
539.731;  266.201; -361.121; -182.783
540.012;  174.358;  199.880;  412.216
540.293;  117.710;   82.876;  158.224
540.574;   10.884; -895.113; -717.796
540.855;  508.624;  435.879;  377.218
541.136;  675.636;   47.878;  139.220
541.416;  385.949; -161.130; -220.766
541.697;  331.681; -274.131; -170.763
541.978; 1634.615; -270.135; -315.757
542.259; 2088.306; -211.127; -236.771
542.539;  961.650; -191.116; -186.790
542.820;  228.055;  461.875;  480.225
543.101;  165.902;  -52.145;  -77.738
543.381;   76.480; -638.127; -591.771
543.662;  389.302;  159.873; -254.771
543.942;  999.600; -751.127; -830.770
544.223; 1660.263;  193.878;  161.219
544.504; 1082.066; -275.124; -182.777
544.784;  880.363; -592.126; -408.773
545.065; 2507.504;  104.884; -254.791
545.345; 2954.569;  227.881;   14.215
545.626; 1940.558;  -14.113; -108.796
545.906; 1393.865;   77.869;   98.235
546.186;  609.994;   92.874;  -95.773
546.467;  342.944;   99.877;  -95.778
546.747;  522.199;  264.884;  327.210
547.027;  605.564;   91.876;  111.223
547.308;  581.624; -376.127; -530.770
547.588;  623.986;  299.871;  371.232
547.868;  290.016;  458.870;  588.235
548.149;  294.164;  609.885;  593.207
548.429;  270.803; -347.127; -299.771
548.709;  379.732; -645.120; -461.784
548.989;  769.806;   84.882;   88.213
549.269; 3164.644;   10.868;  139.239
549.550; 7501.625;  215.877;  117.222
549.830; 6685.806; -758.111; -556.799
550.110; 1308.315; -468.110; -320.801
550.390; 1311.382; -128.122;  -56.779
550.670; 1918.202; -868.114; -783.795
550.950; 1337.674; -509.121; -471.782
551.230;  272.569;  549.879;  460.218
551.510;   63.372; -381.121; -326.782
551.790;  110.875; -173.109; -127.803
552.070;  345.069;  940.877; 1181.223
552.350;  717.824; -492.119; -377.786
552.630;  954.016;   -2.121;   77.219
552.909;  551.230;  181.884;   73.209
553.189;  405.652;  -49.132;   33.237
553.469;  391.398; -703.119; -514.786
553.749;  376.933; -469.127; -357.772
554.029;  304.319;   33.883;  -24.790
554.308;  287.844; -154.115;  -37.794
554.588;  150.622; -196.128; -204.770
554.868;  156.575; -366.121;  -47.782
555.147;  292.241; -114.115;  -46.793
555.427;  949.433; -260.116; -250.792
555.707; 6059.888; -284.115; -200.793
555.986; 7438.260; -719.111; -538.800
556.266; 3752.823;   23.884;   72.210
556.546;  275.073; -888.121; -675.782
556.825;  434.300; -657.114; -556.794
557.105; 2780.920; -125.128;   17.230
557.384; 3297.029;  122.884;  187.209
557.664; 1306.132; -717.116; -508.792
557.943;  250.924; -557.121; -411.782
558.222;  337.885; -345.118; -344.788
558.502;  418.792; -116.115;  -76.793
558.781;  750.812;  194.885;  499.208
559.061;  640.859; -232.118; -227.788
559.340;  455.691;  302.883;  353.211
559.619; 1171.398;   93.884;  148.210
559.899; 1697.093; -239.117; -266.789
560.178; 1509.417; -778.115; -593.793
560.457; 4739.720; -623.117; -562.790
560.736; 6710.462; -472.111; -482.800
561.015; 4381.092; -500.128; -502.769
561.295;  544.801;  180.893;  215.193
561.574;  439.714;  119.885;  116.207
561.853;  686.931;  274.891;  303.197
562.132;  780.920;  -45.114;  182.206
562.411;  655.942;  396.879;  553.219
562.690;  281.786; -592.115; -458.792
562.969;  206.717;  472.888;  630.203
563.248;  589.339; 2966.878; 2487.219
563.527;  486.011; -290.111; -408.800
563.806;  675.953; -650.127; -521.771
564.085;  684.695; -297.105; -206.810
564.364;  449.247; -594.117; -405.790
564.643;  791.792; -276.121; -223.781
564.922; 2895.673;  221.890;  397.198
565.201; 2985.903; -640.109; -700.803
565.479; 1261.110; -297.115; -219.792
565.758;  581.120; -810.128; -712.770
566.037;  768.729; -155.109; -100.803
566.316;  398.304; -286.116;  -28.791
566.595;  104.063;  -17.115;  -12.793
566.873;  148.863; -166.111;  -79.801
567.152;   29.891; -490.113; -590.797
567.431;   74.924; -113.116;    6.210
567.709;   88.476; -344.107; -212.807
567.988;  494.149; -810.114; -769.794
568.266;  909.038; -160.115;  -68.793
568.545;  690.180; -644.100; -514.819
568.824;  933.859;  160.885;  356.208
569.102;  956.749; -351.114; -235.794
569.381;  437.133; -492.116; -407.792
569.659;    8.762; -553.113; -553.796
569.938;  134.062; -743.122; -465.780
570.216;  231.857; -225.109; -225.804
570.494;   45.553; -632.114; -572.795
570.773;   74.672;  202.879;  114.218
571.051;   59.073; -373.123; -357.778
571.330;  141.709; -221.113; -174.796
571.608;  114.477; -181.098; -173.823
571.886;  -10.647; -671.111; -581.799
572.164;   -4.900; -739.121; -621.782
572.443;    3.975; -562.105; -512.811
572.721;   -5.830; -399.117; -289.790
572.999;   16.287; -280.117; -168.788
573.277;  129.741;  379.894;  620.191
573.555;  453.144;   94.894;   37.190
573.834; 2134.937;  -86.117; -114.788
574.112; 2403.729;  880.893;  811.193
574.390;  728.937; -143.111;  -96.801
574.668;   44.168;  -91.112;  -61.797
574.946;   44.269; -165.106; -187.810
575.224;   51.227;   71.891;  -16.803
575.502;   28.201; -200.116; -204.791
575.780;  -35.331; -767.112; -829.798
576.058;  252.386; 1589.889; 1004.200
576.336;   17.568; -210.110; -129.801
576.614;   -1.930; -511.112; -340.798
576.891;  158.119; -711.115; -823.794
577.169;  813.343; -158.108; -285.805
577.447;  885.903;  169.893;  202.193
577.725;  382.375;  629.888;  854.201
578.003;   72.748;  -71.112; -371.798
578.280;  169.136; -208.104; -242.812
578.558;  124.492; -450.115; -422.793
578.836;  194.428; -210.114; -145.795
579.114;  109.742; -630.112; -670.797
579.391;  101.189;   -6.117;  -18.789
579.669;  -20.780; -595.114; -704.794
579.947;  278.324; -326.107; -127.806
580.224;  581.099; -692.107; -524.806
580.502;  522.379;  127.893;   76.193
580.779;   64.721;  -42.117;   75.210
581.057;  -38.817; -584.109; -470.804
581.334;  -60.070; -726.102; -695.815
581.612;   69.820;   54.895;  511.190
581.889;   -0.603;  -83.101; -129.818
582.167;   -9.160; -298.099; -190.821
582.444;  -68.085; -845.102; -814.817
582.721;  132.841;  657.899;  715.183
582.999;  109.612; -326.100; -167.821
583.276;  887.653; -812.123; -713.779
583.553; 1163.134; -364.102; -294.816
583.831;  445.582; -607.104; -631.812
584.108;   81.090;  349.892;  174.195
584.385;   60.229; -122.102;  -98.815
584.662;  -22.136; -651.111; -828.801
584.940;   75.888;  204.889;  204.199
585.217;    4.686;  -73.113; -303.796
585.494;   76.024;   71.890;  118.198
585.771;  344.684; -250.109; -354.804
586.048;  816.536; -196.113;  -76.796
586.325;  567.367; -721.110; -773.801
586.602;  156.136;  230.896;  213.188
586.879;   59.682; -499.100; -580.820
587.156;  118.846; -156.105; -331.810
587.433;   33.662; -701.102; -667.817
587.710;  137.095;  152.888;  234.202
587.987;  486.903; -264.105; -236.811
588.264; 1214.847;  315.888;  387.202
588.541; 2007.890;  -61.104;   26.187
588.818; 4039.812;   72.892;  171.196
589.095; 3446.859; -163.104; -174.812
589.371;  587.231; -459.109; -414.804
589.648;   97.804; -581.107; -437.807
589.925;  108.779; -517.114; -621.795
590.202;  111.920; -741.112; -607.798
590.478;  181.205; -166.105;  -73.811
590.755;  411.994; -241.108; -132.806
591.032; 3749.920; -741.110; -699.802
591.308; 5345.828; -732.094; -790.831
591.585; 2738.244; -573.110; -560.802
591.862;  339.489;-1056.102; -950.817
592.138;  160.666; -475.108; -474.805
592.415;  260.687; -486.104; -495.813
592.691; 2160.160;  460.896;  518.188
592.968; 2958.305; -208.098; -123.824
593.244; 1432.999; -695.116; -595.790
593.521;  142.415; -105.102;  -42.817
593.797;   58.208; -810.122; -720.780
594.074;  557.921; -611.096; -588.826
594.350;  955.910;  828.905;  729.172
594.626;  476.964; -303.111; -283.801
594.903;  252.190; -643.101; -645.817
595.179;  290.067;  243.896;  418.187
595.455;   55.780; -136.107; -150.807
595.731;   19.369;  -19.103;  -38.814
596.008;    0.307; -464.111; -434.800
596.284;   91.010; -187.100; -242.820
596.560;  151.261; -501.093; -493.833
596.836;  351.824; -173.105;  -70.810
597.112;  595.792; -582.108; -437.805
597.388;  487.168;  -49.097;  -48.826
597.665;  169.289;  437.887;  530.203
597.941;    1.624; -572.089; -658.839
598.217;   83.399; -323.110; -293.802
598.493;  430.961;   61.891; -204.804
598.769;  830.853; -175.100;  -50.819
599.045;  531.671; -490.108; -562.806
599.321;  143.759; -193.100; -261.820
599.597;  262.160; -355.109; -476.804
599.872;  736.589;  409.896;  429.187
600.148;  593.720;  -61.097; -172.826
600.424;  452.002;   91.893;  202.193
600.700;  419.580; -170.107; -280.807
600.976;  253.913; -442.097; -464.825
601.252;  444.180; -226.109; -272.803
601.527;  414.841; -833.104; -840.813
601.803;  287.431; -453.105; -404.812
602.079;  317.528; -124.100; -118.819
602.354;  923.624; -620.092; -531.835
602.630; 1304.536; -140.113; -482.796
602.906; 3344.272; -910.101; -863.818
603.181;10149.823; -627.119; -534.786
603.457; 8576.967;   98.903; -278.826
603.733; 1301.977; -605.120; -626.783
604.008; 1414.795; -245.106; -164.810
604.284; 4697.367; -636.101; -580.817
604.559; 4076.175;   -3.112;  -42.799
604.835;  774.949; -163.105; -225.810
605.110;  715.640; -732.099; -892.821
605.385; 1069.340;  224.907;  267.167
605.661; 1034.288; -625.095; -729.829
605.936; 1923.296; -664.108; -737.806
606.211; 1547.728;  -17.103; -170.815
606.487;  369.873; -329.114; -376.794
606.762;   99.249; -791.119; -745.786
607.037;   35.249; -501.105; -433.810
607.313;    3.080; -589.096; -574.828
607.588;   36.919; -375.106; -137.810
607.863;  100.671;  -28.101; -143.818
608.138;  277.697;  513.890;  516.198
608.413;  101.945; -576.099; -592.822
608.688;  116.266; -203.108; -267.805
608.964;  356.262; -509.106; -218.809
609.239;  406.195; -107.105; -212.810
609.514;  359.230;  281.895;  240.188
609.789; 1052.986; -187.104; -716.812
610.064; 1392.453; -435.096; -609.827
610.339; 1379.906; -855.109; -799.804
610.614; 1868.884; -131.100; -315.820
610.889; 1024.706;  215.895;  107.188
611.163;  120.882; -407.104; -591.812
611.438;  170.949;   81.886; -167.794
611.713;   82.292; -467.101; -499.817
611.988;  134.995; -144.101; -328.818
612.263;   55.605; -771.102; -717.815
612.538;  316.160;  385.887;  251.204
612.812;  362.511; -832.100; -911.820
613.087;  267.227; -358.098; -338.823
613.362;    9.105; -497.107; -557.807
613.637;   86.648;  261.897;  138.186
613.911;   40.950; -256.092; -345.835
614.186;  228.103; -249.107; -292.807
614.460; 1106.594; -842.081; -758.854
614.735; 1229.529;  -55.087;  -17.843
615.010;  283.241;   43.912;  -82.841
615.284;  365.091;  360.892;  246.195
615.559;  649.048; -792.092; -955.835
615.833;  458.068;  -76.099;  -87.822
616.108;   47.588; -225.090; -390.837
616.382;  200.180;  274.913;  402.156
616.656;  270.139; -241.090; -232.837
616.931;  801.569; -785.099; -700.822
617.205; 1662.216; -973.104; -979.813
617.480; 1536.403;  -91.125;    6.225
617.754;  295.999; -396.125; -128.774
618.028;   75.312; -369.129; -382.768
618.302;  127.364;   73.892;  -25.805
618.577;   17.074; -371.103; -518.815
618.851;  -26.423; -399.109; -600.803
619.125;  -19.094; -335.134; -378.759
619.399;  -17.183; -244.104; -374.813
619.673;  -26.641; -330.115; -515.792
619.947;  -14.322; -333.114; -448.795
620.222;   27.740; -198.110; -204.801
620.496;   28.150;  -47.121;  -96.782
620.770;   58.039; -187.122;  -93.781
621.044;  315.496;  323.895;  346.190
621.318; 1181.228; -653.120; -614.783
621.592; 1049.425; -430.121; -409.783
621.866;  633.176; -476.112; -572.799
622.140;   66.551; -207.116; -356.791
622.413;  107.956;  138.889;  112.200
622.687;    9.942; -746.101; -492.817
622.961;   39.689; -130.108; -143.805
623.235;  -19.367; -633.111; -661.800
623.509;  -71.545; -816.105; -848.811
623.783;   28.825;  -12.107;   48.193
624.056;   -0.095; -254.120; -280.783
624.330;   80.568;   63.888;   -3.797
624.604;  105.897; -271.116; -355.790
624.877;  114.371;  180.890;   26.198
625.151;  110.671; -249.114; -238.794
625.425;  -13.706; -150.103; -283.814
625.698;  -24.609; -367.119; -374.785
625.972;  -66.626; -799.110; -765.802
626.245;   88.024;  685.884;  484.210
626.519;  -38.790; -426.120; -340.784
626.792;    0.730; -192.107; -380.807
627.066;  -57.170; -485.122; -662.779
627.339;  -70.581; -736.110; -663.802
627.613;   65.133;  351.880;  148.216
627.886;   82.751;  187.891; -612.803
628.160;   15.028;  312.880; -161.783
628.433;  -48.094; -695.125; -703.775
628.706;  -54.840; -517.120; -615.784
628.979;   49.139;  296.876;  117.223
629.253;  -53.452; -785.119; -833.786
629.526;  567.511; -334.126; -253.772
629.799;  579.899; -641.123; -479.778
630.072;  330.364; -497.128; -516.769
630.346;   -1.801;-1115.116;-1080.790
630.619;  714.206; -467.107; -545.808
630.892;  916.358;  709.889;  593.200
631.165;  459.441;  790.896;  679.187
631.438;  -15.853;-1092.112;-1055.798
631.711;   70.927;  453.877;  257.221
631.984;  -18.207; -523.117; -624.789
632.257;  -26.861; -636.117; -681.789
632.530;  -22.758; -412.119; -433.785
632.803;   59.518; -109.115;    7.207
633.076;  -50.556; -360.123; -422.777
633.349;   31.344;  173.872;  121.231
633.622;  -24.135; -187.119; -240.785
633.895;  -88.696; -903.120; -823.783
634.167;  -41.736; -496.126; -525.773
634.440;   11.007;  -19.116; -137.792
634.713;    8.646;  -22.119; -120.786
634.986;  104.531;  593.871;  453.233
635.258;  -44.459; -507.115; -597.793
635.531;  105.684;  742.882; -343.788
635.804;  -19.308; -303.117; -318.789
636.077;  -66.047; -830.116; -852.791
636.349;   40.889; -586.115; -474.793
636.622;  451.686; 1695.874; 1392.228
636.894;  390.360; -474.120; -909.784
637.167;  310.103; -836.127; -789.771
637.439;   70.773; -278.128; -213.770
637.712;  -34.687; -312.126; -293.772
637.984;  -52.847; -635.116; -707.791
638.257;  509.245;  515.877;  488.222
638.529;  948.382; -881.125; -924.776
638.802;  432.189; -508.128; -449.769
639.074;  -68.737; -927.122; -952.781
639.346;  -88.280; -942.135; -930.757
639.619;   21.562;  -79.142; -319.744
639.891;   22.580;  -83.122; -168.779
640.163;  -58.768; -689.122; -756.780
640.435;   49.810;  273.878;  103.220
640.708;   22.712;  -72.122; -132.780
640.980;   16.964; -366.122; -362.781
641.252;  244.167;  -25.121;  -71.781
641.524; 2520.244;  580.879;  573.219
641.796; 2734.271;-1094.121; -907.782
642.068;  491.699; -191.121; -300.782
642.340;  -28.724; -486.121; -566.783
642.613;   60.528;  294.880;  323.217
642.885;  -80.094; -787.120; -878.783
643.157;   22.033; -810.120; -658.784
643.428;   97.710;  170.880;  218.216
643.700;  -37.587; -498.120; -425.784
643.972;  -20.310;  -16.119; -133.785
644.244;  -71.483; -474.119; -559.785
644.516;  -45.180; -250.119; -114.786
644.788;   54.822;  662.881;  548.214
645.060;  -12.926;  -12.119; -124.786
645.332;  -67.298; -525.118; -535.787
645.603;   44.454;  479.882;  342.213
645.875;  -59.469; -334.118; -369.787
646.147;  162.609; 1487.882; 1242.212
646.418;    9.736; -931.117; -918.788
646.690;  309.363; -714.117; -715.789
646.962;  123.841; -413.117; -451.789
647.233;   -8.957;   15.883;   11.211
647.505;  -85.105; -595.117; -475.790
647.776;   43.347;  328.884;  229.210
648.048;   30.100; -248.116; -418.790
648.320;  -25.473; -752.116; -679.791
648.591; -132.221;-1055.116; -958.791
648.862;  -78.893; -505.116; -577.792
649.134;   24.134;  115.885;  198.208
649.405;   -2.914; -661.115; -618.792
649.677;  -24.661; -475.115; -598.793
649.948;   25.316; -181.115; -296.793
650.219;    5.293;  -37.115; -147.793
650.491;  -68.729; -431.114; -520.794
650.762;  -98.177; -705.114; -731.794
651.033;  -73.675; -437.114; -424.795
651.304;  -47.372; -743.114; -728.795
651.576;  -29.045; -680.114; -645.795
651.847;  -24.993; -250.113; -140.796
652.118;  -17.065;  -32.113; -189.796
652.389;  -91.613; -639.113; -722.796
652.660;  -20.836; -147.113;  -89.797
652.931; -118.558; -897.112; -871.797
653.202;  -58.756; -382.112; -541.798
653.473;  -45.104; -633.112; -533.798
653.744;  292.199; -595.112; -590.798
654.015;  274.126; -356.112; -303.799
654.286;  -39.122; -642.111; -663.799
654.557;  -15.144; -586.111; -521.799
654.828; -122.292;-1114.111;-1088.800
655.099;  -69.015; -404.111; -291.800
655.370;  -77.937; -427.111; -543.801
655.641; -107.485; -656.110; -714.801
655.911; -102.758; -618.110; -638.801
656.182;  102.845;  437.890;  387.198
656.453;  123.647;  830.890;  746.198
656.724;  -41.251; -466.110; -426.802
656.994;  -67.298; -553.109; -568.803
657.265;  -66.196; -862.109; -873.803
657.536;  -67.294; -500.109; -377.804
657.806;  -84.416; -561.109; -593.804
658.077; -123.214; -866.109; -950.804
658.347;  -68.412; -523.108; -598.805
658.618;  -99.859; -646.108; -694.805
658.888;  -23.732;  -41.108;  112.195
659.159;  -72.305; -432.108; -548.806
659.429;   16.248; -292.108; -349.806
659.700;   64.550; -435.107; -390.807
659.970;   32.752; -370.107; -359.807
660.241;   75.779; -754.107; -921.807
660.511;  816.232; -147.107; -174.808
660.781;  211.484; -793.106; -748.808
661.052;  -30.014; -222.106; -381.808
661.322;  -14.186;   21.894;   -9.809
661.592;   18.241;  257.894;  148.191
661.862;  -77.232; -369.106; -382.810
662.133;  -78.379; -551.105; -502.810
662.403; -109.452; -770.105; -676.810
662.673;  -55.700; -256.105; -213.811
662.943;  -95.122; -612.105; -551.811
663.213;   22.755;  -85.105;  -81.811
663.483;  -66.968; -593.104; -568.812
663.753;  -31.065; -194.104; -152.812
664.023;  -10.438;   68.896;  -32.813
664.293;  -40.611; -319.104; -126.813
664.563;  -97.008; -694.104; -648.813
664.833;  -93.056; -743.103; -608.814
665.103; -102.654; -730.103; -793.814
665.373;  -84.776; -766.103; -806.814
665.643;  -46.324; -863.103; -918.815
665.913;  105.528; -534.103; -714.815
666.182;  274.931; -685.102; -719.816
666.452;  439.758;  -22.102;  -89.816
666.722;   42.635; -724.102; -784.816
666.992; -108.412; -948.102; -921.817
667.261;  -48.860; -824.102; -808.817
667.531;  315.392;  134.899;   45.183
667.801;  951.595; -440.101; -412.818
668.070;  326.747;  714.899;  697.182
668.340;  -71.126; -883.101; -840.819
668.609;  106.277;  588.900;  301.181
668.879;  -49.821; -490.100; -558.819
669.149;  -56.044; -539.100; -516.820
669.418;  -87.391; -698.100; -726.820
669.688;    2.611; -482.100; -666.820
669.957;  185.138; -423.099; -546.821
670.226;    0.566; -268.099; -331.821
670.496;  -84.957; -431.099; -635.822
670.765;  -68.405; -418.099; -501.822
671.034; -118.802; -872.099; -828.822
671.304;   -4.750;   55.902; -111.823
671.573; -130.923;-1085.098; -957.823
671.842;  150.454; -380.098; -294.823
672.112;  112.357; -692.098; -586.824
672.381;   37.559; -239.098; -214.824
672.650; -110.239;-1005.097;-1021.825
672.919;  -60.561; -631.097; -507.825
673.188;  -62.359; -681.097; -878.825
673.457; -115.957;-1101.097;-1143.826
673.726;  -44.329; -579.096; -646.826
673.995;  -12.952; -533.096; -479.826
674.265;    4.150; -263.096; -333.827
674.534;   49.478; -183.096; -235.827
674.802;   67.905; -618.096; -703.828
675.071; 1378.332; -886.095; -801.828
675.340; 6014.110; -464.095; -339.828
675.609; 1942.887;  103.905;   82.171
675.878;  204.164; -949.095; -893.829
676.147;   79.667;  -26.095;   -8.829
676.416;  146.269; -210.094; -294.830
676.685; 1041.721; 1000.906; -622.830
676.953;  214.824; -603.094; -452.831
677.222;   -5.274; -193.094; -273.831
677.491;   -0.272;  -24.094; -127.831
677.759;   14.381;   11.907;  172.168
678.028;   15.308; -279.093; -222.832
678.297;    9.910;   71.907;  197.168
678.565; -128.037; -898.093; -944.833
678.834;  -42.185; -311.093; -268.833
679.102;  -55.458; -411.092; -391.834
679.371; -126.230; -898.092; -727.834
679.639; -129.553; -797.092; -786.834
679.908; -110.601; -794.092; -724.835
680.176; -137.023; -895.091; -941.835
680.445;  -55.996; -346.091; -352.835
680.713;  -12.069;  -58.091;  -23.836
680.982;  -80.866; -523.091; -525.836
681.250;  -81.639; -578.091; -507.837
681.518;  -73.362; -534.090; -751.837
681.787;    2.616; -204.090; -167.837
682.055;  -35.982; -490.090; -422.838
682.323; -120.430; -993.090; -992.838
682.591;   72.973; -216.090; -538.838
682.859;  156.750;    9.911;  -35.839
683.128;   24.627;  232.911;  497.161
683.396; -132.845;-1102.089;-1122.840
683.664;  -23.618; -241.089;   21.160
683.932;    5.634;  144.911;  -76.840
684.200;  -70.089; -576.088; -320.841
684.468;  -10.711;  -73.088; -124.841
684.736;   -5.709; -214.088; -175.841
685.004;  -90.357;-1024.088; -982.842
685.272;   24.246; -880.088; -774.842
685.540;  -37.702; -499.087; -557.843
685.808;  -60.350; -651.087; -682.843
686.076;  -68.672; -894.087; -969.843
686.343;  -13.245; -601.087; -815.844
686.611;   83.957; -195.087; -224.844
686.879;  599.060; -530.086; -553.844
687.147; 4845.887; -483.086; -480.845
687.414; 1464.164;  -12.086; -169.845
687.682;   61.667; -658.086; -757.846
687.950;  443.119;  259.915;  263.154
688.217;   93.171; -792.085; -760.846
688.485;   35.274; -632.085; -636.847
688.753;  809.976;  -11.085; -102.847
689.020;  363.828; -820.085; -851.847
689.288;  -67.569; -853.084; -787.848
689.555;   -1.992; -195.084; -148.848
689.823;  -34.290; -241.084; -345.849
690.090;  -55.412; -546.084; -651.849
690.358; -112.935; -877.084; -897.849
690.625;    6.842;  120.917;   45.150
690.892;  -51.055; -403.083; -369.850
691.160;   -4.403;   72.917;  -35.850
691.427;   10.674;  141.917;  130.149
691.694; -102.548; -855.083; -929.851
691.962; -109.696;-1177.082;-1060.852
692.229;   32.956;  127.918;   56.148
692.496;  112.534;  130.918;  -49.852
692.763;   39.136; -164.082; -201.853
693.031;  -28.187; -739.082; -716.853
693.298;   10.466; -509.081; -368.853
693.565;  420.243; -155.081; -163.854
693.832; 1983.845;   -5.081;   -9.854
694.099;  287.298; -643.081; -642.855
694.366;    1.775; -882.081; -896.855
694.633;    3.702; -920.080; -633.855
694.900;  744.230; 4367.920; -114.856
695.167;  615.157; -214.080; -380.856
695.434;  212.609; -646.080; -623.856
695.701;  267.887;  121.921;  -61.857
695.968;  683.289; -365.079; -361.857
696.234; 1220.116; -415.079; -646.858
696.501;13089.468; -776.079; -614.858
696.768; 7457.321; -554.079; -617.858
697.035;  467.823; -632.078; -667.859
697.302;  110.950; -448.078; -552.859
697.568;   61.353; -458.078; -497.859
697.835;  -16.620; -683.078; -624.860
698.102;    8.832; -498.078; -407.860
698.368;   99.110;  384.923;  396.139
698.635;   -5.163;  -47.077; -424.861
698.901;   15.139; -240.077; -348.861
699.168;  134.092; -534.077; -456.862
699.435;  129.044;  -72.077;  -13.862
699.701;  -71.754; -868.076; -764.862
699.968;   24.374;  144.924; -441.863
700.234;  -59.599; -783.076; -822.863
700.500;  -36.797; -448.076; -539.864
700.767;   16.006;   -1.075;   26.136
701.033; -107.317;-1015.075; -963.864
701.299;  -22.665; -450.075; -483.865
701.566;  121.413;  950.925;  763.135
701.832;   60.815;  -31.075;  -76.865
702.098;  -48.133;-1054.074;-1034.866
702.365;  -50.930;-1098.074;-1030.866
702.631;   36.597;-1038.074;-1063.867
702.897; 1771.599; -765.074; -676.867
703.163; 3397.152;  348.926;  254.133
703.429;  267.779; -256.073; -273.868
703.695;   20.181; -796.073; -792.868
703.961;   70.684; -214.073; -210.868
704.227;  -20.114; -630.073; -725.869
704.493;  172.713;  613.927;  510.131
704.759;   19.941; -565.072; -540.870
705.025;   70.243; -203.072; -194.870
705.291;   40.445; -666.072; -562.870
705.557;  241.423;  719.928;   34.129
705.823;   97.975; -742.072; -694.871
706.089;  258.777; -307.071; -326.871
706.355;  475.155; -315.071; -244.872
706.620; 6960.207; -776.071; -729.872
706.886;11452.784; -309.071; -362.873
707.152; 1210.662; -818.070; -973.873
707.418;   79.264;-1153.070;-1186.873
707.683;   75.816; -550.070; -530.874
707.949;    2.543; -547.070; -578.874
708.215;   36.046; -129.070; -207.874
708.480;    8.398; -520.069; -420.875
708.746;  171.325;   68.931;   28.125
709.011;  -34.647; -578.069; -612.876
709.277;  -46.270; -538.069; -543.876
709.542;  -27.143; -428.069; -387.876
709.808;   24.285;  -59.068;   89.123
710.073;  -59.713; -577.068; -695.877
710.339;   -0.511; -242.068; -228.877
710.604;  161.342; -780.068; -845.878
710.869;  538.119; -277.068; -366.878
711.135;  -43.279; -715.067; -628.879
711.400;  -63.851; -507.067; -608.879
711.665;  -49.424; -404.067; -479.879
711.931;  -71.097; -661.067; -677.880
712.196;  -98.119; -876.067; -954.880
712.461;  192.258; -402.066; -490.880
712.726;  305.110; -727.066; -771.881
712.991;  -69.712; -647.066; -664.881
713.256;  -17.635; -350.066; -332.882
713.521;  -27.133; -417.065; -381.882
713.787;  -33.755; -454.065; -472.882
714.052;   -7.328; -214.065; -400.883
714.317;  -47.801;-1045.065; -981.883
714.581; 1422.027; -374.065; -268.883
714.846; 2392.929; -822.064; -888.884
715.111;  210.481;  261.936;  257.116
715.376;    9.809;  -86.064; -223.885
715.641;   18.936; -365.064; -367.885
715.906;  445.038;   15.936; -551.885
716.171;  203.691;  221.937;  209.114
716.436;   68.743;  -78.063; -104.886
716.700;  -77.505; -818.063; -692.886
716.965; -107.277; -794.063; -807.887
717.230;  -52.825; -339.063; -392.887
717.494;  -12.298;  -40.062; -134.888
717.759;  -68.495; -784.062; -640.888
718.024;   17.082;  269.938;  250.112
718.288;   82.909;  685.938;  395.111
718.553; -120.238; -803.062; -977.889
718.817; -113.611; -883.061; -899.889
719.082;  -36.234; -115.061; -125.890
719.346; -124.656;-1000.061; -947.890
719.611;  -50.129; -300.061; -255.891
719.875;  -70.652; -568.060; -537.891
720.140;  -42.450; -453.060; -603.891
720.404;   67.878; -136.060; -249.892
720.668; 1242.330; -475.060; -411.892
720.933;  558.732;  146.940;  137.108
721.197;  -76.140; -667.059; -600.893
721.461; -104.388; -851.059; -826.893
721.725;    3.239;  -21.059; -250.894
721.990;  -37.308; -284.059; -204.894
722.254;  -23.156;  -26.059; -108.894
722.518;  -41.429; -286.058; -442.895
722.782;  -82.776; -743.058; -594.895
723.046;  155.351;  614.942;  570.105
723.310;   39.153;  374.942;  210.104
723.574;  -79.794; -654.058; -614.896
723.838;  -76.042; -576.057; -642.897
724.102;  -25.665; -226.057; -239.897
724.366; -115.287;-1032.057; -978.897
724.630;  -55.660; -749.057; -571.898
724.894;  -56.233; -722.057; -514.898
725.158;   19.170;   38.944; -295.898
725.422;  -31.103; -394.056; -327.899
725.685;  -30.276; -441.056; -349.899
725.949;  -41.673; -566.056; -519.900
726.213;  -20.996; -732.056; -811.900
726.477;  326.356;-1020.055; -933.900
726.740;  276.484; -274.055; -104.901
727.004;  460.611; -384.055; -510.901
727.268; 4784.138; -442.055; -400.901
727.531; 1677.691; -961.055; -775.902
727.795;   12.643; -713.054; -673.902
728.059;  -20.230; -552.054; -557.903
728.322;  -58.302; -841.054; -669.903
728.586;   85.675; -692.054; -701.903
728.849;  -39.373; -695.053; -756.904
729.112;  -78.120; -812.053; -912.904
729.376;  -93.343; -959.053; -905.904
729.639;  -64.691; -536.053; -536.905
729.903;  -73.888; -733.053; -699.905
730.166;  -28.936; -437.052; -399.906
730.429;  -21.484; -317.052; -468.906
730.693;  -33.856; -355.052; -894.906
730.956;  245.896;  810.948;  651.093
731.219; 1090.223; -310.052; -103.907
731.482;  245.950;-1003.051; -894.907
731.745;  267.428; -794.051; -935.908
732.009;   45.105;  -30.051;   50.092
732.272;  -66.743; -904.051; -771.909
732.535;   -9.740; -300.051; -310.909
732.798; -117.113;-1083.050;-1166.909
733.061;  -21.811; -430.050; -456.910
733.324;   30.142;   31.950; -180.910
733.587;   78.894;  290.950;  365.090
733.850;  -38.929; -973.049;-1050.911
734.113;   59.224;   33.951;   32.089
734.376;   61.676; -328.049; -447.912
734.639;  272.728; 1188.951; 1011.088
734.901;  124.481; -180.049; -402.912
735.164;  683.608; -883.048; -837.913
735.427; 2045.685; -166.048; -355.913
735.690;  214.363; -205.048; -234.913
735.952;   46.465; -923.048; -925.914
736.215;   69.092;-1113.048;-1009.914
736.478;  126.395; -771.047; -774.915
736.740;  323.022;   33.953;  129.085
737.003;  826.324; -658.047; -672.915
737.266; 5939.152;  -94.047;   46.084
737.528;  741.604; -682.047; -660.916
737.791;  500.231; -316.046; -327.916
738.053; 1028.884;  465.954;  649.083
738.316;13573.036; -162.046; -136.917
738.578;12050.663; -770.046; -736.918
738.841;  712.341; -382.046; -446.918
739.103;  316.918; -875.045; -777.918
739.365;  782.370;   79.955;  -69.919
739.628;   68.423; -884.045; -805.919
739.890;   19.650; -758.045; -710.919
740.152;    1.077; -692.044; -754.920
740.414;   35.080; -408.044; -359.920
740.677;   -6.343; -785.044; -634.921
740.939;   17.359; -587.044; -487.921
741.201;  406.712; -432.044; -572.921
741.463;  159.914; -689.043; -745.922
741.725;   46.816;  -21.043; -199.922
741.987;   83.994;  220.957;  116.078
742.249;   83.296; -751.043; -859.923
742.511;  380.048; -703.043; -794.923
742.773;  103.001; -546.042; -546.924
743.035;  159.003;  796.958;  533.076
743.297;   11.355; -963.042;-1013.924
743.559; 1092.007; -278.042; -262.925
743.821;  200.810; -735.042; -744.925
744.083;   47.287;  -44.041; -149.925
744.345;  -45.236; -869.041; -892.926
744.607;   74.367;   75.959;  122.074
744.868;  -23.731; -490.041; -554.927
745.130;  -47.879; -994.041;-1008.927
745.392;   85.824;   -1.040;  -44.927
745.653;   34.901; -411.040; -378.928
745.915;  187.753;  896.960;  631.072
746.177;   92.331;   35.960;  -43.928
746.438;   53.008; -428.040; -543.929
746.700;   21.310; -947.039; -988.929
746.961;   77.538; -659.039; -740.930
747.223;  227.540; -190.039;  -74.930
747.484;  180.417; -391.039; -471.930
747.746;  260.870;  -23.038; -106.931
748.007;  245.997; -647.038; -689.931
748.269;  458.624; -468.038; -440.931
748.530;  825.477; -852.038; -638.932
748.791;  451.054; -354.038; -420.932
749.053;  633.381;  286.963;  163.067
749.314;  717.209; -236.037; -169.933
749.575;  854.836; -945.037; -905.933
749.836; 1288.238; -217.037;   86.066
750.098; 3104.141;  -60.037;  -21.934
750.359;49950.218;  414.964;  555.066
750.620;16497.570; -121.036; -220.935
750.881; 1585.473; -585.036; -513.935
751.142; 1984.600; -950.036; -938.936
751.403;21356.702; -789.036; -705.936
751.664;12279.530;-1034.035; -999.936
751.925;  774.632; -175.035; -262.937
752.186;  462.409; -298.035; -278.937
752.447;  263.787; -590.035; -445.937
752.708;  135.664; -532.035; -648.938
752.969;   74.216; -566.034; -576.938
753.230;   64.219; -777.034; -672.939
753.491;   67.121; -650.034; -631.939
753.751;  122.073;  109.966;   19.061
754.012;  139.001;  258.967;  181.060
754.273;  112.928; -174.033;  -71.940
754.534;   88.955; -487.033; -580.940
754.794;  -48.617; -926.033; -911.941
755.055;  172.985; 1051.967;  881.059
755.316;   -8.888; -700.032; -566.942
755.576;   31.264; -606.032; -576.942
755.837;    0.617; -527.032; -695.942
756.097;   14.294; -530.032; -564.943
756.358;  -43.629; -725.032; -770.943
756.618;   -5.151; -705.031; -641.943
756.879;   38.676; -254.031; -349.944
757.139;  -75.647;-1098.031;-1116.944
757.400;  -21.344; -538.031; -553.945
757.660;   21.358; -365.031; -401.945
757.920;   53.310; -266.030; -228.945
758.181;   32.088; -468.030; -351.946
758.441;  -59.260; -870.030; -809.946
758.701;   -4.908; -308.030; -215.946
758.961;    0.245; -220.030; -278.947
759.222;  -10.303; -574.029; -502.947
759.482;  -50.126; -683.029; -723.948
759.742;  -57.573; -706.029; -547.948
760.002;   30.229;  -83.029; -143.948
760.262;   47.181;   50.972;  182.051
760.522;  -16.541; -498.028; -574.949
760.782;  -23.139; -738.028; -612.949
761.042;  -10.362; -618.028; -573.950
761.302;   76.641;   55.972;  -18.950
761.562;   68.918; -164.027; -154.951
761.822;  150.395; -710.027; -551.951
762.082;    0.598;-1104.027;-1093.951
762.342;   98.000; -328.027; -403.952
762.601;  109.877; -567.027; -506.952
762.861;  471.905; -281.026; -207.952
763.121;  433.457; -406.026; -411.953
763.381; 6857.809; -499.026; -485.953
763.640;10074.512; -139.026; -307.954
763.900;  433.464; -242.026; -203.954
764.160;  119.541; -458.025; -491.954
764.419;   23.469; -726.025; -782.955
764.679;  -63.779; -795.025; -726.955
764.939;    2.098; -124.025; -210.955
765.198;  -58.899; -608.025; -563.956
765.458;  -43.522; -710.024; -612.956
765.717;  -65.795; -454.024; -590.957
765.976;  -33.542; -428.024; -411.957
766.236;  -55.290; -475.024; -610.957
766.495;   28.737;  260.977;   73.042
766.755;  -36.811;-1090.023; -987.958
767.014;   63.592; -594.023; -665.958
767.273;  -32.306; -373.023; -397.959
767.533;  -22.729; -228.023; -307.959
767.792;  -30.851; -151.022; -188.960
768.051;  -41.149; -228.022; -276.960
768.310;  -62.022; -546.022; -650.960
768.569;   -4.819; -161.022;    4.039
768.828;  -16.392; -285.022; -363.961
769.088;  -70.140;-1050.021; -942.961
769.347;  -57.037; -755.021; -599.962
769.606;  -67.360; -876.021; -857.962
769.865;  -84.208;-1016.021;-1033.963
770.124;   15.695; -411.021; -336.963
770.383;   -7.078; -778.020; -910.963
770.641;   46.549; -398.020; -400.964
770.900;  -25.848; -953.020; -846.964
771.159;  -14.746; -851.020; -951.964
771.418;   41.881; -917.020; -779.965
771.677;  205.609; -224.019; -293.965
771.936;  224.111; -794.019; -865.966
772.194; 2153.338; -465.019; -437.966
772.453;14744.166; -213.019; -391.966
772.712; 1187.443;  416.982;  329.033
772.970;  168.795;   32.982;   63.033
773.229;  130.548;  -22.018;  102.033
773.488;  -67.650; -814.018; -770.968
773.746;   64.977;  296.982;  335.032
774.005;   18.355;  190.983;  -22.969
774.263;   43.457;  243.983;  177.031
774.522;  -32.891; -422.017; -548.969
774.780;  -62.238; -484.017; -417.970
775.039;  -80.811; -551.017; -531.970
775.297;   -7.584; -135.016; -351.970
775.555;  -91.856; -489.016; -612.971
775.814; -102.529; -618.016; -570.971
776.072; -117.152; -749.016; -740.971
776.330;  -94.899; -630.016; -520.972
776.589; -110.172; -703.015; -721.972
776.847; -110.870; -645.015; -624.973
777.105; -150.392;-1016.015;-1032.973
777.363;  -73.590; -459.015; -454.973
777.621; -126.413; -660.015; -717.974
777.879;  -11.835;  -42.014;   32.026
778.138;  -92.008; -554.014; -717.974
778.396;  -82.406; -585.014; -526.975
778.654; -145.254;-1015.014; -970.975
778.912;  -49.301; -269.014; -371.976
779.170; -114.099; -880.013; -803.976
779.427; -126.297; -922.013; -897.976
779.685; -114.594; -880.013; -832.977
779.943;  -50.617; -654.013; -593.977
780.201; -143.915; -964.012; -883.978
780.459;  -96.162; -651.012; -610.978
780.717;  -84.710; -440.012; -390.978
780.974;  -85.858; -449.012; -490.979
781.232;  -59.705; -358.012; -338.979
781.490;  -43.828; -551.011; -472.979
781.747;  -87.501; -555.011; -476.980
782.005;   12.152;  462.989;  254.020
782.263; -141.821; -542.011;-1004.981
782.520;  -83.919; -326.011; -501.981
782.778; -156.066;-1013.010;-1051.981
783.035; -150.014; -962.010; -938.982
783.293;  -58.812; -248.010; -206.982
783.550;  -48.484; -134.010; -198.982
783.808; -124.932; -764.010; -776.983
784.065; -129.130; -745.009; -874.983
784.322;  -42.077;   25.991;  -86.984
784.580; -115.375; -915.009; -771.984
784.837;  -93.148; -392.009; -466.984
785.094; -119.520; -783.009; -762.985
785.352;  -57.743; -304.008; -404.985
785.609;  -46.641; -934.008; -839.985
785.866;  -70.963; -345.008; -401.986
786.123;  -25.286; -639.008; -583.986
786.380;  -67.384; -665.008; -604.987
786.637;  -27.456; -225.007; -380.987
786.895;   39.171; -456.007; -543.987
787.152;  -36.277; -135.007; -267.988
787.409;  -31.324; -123.007; -225.988
787.666;  -70.897; -299.006; -378.988
787.923; -101.070; -616.006; -695.989
788.179;  -98.017; -551.006; -584.989
788.436;  -84.890; -585.006; -585.990
788.693;  -21.288;  -92.006;  -87.990
788.950;  189.740; -125.005; -112.990
789.207;  432.392; -381.005; -372.991
789.464;  -39.531; -161.005; -301.991
789.720;    4.147;  150.995;  110.009
789.977; -147.501;-1003.005; -671.992
790.234;  -29.624;   44.996;  -66.992
790.490; -125.672; -884.004;-1031.993
790.747;  -11.619;  -85.004;   22.007
791.004;    8.033; -426.004; -348.993
791.260;  -49.165; -430.004; -560.994
791.517;  -77.687; -843.003; -788.994
791.773;  -18.210; -379.003; -342.994
792.030;  -94.483; -596.003; -660.995
792.286;  -72.805; -686.003; -636.995
792.543;  -16.578;  -74.002; -159.995
792.799;  -36.001; -584.002; -382.996
793.055; -146.998;-1179.002;-1210.996
793.312;  -72.421; -827.002; -816.997
793.568;  -46.169; -746.002; -599.997
793.824;   30.409; -226.001; -284.997
794.081;   58.086; -447.001; -508.998
794.337;  100.888; -664.001; -561.998
794.593; 1112.341; -319.001; -271.999
794.849; 7935.393; -746.001; -772.999
795.105;  556.445; -270.000; -261.999
795.361;   64.873; -490.000; -457.000
795.617;   -9.200; -875.000; -945.000
795.873;  -17.525; -360.000; -407.000
796.129;  -13.325; -368.000; -306.000
796.385;  -11.400; -124.000; -156.000
796.641;   74.500;  412.000;  550.000
796.897;  -60.825; -666.000; -635.000
797.153;   75.275;  453.000;  357.000
797.409;  -74.175; -785.000; -868.000
797.665;  -53.175; -625.000; -732.000
797.921;  -43.700; -775.000; -762.000
798.176;  -18.925; -744.000; -747.000
798.432;   -1.350; -824.000; -596.000
798.688;  -32.300;-1174.000;-1078.000
798.943;  144.475; -165.000; -147.000
799.199;   72.425;-1005.000; -959.000
799.455;  297.525;  369.000;  316.000
799.710;  241.850; -813.000; -380.000
799.966;  432.925; -162.000; -160.000
800.221;  636.825; -638.000; -721.000
800.477;11682.975; -743.000; -710.000
800.732;14788.800; -773.000; -800.000
800.988;  907.700;  205.000;  -19.000
801.243; 1663.800; -454.000; -344.000
801.498; 9981.900; -814.000; -739.000
801.754;  765.150; -289.000; -163.000
802.009;  141.025; -257.000; -335.000
802.264;   13.925; -967.000;-1033.000
802.520;   52.575;  222.000;   -3.000
802.775;  -31.875; -524.000; -359.000
803.030;   73.750;  395.000;  356.000
803.285;  -92.650; -840.000; -903.000
803.540;  -36.300; -686.000; -699.000
803.795;    2.300; -648.000; -583.000
804.051;  -20.100; -279.000; -346.000
804.306;   27.200;  168.000;  128.000
804.561;  184.575;  451.000;  362.000
804.816;  138.125;  714.000;  861.000
805.071;   29.350; -185.000; -280.000
805.325;  344.475; -257.000; -427.000
805.580;  -54.675; -841.000; -877.000
805.835;   -4.300; -204.000; -297.000
806.090;  -48.900; -760.000; -676.000
806.345;   -5.625; -344.000; -264.000
806.600;    0.150; -549.000; -632.000
806.854;    2.675; -408.000; -538.000
807.109;   23.275; -493.000; -577.000
807.364;   18.600; -407.000; -328.000
807.618;   22.550; -415.000; -381.000
807.873;  106.775; -470.000; -494.000
808.128;  152.900; -257.000; -518.000
808.382;  162.050; -224.000; -332.000
808.637;  109.400; -440.000; -511.000
808.891;  230.525; -257.000; -180.000
809.146;  176.850; -902.000; -794.000
809.400;  335.800; -848.000; -923.000
809.654;  430.575; -779.000; -551.000
809.909;  587.550; -841.000; -927.000
810.163; 6215.850; -813.000; -651.000
810.418;23162.925; -940.000; -861.000
810.672; 1557.075; -685.000; -690.000
810.926;  832.200; -993.000; -973.000
811.180; 1424.175; -439.000; -372.000
811.434;29984.450;  240.000;  135.000
811.689;17739.600; -231.000; -365.000
811.943;  881.250; -936.000; -953.000
812.197;  442.925; -893.000; -671.000
812.451;  193.725; -379.000; -514.000
812.705;   22.475; -809.000; -619.000
812.959;    0.250; -263.000; -388.000
813.213;   17.450; -283.000; -209.000
813.467;   69.800;  470.000;  253.000
813.721;  -79.975; -764.000; -792.000
813.975;  -89.650; -826.000; -877.000
814.229;   64.100;  430.000;  353.000
814.482;  -38.875; -517.000; -566.000
814.736; -103.825; -766.000; -744.000
814.990; -117.750; -779.000; -872.000
815.244;  -45.575; -228.000; -285.000
815.497;  -74.750; -636.000; -601.000
815.751;  -14.375; -141.000;   82.000
816.005;  -76.650; -470.000; -586.000
816.258;  -59.250; -510.000; -363.000
816.512;  -91.000; -693.000; -610.000
816.766;    7.925;  121.000;  157.000
817.019;   21.575;  148.000;  149.000
817.273;  -87.675;-1000.000; -802.000
817.526;  -33.975; -206.000; -173.000
817.779;    8.350;-1049.000; -960.000
818.033;  -10.625; -693.000; -807.000
818.286;  -88.900; -725.000; -792.000
818.540;  -71.475; -403.000; -403.000
818.793;  -74.550; -402.000; -489.000
819.046; -103.875; -582.000; -520.000
819.299;  -34.050; -157.000; -166.000
819.553;  -94.800; -552.000; -592.000
819.806; -140.275;-1016.000; -838.000
820.059;  -55.700; -334.000; -354.000
820.312;   30.650;  152.000;  185.000
820.565;  -19.250;  110.000;  -27.000
820.818;  -37.225;  -59.000; -173.000
821.071; -148.825;-1041.000; -957.000
821.324;  -89.050; -536.000; -540.000
821.577;  -96.225; -457.000; -483.000
821.830;  -45.775; -270.000; -172.000
822.083; -116.225; -733.000; -288.000
822.336;  -34.500; -261.000; -167.000
822.589; -114.975; -805.000; -688.000
822.842; -119.100; -875.000; -770.000
823.094; -141.700;-1076.000;-1114.000
823.347; -103.200; -925.000; -729.000
823.600;   10.700;  402.000;  187.000
823.853;  -38.700; -311.000; -267.000
824.105;  -54.825; -331.000; -575.000
824.358;  -75.150; -617.000; -716.000
824.611;   47.275;  234.000;   40.000
824.863;  -19.950; -612.000; -591.000
825.116;   99.100;  -33.000;   27.000
825.368;  149.275; -366.000; -372.000
825.621;  275.600; -186.000; -240.000
825.873;  171.125; -704.000; -737.000
826.126;  661.825; -669.000; -641.000
826.378;14351.300; -389.000; -505.000
826.630; 5504.175; -890.000; -898.000
826.883;  172.275; -754.000; -693.000
827.135;  101.550; -279.000; -270.000
827.387;  -65.075; -893.000; -839.000
827.639;  -11.175;  -86.000;   32.000
827.892; -104.350; -742.000; -582.000
828.144; -123.950; -848.000; -804.000
828.396;  -28.450;  104.000;  -80.000
828.648; -100.600; -440.000; -333.000
828.900; -125.450; -702.000; -795.000
829.152;  -98.950; -684.000; -683.000
829.404;  -43.125; -215.000; -267.000
829.656;   -2.425;  321.000;  214.000
829.908;  -18.725;  393.000;  229.000
830.160; -146.375;-1064.000;-1047.000
830.412;  -77.250; -481.000; -430.000
830.664;  -97.350; -557.000; -665.000
830.916;  -63.075; -268.000; -206.000
831.167; -158.500;-1073.000; -951.000
831.419;  -99.050; -623.000; -566.000
831.671; -133.950; -764.000; -809.000
831.923;  -71.575; -311.000; -447.000
832.174;  -83.650; -273.000; -331.000
832.426; -100.825; -493.000; -582.000
832.678; -183.950;-1043.000;-1091.000
832.929; -145.925; -947.000; -935.000
833.181;  -24.600; -575.000; -677.000
833.432;  -23.325;  -59.000; -186.000
833.684;  -14.675;  112.000;  -27.000
833.935; -109.450; -610.000; -566.000
834.187; -112.050; -829.000; -823.000
834.438;  -32.575;  -58.000;  -25.000
834.689;  -50.100; -255.000; -123.000
834.941;  -40.000; -343.000; -244.000
835.192;  -80.375; -590.000; -533.000
835.443;  -70.500; -419.000; -506.000
835.695;  -26.850;  138.000;  -16.000
835.946;  -88.300; -608.000; -378.000
836.197; -107.025; -599.000; -622.000
836.448;  -62.775; -528.000; -395.000
836.699;  -38.950; -253.000; -341.000
836.950;    5.025;   72.000;    7.000
837.201; -122.075;-1003.000; -987.000
837.452;  -31.100; -356.000; -170.000
837.703;  -86.300; -791.000; -737.000
837.954;  -10.200; -205.000; -365.000
838.205;  -46.175;-1029.000;-1008.000
838.456;  288.650; -196.000; -282.000
838.707;   59.825; -423.000; -519.000
838.958;   58.550; -634.000; -647.000
839.209;  384.850;   18.000;   40.000
839.460;  197.975; -439.000; -201.000
839.710;  234.175; -135.000; -297.000
839.961;  536.675;  730.000;  612.000
840.212;  481.650; -382.000; -497.000
840.462; 1337.075; -328.000; -277.000
840.713;20554.300; -571.000; -536.000
840.964;12320.675;  -62.000; -143.000
841.214;  760.350; -384.000; -624.000
841.465;  740.850; -214.000; -141.000
841.715;  674.375; -417.000; -380.000
841.966;  819.850; -746.000; -685.000
842.216; 7882.650; -330.000; -431.000
842.466;42718.125; -169.000; -313.000
842.717; 3798.950; -964.000; -952.000
842.967;  411.325; -635.000; -641.000
843.217;  373.125;   20.000;   28.000
843.468;  107.450; -104.000; -132.000
843.718;   22.675; -718.000; -726.000
843.968;  -63.625; -837.000; -765.000
844.218;   50.975; -315.000; -262.000
844.469;    3.250; -577.000; -561.000
844.719;  -94.750; -537.000; -682.000
844.969;  -78.975; -550.000; -580.000
845.219; -132.175; -814.000; -862.000
845.469;  -66.250; -392.000; -342.000
845.719; -113.425; -792.000; -884.000
845.969;   -8.825;  119.000;  174.000
846.219; -108.525; -738.000; -720.000
846.469;   28.000;  464.000;  432.000
846.718;  -53.325; -115.000;   31.000
846.968; -110.975; -827.000; -827.000
847.218;  -44.800; -224.000; -371.000
847.468;    8.275; -586.000; -555.000
847.718; -122.850; -827.000; -798.000
847.967; -110.675; -826.000; -915.000
848.217;  -77.450; -449.000; -569.000
848.467;  -44.150; -405.000; -376.000
848.716;  -94.650; -708.000; -725.000
848.966;   31.825; -372.000; -358.000
849.215;  -31.350; -428.000; -419.000
849.465;  -58.225; -785.000; -615.000
849.714; -100.825;-1132.000;-1150.000
849.964;  -29.600; -551.000; -613.000
850.213;   14.925; -393.000; -355.000
850.463;   99.425;  137.000;  340.000
850.712;   60.575; -542.000; -567.000
850.961;   92.925; -739.000; -678.000
851.211;  189.100; -513.000; -504.000
851.460;  292.125; -635.000; -650.000
851.709;  745.125;  -25.000;   18.000
851.958;11530.650; -912.000; -750.000
852.208;20953.850; -859.000; -879.000
852.457;  918.525; -181.000;  -13.000
852.706;  175.350; -791.000; -823.000
852.955;   98.375; -507.000; -528.000
853.204;  -21.725; -521.000; -461.000
853.453;  -49.650; -418.000; -458.000
853.702; -107.475; -660.000; -750.000
853.951;  -84.225; -532.000; -520.000
854.200;  -96.275; -613.000; -562.000
854.449; -122.950; -695.000; -661.000
854.698;  -82.900; -340.000; -279.000
854.946;  -55.400; -181.000; -284.000
855.195; -135.050; -843.000; -868.000
855.444;  -88.775; -395.000; -420.000
855.693; -106.200; -345.000; -432.000
855.941;  -91.975; -387.000; -516.000
856.190;  -31.375; -256.000; -382.000
856.439; -106.575; -652.000; -703.000
856.687;  -52.625;  -99.000;  -72.000
856.936; -104.775; -621.000; -323.000
857.184; -173.700;-1067.000;-1020.000
857.433;  -91.275; -423.000; -512.000
857.681; -149.275; -989.000; -953.000
857.930;  -61.025; -282.000; -433.000
858.178; -162.850; -856.000; -929.000
858.427; -146.250; -802.000; -781.000
858.675; -126.850; -377.000; -544.000
858.923;  -92.875; -527.000; -819.000
859.172; -171.800;-1094.000;-1070.000
859.420;  -77.225; -339.000; -239.000
859.668; -128.925; -624.000; -628.000
859.916;  -22.150;  109.000;  115.000
860.164; -115.925; -699.000; -603.000
860.413;  398.850; -878.000; -696.000
860.661;  510.400; -709.000; -577.000
860.909;  -60.500; -339.000; -325.000
861.157;  -82.350; -277.000; -444.000
861.405; -116.200; -534.000; -670.000
861.653;   28.600;  310.000;  310.000
861.901;  262.350; -543.000; -613.000
862.149;  143.550; -801.000; -824.000
862.396;  -71.025; -297.000; -187.000
862.644;  -93.575; -368.000; -347.000
862.892;  -38.225;   98.000;  138.000
863.140; -101.350; -549.000; -530.000
863.388; -143.200; -815.000; -759.000
863.635; -132.575; -642.000; -601.000
863.883;   -9.500;  231.000;  190.000
864.131;  -99.075; -288.000; -357.000
864.378; -110.800; -675.000; -540.000
864.626;  -99.800; -347.000; -415.000
864.873;  -98.850; -556.000; -505.000
865.121; -117.150; -714.000; -799.000
865.368;  -32.175; -173.000;   75.000
865.616;  -45.350;  -33.000;  -40.000
865.863;  -61.050; -462.000; -506.000
866.111;  -67.950; -795.000; -824.000
866.358;   78.050; -426.000; -420.000
866.605; 2598.700;  -64.000; -804.000
866.853; 3953.925; -621.000; -537.000
867.100;   72.450; -728.000; -775.000
867.347;  -69.425; -672.000; -611.000
867.594;  -62.350; -740.000; -714.000
867.841;  136.850;   97.000;   17.000
868.089; -127.325; -746.000; -698.000
868.336;  -99.550; -477.000; -420.000
868.583; -139.725; -637.000; -741.000
868.830;  -54.500; -131.000; -170.000
869.077; -156.000; -859.000; -787.000
869.324; -131.725; -502.000; -458.000
869.571; -127.575; -398.000; -430.000
869.818;  -94.850; -485.000; -439.000
870.065;  -94.000; -439.000; -513.000
870.311;  -90.900; -456.000; -542.000
870.558; -105.100; -332.000; -311.000
870.805;  -78.250; -320.000; -384.000
871.052; -116.550; -494.000; -369.000
871.298;  -31.875; -204.000; -131.000
871.545;  -58.125; -151.000; -185.000
871.792;  -95.525; -173.000; -222.000
872.038;  -65.300;   43.000; -126.000
872.285; -107.650; -496.000; -387.000
872.532;  -96.800; -357.000; -387.000
872.778;   10.100;  556.000;  403.000
873.025;  -86.975; -384.000; -359.000
873.271;   12.425;  501.000;  578.000
873.517;  -24.150; -133.000; -209.000
873.764;   -4.175; -193.000;  -80.000
874.010;  -54.375; -143.000; -230.000
874.257;  -40.000;  123.000;   90.000
874.503; -115.350; -579.000; -479.000
874.749;  -66.625;   31.000;  275.000
874.995;  -63.325;  -80.000;  -20.000
875.242; -116.525; -540.000; -478.000
875.488;  -98.075; -414.000; -439.000
875.734;  -48.950; -106.000; -234.000
875.980;  271.700; -872.000;-1032.000
876.226;  696.925; -157.000; -255.000
876.472;   -1.250;  343.000;  237.000
876.718;  -31.350;  184.000;  158.000
876.964;  -43.075;   56.000;   55.000
877.210; -129.950; -547.000; -677.000
877.456; -128.275; -630.000; -557.000
877.702; -159.500; -821.000; -832.000
877.948;  -99.325; -377.000; -497.000
878.193;   -1.725;  361.000;  255.000
878.439;  -56.125; -487.000; -472.000
878.685;  -91.550; -272.000; -343.000
878.931; -140.800; -618.000; -676.000
879.176;  -81.025; -201.000; -201.000
879.422; -152.650; -933.000; -820.000
879.668;   35.475;   10.000;   79.000
879.913;  244.125;   53.000;  137.000
880.159;  -12.825; -112.000;  -17.000
880.404;  -50.625; -152.000; -162.000
880.650;  -42.600;   91.000;  141.000
880.895; -153.400; -670.000; -710.000
881.141; -112.050; -454.000; -428.000
881.386; -134.125; -503.000; -658.000
881.631;  -81.675; -311.000; -166.000
881.877;  -22.200;  112.000;  -13.000
882.122; -129.625; -684.000; -600.000
882.367;  -86.700; -136.000; -186.000
882.612;  -71.875;  -80.000; -176.000
882.858; -164.925; -877.000; -823.000
883.103;  -86.100; -297.000; -267.000
883.348; -139.775; -759.000; -852.000
883.593; -132.325; -677.000; -602.000
883.838;  -54.375; -311.000;  -24.000
884.083;   53.900;  353.000;  288.000
884.328;  -92.875; -564.000; -545.000
884.573;  -31.625; -196.000; -143.000
884.818;  279.000; -694.000; -531.000
885.063;  435.100; -348.000; -315.000
885.308;  -82.550; -475.000; -398.000
885.553;   -1.550;  245.000;  325.000
885.797; -127.850; -545.000; -615.000
886.042;  -43.750;    8.000;   58.000
886.287;  -88.625; -253.000; -211.000
886.532;  -48.750;   26.000;  204.000
886.776; -103.775; -407.000; -525.000
887.021; -123.250; -621.000; -574.000
887.265; -145.100; -685.000; -689.000
887.510; -112.975; -557.000; -496.000
887.755; -102.375; -194.000; -164.000
887.999; -121.650; -552.000; -575.000
888.244;  -64.550;  -58.000;  161.000
888.488;    2.725;  371.000;  393.000
888.732; -123.600; -368.000; -520.000
888.977; -121.525; -622.000; -567.000
889.221; -122.425; -683.000; -659.000
889.465; -110.200; -422.000; -566.000
889.710;  -65.850;  -56.000; -299.000
889.954;    1.075;  579.000;  467.000
890.198; -133.400; -584.000; -707.000
890.442; -145.250; -716.000; -712.000
890.687; -157.075; -800.000; -753.000
890.931;  -76.775; -273.000; -210.000
891.175; -128.600; -502.000; -500.000
891.419;  -61.225; -105.000; -110.000
891.663;  -88.625; -239.000; -112.000
891.907; -155.825; -801.000; -545.000
892.151; -162.325; -920.000; -815.000
892.395; -107.550; -274.000; -387.000
892.638;  -25.100;  408.000;  291.000
892.882; -179.175; -780.000; -867.000
893.126;    1.025;  758.000;  558.000
893.370;  -90.525; -167.000; -168.000
893.614; -150.725; -714.000; -715.000
893.857;  -83.275; -183.000; -197.000
894.101; -131.200; -527.000; -631.000
894.345;  -45.100;  300.000;  150.000
894.588;    5.600;  569.000;  380.000
894.832;  -81.525; -178.000;  -84.000
895.075;  -81.125;   15.000;  -92.000
895.319; -130.625; -552.000; -420.000
895.563; -119.650; -413.000; -353.000
895.806; -132.225; -628.000; -741.000
896.049;  -47.300; -576.000; -368.000
896.293;  141.450;  527.000;  405.000
896.536;  -38.600; -465.000; -468.000
896.779;  -38.975; -149.000;   -1.000
897.023; -127.750; -751.000; -714.000
897.266;  -18.200;  325.000;  269.000
897.509; -171.350; -900.000; -901.000
897.752;  -54.550;  149.000;  171.000
897.996; -171.175; -972.000; -864.000
898.239;  -59.975;  168.000;  102.000
898.482; -121.425; -431.000; -453.000
898.725;  -24.600;  101.000;   53.000
898.968; -140.250; -609.000; -744.000
899.211;  -96.925; -513.000; -361.000
899.454; -106.325; -633.000; -539.000
899.697;  -66.400;   90.000;  -43.000
899.940; -153.325; -761.000; -757.000
900.182; -105.850; -335.000; -405.000
900.425;  -85.625; -150.000; -298.000
900.668;  -20.850;  491.000;  350.000
900.911; -109.275; -292.000; -345.000
901.154;  -44.575;  141.000;   -3.000
901.396; -129.625; -407.000; -412.000
901.639; -140.975; -430.000; -496.000
901.882; -164.275; -790.000; -809.000
902.124;  -82.700;  -29.000; -143.000
902.367; -117.250; -315.000; -361.000
902.609; -125.375; -476.000; -453.000
902.852;  -86.125; -108.000; -260.000
903.094; -120.575; -458.000; -337.000
903.337;  -56.075;  -26.000;   53.000
903.579; -101.700; -228.000; -441.000
903.821; -145.975; -597.000; -744.000
904.064;  -61.150;   85.000;  127.000
904.306;  -84.125; -126.000; -166.000
904.548;  -87.175; -152.000; -366.000
904.790;  -97.375; -195.000; -340.000
905.033; -103.575; -625.000; -577.000
905.275; -105.950; -513.000; -524.000
905.517;   57.850;  468.000;  256.000
905.759;    0.625; -667.000; -761.000
906.001;  -75.450; -322.000; -369.000
906.243;  -31.925; -162.000; -224.000
906.485;  172.275; -265.000; -207.000
906.727;  293.525; -499.000; -542.000
906.969;   -3.275;  -30.000; -135.000
907.211;  194.500; -316.000; -382.000
907.453;  466.300; -188.000; -237.000
907.695;  110.025; -158.000; -385.000
907.936;   37.325;  818.000;  706.000
908.178;  -53.875;   92.000; -135.000
908.420;  -66.850; -111.000; -162.000
908.662; -133.350; -633.000; -682.000
908.903;  -68.300; -208.000; -123.000
909.145;  -53.000; -240.000; -305.000
909.386;   16.750;  315.000;  280.000
909.628;   39.675;  363.000;  397.000
909.870;    6.575;   29.000;  264.000
910.111;  -73.425; -809.000; -949.000
910.353;   40.525; -123.000; -161.000
910.594;   21.525; -574.000; -606.000
910.835;  112.050; -265.000; -326.000
911.077;  204.750; -503.000; -604.000
911.318;  342.625; -505.000; -471.000
911.559;  540.775; -577.000; -880.000
911.801; 1378.125; -284.000; -280.000
912.042; 9461.625;  -50.000; -159.000
912.283;31593.025;  404.000;  371.000
912.524; 7020.075; -396.000; -457.000
912.765;  696.100; -193.000;   79.000
913.006;  337.650; -307.000; -338.000
913.247;  130.350; -270.000; -290.000
913.488;   28.825;  -43.000;   30.000
913.729;  -63.100; -373.000; -373.000
913.970;  -58.175;  -96.000; -292.000
914.211;  -69.450; -160.000; -198.000
914.452;  -48.550; -118.000;  -11.000
914.693;   21.525;  510.000;  592.000
914.934;    6.175;  510.000;  440.000
915.175;  -49.800;   53.000;  -95.000
915.415;  -61.125; -137.000;   27.000
915.656;  -54.175;  -28.000;  192.000
915.897;  -87.150; -252.000;  -82.000
916.137;  -67.600;   74.000;   -9.000
916.378; -119.475; -573.000; -517.000
916.619;  -69.625; -159.000;  -63.000
916.859;  -32.325;  303.000;  330.000
917.100;  129.500; 1655.000; 1070.000
917.340;   45.750;  930.000;  728.000
917.581;   56.925;  965.000;  789.000
917.821;   -1.250; -171.000;  143.000
918.061;   83.300; -199.000;  -72.000
918.302;  -20.225; -152.000; -211.000
918.542;    2.750;  -22.000;    3.000
918.782;   67.975;  369.000;  377.000
919.023;  187.975;  360.000;  427.000
919.263; 1493.575; 8131.000;  202.000
919.503; 1876.900; -137.000;  -54.000
919.743;  952.950;  390.000;  266.000
919.983;  514.375; -134.000;  -26.000
920.223;  154.925;  135.000;   14.000
920.463;  207.775;  631.000;  554.000
920.703;  209.000;   84.000;   39.000
920.943;  269.825; -110.000;   90.000
921.183;  374.450; -414.000; -405.000
921.423;  703.450;  307.000;  546.000
921.663; 1021.950; -174.000; -257.000
921.903; 2014.700;  237.000;  173.000
922.143;10195.475;  372.000;  389.000
922.383;43783.450;  158.000;  115.000
922.622;21187.875; -120.000;  -15.000
922.862; 2192.675;  796.000;  785.000
923.102;  747.450;  -51.000;   33.000
923.341;  355.925;   59.000;   74.000
923.581;  153.800;  450.000;  360.000
923.821;   70.175;  301.000;  398.000
924.060;   29.275;  351.000;  193.000
924.300;  -27.625;  -16.000; -128.000
924.539;    4.325;  584.000;  473.000
924.779;   34.750;  812.000;  597.000
925.018;  -38.275;  247.000;  353.000
925.257;   11.525;  595.000;  666.000
925.497;  -29.825;  447.000;  412.000
925.736;  -70.150;  -35.000;  102.000
925.975;    3.925;  687.000;  669.000
926.214;   29.525;  907.000;  850.000
926.454;   27.225;  706.000;  757.000
926.693;  -31.875;  419.000;  543.000
926.932;   33.675; 1021.000;  825.000
927.171;   64.325; 1107.000; 1044.000
927.410;   60.475; 1144.000;  967.000
927.649;   38.175;  924.000;  742.000
927.888;    3.875;  590.000;  564.000
928.127;    5.525;  680.000;  678.000
928.366;   47.200;  842.000;  826.000
928.605;   49.575;  831.000;  737.000
928.844;  266.475; 1451.000; 1393.000
929.083;  853.050;  770.000;  613.000
929.321;  542.600; 1335.000; 1359.000
929.560;   98.450; 1158.000; 1122.000
929.799;   -3.350;  574.000;  475.000
930.038;   82.400; 1025.000; 1394.000
930.276;  -33.150;  334.000;  397.000
930.515;   11.125;  827.000;  681.000
930.753;  -24.975;  614.000;  589.000
930.992;   -6.600;  664.000;  717.000
931.230;   14.200;  847.000;  847.000
931.469;  155.025; 2162.000;  892.000
931.707;   65.025;  840.000;  751.000
931.946;   82.575; 1278.000; 1344.000
932.184;   61.750; 1437.000; 1175.000
932.423;   53.075; 1265.000;  963.000
932.661;   98.600; 1296.000; 1428.000
932.899;   38.675;  987.000;  821.000
933.137;   40.150;  754.000;  564.000
933.376;  192.325; 1664.000; 1335.000
933.614;  200.275; 1759.000; 1196.000
933.852;   76.325; 1357.000; 1171.000
934.090;  146.900; 1722.000; 1747.000
934.328;  130.275; 1252.000; 1457.000
934.566;  128.675; 1431.000; 1110.000
934.804;  187.800; 1263.000; 1309.000
935.042;  615.200; 1861.000; 1850.000
935.280; 2400.325; 2088.000; 2063.000
935.518; 2943.500; 2113.000; 2007.000
935.756;  611.500; 2481.000; 2316.000
935.994;  237.675; 1808.000; 1751.000
936.231;  408.225; 2890.000; 2950.000
936.469;  237.875; 2367.000; 2378.000
936.707;  166.425; 2220.000; 2167.000
936.945;  240.925; 2825.000; 2882.000
937.182;  208.950; 2679.000; 2741.000
937.420;  297.225; 3602.000; 3031.000
937.657;  446.825; 3365.000; 3478.000
937.895;  405.275; 3331.000; 3488.000
938.133;  311.300; 3540.000; 3528.000
938.370;  325.125; 3896.000; 4191.000
938.607;  389.850; 4488.000; 4205.000
938.845;  538.650; 5587.000; 5549.000
939.082;  476.200; 5387.000; 5177.000
939.320;  535.975; 5799.000; 5728.000
939.557;  645.375; 6549.000; 6491.000
939.794;  730.800; 7285.000; 7097.000
940.031;  911.675; 8421.000; 8368.000
940.269; 1175.225; 9552.000; 9107.000
940.506; 1150.475;10901.000;10507.000

