
Integration time [ms]: 100.000
Averaging Nr. [scans]: 40
Smoothing Nr. [pixels]: 0
Data measured with spectrometer [name]: 2101013U2
Wave   ;Sample   ;Dark     ;Reference
[nm]   ;[counts] ;[counts] ;[counts] 

394.013;   50.934; -450.257; -315.536
394.305;  229.657; -461.258; -419.536
394.596; 1090.555; -676.269; -527.514
394.887; 2721.546; -796.268; -654.518
395.178; 1020.902;  145.736;   11.476
395.470;   78.813; -210.263; -356.526
395.761;  195.411;  305.734;  394.479
396.052;  330.180; -545.284; -306.489
396.343;  327.375; -557.276; -454.503
396.634;  113.944; -200.279; -290.497
396.926;  127.544; -618.268; -565.517
397.217;  126.479;   11.725;  -17.504
397.508;   54.770; -366.273; -154.507
397.799;   50.294; -555.279; -571.497
398.090;   -7.012; -973.280; -902.495
398.381;  120.081;   11.708;  -11.473
398.672;   -9.743; -585.292; -742.473
398.963;   49.475; -348.279; -373.498
399.254;  109.766;   54.709; -209.475
399.545;  -28.542;-1017.266; -883.520
399.836;   64.439; -407.277; -343.501
400.127;   52.957; -205.295; -209.468
400.418;   62.215; -423.274; -392.506
400.709;   61.250; -359.281; -333.493
401.000;   57.945; -268.291; -309.476
401.290;  103.619;  225.698;  115.545
401.581;   59.538; -166.286; -228.485
401.872;   18.955; -542.298; -486.462
402.163;   38.700; -313.296; -252.467
402.454;   97.167; -123.291; -163.475
402.744;   85.866; -844.297; -813.465
403.035;  466.697; -226.293;  -86.471
403.326;  619.660; -366.292; -384.474
403.617;  376.849;  204.701;  165.539
403.907;  255.936; -593.283; -679.490
404.198; 2420.124; -545.307; -599.446
404.489; 6258.166; -618.283; -588.491
404.779; 2077.598; -618.302; -660.456
405.070;  237.051;  -67.304; -174.451
405.360;  350.524; -259.293; -238.472
405.651;  356.184;  125.699;   98.542
405.942;  181.984;  209.714;  127.516
406.232;  276.898; -432.285; -413.487
406.523;  500.217;  641.706;  758.530
406.813;   86.961; -579.286; -644.484
407.104;  344.155;  261.708;  144.527
407.394;  189.725; -604.299; -591.462
407.685;  151.272;  336.715;  222.513
407.975;   63.890; -400.283; -382.490
408.265;  120.056; -134.289; -190.478
408.556;   75.814; -472.291; -459.475
408.846;  152.068;  474.706;  429.530
409.137;   92.114;   -1.288; -216.480
409.427;   45.648; -193.285; -271.487
409.717;   38.898; -776.273; -692.508
410.007;  135.716;    4.715; -170.486
410.298;   91.010; -360.295; -342.469
410.588;   63.320; -495.285; -510.486
410.878;   34.500; -792.287; -873.482
411.168;  115.232; -481.298; -478.463
411.459;  123.609; -295.283; -242.489
411.749;   58.462; -609.292; -507.474
412.039;   52.988; -755.289; -386.480
412.329;  206.207;   40.722;  132.501
412.619;  209.286;  -62.286; -148.485
412.909;  368.709;  639.711;  594.521
413.199;  349.613; -130.280; -251.495
413.490;  403.549;  521.710;  352.523
413.780;  140.592;-1013.279; -913.496
414.070;  328.951;  -46.276;  235.497
414.360;  371.553; -729.278; -666.498
414.650;  416.946; -726.288; -688.482
414.940;  524.892; -538.280; -441.496
415.230;  956.218;   50.712;   74.519
415.520; 6090.479;  155.730;   66.486
415.809;23956.125; -305.281; -125.493
416.099;18453.866; -388.277; -229.501
416.389; 5097.687;  435.726;  236.494
416.679; 3032.541;   91.738;   85.473
416.969;  500.430; -527.287; -503.483
417.259;  461.194;  341.721;  171.503
417.549;  684.099;  522.718;  318.508
417.838; 1674.171; -205.268; -147.518
418.128; 5428.980;  650.710;  492.522
418.418; 4568.630; -491.272; -579.509
418.708; 3071.513;    9.726;  -48.506
418.997;11617.108; -474.275; -480.505
419.287;12038.944; -733.273; -790.507
419.577;11444.534; -160.283; -123.489
419.866;37766.039; -588.277; -498.501
420.156;38574.125; -242.270;  -55.513
420.446; 6886.109; -112.263;  -26.526
420.735;  885.219; -376.271; -446.512
421.025;  826.802; 1830.722;  315.502
421.314;  697.792; -203.271; -226.512
421.604; 1501.414;   89.732;  233.484
421.893;  866.589; -705.271; -602.511
422.183;  231.709; -487.263; -461.526
422.472;  390.415;  -36.271; -107.511
422.762;  465.689; -416.266; -379.521
423.051;  263.076; -916.276; -916.503
423.341;  331.421; -491.273; -439.507
423.630;  404.170; -121.265;   15.477
423.919;  407.333;   58.725;   49.495
424.209;  373.215;  -31.263;   56.473
424.498;  506.443;   68.732;  161.483
424.787; 1079.900; -535.267; -601.518
425.077; 3349.393;   34.735;   29.478
425.366; 4849.545; -734.262; -744.528
425.655; 9975.097;  639.727;  259.493
425.945;21515.473; -313.247; -268.554
426.234;11863.393;  117.741;  300.467
426.523; 5091.273;  -86.259; -350.534
426.812; 6912.885;  107.734;  159.480
427.101;10239.610; -127.269; -323.515
427.390;12953.654;  -55.270;  -86.514
427.680; 2963.042; -624.257; -411.538
427.969;  497.653; -330.255; -301.540
428.258;  322.009; -385.257; -477.536
428.547;  539.584;  449.728;  397.490
428.836; 1314.294; -421.253; -398.543
429.125; 1885.650; -199.259;  -72.534
429.414;  824.517; -330.251; -294.548
429.703; 3123.492; -231.251; -213.548
429.992; 9358.770; -938.250; -828.549
430.281; 6073.702; -397.264; -331.524
430.570;  587.132;  -21.252;   32.454
430.859;  568.297;  279.741;  352.466
431.148;  417.819;  636.752;  631.446
431.437;  288.207;  391.748;  367.454
431.725;  169.236; -544.257; -481.536
432.014;  116.201; -845.253; -756.545
432.303;  392.269; -149.239; -105.569
432.592;  639.034; -460.263; -178.525
432.881; 1047.970; -601.248; -437.554
433.169; 6173.654; -343.255;  -61.540
433.458;12470.428;  445.765;  540.424
433.747; 5240.101; -397.261; -289.529
434.036;  905.295; -275.242; -280.564
434.324; 2105.858; -395.249; -379.551
434.613; 3635.864;   40.757;  159.437
434.902; 1218.585;  333.760;  439.433
435.190;  597.168;   75.761;  295.431
435.479;  325.521;  -52.245;   83.441
435.767;  107.904; -411.244; -427.561
436.056;  216.916; -340.242; -294.563
436.345;  368.537; -372.240; -223.568
436.633;  391.278;   60.750;  383.450
436.922;  275.289;  208.760;  414.432
437.210;  654.893; -194.236;    1.426
437.499; 1988.601; -583.235; -432.576
437.787; 2195.618; -339.236;  -10.574
438.075;  537.474;   56.761;  162.430
438.364;  728.451;  -44.238;  250.429
438.652;  462.605; -286.226; -138.592
438.941;  140.295;    3.770;  269.415
439.229;    8.104; -665.252; -466.545
439.517;   29.284; -160.234;  -85.577
439.806;   -1.729; -501.225; -290.595
440.094;  195.117;  377.766;  650.421
440.382;  192.071; -653.233; -302.580
440.670;  217.251; -361.235; -285.576
440.959;   24.188; -347.223; -170.599
441.247;   70.281; -151.229; -109.587
441.535;   99.208; -266.235;   31.423
441.823;   39.539; -497.234; -305.578
442.111;  178.285;  173.771;  327.412
442.400;  540.995; -628.245; -335.559
442.688; 1481.067; -111.234; -620.579
442.976; 1056.325; -786.213; -450.617
443.264;   95.327; -324.224; -364.597
443.552;   92.456; -258.226;   51.408
443.840;  173.381;  602.765;  876.423
444.128;   98.720;  265.767;  269.420
444.416;    4.038; -694.228; -312.588
444.704;   20.518; -465.219;  -92.605
444.992;   73.759;   -0.226;  240.407
445.280;   50.745; -517.230;  -94.585
445.568;   32.204; -694.212; -396.618
445.856;  366.427; -174.221;  357.398
446.143;  812.289;  -54.220;   -7.604
446.431;  653.416;  -25.228;  625.411
446.719;  251.112;  489.783;  675.391
447.007;  178.265;  481.769;  705.416
447.295;  189.460;  597.777;  871.402
447.583;   96.829; -464.229;  -34.587
447.870;  163.549; -434.221; -202.601
448.158;  430.744; -104.230;  129.415
448.446;  339.515; -800.219; -338.604
448.733;  177.179;   13.776;  269.403
449.021;  250.203;   60.788;  341.382
449.309;  172.168; -296.210;  208.379
449.596;  216.883;  128.783;   59.392
449.884;  142.042; -571.222; -325.600
450.172;  158.247; -756.227; -406.590
450.459;  441.759;  645.786;  780.387
450.747; 2379.331; -411.218; -147.608
451.034; 7601.317;  493.772;  889.411
451.322; 6200.637; -413.214; -170.614
451.609;  523.280;  292.777;  508.403
451.897;  590.231; -550.203; -183.634
452.184; 1784.285; -622.223; -400.598
452.472; 1673.914;   97.792;  269.375
452.759;  330.690;  512.781;  864.395
453.047;  117.526; -407.212; -125.617
453.334;   73.123; -732.219; -216.606
453.621;   88.264; -438.214; -161.615
453.909;  122.598;   13.796;  384.368
454.196;  113.043; -299.199; -123.641
454.483;  206.194;  317.798;  540.364
454.771;  125.517; -215.208;  196.374
455.058;   37.546; -316.207;  102.374
455.345;   96.298;   71.807;  344.347
455.632;   70.024; -128.207;  235.373
455.919;   56.365;  -82.196;  182.354
456.207;  -54.603; -774.198; -450.642
456.494;   -4.894; -475.200;  -66.639
456.781;   11.189; -399.202; -198.635
457.068;   51.430; -253.206;  -29.628
457.355;   -1.418; -698.206; -401.629
457.642;   -8.388; -552.205; -290.630
457.929;   -4.486; -778.194; -417.651
458.216;   66.676; -575.212; -354.617
458.503;  241.093; -173.193;  -19.652
458.790;  230.165; -864.208; -630.625
459.077;  254.894;  -77.202;  110.364
459.364;  790.632; -350.195; -210.649
459.651; 1688.253;  -46.206;  220.372
459.938;  785.431; -864.209; -665.623
460.225;  153.147;  132.799;  276.363
460.512;  -41.088; -836.197; -688.645
460.799;   96.230;  -32.218;  320.392
461.086;   71.435; -370.200; -251.640
461.372;   42.498; -509.198; -279.642
461.659;  111.291; -165.196;  108.354
461.946;   70.267; -445.193;  -54.651
462.233;  236.408;  842.800;  888.361
462.519;  356.905; -814.201; -464.639
462.806;  993.588; -768.197; -497.645
463.093;  873.762; -445.191;  -66.656
463.380;  -14.447; -920.186; -824.664
463.666;   62.065; -259.197;  -18.646
463.953;   92.727; -406.195; -243.648
464.239;  189.376; -173.195;  -77.648
464.526;  385.837;  413.806;  743.350
464.813;  331.874; -565.190; -304.658
465.099;  367.568;  606.807;  607.348
465.386;  330.247;  903.807;  921.348
465.672;   22.213; -694.197; -522.645
465.959;   24.392; -598.188; -520.662
466.245;    1.447; -468.193; -359.652
466.532;   95.524; -109.195;   63.352
466.818;   60.778; -357.186; -216.664
467.104;   -2.107; -488.182; -415.672
467.391;  -28.199; -628.189; -459.658
467.677;   32.582; -289.186;    9.335
467.964;   13.957; -682.189; -471.660
468.250;   49.559; -331.186; -160.665
468.536;   80.502;   90.811;  180.341
468.822;  -44.454; -821.184; -574.668
469.109;  130.173;  351.827;  471.311
469.395;  188.256;  729.808;  787.346
469.681;  172.905;   46.811;  156.341
469.967; 1245.185; -699.188; -382.660
470.254; 2676.942; -494.188; -306.662
470.540; 1710.090; -601.196; -476.646
470.826;  244.004; -488.181; -397.675
471.112;  296.500;  288.816;  113.331
471.398;   79.204; -253.183;  -58.670
471.684;   47.407; -626.177; -447.680
471.970;  -11.042; -918.180; -981.675
472.256;   17.455; -521.192; -441.654
472.542;   16.734; -499.171; -434.691
472.828;   11.614; -743.182; -607.672
473.114;   23.102; -380.166; -283.700
473.400;   18.623; -504.175; -293.684
473.686;   33.058; -452.166; -400.701
473.972;   61.488; -230.174; -131.687
474.258;  -38.352; -925.173; -843.689
474.544;  187.074; -183.178;   -2.679
474.830;  301.300;  -65.175;   45.316
475.116;  472.350; -123.190; -196.658
475.401;  657.710; -558.180; -467.676
475.687;  179.359; -725.180; -718.676
475.973;   -5.203; -673.181; -770.673
476.259;  244.077;  736.825;  764.315
476.544;  353.640; -539.176; -437.682
476.830;  816.305; -398.172; -322.690
477.116;  706.289; -430.177; -336.682
477.401;  125.109;  346.820;  358.324
477.687;  -29.801; -289.175; -405.684
477.973;   24.950;   21.819;   28.326
478.258;   -7.921; -448.163; -348.706
478.544;   50.665;   21.815;   61.334
478.829;  -56.036; -818.171; -738.692
479.115;  -51.770; -749.172; -651.690
479.401;   -0.867; -444.174; -449.686
479.686;   26.558; -253.180;  -74.676
479.972;  -21.471; -886.178; -776.680
480.257;   33.353; -258.166;  -65.700
480.542;  -13.057; -614.170; -469.693
480.828;  222.897; 1288.824; 1392.317
481.113;  -35.480; -464.176; -426.683
481.399;   -2.948; -236.161; -202.711
481.684;  -50.872; -620.166; -462.700
481.969;    5.465; -158.159;  -73.713
482.255;  -13.471; -439.169; -285.695
482.540;   -2.371; -569.178; -441.680
482.825;   14.048; -395.187; -404.663
483.110;   85.657;  -85.169; -105.696
483.396;  184.987; -840.157; -652.718
483.681;  478.388;  543.826;  730.313
483.966;  161.860; -696.160; -700.712
484.251;   12.087; -404.174; -310.687
484.536;   13.114; -356.165; -378.703
484.822;    9.390; -205.173; -218.687
485.107;  -35.425; -599.152; -502.726
485.392;  112.944;  662.836;  541.296
485.677;   81.242;  354.832;  163.302
485.962;  102.009;  160.843;  270.283
486.247;   84.661;  -14.162;   -8.707
486.532;   36.655; -178.166; -325.701
486.817;  160.922;  381.839;  431.291
487.102;  117.058; -453.154; -514.722
487.387;  650.064; -637.156; -652.718
487.672; 1175.799; -154.164;  -38.705
487.957;  733.829; -394.160; -286.711
488.241;  196.641; -290.150; -314.729
488.526;  721.951; -280.152; -148.726
488.811; 1187.606; -881.177; -818.680
489.096;  876.111; -666.154; -702.723
489.381;  494.547;    3.847;  162.275
489.666;  402.102; -428.161; -510.710
489.950;  175.439;  558.846;  627.277
490.235;  -24.114; -480.151; -458.728
490.520;  -38.949; -756.161; -723.710
490.804;  -63.134; -827.156; -736.719
491.089;    3.057; -469.149; -299.732
491.374;   39.498; -132.164;  -75.704
491.658;  -16.407; -817.147; -717.735
491.943;  178.855; -657.152; -609.727
492.227;  249.829; -178.155;  -38.721
492.512;   50.759; -294.157; -341.717
492.797;  -76.449; -713.149; -716.731
493.081;  -51.154; -588.147; -598.735
493.366;  -39.223; -751.161; -635.711
493.650;  201.674;  831.859;  917.254
493.935;   30.168; -648.147; -447.734
494.219;  -31.639; -778.142; -687.743
494.503;  -58.079; -585.150; -487.730
494.788;   26.601;   46.842;   74.285
495.072;   95.718;  184.850;  434.271
495.356;  166.435; -463.148; -343.733
495.641;  479.777; -812.146; -736.736
495.925;  459.621; -976.156; -903.719
496.209;   31.231; -599.149; -451.732
496.494;  -48.138; -763.142; -544.744
496.778;    3.808; -364.154; -360.722
497.062;  -51.180; -819.156; -627.719
497.346;  -37.845; -869.160; -640.711
497.631;  158.914;  580.852;  560.266
497.915;   57.988;  -64.145;  175.261
498.199;   60.087; -341.157; -277.718
498.483;   28.174; -562.152; -508.725
498.767;  185.769;  301.850;  300.271
499.051;  177.729; -126.149; -100.732
499.335;   34.027; -693.149; -739.731
499.619;  -26.526; -381.129; -423.767
499.903;   24.527; -272.155;  -65.721
500.187;   41.140; -588.153; -316.724
500.471;   22.280; -796.152; -595.727
500.755;  107.326;   62.839;  -96.710
501.039;   18.853; -270.155; -357.721
501.323;   80.400;  -21.141;  264.254
501.607;   48.454; -447.163; -503.706
501.891;  -10.587; -607.156; -512.718
502.174;  -25.126; -726.144; -585.741
502.458;   71.534;   89.849;  370.273
502.742;   38.424; -180.138; -191.751
503.026;  116.142; -412.147; -254.734
503.310;  195.839; -437.159; -375.713
503.593;  127.819; -464.147; -325.735
503.877;  130.714; -232.133; -156.760
504.161;  185.392;    2.847;  -50.724
504.444;  117.603; -841.158; -710.716
504.728;  458.922; -487.164; -522.704
505.012;  696.841; -257.150;  -76.729
505.295;  540.927; -417.161; -212.711
505.579;  535.895; -256.156; -496.719
505.862;  758.859; -555.145; -333.738
506.146;  733.692; -681.159; -758.714
506.429;  397.517;  568.841;  461.286
506.713;   74.763; -732.151; -667.728
506.996;  320.257;   90.846;  295.278
507.280;  321.967; -633.165; -474.703
507.563;  237.676; -469.155; -261.721
507.847;   94.191; -423.153; -112.724
508.130;   85.328; -665.161; -456.711
508.413;  110.324; -758.167; -577.700
508.697;  236.174; -151.167;   12.300
508.980;  146.442; -422.153; -312.724
509.263;   -7.503; -466.155; -450.720
509.547;   32.490; -124.150;   82.271
509.830;   44.230; -172.160;  140.289
510.113;   87.520;  128.844;  298.281
510.396;   25.973; -530.152; -300.725
510.680;  177.186; -818.145; -812.738
510.963;  639.837;  184.846;  180.277
511.246;  578.298; -493.150; -357.730
511.529;  261.541; -482.145;  -83.739
511.812;  384.761; -250.134;   10.241
512.095;  255.710; -740.151; -396.728
512.378;   80.498; -317.147; -245.736
512.661;   21.657; -703.137; -623.753
512.944;   40.338; -750.142; -637.744
513.227;   56.679; -170.137; -171.752
513.510;   29.574; -479.144; -671.741
513.793;   32.630; -485.140; -435.747
514.076;  126.445;  -43.127;  -39.771
514.359;  113.332; -294.149; -135.732
514.642;   74.891; -442.142; -567.744
514.925;  745.528;  581.860;  561.253
515.208;  997.157; -498.134; -443.758
515.491;  645.071; -276.133; -182.761
515.773;  372.153; -410.143; -337.742
516.056; 2060.863;  249.864;  409.246
516.339; 2814.217; -754.136; -652.755
516.622; 1958.346; -518.150; -488.730
516.904; 1324.110;  882.857;  975.257
517.187;  605.103; -730.138; -523.752
517.470;  412.033; -568.143; -510.743
517.752;  420.370; -624.136; -470.756
518.035;  342.515; -708.139; -725.749
518.318;  359.442; -799.136; -744.755
518.600; 2414.549; -300.132; -325.762
518.883; 3320.340;  310.858;   88.256
519.165; 1580.570; -585.138; -426.751
519.448;  408.949;  -61.132;  -19.762
519.730;  215.852; -573.126; -415.773
520.013;  297.617;  588.867;  664.240
520.295;  880.737;  -94.134;  -15.759
520.578; 1985.512; -335.131; -305.764
520.860; 2215.699; -254.132;   56.238
521.143; 1146.722; -763.135; -584.756
521.425;  498.890; -251.125; -279.775
521.707;  687.595; -622.127; -380.771
521.990; 1750.170; -199.127;  167.229
522.272; 2009.456; -116.140;   -4.748
522.554;  923.003; -237.143; -157.742
522.836;  364.035;  -24.134;   99.241
523.119;  229.441; -496.148; -189.734
523.401;  146.469; -448.130; -314.766
523.683;   86.157; -865.137; -693.753
523.965;  275.351;  408.862;  260.248
524.247;  265.736;   54.878;  170.220
524.529;  194.087; -451.134; -367.759
524.812;  344.295;   -3.130;  191.234
525.094;  841.100; -773.138; -631.751
525.376; 1326.849; -143.124;   78.223
525.658;  828.264; -441.136; -339.754
525.940;   21.059; -805.131; -671.764
526.222;   23.618; -188.136;  -88.755
526.504;  123.531; -190.131;   32.237
526.786;  207.290; -960.133; -647.760
527.068;  329.479; -124.123;  -67.778
527.349;  135.111; -865.137; -774.754
527.631;  139.249; -137.132;   22.238
527.913;  139.794; -664.127; -450.771
528.195;  153.908; -761.125; -639.774
528.477;  243.582;  -93.134;  -30.758
528.759;  123.295; -648.130; -522.766
529.040;   61.103; -569.123; -293.778
529.322;   70.336; -235.125;  -10.774
529.604;  137.423;  -47.130;   93.233
529.886;  140.677; -546.126; -302.773
530.167;  122.189;  232.870;  192.235
530.449;   37.447;    1.853;   63.265
530.731;   10.785; -572.122; -459.779
531.012;   76.306; -513.120; -216.784
531.294;   66.294; -118.116;  -43.792
531.575;  143.765;  290.875;  538.225
531.857;   60.852; -548.135; -266.757
532.138;   98.549; -113.141;   40.254
532.420;  184.098;  294.865;  403.244
532.701;  220.092; -722.133; -751.760
532.983;  367.945;  232.867;  182.239
533.264;  142.825; -243.126;  175.228
533.546;  -31.608; -491.136; -508.755
533.827;   47.764;  173.867;   -1.759
534.109;   51.827; -352.135;  -80.757
534.390;  102.328; -725.132; -582.762
534.671;  248.223; -270.135;  -82.756
534.953;  148.531; -751.123; -611.779
535.234;   39.754; -426.117; -255.789
535.515;  -91.286; -891.119; -735.785
535.796;  -42.885; -431.128; -193.770
536.078; -111.852;-1050.124; -904.777
536.359;    9.031;  -22.123;    3.221
536.640;  -11.341; -480.125; -197.774
536.921;  151.453;  225.871;  143.232
537.202;  361.547;  -87.138;  -16.751
537.483;  448.386;  251.869;  377.236
537.764;  156.739;   17.870;   98.235
538.045;  -38.394; -543.134; -371.758
538.326;  -40.520; -596.129; -447.768
538.607;   18.221; -686.127; -476.771
538.888;  163.897;   98.879;    5.218
539.169;  179.466; -704.122; -535.781
539.450;  348.852;  236.871;   16.233
539.731;  213.676; -361.121; -182.783
540.012;  118.506;  199.880;  412.216
540.293;   76.443;   82.876;  158.224
540.574;   12.390; -895.113; -717.796
540.855;  471.624;  435.879;  377.218
541.136;  528.864;   47.878;  139.220
541.416;  284.071; -161.130; -220.766
541.697;  192.532; -274.131; -170.763
541.978; 1026.450; -270.135; -315.757
542.259; 1308.621; -211.127; -236.771
542.539;  627.338; -191.116; -186.790
542.820;  194.514;  461.875;  480.225
543.101;  119.487;  -52.145;  -77.738
543.381;   44.120; -638.127; -591.771
543.662;  245.468;  159.873; -254.771
543.942;  563.316; -751.127; -830.770
544.223; 1049.965;  193.878;  161.219
544.504;  674.073; -275.124; -182.777
544.784;  579.002; -592.126; -408.773
545.065; 1643.692;  104.884; -254.791
545.345; 1944.189;  227.881;   14.215
545.626; 1270.689;  -14.113; -108.796
545.906;  889.939;   77.869;   98.235
546.186;  362.606;   92.874;  -95.773
546.467;  203.176;   99.877;  -95.778
546.747;  311.813;  264.884;  327.210
547.027;  365.447;   91.876;  111.223
547.308;  323.215; -376.127; -530.770
547.588;  403.355;  299.871;  371.232
547.868;  194.140;  458.870;  588.235
548.149;  190.099;  609.885;  593.207
548.429;  112.794; -347.127; -299.771
548.709;  189.130; -645.120; -461.784
548.989;  476.223;   84.882;   88.213
549.269; 2122.472;   10.868;  139.239
549.550; 4788.830;  215.877;  117.222
549.830; 4263.357; -758.111; -556.799
550.110;  846.489; -468.110; -320.801
550.390;  811.685; -128.122;  -56.779
550.670; 1123.110; -868.114; -783.795
550.950;  783.924; -509.121; -471.782
551.230;  172.345;  549.879;  460.218
551.510;  -10.077; -381.121; -326.782
551.790;   24.797; -173.109; -127.803
552.070;  256.401;  940.877; 1181.223
552.350;  404.718; -492.119; -377.786
552.630;  571.068;   -2.121;   77.219
552.909;  366.617;  181.884;   73.209
553.189;  235.429;  -49.132;   33.237
553.469;  191.668; -703.119; -514.786
553.749;  205.947; -469.127; -357.772
554.029;  153.309;   33.883;  -24.790
554.308;  155.178; -154.115;  -37.794
554.588;   74.589; -196.128; -204.770
554.868;   46.749; -366.121;  -47.782
555.147;  141.526; -114.115;  -46.793
555.427;  579.970; -260.116; -250.792
555.707; 3860.299; -284.115; -200.793
555.986; 4668.410; -719.111; -538.800
556.266; 2462.187;   23.884;   72.210
556.546;   98.998; -888.121; -675.782
556.825;  247.858; -657.114; -556.794
557.105; 1760.912; -125.128;   17.230
557.384; 2082.566;  122.884;  187.209
557.664;  788.919; -717.116; -508.792
557.943;  120.099; -557.121; -411.782
558.222;  180.552; -345.118; -344.788
558.502;  271.452; -116.115;  -76.793
558.781;  486.672;  194.885;  499.208
559.061;  403.801; -232.118; -227.788
559.340;  277.206;  302.883;  353.211
559.619;  702.587;   93.884;  148.210
559.899; 1022.758; -239.117; -266.789
560.178;  935.226; -778.115; -593.793
560.457; 3120.710; -623.117; -562.790
560.736; 4382.561; -472.111; -482.800
561.015; 2869.310; -500.128; -502.769
561.295;  387.492;  180.893;  215.193
561.574;  334.074;  119.885;  116.207
561.853;  512.376;  274.891;  303.197
562.132;  490.554;  -45.114;  182.206
562.411;  412.693;  396.879;  553.219
562.690;  121.747; -592.115; -458.792
562.969;  141.871;  472.888;  630.203
563.248;  495.216; 2966.878; 2487.219
563.527;  272.986; -290.111; -408.800
563.806;  377.719; -650.127; -521.771
564.085;  407.932; -297.105; -206.810
564.364;  226.236; -594.117; -405.790
564.643;  494.144; -276.121; -223.781
564.922; 1878.820;  221.890;  397.198
565.201; 1886.374; -640.109; -700.803
565.479;  797.121; -297.115; -219.792
565.758;  326.737; -810.128; -712.770
566.037;  462.900; -155.109; -100.803
566.316;  222.517; -286.116;  -28.791
566.595;   34.924;  -17.115;  -12.793
566.873;  101.713; -166.111;  -79.801
567.152;  -70.279; -490.113; -590.797
567.431;    1.713; -113.116;    6.210
567.709;    5.217; -344.107; -212.807
567.988;  249.932; -810.114; -769.794
568.266;  518.324; -160.115;  -68.793
568.545;  371.278; -644.100; -514.819
568.824;  573.020;  160.885;  356.208
569.102;  555.332; -351.114; -235.794
569.381;  226.220; -492.116; -407.792
569.659;  -42.708; -553.113; -553.796
569.938;   22.564; -743.122; -465.780
570.216;  113.802; -225.109; -225.804
570.494;  -20.940; -632.114; -572.795
570.773;   33.647;  202.879;  114.218
571.051;    6.204; -373.123; -357.778
571.330;   51.765; -221.113; -174.796
571.608;   35.021; -181.098; -173.823
571.886;  -69.770; -671.111; -581.799
572.164;  -74.376; -739.121; -621.782
572.443;  -50.840; -562.105; -512.811
572.721;  -44.340; -399.117; -289.790
572.999;  -30.322; -280.117; -168.788
573.277;   84.204;  379.894;  620.191
573.555;  284.206;   94.894;   37.190
573.834; 1355.403;  -86.117; -114.788
574.112; 1551.269;  880.893;  811.193
574.390;  446.237; -143.111;  -96.801
574.668;    6.647;  -91.112;  -61.797
574.946;  -22.719; -165.106; -187.810
575.224;   -5.126;   71.891;  -16.803
575.502;  -21.886; -200.116; -204.791
575.780;  -88.702; -767.112; -829.798
576.058;  218.336; 1589.889; 1004.200
576.336;  -24.259; -210.110; -129.801
576.614;  -56.002; -511.112; -340.798
576.891;   57.803; -711.115; -823.794
577.169;  464.935; -158.108; -285.805
577.447;  576.944;  169.893;  202.193
577.725;  267.252;  629.888;  854.201
578.003;   11.325;  -71.112; -371.798
578.280;   85.619; -208.104; -242.812
578.558;   56.377; -450.115; -422.793
578.836;  131.635; -210.114; -145.795
579.114;   58.271; -630.112; -670.797
579.391;   74.480;   -6.117;  -18.789
579.669;  -84.121; -595.114; -704.794
579.947;  173.240; -326.107; -127.806
580.224;  321.765; -692.107; -524.806
580.502;  303.094;  127.893;   76.193
580.779;   33.111;  -42.117;   75.210
581.057;  -86.797; -584.109; -470.804
581.334;  -96.641; -726.102; -695.815
581.612;   29.532;   54.895;  511.190
581.889;  -27.528;  -83.101; -129.818
582.167;  -35.689; -298.099; -190.821
582.444; -104.333; -845.102; -814.817
582.721;   97.117;  657.899;  715.183
582.999;   61.309; -326.100; -167.821
583.276;  523.408; -812.123; -713.779
583.553;  704.537; -364.102; -294.816
583.831;  218.866; -607.104; -631.812
584.108;   67.158;  349.892;  174.195
584.385;   10.308; -122.102;  -98.815
584.662;  -75.687; -651.111; -828.801
584.940;   34.062;  204.889;  204.199
585.217;  -15.683;  -73.113; -303.796
585.494;   31.971;   71.890;  118.198
585.771;  211.229; -250.109; -354.804
586.048;  489.691; -196.113;  -76.796
586.325;  290.515; -721.110; -773.801
586.602;   89.695;  230.896;  213.188
586.879;  -20.795; -499.100; -580.820
587.156;   49.333; -156.105; -331.810
587.433;  -30.685; -701.102; -667.817
587.710;   52.599;  152.888;  234.202
587.987;  281.963; -264.105; -236.811
588.264;  784.950;  315.888;  387.202
588.541; 1320.472;  -61.104;   26.187
588.818; 2660.156;   72.892;  171.196
589.095; 2340.568; -163.104; -174.812
589.371;  373.427; -459.109; -414.804
589.648;    6.219; -581.107; -437.807
589.925;   26.061; -517.114; -621.795
590.202;   12.823; -741.112; -607.798
590.478;   74.965; -166.105;  -73.811
590.755;  255.587; -241.108; -132.806
591.032; 2427.418; -741.110; -699.802
591.308; 3376.711; -732.094; -790.831
591.585; 1762.292; -573.110; -560.802
591.862;  138.891;-1056.102; -950.817
592.138;   58.034; -475.108; -474.805
592.415;  131.870; -486.104; -495.813
592.691; 1432.018;  460.896;  518.188
592.968; 1865.523; -208.098; -123.824
593.244;  874.263; -695.116; -595.790
593.521;   68.892; -105.102;  -42.817
593.797;  -21.263; -810.122; -720.780
594.074;  311.810; -611.096; -588.826
594.350;  652.796;  828.905;  729.172
594.626;  296.913; -303.111; -283.801
594.903;  101.592; -643.101; -645.817
595.179;  165.524;  243.896;  418.187
595.455;   -2.730; -136.107; -150.807
595.731;   -1.224;  -19.103;  -38.814
596.008;  -44.293; -464.111; -434.800
596.284;   29.182; -187.100; -242.820
596.560;   48.267; -501.093; -493.833
596.836;  192.785; -173.105;  -70.810
597.112;  331.135; -582.108; -437.805
597.388;  280.833;  -49.097;  -48.826
597.665;  103.294;  437.887;  530.203
597.941;  -69.104; -572.089; -658.839
598.217;    8.596; -323.110; -293.802
598.493;  254.755;   61.891; -204.804
598.769;  487.127; -175.100;  -50.819
599.045;  303.988; -490.108; -562.806
599.321;   34.231; -193.100; -261.820
599.597;  132.129; -355.109; -476.804
599.872;  469.222;  409.896;  429.187
600.148;  363.610;  -61.097; -172.826
600.424;  270.168;   91.893;  202.193
600.700;  247.820; -170.107; -280.807
600.976;  126.879; -442.097; -464.825
601.252;  229.076; -226.109; -272.803
601.527;  213.773; -833.104; -840.813
601.803;  142.965; -453.105; -404.812
602.079;  164.277; -124.100; -118.819
602.354;  554.327; -620.092; -531.835
602.630;  790.467; -140.113; -482.796
602.906; 2264.522; -910.101; -863.818
603.181; 6565.693; -627.119; -534.786
603.457; 5647.132;   98.903; -278.826
603.733;  818.526; -605.120; -626.783
604.008;  936.407; -245.106; -164.810
604.284; 3011.693; -636.101; -580.817
604.559; 2593.777;   -3.112;  -42.799
604.835;  461.160; -163.105; -225.810
605.110;  407.837; -732.099; -892.821
605.385;  672.445;  224.907;  267.167
605.661;  631.974; -625.095; -729.829
605.936; 1122.463; -664.108; -737.806
606.211;  968.082;  -17.103; -170.815
606.487;  198.281; -329.114; -376.794
606.762;   13.418; -791.119; -745.786
607.037;  -21.340; -501.105; -433.810
607.313;  -48.133; -589.096; -574.828
607.588;  -18.994; -375.106; -137.810
607.863;   23.197;  -28.101; -143.818
608.138;  159.419;  513.890;  516.198
608.413;   22.815; -576.099; -592.822
608.688;   42.135; -203.108; -267.805
608.964;  193.251; -509.106; -218.809
609.239;  238.832; -107.105; -212.810
609.514;  238.840;  281.895;  240.188
609.789;  651.919; -187.104; -716.812
610.064;  851.041; -435.096; -609.827
610.339;  838.102; -855.109; -799.804
610.614; 1142.482; -131.100; -315.820
610.889;  650.990;  215.895;  107.188
611.163;   30.691; -407.104; -591.812
611.438;   77.357;   81.886; -167.794
611.713;    7.918; -467.101; -499.817
611.988;   56.271; -144.101; -328.818
612.263;  -26.041; -771.102; -717.815
612.538;  208.341;  385.887;  251.204
612.812;  157.358; -832.100; -911.820
613.087;  116.846; -358.098; -338.823
613.362;  -55.230; -497.107; -557.807
613.637;   41.778;  261.897;  138.186
613.911;  -16.123; -256.092; -345.835
614.186;  122.644; -249.107; -292.807
614.460;  653.770; -842.081; -758.854
614.735;  772.044;  -55.087;  -17.843
615.010;  154.909;   43.912;  -82.841
615.284;  238.084;  360.892;  246.195
615.559;  350.451; -792.092; -955.835
615.833;  287.389;  -76.099;  -87.822
616.108;    4.013; -225.090; -390.837
616.382;  127.346;  274.913;  402.156
616.656;  154.863; -241.090; -232.837
616.931;  477.164; -785.099; -700.822
617.205; 1056.473; -973.104; -979.813
617.480;  965.813;  -91.125;    6.225
617.754;  167.185; -396.125; -128.774
618.028;    6.681; -369.129; -382.768
618.302;   65.383;   73.892;  -25.805
618.577;  -55.470; -371.103; -518.815
618.851;  -58.452; -399.109; -600.803
619.125;  -53.413; -335.134; -378.759
619.399;  -31.501; -244.104; -374.813
619.673;  -51.404; -330.115; -515.792
619.947;  -55.990; -333.114; -448.795
620.222;  -25.936; -198.110; -204.801
620.496;   -9.776;  -47.121;  -96.782
620.770;   19.016; -187.122;  -93.781
621.044;  212.908;  323.895;  346.190
621.318;  721.352; -653.120; -614.783
621.592;  646.625; -430.121; -409.783
621.866;  343.053; -476.112; -572.799
622.140;    8.989; -207.116; -356.791
622.413;   70.232;  138.889;  112.200
622.687;  -37.806; -746.101; -492.817
622.961;    0.583; -130.108; -143.805
623.235;  -63.867; -633.111; -661.800
623.509; -104.160; -816.105; -848.811
623.783;    6.391;  -12.107;   48.193
624.056;  -33.822; -254.120; -280.783
624.330;   42.322;   63.888;   -3.797
624.604;   54.186; -271.116; -355.790
624.877;   60.668;  180.890;   26.198
625.151;   20.580; -249.114; -238.794
625.425;  -27.400; -150.103; -283.814
625.698;  -53.688; -367.119; -374.785
625.972;  -93.229; -799.110; -765.802
626.245;   70.163;  685.884;  484.210
626.519;  -59.743; -426.120; -340.784
626.792;  -42.605; -192.107; -380.807
627.066;  -76.191; -485.122; -662.779
627.339;  -97.533; -736.110; -663.802
627.613;   45.381;  351.880;  148.216
627.886;   54.548;  187.891; -612.803
628.160;  -18.023;  312.880; -161.783
628.433;  -94.210; -695.125; -703.775
628.706;  -82.318; -517.120; -615.784
628.979;    9.197;  296.876;  117.223
629.253;  -84.458; -785.119; -833.786
629.526;  356.725; -334.126; -253.772
629.799;  330.404; -641.123; -479.778
630.072;  162.207; -497.128; -516.769
630.346;  -49.337;-1115.116;-1080.790
630.619;  443.946; -467.107; -545.808
630.892;  593.659;  709.889;  593.200
631.165;  319.974;  790.896;  679.187
631.438;  -80.350;-1092.112;-1055.798
631.711;   44.907;  453.877;  257.221
631.984;  -57.892; -523.117; -624.789
632.257;  -85.345; -636.117; -681.789
632.530;  -59.512; -412.119; -433.785
632.803;    4.953; -109.115;    7.207
633.076;  -68.949; -360.123; -422.777
633.349;   -3.839;  173.872;  121.231
633.622;  -42.164; -187.119; -240.785
633.895; -124.622; -903.120; -823.783
634.167;  -71.973; -496.126; -525.773
634.440;  -11.506;  -19.116; -137.792
634.713;   -9.734;  -22.119; -120.786
634.986;   71.426;  593.871;  453.233
635.258;  -74.524; -507.115; -597.793
635.531;   85.676;  742.882; -343.788
635.804;  -20.643; -303.117; -318.789
636.077;  -86.210; -830.116; -852.791
636.349;   -8.626; -586.115; -474.793
636.622;  381.299; 1695.874; 1392.228
636.894;  244.082; -474.120; -909.784
637.167;  132.393; -836.127; -789.771
637.439;   20.765; -278.128; -213.770
637.712;  -52.749; -312.126; -293.772
637.984;  -78.134; -635.116; -707.791
638.257;  372.276;  515.877;  488.222
638.529;  543.241; -881.125; -924.776
638.802;  235.957; -508.128; -449.769
639.074; -101.035; -927.122; -952.781
639.346; -127.221; -942.135; -930.757
639.619;    6.064;  -79.142; -319.744
639.891;  -10.066;  -83.122; -168.779
640.163;  -64.739; -689.122; -756.780
640.435;   34.663;  273.878;  103.220
640.708;    0.939;  -72.122; -132.780
640.980;  -47.634; -366.122; -362.781
641.252;  180.893;  -25.121;  -71.781
641.524; 1760.895;  580.879;  573.219
641.796; 1760.947;-1094.121; -907.782
642.068;  322.173; -191.121; -300.782
642.340;  -59.000; -486.121; -566.783
642.613;   31.377;  294.880;  323.217
642.885;  -95.946; -787.120; -878.783
643.157;  -42.719; -810.120; -658.784
643.428;   67.657;  170.880;  218.216
643.700;  -71.666; -498.120; -425.784
643.972;  -40.739;  -16.119; -133.785
644.244; -107.062; -474.119; -559.785
644.516;  -56.135; -250.119; -114.786
644.788;   66.867;  662.881;  548.214
645.060;  -37.232;  -12.119; -124.786
645.332; -104.105; -525.118; -535.787
645.603;   24.472;  479.882;  342.213
645.875;  -80.201; -334.118; -369.787
646.147;  174.026; 1487.882; 1242.212
646.418;  -78.998; -931.117; -918.788
646.690;  135.054; -714.117; -715.789
646.962;   31.381; -413.117; -451.789
647.233;  -17.267;   15.883;   11.211
647.505; -106.915; -595.117; -475.790
647.776;   26.936;  328.884;  229.210
648.048;   -4.637; -248.116; -418.790
648.320;  -82.885; -752.116; -679.791
648.591; -150.883;-1055.116; -958.791
648.862;  -77.656; -505.116; -577.792
649.134;    8.721;  115.885;  198.208
649.405;  -52.203; -661.115; -618.792
649.677;  -52.326; -475.115; -598.793
649.948;  -12.099; -181.115; -296.793
650.219;  -19.022;  -37.115; -147.793
650.491;  -75.395; -431.114; -520.794
650.762; -129.944; -705.114; -731.794
651.033;  -77.592; -437.114; -424.795
651.304;  -92.465; -743.114; -728.795
651.576;  -64.813; -680.114; -645.795
651.847;  -41.411; -250.113; -140.796
652.118;  -37.535;  -32.113; -189.796
652.389; -111.258; -639.113; -722.796
652.660;  -25.006; -147.113;  -89.797
652.931; -145.929; -897.112; -871.797
653.202;  -80.727; -382.112; -541.798
653.473;  -71.901; -633.112; -533.798
653.744;  131.301; -595.112; -590.798
654.015;  139.153; -356.112; -303.799
654.286;  -60.020; -642.111; -663.799
654.557;  -72.493; -586.111; -521.799
654.828; -155.916;-1114.111;-1088.800
655.099;  -97.515; -404.111; -291.800
655.370;  -85.413; -427.111; -543.801
655.641; -116.136; -656.110; -714.801
655.911; -101.409; -618.110; -638.801
656.182;   42.268;  437.890;  387.198
656.453;   75.244;  830.890;  746.198
656.724;  -68.904; -466.110; -426.802
656.994;  -82.852; -553.109; -568.803
657.265; -108.075; -862.109; -873.803
657.536;  -87.148; -500.109; -377.804
657.806; -120.722; -561.109; -593.804
658.077; -141.695; -866.109; -950.804
658.347;  -98.743; -523.108; -598.805
658.618; -104.466; -646.108; -694.805
658.888;  -32.739;  -41.108;  112.195
659.159;  -71.538; -432.108; -548.806
659.429;  -24.336; -292.108; -349.806
659.700;    5.716; -435.107; -390.807
659.970;   -6.757; -370.107; -359.807
660.241;    6.120; -754.107; -921.807
660.511;  481.422; -147.107; -174.808
660.781;   76.823; -793.106; -748.808
661.052;  -39.525; -222.106; -381.808
661.322;  -28.273;   21.894;   -9.809
661.592;   -4.546;  257.894;  148.191
661.862;  -70.494; -369.106; -382.810
662.133;  -95.093; -551.105; -502.810
662.403; -123.216; -770.105; -676.810
662.673;  -73.114; -256.105; -213.811
662.943; -114.862; -612.105; -551.811
663.213;   -7.035;  -85.105;  -81.811
663.483;  -87.784; -593.104; -568.812
663.753;  -59.382; -194.104; -152.812
664.023;  -22.605;   68.896;  -32.813
664.293;  -69.503; -319.104; -126.813
664.563; -121.676; -694.104; -648.813
664.833; -115.050; -743.103; -608.814
665.103; -129.873; -730.103; -793.814
665.373; -112.621; -766.103; -806.814
665.643;  -91.369; -863.103; -918.815
665.913;   40.733; -534.103; -714.815
666.182;  135.585; -685.102; -719.816
666.452;  258.161;  -22.102;  -89.816
666.722;  -29.187; -724.102; -784.816
666.992; -145.185; -948.102; -921.817
667.261; -106.758; -824.102; -808.817
667.531;  186.144;  134.899;   45.183
667.801;  535.020; -440.101; -412.818
668.070;  237.347;  714.899;  697.182
668.340; -110.426; -883.101; -840.819
668.609;   83.301;  588.900;  301.181
668.879;  -79.822; -490.100; -558.819
669.149;  -72.046; -539.100; -516.820
669.418; -111.719; -698.100; -726.820
669.688;  -27.442; -482.100; -666.820
669.957;   59.035; -423.099; -546.821
670.226;  -32.888; -268.099; -331.821
670.496;  -90.037; -431.099; -635.822
670.765;  -84.060; -418.099; -501.822
671.034; -133.458; -872.099; -828.822
671.304;  -22.956;   55.902; -111.823
671.573; -150.804;-1085.098; -957.823
671.842;   67.548; -380.098; -294.823
672.112;   27.974; -692.098; -586.824
672.381;  -11.974; -239.098; -214.824
672.650; -129.997;-1005.097;-1021.825
672.919;  -81.370; -631.097; -507.825
673.188;  -93.843; -681.097; -878.825
673.457; -156.817;-1101.097;-1143.826
673.726;  -76.015; -579.096; -646.826
673.995;  -52.488; -533.096; -479.826
674.265;  -24.336; -263.096; -333.827
674.534;   -1.909; -183.096; -235.827
674.802;   -0.883; -618.096; -703.828
675.071;  953.844; -886.095; -801.828
675.340; 3838.821; -464.095; -339.828
675.609; 1289.748;  103.905;   82.171
675.878;   70.125; -949.095; -893.829
676.147;   23.201;  -26.095;   -8.829
676.416;   78.303; -210.094; -294.830
676.685;  709.030; 1000.906; -622.830
676.953;  112.232; -603.094; -452.831
677.222;  -37.741; -193.094; -273.831
677.491;  -38.989;  -24.094; -127.831
677.759;  -20.063;   11.907;  172.168
678.028;  -26.111; -279.093; -222.832
678.297;  -10.784;   71.907;  197.168
678.565; -137.282; -898.093; -944.833
678.834;  -56.555; -311.093; -268.833
679.102;  -74.104; -411.092; -391.834
679.371; -143.677; -898.092; -727.834
679.639; -147.725; -797.092; -786.834
679.908; -121.848; -794.092; -724.835
680.176; -164.796; -895.091; -941.835
680.445;  -78.295; -346.091; -352.835
680.713;  -18.418;  -58.091;  -23.836
680.982;  -98.366; -523.091; -525.836
681.250;  -98.089; -578.091; -507.837
681.518;  -96.112; -534.090; -751.837
681.787;  -23.885; -204.090; -167.837
682.055;  -76.459; -490.090; -422.838
682.323; -143.307; -993.090; -992.838
682.591;   14.420; -216.090; -538.838
682.859;   73.672;    9.911;  -35.839
683.128;    6.974;  232.911;  497.161
683.396; -177.675;-1102.089;-1122.840
683.664;  -44.023; -241.089;   21.160
683.932;   -3.471;  144.911;  -76.840
684.200;  -89.819; -576.088; -320.841
684.468;  -24.667;  -73.088; -124.841
684.736;  -37.316; -214.088; -175.841
685.004; -136.964;-1024.088; -982.842
685.272;  -50.062; -880.088; -774.842
685.540;  -73.910; -499.087; -557.843
685.808;  -78.858; -651.087; -682.843
686.076; -106.057; -894.087; -969.843
686.343;  -57.480; -601.087; -815.844
686.611;   28.297; -195.087; -224.844
686.879;  415.624; -530.086; -553.844
687.147; 3202.576; -483.086; -480.845
687.414;  926.253;  -12.086; -169.845
687.682;   -5.996; -658.086; -757.846
687.950;  290.931;  259.915;  263.154
688.217;    8.483; -792.085; -760.846
688.485;  -15.540; -632.085; -636.847
688.753;  513.662;  -11.085; -102.847
689.020;  155.888; -820.085; -851.847
689.288;  -92.110; -853.084; -787.848
689.555;  -43.933; -195.084; -148.848
689.823;  -55.956; -241.084; -345.849
690.090;  -90.229; -546.084; -651.849
690.358; -141.753; -877.084; -897.849
690.625;    6.774;  120.917;   45.150
690.892;  -77.949; -403.083; -369.850
691.160;  -17.222;   72.917;  -35.850
691.427;    6.955;  141.917;  130.149
691.694; -130.819; -855.083; -929.851
691.962; -146.192;-1177.082;-1060.852
692.229;    0.310;  127.918;   56.148
692.496;   67.312;  130.918;  -49.852
692.763;    9.714; -164.082; -201.853
693.031;  -78.734; -739.082; -716.853
693.298;  -52.608; -509.081; -368.853
693.565;  286.394; -155.081; -163.854
693.832; 1234.646;   -5.081;   -9.854
694.099;  129.298; -643.081; -642.855
694.366;  -71.400; -882.081; -896.855
694.633;  -50.599; -920.080; -633.855
694.900;  732.403; 4367.920; -114.856
695.167;  415.105; -214.080; -380.856
695.434;   93.507; -646.080; -623.856
695.701;  185.084;  121.921;  -61.857
695.968;  442.735; -365.079; -361.857
696.234;  938.362; -415.079; -646.858
696.501;10234.989; -776.079; -614.858
696.768; 5265.216; -554.079; -617.858
697.035;  303.793; -632.078; -667.859
697.302;   30.219; -448.078; -552.859
697.568;    3.696; -458.078; -497.859
697.835;  -42.277; -683.078; -624.860
698.102;  -33.075; -498.078; -407.860
698.368;   74.377;  384.923;  396.139
698.635;  -34.571;  -47.077; -424.861
698.901;  -31.895; -240.077; -348.861
699.168;   45.807; -534.077; -456.862
699.435;   69.034;  -72.077;  -13.862
699.701; -117.539; -868.076; -764.862
699.968;    6.213;  144.924; -441.863
700.234; -103.811; -783.076; -822.863
700.500;  -56.234; -448.076; -539.864
700.767;    0.693;   -1.075;   26.136
701.033; -117.530;-1015.075; -963.864
701.299;  -62.303; -450.075; -483.865
701.566;  117.848;  950.925;  763.135
701.832;   24.925;  -31.075;  -76.865
702.098; -103.023;-1054.074;-1034.866
702.365;  -95.996;-1098.074;-1030.866
702.631;  -40.794;-1038.074;-1063.867
702.897; 1305.682; -765.074; -676.867
703.163; 2247.609;  348.926;  254.133
703.429;  167.086; -256.073; -273.868
703.695;  -26.137; -796.073; -792.868
703.961;    2.665; -214.073; -210.868
704.227;  -51.183; -630.073; -725.869
704.493;  130.868;  613.927;  510.131
704.759;  -27.880; -565.072; -540.870
705.025;   22.297; -203.072; -194.870
705.291;   -7.401; -666.072; -562.870
705.557;  189.676;  719.928;   34.129
705.823;   34.102; -742.072; -694.871
706.089;  132.579; -307.071; -326.871
706.355;  364.506; -315.071; -244.872
706.620; 5439.358; -776.071; -729.872
706.886; 7761.185; -309.071; -362.873
707.152;  736.761; -818.070; -973.873
707.418;  -13.787;-1153.070;-1186.873
707.683;   -4.860; -550.070; -530.874
707.949;  -45.658; -547.070; -578.874
708.215;   -4.806; -129.070; -207.874
708.480;  -37.005; -520.069; -420.875
708.746;   69.847;   68.931;   28.125
709.011;  -66.576; -578.069; -612.876
709.277;  -73.524; -538.069; -543.876
709.542;  -53.647; -428.069; -387.876
709.808;   -8.845;  -59.068;   89.123
710.073;  -82.794; -577.068; -695.877
710.339;  -37.392; -242.068; -228.877
710.604;   69.235; -780.068; -845.878
710.869;  310.037; -277.068; -366.878
711.135;  -77.936; -715.067; -628.879
711.400;  -88.835; -507.067; -608.879
711.665;  -65.508; -404.067; -479.879
711.931;  -93.706; -661.067; -677.880
712.196; -115.629; -876.067; -954.880
712.461;  100.873; -402.066; -490.880
712.726;  133.549; -727.066; -771.881
712.991;  -84.424; -647.066; -664.881
713.256;  -55.847; -350.066; -332.882
713.521;  -54.720; -417.065; -381.882
713.787;  -52.418; -454.065; -472.882
714.052;  -44.291; -214.065; -400.883
714.317; -103.240;-1045.065; -981.883
714.581; 1010.687; -374.065; -268.883
714.846; 1393.689; -822.064; -888.884
715.111;  132.666;  261.936;  257.116
715.376;  -19.432;  -86.064; -223.885
715.641;  -13.031; -365.064; -367.885
715.906;  295.746;   15.936; -551.885
716.171;  135.048;  221.937;  209.114
716.436;   35.300;  -78.063; -104.886
716.700; -114.523; -818.063; -692.886
716.965; -130.322; -794.063; -807.887
717.230;  -72.470; -339.063; -392.887
717.494;  -39.368;  -40.062; -134.888
717.759;  -96.816; -784.062; -640.888
718.024;    1.186;  269.938;  250.112
718.288;   70.037;  685.938;  395.111
718.553; -146.961; -803.062; -977.889
718.817; -143.534; -883.061; -899.889
719.082;  -24.232; -115.061; -125.890
719.346; -140.155;-1000.061; -947.890
719.611;  -42.903; -300.061; -255.891
719.875; -119.027; -568.060; -537.891
720.140;  -66.175; -453.060; -603.891
720.404;   10.827; -136.060; -249.892
720.668;  831.129; -475.060; -411.892
720.933;  317.681;  146.940;  137.108
721.197;  -97.518; -667.059; -600.893
721.461; -132.341; -851.059; -826.893
721.725;   -1.014;  -21.059; -250.894
721.990;  -56.437; -284.059; -204.894
722.254;  -35.360;  -26.059; -108.894
722.518;  -77.034; -286.058; -442.895
722.782;  -93.707; -743.058; -594.895
723.046;  114.670;  614.942;  570.105
723.310;   26.072;  374.942;  210.104
723.574;  -98.001; -654.058; -614.896
723.838;  -98.875; -576.057; -642.897
724.102;  -43.748; -226.057; -239.897
724.366; -134.121;-1032.057; -978.897
724.630; -103.019; -749.057; -571.898
724.894;  -90.642; -722.057; -514.898
725.158;  -20.890;   38.944; -295.898
725.422;  -60.739; -394.056; -327.899
725.685;  -75.787; -441.056; -349.899
725.949;  -79.435; -566.056; -519.900
726.213;  -89.158; -732.056; -811.900
726.477;  156.944;-1020.055; -933.900
726.740;  147.570; -274.055; -104.901
727.004;  306.947; -384.055; -510.901
727.268; 3252.099; -442.055; -400.901
727.531;  904.501; -961.055; -775.902
727.795;  -64.097; -713.054; -673.902
728.059;  -61.421; -552.054; -557.903
728.322;  -92.044; -841.054; -669.903
728.586;   25.733; -692.054; -701.903
728.849;  -92.490; -695.053; -756.904
729.112; -117.488; -812.053; -912.904
729.376; -133.312; -959.053; -905.904
729.639;  -83.085; -536.053; -536.905
729.903; -103.933; -733.053; -699.905
730.166;  -50.306; -437.052; -399.906
730.429;  -29.104; -317.052; -468.906
730.693;  -63.727; -355.052; -894.906
730.956;  195.174;  810.948;  651.093
731.219;  708.301; -310.052; -103.907
731.482;  100.403;-1003.051; -894.907
731.745;   86.630; -794.051; -935.908
732.009;   -1.268;  -30.051;   50.092
732.272;  -91.092; -904.051; -771.909
732.535;  -42.440; -300.051; -310.909
732.798; -148.613;-1083.050;-1166.909
733.061;  -69.636; -430.050; -456.910
733.324;    0.116;   31.950; -180.910
733.587;   53.917;  290.950;  365.090
733.850;  -80.031; -973.049;-1050.911
734.113;   23.621;   33.951;   32.089
734.376;   -2.027; -328.049; -447.912
734.639;  204.050; 1188.951; 1011.088
734.901;   68.801; -180.049; -402.912
735.164;  469.578; -883.048; -837.913
735.427; 1299.905; -166.048; -355.913
735.690;  107.182; -205.048; -234.913
735.952;  -23.041; -923.048; -925.914
736.215;  -20.539;-1113.048;-1009.914
736.478;   29.462; -771.047; -774.915
736.740;  201.464;   33.953;  129.085
737.003;  640.216; -658.047; -672.915
737.266; 3992.518;  -94.047;   46.084
737.528;  431.020; -682.047; -660.916
737.791;  305.271; -316.046; -327.916
738.053;  795.823;  465.954;  649.083
738.316;10585.025; -162.046; -136.917
738.578; 7658.877; -770.046; -736.918
738.841;  421.504; -382.046; -446.918
739.103;  178.180; -875.045; -777.918
739.365;  511.082;   79.955;  -69.919
739.628;   -6.316; -884.045; -805.919
739.890;  -30.839; -758.045; -710.919
740.152;  -59.762; -692.044; -754.920
740.414;  -18.311; -408.044; -359.920
740.677;  -47.734; -785.044; -634.921
740.939;  -64.782; -587.044; -487.921
741.201;  258.895; -432.044; -572.921
741.463;   24.997; -689.043; -745.922
741.725;   15.324;  -21.043; -199.922
741.987;   44.725;  220.957;  116.078
742.249;    4.827; -751.043; -859.923
742.511;  189.279; -703.043; -794.923
742.773;   13.356; -546.042; -546.924
743.035;  125.483;  796.958;  533.076
743.297;  -46.991; -963.042;-1013.924
743.559;  722.936; -278.042; -262.925
743.821;   75.013; -735.042; -744.925
744.083;    9.740;  -44.041; -149.925
744.345;  -82.983; -869.041; -892.926
744.607;   34.018;   75.959;  122.074
744.868;  -52.280; -490.041; -554.927
745.130; -115.703; -994.041;-1008.927
745.392;   43.899;   -1.040;  -44.927
745.653;  -36.424; -411.040; -378.928
745.915;  141.927;  896.960;  631.072
746.177;   32.954;   35.960;  -43.928
746.438;   -0.269; -428.040; -543.929
746.700;  -44.217; -947.039; -988.929
746.961;    6.435; -659.039; -740.930
747.223;  120.087; -190.039;  -74.930
747.484;   99.388; -391.039; -471.930
747.746;  135.290;  -23.038; -106.931
748.007;  114.517; -647.038; -689.931
748.269;  282.869; -468.038; -440.931
748.530;  477.971; -852.038; -638.932
748.791;  249.672; -354.038; -420.932
749.053;  432.724;  286.963;  163.067
749.314;  431.601; -236.037; -169.933
749.575;  495.128; -945.037; -905.933
749.836;  826.155; -217.037;   86.066
750.098; 2347.381;  -60.037;  -21.934
750.359;35992.983;  414.964;  555.066
750.620; 9507.785; -121.036; -220.935
750.881; 1030.862; -585.036; -513.935
751.142; 1329.639; -950.036; -938.936
751.403;16344.541; -789.036; -705.936
751.664; 7538.592;-1034.035; -999.936
751.925;  497.344; -175.035; -262.937
752.186;  259.771; -298.035; -278.937
752.447;  119.248; -590.035; -445.937
752.708;   54.800; -532.035; -648.938
752.969;   -1.749; -566.034; -576.938
753.230;   -9.072; -777.034; -672.939
753.491;  -11.345; -650.034; -631.939
753.751;   68.457;  109.966;   19.061
754.012;  103.284;  258.967;  181.060
754.273;   39.460; -174.033;  -71.940
754.534;   -6.388; -487.033; -580.940
754.794;  -82.411; -926.033; -911.941
755.055;  138.091; 1051.967;  881.059
755.316;  -52.457; -700.032; -566.942
755.576;  -26.506; -606.032; -576.942
755.837;  -46.429; -527.032; -695.942
756.097;  -41.477; -530.032; -564.943
756.358;  -74.325; -725.032; -770.943
756.618;  -50.198; -705.031; -641.943
756.879;    9.854; -254.031; -349.944
757.139; -121.320;-1098.031;-1116.944
757.400;  -46.218; -538.031; -553.945
757.660;  -19.216; -365.031; -401.945
757.920;    9.786; -266.030; -228.945
758.181;  -19.262; -468.030; -351.946
758.441;  -90.436; -870.030; -809.946
758.701;  -31.234; -308.030; -215.946
758.961;  -22.407; -220.030; -278.947
759.222;  -55.005; -574.029; -502.947
759.482;  -79.378; -683.029; -723.948
759.742;  -91.802; -706.029; -547.948
760.002;   -5.325;  -83.029; -143.948
760.262;   16.202;   50.972;  182.051
760.522;  -50.371; -498.028; -574.949
760.782;  -57.519; -738.028; -612.949
761.042;  -32.493; -618.028; -573.950
761.302;   48.159;   55.972;  -18.950
761.562;   42.311; -164.027; -154.951
761.822;   78.938; -710.027; -551.951
762.082;  -42.985;-1104.027;-1093.951
762.342;   70.292; -328.027; -403.952
762.601;   88.018; -567.027; -506.952
762.861;  359.920; -281.026; -207.952
763.121;  394.522; -406.026; -411.953
763.381; 7269.649; -499.026; -485.953
763.640; 8327.601; -139.026; -307.954
763.900;  358.377; -242.026; -203.954
764.160;   75.079; -458.025; -491.954
764.419;  -11.094; -726.025; -782.955
764.679;  -82.942; -795.025; -726.955
764.939;  -19.790; -124.025; -210.955
765.198;  -93.789; -608.025; -563.956
765.458;  -87.012; -710.024; -612.956
765.717;  -93.260; -454.024; -590.957
765.976;  -62.833; -428.024; -411.957
766.236;  -73.206; -475.024; -610.957
766.495;   15.595;  260.977;   73.042
766.755;  -98.528;-1090.023; -987.958
767.014;   -7.726; -594.023; -665.958
767.273;  -45.049; -373.023; -397.959
767.533;  -56.922; -228.023; -307.959
767.792;  -38.370; -151.022; -188.960
768.051;  -51.619; -228.022; -276.960
768.310;  -92.292; -546.022; -650.960
768.569;  -11.990; -161.022;    4.039
768.828;  -24.638; -285.022; -363.961
769.088; -120.911;-1050.021; -942.961
769.347;  -75.185; -755.021; -599.962
769.606;  -93.433; -876.021; -857.962
769.865; -113.531;-1016.021;-1033.963
770.124;   -3.179; -411.021; -336.963
770.383;  -51.677; -778.020; -910.963
770.641;  -14.501; -398.020; -400.964
770.900;  -69.149; -953.020; -846.964
771.159;  -41.897; -851.020; -951.964
771.418;  -16.170; -917.020; -779.965
771.677;  108.282; -224.019; -293.965
771.936;  128.158; -794.019; -865.966
772.194; 2078.485; -465.019; -437.966
772.453;11035.012; -213.019; -391.966
772.712;  781.514;  416.982;  329.033
772.970;  105.616;   32.982;   63.033
773.229;   65.143;  -22.018;  102.033
773.488;  -93.131; -814.018; -770.968
773.746;   46.121;  296.982;  335.032
774.005;   -7.902;  190.983;  -22.969
774.263;   -6.175;  243.983;  177.031
774.522;  -37.098; -422.017; -548.969
774.780;  -87.372; -484.017; -417.970
775.039;  -83.970; -551.017; -531.970
775.297;  -46.193; -135.016; -351.970
775.555; -104.991; -489.016; -612.971
775.814; -120.989; -618.016; -570.971
776.072; -131.213; -749.016; -740.971
776.330; -113.511; -630.016; -520.972
776.589; -120.134; -703.015; -721.972
776.847; -139.507; -645.015; -624.973
777.105; -163.930;-1016.015;-1032.973
777.363; -105.504; -459.015; -454.973
777.621; -144.752; -660.015; -717.974
777.879;  -29.775;  -42.014;   32.026
778.138; -109.823; -554.014; -717.974
778.396; -104.221; -585.014; -526.975
778.654; -172.569;-1015.014; -970.975
778.912;  -70.493; -269.014; -371.976
779.170; -144.791; -880.013; -803.976
779.427; -153.814; -922.013; -897.976
779.685; -149.987; -880.013; -832.977
779.943;  -88.060; -654.013; -593.977
780.201; -162.309; -964.012; -883.978
780.459; -122.182; -651.012; -610.978
780.717;  -86.230; -440.012; -390.978
780.974; -116.753; -449.012; -490.979
781.232;  -80.151; -358.012; -338.979
781.490;  -86.075; -551.011; -472.979
781.747; -109.948; -555.011; -476.980
782.005;   14.679;  462.989;  254.020
782.263; -160.319; -542.011;-1004.981
782.520;  -97.042; -326.011; -501.981
782.778; -180.590;-1013.010;-1051.981
783.035; -171.964; -962.010; -938.982
783.293;  -76.312; -248.010; -206.982
783.550;  -68.535; -134.010; -198.982
783.808; -151.233; -764.010; -776.983
784.065; -167.606; -745.009; -874.983
784.322;  -43.705;   25.991;  -86.984
784.580; -144.903; -915.009; -771.984
784.837;  -96.726; -392.009; -466.984
785.094; -150.974; -783.009; -762.985
785.352;  -67.947; -304.008; -404.985
785.609; -122.046; -934.008; -839.985
785.866;  -79.144; -345.008; -401.986
786.123;  -79.967; -639.008; -583.986
786.380;  -98.265; -665.008; -604.987
786.637;  -54.863; -225.007; -380.987
786.895;  -32.562; -456.007; -543.987
787.152;  -49.160; -135.007; -267.988
787.409;  -44.283; -123.007; -225.988
787.666;  -92.181; -299.006; -378.988
787.923; -118.129; -616.006; -695.989
788.179; -115.602; -551.006; -584.989
788.436; -109.251; -585.006; -585.990
788.693;  -28.599;  -92.006;  -87.990
788.950;  129.803; -125.005; -112.990
789.207;  212.555; -381.005; -372.991
789.464;  -63.443; -161.005; -301.991
789.720;  -11.742;  150.995;  110.009
789.977; -172.140;-1003.005; -671.992
790.234;  -44.663;   44.996;  -66.992
790.490; -157.936; -884.004;-1031.993
790.747;  -22.959;  -85.004;   22.007
791.004;  -37.458; -426.004; -348.993
791.260;  -83.056; -430.004; -560.994
791.517; -100.979; -843.003; -788.994
791.773;  -54.152; -379.003; -342.994
792.030; -111.875; -596.003; -660.995
792.286; -103.899; -686.003; -636.995
792.543;  -21.197;  -74.002; -159.995
792.799;  -55.470; -584.002; -382.996
793.055; -161.318;-1179.002;-1210.996
793.312;  -98.541; -827.002; -816.997
793.568;  -70.064; -746.002; -599.997
793.824;   -2.388; -226.001; -284.997
794.081;   10.339; -447.001; -508.998
794.337;   51.816; -664.001; -561.998
794.593; 1222.018; -319.001; -271.999
794.849; 6555.395; -746.001; -772.999
795.105;  339.521; -270.000; -261.999
795.361;   11.648; -490.000; -457.000
795.617;  -58.625; -875.000; -945.000
795.873;  -53.425; -360.000; -407.000
796.129;  -57.175; -368.000; -306.000
796.385;  -25.775; -124.000; -156.000
796.641;   59.475;  412.000;  550.000
796.897;  -83.875; -666.000; -635.000
797.153;   55.050;  453.000;  357.000
797.409; -106.350; -785.000; -868.000
797.665;  -77.150; -625.000; -732.000
797.921;  -79.075; -775.000; -762.000
798.176;  -61.875; -744.000; -747.000
798.432;  -57.400; -824.000; -596.000
798.688;  -78.200;-1174.000;-1078.000
798.943;   71.850; -165.000; -147.000
799.199;   -8.775;-1005.000; -959.000
799.455;  218.525;  369.000;  316.000
799.710;  128.600; -813.000; -380.000
799.966;  286.175; -162.000; -160.000
800.221;  460.825; -638.000; -721.000
800.477;10148.250; -743.000; -710.000
800.732; 9486.575; -773.000; -800.000
800.988;  638.175;  205.000;  -19.000
801.243; 1683.200; -454.000; -344.000
801.498; 7816.900; -814.000; -739.000
801.754;  478.150; -289.000; -163.000
802.009;   77.300; -257.000; -335.000
802.264;  -47.825; -967.000;-1033.000
802.520;   12.100;  222.000;   -3.000
802.775;  -57.450; -524.000; -359.000
803.030;   50.875;  395.000;  356.000
803.285; -120.600; -840.000; -903.000
803.540;  -77.025; -686.000; -699.000
803.795;  -40.500; -648.000; -583.000
804.051;  -56.250; -279.000; -346.000
804.306;   19.450;  168.000;  128.000
804.561;  138.725;  451.000;  362.000
804.816;  130.550;  714.000;  861.000
805.071;   -2.625; -185.000; -280.000
805.325;  212.275; -257.000; -427.000
805.580; -109.350; -841.000; -877.000
805.835;  -24.275; -204.000; -297.000
806.090;  -83.300; -760.000; -676.000
806.345;  -19.275; -344.000; -264.000
806.600;  -30.400; -549.000; -632.000
806.854;  -32.725; -408.000; -538.000
807.109;  -16.225; -493.000; -577.000
807.364;    2.950; -407.000; -328.000
807.618;    5.200; -415.000; -381.000
807.873;   45.650; -470.000; -494.000
808.128;   85.400; -257.000; -518.000
808.382;  105.325; -224.000; -332.000
808.637;   64.800; -440.000; -511.000
808.891;  176.925; -257.000; -180.000
809.146;   93.225; -902.000; -794.000
809.400;  256.350; -848.000; -923.000
809.654;  336.350; -779.000; -551.000
809.909;  477.400; -841.000; -927.000
810.163; 6259.075; -813.000; -651.000
810.418;17197.725; -940.000; -861.000
810.672; 1021.325; -685.000; -690.000
810.926;  716.325; -993.000; -973.000
811.180; 1345.450; -439.000; -372.000
811.434;31115.425;  240.000;  135.000
811.689;13399.375; -231.000; -365.000
811.943;  650.750; -936.000; -953.000
812.197;  321.075; -893.000; -671.000
812.451;  143.050; -379.000; -514.000
812.705;  -28.650; -809.000; -619.000
812.959;   -3.975; -263.000; -388.000
813.213;  -13.425; -283.000; -209.000
813.467;   62.850;  470.000;  253.000
813.721; -118.100; -764.000; -792.000
813.975; -122.100; -826.000; -877.000
814.229;   27.250;  430.000;  353.000
814.482;  -74.150; -517.000; -566.000
814.736; -121.650; -766.000; -744.000
814.990; -136.325; -779.000; -872.000
815.244;  -55.525; -228.000; -285.000
815.497;  -96.650; -636.000; -601.000
815.751;   -4.575; -141.000;   82.000
816.005;  -93.600; -470.000; -586.000
816.258;  -74.525; -510.000; -363.000
816.512; -122.375; -693.000; -610.000
816.766;   -2.975;  121.000;  157.000
817.019;   12.475;  148.000;  149.000
817.273; -112.100;-1000.000; -802.000
817.526;  -34.725; -206.000; -173.000
817.779;  -46.050;-1049.000; -960.000
818.033;  -65.500; -693.000; -807.000
818.286; -139.800; -725.000; -792.000
818.540;  -79.125; -403.000; -403.000
818.793;  -81.425; -402.000; -489.000
819.046; -113.725; -582.000; -520.000
819.299;  -50.925; -157.000; -166.000
819.553; -109.550; -552.000; -592.000
819.806; -159.000;-1016.000; -838.000
820.059;  -67.525; -334.000; -354.000
820.312;    0.950;  152.000;  185.000
820.565;  -38.500;  110.000;  -27.000
820.818;  -56.375;  -59.000; -173.000
821.071; -156.075;-1041.000; -957.000
821.324; -104.300; -536.000; -540.000
821.577; -111.450; -457.000; -483.000
821.830;  -71.875; -270.000; -172.000
822.083; -129.575; -733.000; -288.000
822.336;  -64.625; -261.000; -167.000
822.589; -139.375; -805.000; -688.000
822.842; -149.925; -875.000; -770.000
823.094; -188.175;-1076.000;-1114.000
823.347; -133.575; -925.000; -729.000
823.600;    3.525;  402.000;  187.000
823.853;  -65.975; -311.000; -267.000
824.105;  -73.150; -331.000; -575.000
824.358; -118.125; -617.000; -716.000
824.611;   22.850;  234.000;   40.000
824.863;  -52.950; -612.000; -591.000
825.116;   42.350;  -33.000;   27.000
825.368;   72.925; -366.000; -372.000
825.621;  138.075; -186.000; -240.000
825.873;   74.100; -704.000; -737.000
826.126;  550.025; -669.000; -641.000
826.378;11286.450; -389.000; -505.000
826.630; 2965.350; -890.000; -898.000
826.883;   32.250; -754.000; -693.000
827.135;   41.350; -279.000; -270.000
827.387; -126.600; -893.000; -839.000
827.639;  -41.150;  -86.000;   32.000
827.892; -123.825; -742.000; -582.000
828.144; -159.525; -848.000; -804.000
828.396;  -38.850;  104.000;  -80.000
828.648;  -96.325; -440.000; -333.000
828.900; -161.400; -702.000; -795.000
829.152; -111.975; -684.000; -683.000
829.404;  -88.700; -215.000; -267.000
829.656;  -54.550;  321.000;  214.000
829.908;  -36.300;  393.000;  229.000
830.160; -165.900;-1064.000;-1047.000
830.412; -109.150; -481.000; -430.000
830.664; -115.550; -557.000; -665.000
830.916;  -86.825; -268.000; -206.000
831.167; -190.000;-1073.000; -951.000
831.419; -113.900; -623.000; -566.000
831.671; -154.475; -764.000; -809.000
831.923;  -95.275; -311.000; -447.000
832.174;  -70.075; -273.000; -331.000
832.426; -129.425; -493.000; -582.000
832.678; -195.925;-1043.000;-1091.000
832.929; -165.950; -947.000; -935.000
833.181;  -80.925; -575.000; -677.000
833.432;  -55.475;  -59.000; -186.000
833.684;  -29.500;  112.000;  -27.000
833.935; -117.750; -610.000; -566.000
834.187; -131.425; -829.000; -823.000
834.438;  -66.275;  -58.000;  -25.000
834.689;  -63.550; -255.000; -123.000
834.941;  -70.025; -343.000; -244.000
835.192; -115.875; -590.000; -533.000
835.443; -111.625; -419.000; -506.000
835.695;  -18.275;  138.000;  -16.000
835.946;  -95.800; -608.000; -378.000
836.197; -115.475; -599.000; -622.000
836.448; -103.225; -528.000; -395.000
836.699;  -54.775; -253.000; -341.000
836.950;  -16.300;   72.000;    7.000
837.201; -149.275;-1003.000; -987.000
837.452;  -57.475; -356.000; -170.000
837.703; -113.250; -791.000; -737.000
837.954;  -38.850; -205.000; -365.000
838.205;  -88.775;-1029.000;-1008.000
838.456;  151.975; -196.000; -282.000
838.707;    6.175; -423.000; -519.000
838.958;   -7.350; -634.000; -647.000
839.209;  294.225;   18.000;   40.000
839.460;  122.225; -439.000; -201.000
839.710;  152.025; -135.000; -297.000
839.961;  406.525;  730.000;  612.000
840.212;  336.125; -382.000; -497.000
840.462; 1073.750; -328.000; -277.000
840.713;17416.725; -571.000; -536.000
840.964; 7524.425;  -62.000; -143.000
841.214;  499.175; -384.000; -624.000
841.465;  546.775; -214.000; -141.000
841.715;  488.325; -417.000; -380.000
841.966;  634.200; -746.000; -685.000
842.216; 8494.200; -330.000; -431.000
842.466;34632.725; -169.000; -313.000
842.717; 2073.725; -964.000; -952.000
842.967;  327.750; -635.000; -641.000
843.217;  269.325;   20.000;   28.000
843.468;   53.725; -104.000; -132.000
843.718;  -51.875; -718.000; -726.000
843.968;  -91.575; -837.000; -765.000
844.218;   10.950; -315.000; -262.000
844.469;  -65.575; -577.000; -561.000
844.719; -106.225; -537.000; -682.000
844.969;  -94.400; -550.000; -580.000
845.219; -150.700; -814.000; -862.000
845.469;  -93.800; -392.000; -342.000
845.719; -133.725; -792.000; -884.000
845.969;   -9.525;  119.000;  174.000
846.219; -127.225; -738.000; -720.000
846.469;   19.850;  464.000;  432.000
846.718;  -47.550; -115.000;   31.000
846.968; -139.550; -827.000; -827.000
847.218;  -48.825; -224.000; -371.000
847.468; -125.625; -586.000; -555.000
847.718; -163.250; -827.000; -798.000
847.967; -127.600; -826.000; -915.000
848.217;  -97.100; -449.000; -569.000
848.467;  -61.350; -405.000; -376.000
848.716; -101.125; -708.000; -725.000
848.966;   -7.200; -372.000; -358.000
849.215;  -61.100; -428.000; -419.000
849.465;  -95.550; -785.000; -615.000
849.714; -148.050;-1132.000;-1150.000
849.964;  -72.650; -551.000; -613.000
850.213;  -17.775; -393.000; -355.000
850.463;   66.500;  137.000;  340.000
850.712;   -7.200; -542.000; -567.000
850.961;   -4.125; -739.000; -678.000
851.211;   98.700; -513.000; -504.000
851.460;  161.725; -635.000; -650.000
851.709;  543.100;  -25.000;   18.000
851.958; 9913.675; -912.000; -750.000
852.208;13041.550; -859.000; -879.000
852.457;  488.125; -181.000;  -13.000
852.706;   58.050; -791.000; -823.000
852.955;    7.275; -507.000; -528.000
853.204;  -65.675; -521.000; -461.000
853.453;  -82.725; -418.000; -458.000
853.702; -132.650; -660.000; -750.000
853.951; -109.050; -532.000; -520.000
854.200; -122.700; -613.000; -562.000
854.449; -144.400; -695.000; -661.000
854.698;  -93.325; -340.000; -279.000
854.946;  -78.625; -181.000; -284.000
855.195; -148.875; -843.000; -868.000
855.444; -108.900; -395.000; -420.000
855.693; -138.100; -345.000; -432.000
855.941; -117.950; -387.000; -516.000
856.190;  -64.925; -256.000; -382.000
856.439; -126.400; -652.000; -703.000
856.687;  -58.275;  -99.000;  -72.000
856.936; -128.225; -621.000; -323.000
857.184; -185.700;-1067.000;-1020.000
857.433; -103.475; -423.000; -512.000
857.681; -163.250; -989.000; -953.000
857.930;  -88.225; -282.000; -433.000
858.178; -177.800; -856.000; -929.000
858.427; -166.425; -802.000; -781.000
858.675; -121.925; -377.000; -544.000
858.923; -125.525; -527.000; -819.000
859.172; -188.600;-1094.000;-1070.000
859.420; -103.975; -339.000; -239.000
859.668; -144.700; -624.000; -628.000
859.916;  -31.550;  109.000;  115.000
860.164; -121.550; -699.000; -603.000
860.413;  256.375; -878.000; -696.000
860.661;  223.350; -709.000; -577.000
860.909;  -90.425; -339.000; -325.000
861.157;  -86.650; -277.000; -444.000
861.405; -121.625; -534.000; -670.000
861.653;   12.350;  310.000;  310.000
861.901;  142.750; -543.000; -613.000
862.149;  -13.400; -801.000; -824.000
862.396;  -85.000; -297.000; -187.000
862.644;  -96.625; -368.000; -347.000
862.892;  -49.550;   98.000;  138.000
863.140; -122.200; -549.000; -530.000
863.388; -165.925; -815.000; -759.000
863.635; -131.000; -642.000; -601.000
863.883;  -30.675;  231.000;  190.000
864.131; -107.925; -288.000; -357.000
864.378; -137.225; -675.000; -540.000
864.626; -110.000; -347.000; -415.000
864.873; -132.950; -556.000; -505.000
865.121; -144.850; -714.000; -799.000
865.368;  -56.650; -173.000;   75.000
865.616;  -34.100;  -33.000;  -40.000
865.863;  -79.725; -462.000; -506.000
866.111; -120.475; -795.000; -824.000
866.358;   19.025; -426.000; -420.000
866.605; 2180.150;  -64.000; -804.000
866.853; 2376.875; -621.000; -537.000
867.100;  -44.050; -728.000; -775.000
867.347; -111.900; -672.000; -611.000
867.594;  -99.800; -740.000; -714.000
867.841;   81.150;   97.000;   17.000
868.089; -149.600; -746.000; -698.000
868.336; -120.300; -477.000; -420.000
868.583; -142.525; -637.000; -741.000
868.830;  -72.700; -131.000; -170.000
869.077; -170.175; -859.000; -787.000
869.324; -131.525; -502.000; -458.000
869.571; -130.975; -398.000; -430.000
869.818; -137.625; -485.000; -439.000
870.065;  -98.650; -439.000; -513.000
870.311; -132.525; -456.000; -542.000
870.558; -109.550; -332.000; -311.000
870.805;  -92.450; -320.000; -384.000
871.052; -111.625; -494.000; -369.000
871.298;  -64.125; -204.000; -131.000
871.545;  -77.350; -151.000; -185.000
871.792;  -93.675; -173.000; -222.000
872.038;  -57.500;   43.000; -126.000
872.285; -127.300; -496.000; -387.000
872.532; -104.900; -357.000; -387.000
872.778;    6.950;  556.000;  403.000
873.025;  -93.550; -384.000; -359.000
873.271;    6.300;  501.000;  578.000
873.517;  -35.175; -133.000; -209.000
873.764;  -43.850; -193.000;  -80.000
874.010;  -72.400; -143.000; -230.000
874.257;  -54.600;  123.000;   90.000
874.503; -134.350; -579.000; -479.000
874.749;  -83.000;   31.000;  275.000
874.995;  -62.400;  -80.000;  -20.000
875.242; -126.450; -540.000; -478.000
875.488; -117.950; -414.000; -439.000
875.734;  -53.050; -106.000; -234.000
875.980;  174.900; -872.000;-1032.000
876.226;  368.400; -157.000; -255.000
876.472;   -5.425;  343.000;  237.000
876.718;  -58.175;  184.000;  158.000
876.964;  -48.375;   56.000;   55.000
877.210; -145.900; -547.000; -677.000
877.456; -151.600; -630.000; -557.000
877.702; -183.400; -821.000; -832.000
877.948; -120.300; -377.000; -497.000
878.193;   12.950;  361.000;  255.000
878.439;  -94.775; -487.000; -472.000
878.685; -106.650; -272.000; -343.000
878.931; -145.400; -618.000; -676.000
879.176;  -91.150; -201.000; -201.000
879.422; -170.375; -933.000; -820.000
879.668;   55.075;   10.000;   79.000
879.913;  131.525;   53.000;  137.000
880.159;  -69.500; -112.000;  -17.000
880.404;  -57.625; -152.000; -162.000
880.650;  -46.300;   91.000;  141.000
880.895; -168.425; -670.000; -710.000
881.141; -130.950; -454.000; -428.000
881.386; -150.875; -503.000; -658.000
881.631; -103.000; -311.000; -166.000
881.877;  -54.400;  112.000;  -13.000
882.122; -134.175; -684.000; -600.000
882.367; -102.000; -136.000; -186.000
882.612;  -75.875;  -80.000; -176.000
882.858; -171.900; -877.000; -823.000
883.103; -108.425; -297.000; -267.000
883.348; -151.575; -759.000; -852.000
883.593; -159.950; -677.000; -602.000
883.838;  -61.150; -311.000;  -24.000
884.083;   21.200;  353.000;  288.000
884.328; -105.275; -564.000; -545.000
884.573;  -53.275; -196.000; -143.000
884.818;  168.500; -694.000; -531.000
885.063;  172.925; -348.000; -315.000
885.308; -114.800; -475.000; -398.000
885.553;  -24.175;  245.000;  325.000
885.797; -121.725; -545.000; -615.000
886.042;  -64.825;    8.000;   58.000
886.287;  -94.750; -253.000; -211.000
886.532;  -61.425;   26.000;  204.000
886.776;  -98.400; -407.000; -525.000
887.021; -162.625; -621.000; -574.000
887.265; -158.575; -685.000; -689.000
887.510; -145.750; -557.000; -496.000
887.755;  -97.425; -194.000; -164.000
887.999; -140.975; -552.000; -575.000
888.244;  -50.700;  -58.000;  161.000
888.488;  -26.325;  371.000;  393.000
888.732; -137.675; -368.000; -520.000
888.977; -136.450; -622.000; -567.000
889.221; -164.900; -683.000; -659.000
889.465; -140.525; -422.000; -566.000
889.710;  -89.050;  -56.000; -299.000
889.954;   -2.975;  579.000;  467.000
890.198; -157.375; -584.000; -707.000
890.442; -160.150; -716.000; -712.000
890.687; -169.350; -800.000; -753.000
890.931;  -91.325; -273.000; -210.000
891.175; -142.775; -502.000; -500.000
891.419;  -68.525; -105.000; -110.000
891.663;  -96.600; -239.000; -112.000
891.907; -161.750; -801.000; -545.000
892.151; -186.800; -920.000; -815.000
892.395; -130.275; -274.000; -387.000
892.638;  -37.275;  408.000;  291.000
892.882; -181.100; -780.000; -867.000
893.126;   -5.125;  758.000;  558.000
893.370; -111.400; -167.000; -168.000
893.614; -150.875; -714.000; -715.000
893.857;  -98.500; -183.000; -197.000
894.101; -132.875; -527.000; -631.000
894.345;  -72.750;  300.000;  150.000
894.588;   16.400;  569.000;  380.000
894.832;  -94.700; -178.000;  -84.000
895.075;  -76.325;   15.000;  -92.000
895.319; -144.325; -552.000; -420.000
895.563; -117.825; -413.000; -353.000
895.806; -168.700; -628.000; -741.000
896.049;  -70.450; -576.000; -368.000
896.293;   82.350;  527.000;  405.000
896.536;  -78.550; -465.000; -468.000
896.779;  -71.125; -149.000;   -1.000
897.023; -146.050; -751.000; -714.000
897.266;  -54.775;  325.000;  269.000
897.509; -199.200; -900.000; -901.000
897.752;  -61.425;  149.000;  171.000
897.996; -187.350; -972.000; -864.000
898.239;  -73.000;  168.000;  102.000
898.482; -123.575; -431.000; -453.000
898.725;  -50.275;  101.000;   53.000
898.968; -169.950; -609.000; -744.000
899.211; -121.625; -513.000; -361.000
899.454; -135.450; -633.000; -539.000
899.697;  -67.575;   90.000;  -43.000
899.940; -171.075; -761.000; -757.000
900.182;  -96.175; -335.000; -405.000
900.425; -103.500; -150.000; -298.000
900.668;  -35.675;  491.000;  350.000
900.911; -112.050; -292.000; -345.000
901.154;  -72.375;  141.000;   -3.000
901.396; -149.550; -407.000; -412.000
901.639; -133.825; -430.000; -496.000
901.882; -189.575; -790.000; -809.000
902.124;  -93.375;  -29.000; -143.000
902.367; -115.525; -315.000; -361.000
902.609; -145.525; -476.000; -453.000
902.852;  -87.600; -108.000; -260.000
903.094; -129.175; -458.000; -337.000
903.337;  -66.200;  -26.000;   53.000
903.579; -127.550; -228.000; -441.000
903.821; -154.975; -597.000; -744.000
904.064;  -62.475;   85.000;  127.000
904.306;  -83.925; -126.000; -166.000
904.548; -103.250; -152.000; -366.000
904.790;  -97.700; -195.000; -340.000
905.033; -139.725; -625.000; -577.000
905.275; -123.325; -513.000; -524.000
905.517;   17.975;  468.000;  256.000
905.759;  -82.850; -667.000; -761.000
906.001; -105.250; -322.000; -369.000
906.243;  -77.800; -162.000; -224.000
906.485;   92.475; -265.000; -207.000
906.727;  106.550; -499.000; -542.000
906.969;  -45.325;  -30.000; -135.000
907.211;   98.225; -316.000; -382.000
907.453;  261.625; -188.000; -237.000
907.695;    2.325; -158.000; -385.000
907.936;   36.950;  818.000;  706.000
908.178;  -83.900;   92.000; -135.000
908.420;  -88.300; -111.000; -162.000
908.662; -135.650; -633.000; -682.000
908.903; -100.700; -208.000; -123.000
909.145;  -60.975; -240.000; -305.000
909.386;  -10.625;  315.000;  280.000
909.628;   34.500;  363.000;  397.000
909.870;   -4.025;   29.000;  264.000
910.111; -104.250; -809.000; -949.000
910.353;   -6.850; -123.000; -161.000
910.594;   15.600; -574.000; -606.000
910.835;   79.225; -265.000; -326.000
911.077;  148.800; -503.000; -604.000
911.318;  271.875; -505.000; -471.000
911.559;  454.050; -577.000; -880.000
911.801; 1308.275; -284.000; -280.000
912.042;10015.675;  -50.000; -159.000
912.283;27242.425;  404.000;  371.000
912.524; 4405.325; -396.000; -457.000
912.765;  475.225; -193.000;   79.000
913.006;  230.775; -307.000; -338.000
913.247;   47.075; -270.000; -290.000
913.488;    7.200;  -43.000;   30.000
913.729; -100.225; -373.000; -373.000
913.970;  -56.225;  -96.000; -292.000
914.211;  -86.650; -160.000; -198.000
914.452;  -63.950; -118.000;  -11.000
914.693;    6.775;  510.000;  592.000
914.934;    6.075;  510.000;  440.000
915.175;  -76.200;   53.000;  -95.000
915.415;  -80.200; -137.000;   27.000
915.656;  -68.100;  -28.000;  192.000
915.897;  -84.400; -252.000;  -82.000
916.137;  -79.325;   74.000;   -9.000
916.378; -130.825; -573.000; -517.000
916.619;  -92.675; -159.000;  -63.000
916.859;  -35.800;  303.000;  330.000
917.100;  127.475; 1655.000; 1070.000
917.340;   39.075;  930.000;  728.000
917.581;   41.225;  965.000;  789.000
917.821;  -35.125; -171.000;  143.000
918.061;    7.300; -199.000;  -72.000
918.302;  -56.775; -152.000; -211.000
918.542;  -39.150;  -22.000;    3.000
918.782;   41.250;  369.000;  377.000
919.023;  125.550;  360.000;  427.000
919.263; 1700.675; 8131.000;  202.000
919.503; 1102.400; -137.000;  -54.000
919.743;  616.050;  390.000;  266.000
919.983;  265.900; -134.000;  -26.000
920.223;   82.350;  135.000;   14.000
920.463;  129.500;  631.000;  554.000
920.703;  128.200;   84.000;   39.000
920.943;  162.475; -110.000;   90.000
921.183;  219.925; -414.000; -405.000
921.423;  483.925;  307.000;  546.000
921.663;  711.250; -174.000; -257.000
921.903; 1539.775;  237.000;  173.000
922.143; 8400.050;  372.000;  389.000
922.383;33223.900;  158.000;  115.000
922.622;11893.475; -120.000;  -15.000
922.862; 1237.125;  796.000;  785.000
923.102;  473.775;  -51.000;   33.000
923.341;  163.675;   59.000;   74.000
923.581;   84.325;  450.000;  360.000
923.821;   11.975;  301.000;  398.000
924.060;    1.025;  351.000;  193.000
924.300;  -64.675;  -16.000; -128.000
924.539;  -15.300;  584.000;  473.000
924.779;   -0.150;  812.000;  597.000
925.018;  -46.525;  247.000;  353.000
925.257;  -17.225;  595.000;  666.000
925.497;  -48.275;  447.000;  412.000
925.736;  -85.550;  -35.000;  102.000
925.975;   -9.325;  687.000;  669.000
926.214;   18.275;  907.000;  850.000
926.454;   27.800;  706.000;  757.000
926.693;  -57.525;  419.000;  543.000
926.932;   30.500; 1021.000;  825.000
927.171;   59.400; 1107.000; 1044.000
927.410;   58.600; 1144.000;  967.000
927.649;   16.150;  924.000;  742.000
927.888;  -10.925;  590.000;  564.000
928.127;  -21.425;  680.000;  678.000
928.366;   27.050;  842.000;  826.000
928.605;   27.750;  831.000;  737.000
928.844;  211.625; 1451.000; 1393.000
929.083;  605.100;  770.000;  613.000
929.321;  318.875; 1335.000; 1359.000
929.560;   83.600; 1158.000; 1122.000
929.799;  -36.950;  574.000;  475.000
930.038;   57.475; 1025.000; 1394.000
930.276;  -50.575;  334.000;  397.000
930.515;  -17.925;  827.000;  681.000
930.753;  -18.100;  614.000;  589.000
930.992;  -32.475;  664.000;  717.000
931.230;   -3.375;  847.000;  847.000
931.469;  157.350; 2162.000;  892.000
931.707;   60.625;  840.000;  751.000
931.946;   51.250; 1278.000; 1344.000
932.184;   38.600; 1437.000; 1175.000
932.423;   37.750; 1265.000;  963.000
932.661;   95.250; 1296.000; 1428.000
932.899;    8.050;  987.000;  821.000
933.137;    7.400;  754.000;  564.000
933.376;  133.425; 1664.000; 1335.000
933.614;  168.775; 1759.000; 1196.000
933.852;   37.225; 1357.000; 1171.000
934.090;  131.225; 1722.000; 1747.000
934.328;   87.150; 1252.000; 1457.000
934.566;   79.700; 1431.000; 1110.000
934.804;  128.125; 1263.000; 1309.000
935.042;  450.825; 1861.000; 1850.000
935.280; 1742.800; 2088.000; 2063.000
935.518; 1741.500; 2113.000; 2007.000
935.756;  394.125; 2481.000; 2316.000
935.994;  172.650; 1808.000; 1751.000
936.231;  340.950; 2890.000; 2950.000
936.469;  187.725; 2367.000; 2378.000
936.707;  165.300; 2220.000; 2167.000
936.945;  208.125; 2825.000; 2882.000
937.182;  201.325; 2679.000; 2741.000
937.420;  279.125; 3602.000; 3031.000
937.657;  407.725; 3365.000; 3478.000
937.895;  347.325; 3331.000; 3488.000
938.133;  309.350; 3540.000; 3528.000
938.370;  332.175; 3896.000; 4191.000
938.607;  401.225; 4488.000; 4205.000
938.845;  543.100; 5587.000; 5549.000
939.082;  478.275; 5387.000; 5177.000
939.320;  508.125; 5799.000; 5728.000
939.557;  633.125; 6549.000; 6491.000
939.794;  735.800; 7285.000; 7097.000
940.031;  888.550; 8421.000; 8368.000
940.269; 1131.950; 9552.000; 9107.000
940.506; 1112.850;10901.000;10507.000

