
Integration time [ms]: 100.000
Averaging Nr. [scans]: 40
Smoothing Nr. [pixels]: 0
Data measured with spectrometer [name]: 2101013U2
Wave   ;Sample   ;Dark     ;Reference
[nm]   ;[counts] ;[counts] ;[counts] 

394.013;   53.212; -450.257; -315.536
394.305;  189.860; -461.258; -419.536
394.596; 1585.606; -676.269; -527.514
394.887; 4184.152; -796.268; -654.518
395.178; 1520.615;  145.736;   11.476
395.470;   90.779; -210.263; -356.526
395.761;  158.770;  305.734;  394.479
396.052;  140.300; -545.284; -306.489
396.343;  129.737; -557.276; -454.503
396.634;   54.823; -200.279; -290.497
396.926;   47.149; -618.268; -565.517
397.217;   89.318;   11.725;  -17.504
397.508;   53.137; -366.273; -154.507
397.799;   24.323; -555.279; -571.497
398.090;   20.241; -973.280; -902.495
398.381;   91.331;   11.708;  -11.473
398.672;   -3.267; -585.292; -742.473
398.963;   46.756; -348.279; -373.498
399.254;   97.219;   54.709; -209.475
399.545;   -4.884;-1017.266; -883.520
399.836;   62.848; -407.277; -343.501
400.127;   60.002; -205.295; -209.468
400.418;   49.531; -423.274; -392.506
400.709;   51.225; -359.281; -333.493
401.000;   51.224; -268.291; -309.476
401.290;  107.747;  225.698;  115.545
401.581;   61.953; -166.286; -228.485
401.872;   55.542; -542.298; -486.462
402.163;   74.617; -313.296; -252.467
402.454;  108.070; -123.291; -163.475
402.744;   60.056; -844.297; -813.465
403.035;  266.295; -226.293;  -86.471
403.326;  356.786; -366.292; -384.474
403.617;  337.010;  204.701;  165.539
403.907;  373.207; -593.283; -679.490
404.198; 3594.340; -545.307; -599.446
404.489; 9180.938; -618.283; -588.491
404.779; 2563.352; -618.302; -660.456
405.070;  320.425;  -67.304; -174.451
405.360;  521.248; -259.293; -238.472
405.651;  492.141;  125.699;   98.542
405.942;  200.922;  209.714;  127.516
406.232;  130.366; -432.285; -413.487
406.523;  277.764;  641.706;  758.530
406.813;   75.225; -579.286; -644.484
407.104;  227.330;  261.708;  144.527
407.394;  110.661; -604.299; -591.462
407.685;  150.014;  336.715;  222.513
407.975;   90.186; -400.283; -382.490
408.265;  127.688; -134.289; -190.478
408.556;   76.266; -472.291; -459.475
408.846;  197.515;  474.706;  429.530
409.137;  122.548;   -1.288; -216.480
409.427;   96.190; -193.285; -271.487
409.717;   54.191; -776.273; -692.508
410.007;  147.857;    4.715; -170.486
410.298;  144.230; -360.295; -342.469
410.588;  110.012; -495.285; -510.486
410.878;   80.212; -792.287; -873.482
411.168;  132.595; -481.298; -478.463
411.459;  154.805; -295.283; -242.489
411.749;   95.339; -609.292; -507.474
412.039;   99.221; -755.289; -386.480
412.329;  229.614;   40.722;  132.501
412.619;  242.001;  -62.286; -148.485
412.909;  386.141;  639.711;  594.521
413.199;  372.541; -130.280; -251.495
413.490;  409.830;  521.710;  352.523
413.780;  229.246;-1013.279; -913.496
414.070;  407.713;  -46.276;  235.497
414.360;  423.560; -729.278; -666.498
414.650;  577.832; -726.288; -688.482
414.940;  779.970; -538.280; -441.496
415.230; 1285.403;   50.712;   74.519
415.520; 8781.605;  155.730;   66.486
415.809;35477.274; -305.281; -125.493
416.099;26493.626; -388.277; -229.501
416.389; 7741.528;  435.726;  236.494
416.679; 4464.633;   91.738;   85.473
416.969;  779.018; -527.287; -503.483
417.259;  678.273;  341.721;  171.503
417.549;  913.573;  522.718;  318.508
417.838; 2411.651; -205.268; -147.518
418.128; 8342.461;  650.710;  492.522
418.418; 6778.749; -491.272; -579.509
418.708; 4513.003;    9.726;  -48.506
418.997;17745.348; -474.275; -480.505
419.287;17995.886; -733.273; -790.507
419.577;17411.404; -160.283; -123.489
419.866;55957.299; -588.277; -498.501
420.156;54876.450; -242.270;  -55.513
420.446; 9057.099; -112.263;  -26.526
420.735;  927.793; -376.271; -446.512
421.025;  935.384; 1830.722;  315.502
421.314;  609.090; -203.271; -226.512
421.604;  845.567;   89.732;  233.484
421.893;  509.111; -705.271; -602.511
422.183;  313.999; -487.263; -461.526
422.472;  430.487;  -36.271; -107.511
422.762;  435.274; -416.266; -379.521
423.051;  296.689; -916.276; -916.503
423.341;  338.664; -491.273; -439.507
423.630;  429.406; -121.265;   15.477
423.919;  443.397;   58.725;   49.495
424.209;  494.306;  -31.263;   56.473
424.498;  652.223;   68.732;  161.483
424.787; 1483.756; -535.267; -601.518
425.077; 4341.079;   34.735;   29.478
425.366; 4793.613; -734.262; -744.528
425.655;13002.515;  639.727;  259.493
425.945;33199.649; -313.247; -268.554
426.234;17433.441;  117.741;  300.467
426.523; 7551.248;  -86.259; -350.534
426.812;10138.618;  107.734;  159.480
427.101;14960.138; -127.269; -323.515
427.390;17409.230;  -55.270;  -86.514
427.680; 2592.622; -624.257; -411.538
427.969;  553.011; -330.255; -301.540
428.258;  396.087; -385.257; -477.536
428.547;  534.854;  449.728;  397.490
428.836;  815.331; -421.253; -398.543
429.125; 1163.375; -199.259;  -72.534
429.414;  841.084; -330.251; -294.548
429.703; 4574.959; -231.251; -213.548
429.992;14183.289; -938.250; -828.549
430.281; 8860.265; -397.264; -331.524
430.570;  646.472;  -21.252;   32.454
430.859;  495.272;  279.741;  352.466
431.148;  476.469;  636.752;  631.446
431.437;  370.197;  391.748;  367.454
431.725;  237.014; -544.257; -481.536
432.014;  241.315; -845.253; -756.545
432.303;  461.813; -149.239; -105.569
432.592;  592.824; -460.263; -178.525
432.881; 1452.670; -601.248; -437.554
433.169; 9513.287; -343.255;  -61.540
433.458;19355.330;  445.765;  540.424
433.747; 7571.245; -397.261; -289.529
434.036;  955.808; -275.242; -280.564
434.324; 2952.954; -395.249; -379.551
434.613; 5218.975;   40.757;  159.437
434.902; 1522.976;  333.760;  439.433
435.190;  369.387;   75.761;  295.431
435.479;  213.127;  -52.245;   83.441
435.767;  119.237; -411.244; -427.561
436.056;  241.053; -340.242; -294.563
436.345;  530.804; -372.240; -223.568
436.633;  472.298;   60.750;  383.450
436.922;  239.757;  208.760;  414.432
437.210;  308.293; -194.236;    1.426
437.499;  750.253; -583.235; -432.576
437.787;  822.142; -339.236;  -10.574
438.075;  271.069;   56.761;  162.430
438.364;  269.447;  -44.238;  250.429
438.652;  168.002; -286.226; -138.592
438.941;  115.458;    3.770;  269.415
439.229;    1.444; -665.252; -466.545
439.517;   52.688; -160.234;  -85.577
439.806;   11.497; -501.225; -290.595
440.094;  170.173;  377.766;  650.421
440.382;   87.428; -653.233; -302.580
440.670;   65.852; -361.235; -285.576
440.959;   30.294; -347.223; -170.599
441.247;   66.047; -151.229; -109.587
441.535;   68.561; -266.235;   31.423
441.823;   13.419; -497.234; -305.578
442.111;  186.052;  173.771;  327.412
442.400;  360.326; -628.245; -335.559
442.688;  679.222; -111.234; -620.579
442.976;  370.953; -786.213; -450.617
443.264;   73.980; -324.224; -364.597
443.552;   75.279; -258.226;   51.408
443.840;  145.235;  602.765;  876.423
444.128;   99.002;  265.767;  269.420
444.416;   11.405; -694.228; -312.588
444.704;   41.930; -465.219;  -92.605
444.992;   75.332;   -0.226;  240.407
445.280;   39.683; -517.230;  -94.585
445.568;   22.232; -694.212; -396.618
445.856;  173.661; -174.221;  357.398
446.143;  331.426;  -54.220;   -7.604
446.431;  292.685;  -25.228;  625.411
446.719;  188.904;  489.783;  675.391
447.007;  158.951;  481.769;  705.416
447.295;  180.315;  597.777;  871.402
447.583;   94.519; -464.229;  -34.587
447.870;  129.982; -434.221; -202.601
448.158;  284.582; -104.230;  129.415
448.446;  175.502; -800.219; -338.604
448.733;  152.082;   13.776;  269.403
449.021;  230.432;   60.788;  341.382
449.309;  190.676; -296.210;  208.379
449.596;  263.850;  128.783;   59.392
449.884;  216.449; -571.222; -325.600
450.172;  287.391; -756.227; -406.590
450.459;  638.132;  645.786;  780.387
450.747; 3722.573; -411.218; -147.608
451.034;11957.586;  493.772;  889.411
451.322; 9557.011; -413.214; -170.614
451.609;  726.209;  292.777;  508.403
451.897;  904.754; -550.203; -183.634
452.184; 2771.240; -622.223; -400.598
452.472; 2400.552;   97.792;  269.375
452.759;  353.528;  512.781;  864.395
453.047;  114.879; -407.212; -125.617
453.334;   64.113; -732.219; -216.606
453.621;   67.539; -438.214; -161.615
453.909;  123.519;   13.796;  384.368
454.196;  126.550; -299.199; -123.641
454.483;  263.595;  317.798;  540.364
454.771;  185.106; -215.208;  196.374
455.058;   69.010; -316.207;  102.374
455.345;  151.044;   71.807;  344.347
455.632;  141.614; -128.207;  235.373
455.919;   96.054;  -82.196;  182.354
456.207;  -16.294; -774.198; -450.642
456.494;   23.010; -475.200;  -66.639
456.781;   38.190; -399.202; -198.635
457.068;   83.222; -253.206;  -29.628
457.355;   10.149; -698.206; -401.629
457.642;   34.580; -552.205; -290.630
457.929;   40.933; -778.194; -417.651
458.216;  131.479; -575.212; -354.617
458.503;  371.014; -173.193;  -19.652
458.790;  399.353; -864.208; -630.625
459.077;  403.446;  -77.202;  110.364
459.364; 1201.649; -350.195; -210.649
459.651; 2548.020;  -46.206;  220.372
459.938; 1162.316; -864.209; -665.623
460.225;  130.450;  132.799;  276.363
460.512;  -17.475; -836.197; -688.645
460.799;  162.146;  -32.218;  320.392
461.086;  148.241; -370.200; -251.640
461.372;   32.282; -509.198; -279.642
461.659;   72.505; -165.196;  108.354
461.946;   57.537; -445.193;  -54.651
462.233;  238.288;  842.800;  888.361
462.519;  515.484; -814.201; -464.639
462.806; 1549.726; -768.197; -497.645
463.093; 1303.113; -445.191;  -66.656
463.380;   21.714; -920.186; -824.664
463.666;   66.203; -259.197;  -18.646
463.953;  135.893; -406.195; -243.648
464.239;  274.493; -173.195;  -77.648
464.526;  402.681;  413.806;  743.350
464.813;  329.077; -565.190; -304.658
465.099;  358.513;  606.807;  607.348
465.386;  281.793;  903.807;  921.348
465.672;   46.451; -694.197; -522.645
465.959;   80.600; -598.188; -520.662
466.245;   17.443; -468.193; -359.652
466.532;   86.040; -109.195;   63.352
466.818;   56.564; -357.186; -216.664
467.104;    2.689; -488.182; -415.672
467.391;    5.855; -628.189; -459.658
467.677;   49.643; -289.186;    9.335
467.964;   21.863; -682.189; -471.660
468.250;   60.897; -331.186; -160.665
468.536;  100.656;   90.811;  180.341
468.822;   13.362; -821.184; -574.668
469.109;  172.739;  351.827;  471.311
469.395;  214.880;  729.808;  787.346
469.681;  243.760;   46.811;  156.341
469.967; 1817.316; -699.188; -382.660
470.254; 4069.826; -494.188; -306.662
470.540; 2484.878; -601.196; -476.646
470.826;  356.678; -488.181; -397.675
471.112;  410.216;  288.816;  113.331
471.398;  103.197; -253.183;  -58.670
471.684;   70.963; -626.177; -447.680
471.970;   54.982; -918.180; -981.675
472.256;   79.629; -521.192; -441.654
472.542;   58.678; -499.171; -434.691
472.828;   53.734; -743.182; -607.672
473.114;   46.232; -380.166; -283.700
473.400;   51.359; -504.175; -293.684
473.686;   50.690; -452.166; -400.701
473.972;   72.077; -230.174; -131.687
474.258;    9.765; -925.173; -843.689
474.544;  315.403; -183.178;   -2.679
474.830;  489.286;  -65.175;   45.316
475.116;  734.329; -123.190; -196.658
475.401;  986.135; -558.180; -467.676
475.687;  281.384; -725.180; -718.676
475.973;   19.419; -673.181; -770.673
476.259;  269.588;  736.825;  764.315
476.544;  530.323; -539.176; -437.682
476.830; 1293.173; -398.172; -322.690
477.116; 1092.196; -430.177; -336.682
477.401;  168.285;  346.820;  358.324
477.687;    0.659; -289.175; -405.684
477.973;   42.723;   21.819;   28.326
478.258;    7.441; -448.163; -348.706
478.544;   43.603;   21.815;   61.334
478.829;  -49.365; -818.171; -738.692
479.115;  -22.402; -749.172; -651.690
479.401;    8.421; -444.174; -449.686
479.686;   65.008; -253.180;  -74.676
479.972;   21.534; -886.178; -776.680
480.257;   52.559; -258.166;  -65.700
480.542;   69.265; -614.170; -469.693
480.828;  274.232; 1288.824; 1392.317
481.113;  -17.896; -464.176; -426.683
481.399;   18.745; -236.161; -202.711
481.684;  -36.917; -620.166; -462.700
481.969;   39.762; -158.159;  -73.713
482.255;   18.303; -439.169; -285.695
482.540;   16.860; -569.178; -441.680
482.825;   48.108; -395.187; -404.663
483.110;  141.857;  -85.169; -105.696
483.396;  356.264; -840.157; -652.718
483.681;  720.652;  543.826;  730.313
483.966;  305.179; -696.160; -700.712
484.251;   24.226; -404.174; -310.687
484.536;   36.722; -356.165; -378.703
484.822;   42.404; -205.173; -218.687
485.107;    2.986; -599.152; -502.726
485.392;  140.104;  662.836;  541.296
485.677;   92.269;  354.832;  163.302
485.962;  122.011;  160.843;  270.283
486.247;  124.175;  -14.162;   -8.707
486.532;   73.336; -178.166; -325.701
486.817;  190.538;  381.839;  431.291
487.102;  152.140; -453.154; -514.722
487.387;  985.741; -637.156; -652.718
487.672; 1781.685; -154.164;  -38.705
487.957; 1123.547; -394.160; -286.711
488.241;  326.232; -290.150; -314.729
488.526; 1108.088; -280.152; -148.726
488.811; 1826.462; -881.177; -818.680
489.096; 1300.919; -666.154; -702.723
489.381;  652.833;    3.847;  162.275
489.666;  601.320; -428.161; -510.710
489.950;  208.672;  558.846;  627.277
490.235;  -19.924; -480.151; -458.728
490.520;  -25.306; -756.161; -723.710
490.804;  -26.431; -827.156; -736.719
491.089;   39.402; -469.149; -299.732
491.374;   47.634; -132.164;  -75.704
491.658;   -0.934; -817.147; -717.735
491.943;  143.693; -657.152; -609.727
492.227;  222.685; -178.155;  -38.721
492.512;   43.285; -294.157; -341.717
492.797;  -47.081; -713.149; -716.731
493.081;  -33.481; -588.147; -598.735
493.366;  -28.129; -751.161; -635.711
493.650;  221.261;  831.859;  917.254
493.935;   75.815; -648.147; -447.734
494.219;  -14.530; -778.142; -687.743
494.503;  -18.512; -585.150; -487.730
494.788;   65.800;   46.842;   74.285
495.072;  130.109;  184.850;  434.271
495.356;  233.156; -463.148; -343.733
495.641;  505.403; -812.146; -736.736
495.925;  433.675; -976.156; -903.719
496.209;   37.426; -599.149; -451.732
496.494;  -26.380; -763.142; -544.744
496.778;   23.840; -364.154; -360.722
497.062;  -29.676; -819.156; -627.719
497.346;    9.149; -869.160; -640.711
497.631;  194.660;  580.852;  560.266
497.915;   89.516;  -64.145;  175.261
498.199;   33.764; -341.157; -277.718
498.483;   57.186; -562.152; -508.725
498.767;  233.335;  301.850;  300.271
499.051;  265.023; -126.149; -100.732
499.335;   95.071; -693.149; -739.731
499.619;  -28.289; -381.129; -423.767
499.903;   21.908; -272.155;  -65.721
500.187;   36.674; -588.153; -316.724
500.471;   30.292; -796.152; -595.727
500.755;   93.869;   62.839;  -96.710
501.039;   23.209; -270.155; -357.721
501.323;   60.488;  -21.141;  264.254
501.607;   40.566; -447.163; -503.706
501.891;    4.466; -607.156; -512.718
502.174;  -23.495; -726.144; -585.741
502.458;   75.022;   89.849;  370.273
502.742;   65.267; -180.138; -191.751
503.026;  182.190; -412.147; -254.734
503.310;  287.336; -437.159; -375.713
503.593;  190.767; -464.147; -325.735
503.877;  138.043; -232.133; -156.760
504.161;  184.702;    2.847;  -50.724
504.444;  188.753; -841.158; -710.716
504.728;  727.382; -487.164; -522.704
505.012; 1030.931; -257.150;  -76.729
505.295;  778.920; -417.161; -212.711
505.579;  816.949; -256.156; -496.719
505.862; 1134.961; -555.145; -333.738
506.146; 1143.414; -681.159; -758.714
506.429;  536.564;  568.841;  461.286
506.713;  126.678; -732.151; -667.728
506.996;  465.390;   90.846;  295.278
507.280;  526.902; -633.165; -474.703
507.563;  361.882; -469.155; -261.721
507.847;  170.650; -423.153; -112.724
508.130;  159.021; -665.161; -456.711
508.413;  226.629; -758.167; -577.700
508.697;  396.604; -151.167;   12.300
508.980;  272.827; -422.153; -312.724
509.263;   30.977; -466.155; -450.720
509.547;   55.706; -124.150;   82.271
509.830;   63.499; -172.160;  140.289
510.113;   99.349;  128.844;  298.281
510.396;   51.634; -530.152; -300.725
510.680;   60.513; -818.145; -812.738
510.963;  260.295;  184.846;  180.277
511.246;  188.616; -493.150; -357.730
511.529;  278.669; -482.145;  -83.739
511.812;  594.213; -250.134;   10.241
512.095;  432.574; -740.151; -396.728
512.378;   92.322; -317.147; -245.736
512.661;   80.102; -703.137; -623.753
512.944;   89.522; -750.142; -637.744
513.227;   95.474; -170.137; -171.752
513.510;   75.730; -479.144; -671.741
513.793;   41.418; -485.140; -435.747
514.076;  170.412;  -43.127;  -39.771
514.359;  157.252; -294.149; -135.732
514.642;  138.226; -442.142; -567.744
514.925; 1058.416;  581.860;  561.253
515.208; 1517.059; -498.134; -443.758
515.491;  964.276; -276.133; -182.761
515.773;  553.259; -410.143; -337.742
516.056; 3042.360;  249.864;  409.246
516.339; 4016.740; -754.136; -652.755
516.622; 1972.713; -518.150; -488.730
516.904;  642.543;  882.857;  975.257
517.187;  253.222; -730.138; -523.752
517.470;  433.641; -568.143; -510.743
517.752;  664.868; -624.136; -470.756
518.035;  537.081; -708.139; -725.749
518.318;  577.990; -799.136; -744.755
518.600; 3667.580; -300.132; -325.762
518.883; 5039.075;  310.858;   88.256
519.165; 2300.488; -585.138; -426.751
519.448;  439.405;  -61.132;  -19.762
519.730;  226.772; -573.126; -415.773
520.013;  242.221;  588.867;  664.240
520.295;  375.615;  -94.134;  -15.759
520.578;  777.796; -335.131; -305.764
520.860; 1011.580; -254.132;   56.238
521.143;  685.471; -763.135; -584.756
521.425;  556.188; -251.125; -279.775
521.707;  910.763; -622.127; -380.771
521.990; 2601.838; -199.127;  167.229
522.272; 2988.745; -116.140;   -4.748
522.554; 1126.535; -237.143; -157.742
522.836;  269.713;  -24.134;   99.241
523.119;  194.588; -496.148; -189.734
523.401;  168.230; -448.130; -314.766
523.683;  147.303; -865.137; -693.753
523.965;  394.044;  408.862;  260.248
524.247;  424.639;   54.878;  170.220
524.529;  288.965; -451.134; -367.759
524.812;  475.707;   -3.130;  191.234
525.094; 1314.768; -773.138; -631.751
525.376; 2040.824; -143.124;   78.223
525.658; 1234.586; -441.136; -339.754
525.940;   80.292; -805.131; -671.764
526.222;   32.041; -188.136;  -88.755
526.504;   77.339; -190.131;   32.237
526.786;   54.118; -960.133; -647.760
527.068;  134.756; -124.123;  -67.778
527.349;   38.282; -865.137; -774.754
527.631;  117.930; -137.132;   22.238
527.913;  203.237; -664.127; -450.771
528.195;  291.504; -761.125; -639.774
528.477;  350.809;  -93.134;  -30.758
528.759;  250.732; -648.130; -522.766
529.040;  135.854; -569.123; -293.778
529.322;   69.257; -235.125;  -10.774
529.604;   91.785;  -47.130;   93.233
529.886;   67.146; -546.126; -302.773
530.167;   82.874;  232.870;  192.235
530.449;   54.721;    1.853;   63.265
530.731;   89.438; -572.122; -459.779
531.012;  139.864; -513.120; -216.784
531.294;  117.387; -118.116;  -43.792
531.575;  181.438;  290.875;  538.225
531.857;  111.978; -548.135; -266.757
532.138;  120.411; -113.141;   40.254
532.420;  121.573;  294.865;  403.244
532.701;   84.846; -722.133; -751.760
532.983;  214.600;  232.867;  182.239
533.264;   69.994; -243.126;  175.228
533.546;  -24.584; -491.136; -508.755
533.827;   32.892;  173.867;   -1.759
534.109;   42.552; -352.135;  -80.757
534.390;  101.110; -725.132; -582.762
534.671;  285.973; -270.135;  -82.756
534.953;  192.233; -751.123; -611.779
535.234;   58.994; -426.117; -255.789
535.515;  -38.201; -891.119; -735.785
535.796;   11.057; -431.128; -193.770
536.078;  -81.426;-1050.124; -904.777
536.359;   17.284;  -22.123;    3.221
536.640;   -8.294; -480.125; -197.774
536.921;  168.491;  225.871;  143.232
537.202;  507.415;  -87.138;  -16.751
537.483;  637.196;  251.869;  377.236
537.764;  267.949;   17.870;   98.235
538.045;  -21.892; -543.134; -371.758
538.326;  -14.757; -596.129; -447.768
538.607;   63.364; -686.127; -476.771
538.888;  249.678;   98.879;    5.218
539.169;  272.971; -704.122; -535.781
539.450;  400.115;  236.871;   16.233
539.731;  252.933; -361.121; -182.783
540.012;  154.839;  199.880;  412.216
540.293;   93.042;   82.876;  158.224
540.574;   15.563; -895.113; -717.796
540.855;  505.931;  435.879;  377.218
541.136;  665.418;   47.878;  139.220
541.416;  370.608; -161.130; -220.766
541.697;  298.365; -274.131; -170.763
541.978; 1554.700; -270.135; -315.757
542.259; 1997.064; -211.127; -236.771
542.539;  925.005; -191.116; -186.790
542.820;  230.412;  461.875;  480.225
543.101;  136.390;  -52.145;  -77.738
543.381;   47.763; -638.127; -591.771
543.662;  364.960;  159.873; -254.771
543.942;  953.933; -751.127; -830.770
544.223; 1606.870;  193.878;  161.219
544.504; 1037.623; -275.124; -182.777
544.784;  846.746; -592.126; -408.773
545.065; 2474.509;  104.884; -254.791
545.345; 2823.699;  227.881;   14.215
545.626; 1868.237;  -14.113; -108.796
545.906; 1347.374;   77.869;   98.235
546.186;  566.077;   92.874;  -95.773
546.467;  302.776;   99.877;  -95.778
546.747;  506.180;  264.884;  327.210
547.027;  533.696;   91.876;  111.223
547.308;  539.107; -376.127; -530.770
547.588;  577.369;  299.871;  371.232
547.868;  248.575;  458.870;  588.235
548.149;  243.269;  609.885;  593.207
548.429;  238.336; -347.127; -299.771
548.709;  340.613; -645.120; -461.784
548.989;  721.611;   84.882;   88.213
549.269; 3094.628;   10.868;  139.239
549.550; 7271.632;  215.877;  117.222
549.830; 6480.460; -758.111; -556.799
550.110; 1284.994; -468.110; -320.801
550.390; 1263.913; -128.122;  -56.779
550.670; 1823.732; -868.114; -783.795
550.950; 1244.930; -509.121; -471.782
551.230;  254.951;  549.879;  460.218
551.510;   35.704; -381.121; -326.782
551.790;   61.004; -173.109; -127.803
552.070;  326.026;  940.877; 1181.223
552.350;  659.704; -492.119; -377.786
552.630;  883.773;   -2.121;   77.219
552.909;  536.185;  181.884;   73.209
553.189;  354.161;  -49.132;   33.237
553.469;  352.179; -703.119; -514.786
553.749;  343.490; -469.127; -357.772
554.029;  270.074;   33.883;  -24.790
554.308;  256.524; -154.115;  -37.794
554.588;  132.056; -196.128; -204.770
554.868;  138.556; -366.121;  -47.782
555.147;  262.720; -114.115;  -46.793
555.427;  895.738; -260.116; -250.792
555.707; 5781.743; -284.115; -200.793
555.986; 7170.414; -719.111; -538.800
556.266; 3592.453;   23.884;   72.210
556.546;  219.704; -888.121; -675.782
556.825;  414.904; -657.114; -556.794
557.105; 2652.353; -125.128;   17.230
557.384; 3169.609;  122.884;  187.209
557.664; 1211.637; -717.116; -508.792
557.943;  222.080; -557.121; -411.782
558.222;  323.165; -345.118; -344.788
558.502;  389.022; -116.115;  -76.793
558.781;  684.842;  194.885;  499.208
559.061;  612.540; -232.118; -227.788
559.340;  423.071;  302.883;  353.211
559.619; 1094.853;   93.884;  148.210
559.899; 1613.998; -239.117; -266.789
560.178; 1430.396; -778.115; -593.793
560.457; 4570.525; -623.117; -562.790
560.736; 6497.165; -472.111; -482.800
561.015; 4216.275; -500.128; -502.769
561.295;  506.428;  180.893;  215.193
561.574;  420.193;  119.885;  116.207
561.853;  687.784;  274.891;  303.197
562.132;  737.800;  -45.114;  182.206
562.411;  633.898;  396.879;  553.219
562.690;  266.816; -592.115; -458.792
562.969;  183.696;  472.888;  630.203
563.248;  558.995; 2966.878; 2487.219
563.527;  465.039; -290.111; -408.800
563.806;  630.711; -650.127; -521.771
564.085;  660.847; -297.105; -206.810
564.364;  425.202; -594.117; -405.790
564.643;  757.449; -276.121; -223.781
564.922; 2779.601;  221.890;  397.198
565.201; 2866.481; -640.109; -700.803
565.479; 1186.915; -297.115; -219.792
565.758;  540.728; -810.128; -712.770
566.037;  735.807; -155.109; -100.803
566.316;  365.784; -286.116;  -28.791
566.595;   80.268;  -17.115;  -12.793
566.873;  147.192; -166.111;  -79.801
567.152;   -8.905; -490.113; -590.797
567.431;   38.629; -113.116;    6.210
567.709;   56.604; -344.107; -212.807
567.988;  454.354; -810.114; -769.794
568.266;  859.043; -160.115;  -68.793
568.545;  633.381; -644.100; -514.819
568.824;  857.039;  160.885;  356.208
569.102;  903.679; -351.114; -235.794
569.381;  388.488; -492.116; -407.792
569.659;    4.291; -553.113; -553.796
569.938;  116.193; -743.122; -465.780
570.216;  216.386; -225.109; -225.804
570.494;   19.733; -632.114; -572.795
570.773;   57.754;  202.879;  114.218
571.051;   50.705; -373.123; -357.778
571.330;  106.313; -221.113; -174.796
571.608;   81.178; -181.098; -173.823
571.886;  -25.293; -671.111; -581.799
572.164;  -27.044; -739.121; -621.782
572.443;  -11.723; -562.105; -512.811
572.721;  -14.624; -399.117; -289.790
572.999;   -8.182; -280.117; -168.788
573.277;  115.069;  379.894;  620.191
573.555;  419.521;   94.894;   37.190
573.834; 2034.442;  -86.117; -114.788
574.112; 2310.007;  880.893;  811.193
574.390;  726.291; -143.111;  -96.801
574.668;   36.072;  -91.112;  -61.797
574.946;   19.897; -165.106; -187.810
575.224;   21.281;   71.891;  -16.803
575.502;   -0.344; -200.116; -204.791
575.780;  -52.202; -767.112; -829.798
576.058;  226.740; 1589.889; 1004.200
576.336;    9.372; -210.110; -129.801
576.614;  -36.326; -511.112; -340.798
576.891;  128.798; -711.115; -823.794
577.169;  763.546; -158.108; -285.805
577.447;  848.406;  169.893;  202.193
577.725;  349.904;  629.888;  854.201
578.003;   45.802;  -71.112; -371.798
578.280;  138.588; -208.104; -242.812
578.558;   97.972; -450.115; -422.793
578.836;  168.182; -210.114; -145.795
579.114;   77.246; -630.112; -670.797
579.391;   83.719;   -6.117;  -18.789
579.669;  -37.226; -595.114; -704.794
579.947;  261.602; -326.107; -127.806
580.224;  558.127; -692.107; -524.806
580.502;  482.457;  127.893;   76.193
580.779;   62.302;  -42.117;   75.210
581.057;  -52.914; -584.109; -470.804
581.334;  -76.144; -726.102; -695.815
581.612;   51.523;   54.895;  511.190
581.889;  -17.777;  -83.101; -129.818
582.167;  -11.859; -298.099; -190.821
582.444;  -65.509; -845.102; -814.817
582.721;  105.117;  657.899;  715.183
582.999;  100.912; -326.100; -167.821
583.276;  837.110; -812.123; -713.779
583.553; 1120.160; -364.102; -294.816
583.831;  403.134; -607.104; -631.812
584.108;   86.768;  349.892;  174.195
584.385;   51.581; -122.102;  -98.815
584.662;  -33.958; -651.111; -828.801
584.940;   40.241;  204.889;  204.199
585.217;   14.415;  -73.113; -303.796
585.494;   58.428;   71.890;  118.198
585.771;  330.412; -250.109; -354.804
586.048;  780.265; -196.113;  -76.796
586.325;  528.545; -721.110; -773.801
586.602;  134.563;  230.896;  213.188
586.879;   31.208; -499.100; -580.820
587.156;   96.874; -156.105; -331.810
587.433;    2.639; -701.102; -667.817
587.710;  116.624;  152.888;  234.202
587.987;  454.655; -264.105; -236.811
588.264; 1146.526;  315.888;  387.202
588.541; 1919.191;  -61.104;   26.187
588.818; 3910.515;   72.892;  171.196
589.095; 3376.086; -163.104; -174.812
589.371;  571.259; -459.109; -414.804
589.648;   66.982; -581.107; -437.807
589.925;   82.984; -517.114; -621.795
590.202;   93.924; -741.112; -607.798
590.478;  157.682; -166.105;  -73.811
590.755;  402.597; -241.108; -132.806
591.032; 3621.698; -741.110; -699.802
591.308; 5233.878; -732.094; -790.831
591.585; 2651.623; -573.110; -560.802
591.862;  301.990;-1056.102; -950.817
592.138;  147.219; -475.108; -474.805
592.415;  252.589; -486.104; -495.813
592.691; 2124.112;  460.896;  518.188
592.968; 2858.330; -208.098; -123.824
593.244; 1377.504; -695.116; -595.790
593.521;  147.591; -105.102;  -42.817
593.797;   36.565; -810.122; -720.780
594.074;  527.421; -611.096; -588.826
594.350;  941.910;  828.905;  729.172
594.626;  479.268; -303.111; -283.801
594.903;  243.742; -643.101; -645.817
595.179;  281.194;  243.896;  418.187
595.455;   34.608; -136.107; -150.807
595.731;   18.121;  -19.103;  -38.814
596.008;    5.435; -464.111; -434.800
596.284;   86.261; -187.100; -242.820
596.560;  150.661; -501.093; -493.833
596.836;  330.851; -173.105;  -70.810
597.112;  562.370; -582.108; -437.805
597.388;  433.318;  -49.097;  -48.826
597.665;  164.669;  437.887;  530.203
597.941;  -20.078; -572.089; -658.839
598.217;   51.352; -323.110; -293.802
598.493;  383.864;   61.891; -204.804
598.769;  817.154; -175.100;  -50.819
599.045;  504.074; -490.108; -562.806
599.321;  115.760; -193.100; -261.820
599.597;  248.513; -355.109; -476.804
599.872;  720.366;  409.896;  429.187
600.148;  561.445;  -61.097; -172.826
600.424;  427.080;   91.893;  202.193
600.700;  386.058; -170.107; -280.807
600.976;  219.913; -442.097; -464.825
601.252;  394.884; -226.109; -272.803
601.527;  408.268; -833.104; -840.813
601.803;  262.408; -453.105; -404.812
602.079;  284.179; -124.100; -118.819
602.354;  878.973; -620.092; -531.835
602.630; 1273.240; -140.113; -482.796
602.906; 3237.798; -910.101; -863.818
603.181; 9881.954; -627.119; -534.786
603.457; 8308.492;   98.903; -278.826
603.733; 1237.284; -605.120; -626.783
604.008; 1377.197; -245.106; -164.810
604.284; 4541.668; -636.101; -580.817
604.559; 3958.429;   -3.112;  -42.799
604.835;  721.751; -163.105; -225.810
605.110;  654.816; -732.099; -892.821
605.385; 1009.089;  224.907;  267.167
605.661; 1007.263; -625.095; -729.829
605.936; 1828.374; -664.108; -737.806
606.211; 1488.129;  -17.103; -170.815
606.487;  342.852; -329.114; -376.794
606.762;  103.179; -791.119; -745.786
607.037;   22.326; -501.105; -433.810
607.313;  -14.020; -589.096; -574.828
607.588;   23.372; -375.106; -137.810
607.863;   79.372;  -28.101; -143.818
608.138;  237.750;  513.890;  516.198
608.413;  106.346; -576.099; -592.822
608.688;  105.144; -203.108; -267.805
608.964;  317.215; -509.106; -218.809
609.239;  387.123; -107.105; -212.810
609.514;  342.783;  281.895;  240.188
609.789; 1040.613; -187.104; -716.812
610.064; 1347.603; -435.096; -609.827
610.339; 1329.234; -855.109; -799.804
610.614; 1787.360; -131.100; -315.820
610.889;  967.008;  215.895;  107.188
611.163;  107.484; -407.104; -591.812
611.438;  156.754;   81.886; -167.794
611.713;   77.293; -467.101; -499.817
611.988;  118.096; -144.101; -328.818
612.263;   58.031; -771.102; -717.815
612.538;  305.465;  385.887;  251.204
612.812;  341.937; -832.100; -911.820
613.087;  283.652; -358.098; -338.823
613.362;  -14.042; -497.107; -557.807
613.637;   56.674;  261.897;  138.186
613.911;   20.949; -256.092; -345.835
614.186;  196.806; -249.107; -292.807
614.460; 1102.215; -842.081; -758.854
614.735; 1174.451;  -55.087;  -17.843
615.010;  241.914;   43.912;  -82.841
615.284;  342.669;  360.892;  246.195
615.559;  630.647; -792.092; -955.835
615.833;  444.344;  -76.099;  -87.822
616.108;   54.687; -225.090; -390.837
616.382;  189.403;  274.913;  402.156
616.656;  268.962; -241.090; -232.837
616.931;  787.769; -785.099; -700.822
617.205; 1640.768; -973.104; -979.813
617.480; 1438.585;  -91.125;    6.225
617.754;  272.432; -396.125; -128.774
618.028;   67.220; -369.129; -382.768
618.302;   99.017;   73.892;  -25.805
618.577;  -18.824; -371.103; -518.815
618.851;  -28.470; -399.109; -600.803
619.125;  -28.735; -335.134; -378.759
619.399;   -2.556; -244.104; -374.813
619.673;  -33.136; -330.115; -515.792
619.947;  -12.418; -333.114; -448.795
620.222;    2.294; -198.110; -204.801
620.496;   23.281;  -47.121;  -96.782
620.770;   50.271; -187.122;  -93.781
621.044;  283.949;  323.895;  346.190
621.318; 1135.584; -653.120; -614.783
621.592; 1036.532; -430.121; -409.783
621.866;  603.930; -476.112; -572.799
622.140;   73.256; -207.116; -356.791
622.413;   83.135;  138.889;  112.200
622.687;    5.669; -746.101; -492.817
622.961;   43.942; -130.108; -143.805
623.235;  -23.564; -633.111; -661.800
623.509;  -74.893; -816.105; -848.811
623.783;   15.528;  -12.107;   48.193
624.056;   16.911; -254.120; -280.783
624.330;   77.122;   63.888;   -3.797
624.604;   96.727; -271.116; -355.790
624.877;  131.499;  180.890;   26.198
625.151;  100.476; -249.114; -238.794
625.425;   -8.954; -150.103; -283.814
625.698;  -45.903; -367.119; -374.785
625.972;  -61.598; -799.110; -765.802
626.245;   90.004;  685.884;  484.210
626.519;  -20.684; -426.120; -340.784
626.792;  -22.993; -192.107; -380.807
627.066;  -66.188; -485.122; -662.779
627.339;  -71.553; -736.110; -663.802
627.613;   48.889;  351.880;  148.216
627.886;   75.354;  187.891; -612.803
628.160;    2.359;  312.880; -161.783
628.433;  -68.512; -695.125; -703.775
628.706;  -52.734; -517.120; -615.784
628.979;   46.447;  296.876;  117.223
629.253;  -51.747; -785.119; -833.786
629.526;  545.194; -334.126; -253.772
629.799;  580.630; -641.123; -479.778
630.072;  284.872; -497.128; -516.769
630.346;   -0.220;-1115.116;-1080.790
630.619;  691.284; -467.107; -545.808
630.892;  910.462;  709.889;  593.200
631.165;  457.493;  790.896;  679.187
631.438;   -9.549;-1092.112;-1055.798
631.711;   71.259;  453.877;  257.221
631.984;  -30.851; -523.117; -624.789
632.257;  -31.981; -636.117; -681.789
632.530;  -10.927; -412.119; -433.785
632.803;   43.523; -109.115;    7.207
633.076;  -48.574; -360.123; -422.777
633.349;   21.027;  173.872;  121.231
633.622;  -19.879; -187.119; -240.785
633.895; -102.814; -903.120; -823.783
634.167;  -33.003; -496.126; -525.773
634.440;    4.087;  -19.116; -137.792
634.713;   11.827;  -22.119; -120.786
634.986;  101.365;  593.871;  453.233
635.258;  -60.404; -507.115; -597.793
635.531;   85.914;  742.882; -343.788
635.804;   -8.553; -303.117; -318.789
636.077;  -83.242; -830.116; -852.791
636.349;   47.769; -586.115; -474.793
636.622;  410.993; 1695.874; 1392.228
636.894;  379.891; -474.120; -909.784
637.167;  295.636; -836.127; -789.771
637.439;   75.481; -278.128; -213.770
637.712;  -27.705; -312.126; -293.772
637.984;  -43.517; -635.116; -707.791
638.257;  508.877;  515.877;  488.222
638.529;  906.865; -881.125; -924.776
638.802;  414.347; -508.128; -449.769
639.074;  -74.456; -927.122; -952.781
639.346;  -96.870; -942.135; -930.757
639.619;   13.399;  -79.142; -319.744
639.891;   10.487;  -83.122; -168.779
640.163;  -75.086; -689.122; -756.780
640.435;   58.291;  273.878;  103.220
640.708;   38.144;  -72.122; -132.780
640.980;    7.221; -366.122; -362.781
641.252;  259.573;  -25.121;  -71.781
641.524; 2468.150;  580.879;  573.219
641.796; 2710.628;-1094.121; -907.782
642.068;  494.755; -191.121; -300.782
642.340;  -35.593; -486.121; -566.783
642.613;   47.985;  294.880;  323.217
642.885;  -61.188; -787.120; -878.783
643.157;    9.839; -810.120; -658.784
643.428;   94.441;  170.880;  218.216
643.700;  -48.781; -498.120; -425.784
643.972;  -29.829;  -16.119; -133.785
644.244;  -71.352; -474.119; -559.785
644.516;  -32.550; -250.119; -114.786
644.788;   75.503;  662.881;  548.214
645.060;  -11.795;  -12.119; -124.786
645.332;  -88.718; -525.118; -535.787
645.603;   37.360;  479.882;  342.213
645.875;  -69.838; -334.118; -369.787
646.147;  152.264; 1487.882; 1242.212
646.418;  -16.959; -931.117; -918.788
646.690;  276.469; -714.117; -715.789
646.962;  105.171; -413.117; -451.789
647.233;   -5.702;   15.883;   11.211
647.505;  -99.725; -595.117; -475.790
647.776;   20.828;  328.884;  229.210
648.048;   21.805; -248.116; -418.790
648.320;  -12.518; -752.116; -679.791
648.591; -141.716;-1055.116; -958.791
648.862;  -68.113; -505.116; -577.792
649.134;   16.964;  115.885;  198.208
649.405;    1.441; -661.115; -618.792
649.677;  -27.756; -475.115; -598.793
649.948;   12.771; -181.115; -296.793
650.219;    9.548;  -37.115; -147.793
650.491;  -71.575; -431.114; -520.794
650.762; -102.572; -705.114; -731.794
651.033;  -67.345; -437.114; -424.795
651.304;  -55.968; -743.114; -728.795
651.576;  -29.591; -680.114; -645.795
651.847;  -29.588; -250.113; -140.796
652.118;  -17.161;  -32.113; -189.796
652.389;  -86.509; -639.113; -722.796
652.660;  -15.381; -147.113;  -89.797
652.931; -112.529; -897.112; -871.797
653.202;  -79.027; -382.112; -541.798
653.473;  -42.725; -633.112; -533.798
653.744;  279.928; -595.112; -590.798
654.015;  243.780; -356.112; -303.799
654.286;  -44.618; -642.111; -663.799
654.557;  -24.666; -586.111; -521.799
654.828; -128.338;-1114.111;-1088.800
655.099;  -73.286; -404.111; -291.800
655.370;  -86.509; -427.111; -543.801
655.641; -109.906; -656.110; -714.801
655.911;  -94.504; -618.110; -638.801
656.182;   57.648;  437.890;  387.198
656.453;  107.825;  830.890;  746.198
656.724;  -52.647; -466.110; -426.802
656.994;  -53.695; -553.109; -568.803
657.265;  -76.893; -862.109; -873.803
657.536;  -71.266; -500.109; -377.804
657.806;  -94.638; -561.109; -593.804
658.077; -119.136; -866.109; -950.804
658.347;  -87.359; -523.108; -598.805
658.618; -100.681; -646.108; -694.805
658.888;  -21.604;  -41.108;  112.195
659.159;  -50.752; -432.108; -548.806
659.429;    6.575; -292.108; -349.806
659.700;   73.278; -435.107; -390.807
659.970;   29.530; -370.107; -359.807
660.241;   86.982; -754.107; -921.807
660.511;  794.084; -147.107; -174.808
660.781;  213.862; -793.106; -748.808
661.052;  -32.986; -222.106; -381.808
661.322;  -21.809;   21.894;   -9.809
661.592;   14.569;  257.894;  148.191
661.862;  -56.479; -369.106; -382.810
662.133;  -85.202; -551.105; -502.810
662.403;  -89.775; -770.105; -676.810
662.673;  -45.897; -256.105; -213.811
662.943;  -99.145; -612.105; -551.811
663.213;   10.332;  -85.105;  -81.811
663.483;  -61.166; -593.104; -568.812
663.753;  -39.338; -194.104; -152.812
664.023;    3.464;   68.896;  -32.813
664.293;  -61.934; -319.104; -126.813
664.563; -104.031; -694.104; -648.813
664.833; -101.304; -743.103; -608.814
665.103;  -97.327; -730.103; -793.814
665.373;  -97.975; -766.103; -806.814
665.643;  -43.897; -863.103; -918.815
665.913;  113.105; -534.103; -714.815
666.182;  254.132; -685.102; -719.816
666.452;  426.634;  -22.102;  -89.816
666.722;   31.462; -724.102; -784.816
666.992; -113.686; -948.102; -921.817
667.261;  -65.309; -824.102; -808.817
667.531;  320.694;  134.899;   45.183
667.801;  946.396; -440.101; -412.818
668.070;  338.198;  714.899;  697.182
668.340;  -72.650; -883.101; -840.819
668.609;  101.728;  588.900;  301.181
668.879;  -50.995; -490.100; -558.819
669.149;  -48.993; -539.100; -516.820
669.418;  -81.716; -698.100; -726.820
669.688;   -6.688; -482.100; -666.820
669.957;  173.439; -423.099; -546.821
670.226;   -3.409; -268.099; -331.821
670.496;  -74.781; -431.099; -635.822
670.765;  -71.254; -418.099; -501.822
671.034; -116.877; -872.099; -828.822
671.304;    2.275;   55.902; -111.823
671.573; -121.572;-1085.098; -957.823
671.842;  157.305; -380.098; -294.823
672.112;  111.932; -692.098; -586.824
672.381;   22.509; -239.098; -214.824
672.650; -102.263;-1005.097;-1021.825
672.919;  -74.586; -631.097; -507.825
673.188;  -72.159; -681.097; -878.825
673.457; -117.081;-1101.097;-1143.826
673.726;  -46.879; -579.096; -646.826
673.995;  -11.652; -533.096; -479.826
674.265;   13.800; -263.096; -333.827
674.534;   38.178; -183.096; -235.827
674.802;   63.005; -618.096; -703.828
675.071; 1345.157; -886.095; -801.828
675.340; 5906.409; -464.095; -339.828
675.609; 1904.762;  103.905;   82.171
675.878;  195.939; -949.095; -893.829
676.147;   66.066;  -26.095;   -8.829
676.416;  145.869; -210.094; -294.830
676.685; 1015.771; 1000.906; -622.830
676.953;  208.448; -603.094; -452.831
677.222;   -6.125; -193.094; -273.831
677.491;  -14.747;  -24.094; -127.831
677.759;    3.905;   11.907;  172.168
678.028;   -1.368; -279.093; -222.832
678.297;   -2.441;   71.907;  197.168
678.565; -119.888; -898.093; -944.833
678.834;  -55.536; -311.093; -268.833
679.102;  -64.184; -411.092; -391.834
679.371; -133.631; -898.092; -727.834
679.639; -125.304; -797.092; -786.834
679.908; -114.352; -794.092; -724.835
680.176; -138.975; -895.091; -941.835
680.445;  -64.247; -346.091; -352.835
680.713;   -6.945;  -58.091;  -23.836
680.982;  -87.343; -523.091; -525.836
681.250;  -81.916; -578.091; -507.837
681.518;  -93.338; -534.090; -751.837
681.787;    7.339; -204.090; -167.837
682.055;  -42.134; -490.090; -422.838
682.323; -133.782; -993.090; -992.838
682.591;   70.296; -216.090; -538.838
682.859;  157.448;    9.911;  -35.839
683.128;   34.275;  232.911;  497.161
683.396; -141.497;-1102.089;-1122.840
683.664;  -24.370; -241.089;   21.160
683.932;    5.432;  144.911;  -76.840
684.200;  -73.016; -576.088; -320.841
684.468;   -3.863;  -73.088; -124.841
684.736;  -16.186; -214.088; -175.841
685.004; -103.559;-1024.088; -982.842
685.272;    6.993; -880.088; -774.842
685.540;  -34.379; -499.087; -557.843
685.808;  -68.677; -651.087; -682.843
686.076;  -62.600; -894.087; -969.843
686.343;  -17.547; -601.087; -815.844
686.611;   80.755; -195.087; -224.844
686.879;  590.082; -530.086; -553.844
687.147; 4776.134; -483.086; -480.845
687.414; 1416.062;  -12.086; -169.845
687.682;   72.189; -658.086; -757.846
687.950;  444.591;  259.915;  263.154
688.217;   94.668; -792.085; -760.846
688.485;   37.721; -632.085; -636.847
688.753;  807.648;  -11.085; -102.847
689.020;  337.275; -820.085; -851.847
689.288;  -75.172; -853.084; -787.848
689.555;  -17.045; -195.084; -148.848
689.823;  -29.768; -241.084; -345.849
690.090;  -67.891; -546.084; -651.849
690.358; -126.513; -877.084; -897.849
690.625;   30.414;  120.917;   45.150
690.892;  -56.809; -403.083; -369.850
691.160;   -2.157;   72.917;  -35.850
691.427;   17.046;  141.917;  130.149
691.694; -106.827; -855.083; -929.851
691.962; -119.150;-1177.082;-1060.852
692.229;   46.278;  127.918;   56.148
692.496;  124.130;  130.918;  -49.852
692.763;   42.032; -164.082; -201.853
693.031;  -19.116; -739.082; -716.853
693.298;   -1.738; -509.081; -368.853
693.565;  410.114; -155.081; -163.854
693.832; 1872.916;   -5.081;   -9.854
694.099;  260.618; -643.081; -642.855
694.366;  -13.104; -882.081; -896.855
694.633;   -9.977; -920.080; -633.855
694.900;  749.525; 4367.920; -114.856
695.167;  627.828; -214.080; -380.856
695.434;  186.880; -646.080; -623.856
695.701;  278.132;  121.921;  -61.857
695.968;  649.009; -365.079; -361.857
696.234; 1204.812; -415.079; -646.858
696.501;12710.914; -776.079; -614.858
696.768; 7183.016; -554.079; -617.858
697.035;  449.943; -632.078; -667.859
697.302;   99.821; -448.078; -552.859
697.568;   47.673; -458.078; -497.859
697.835;  -18.300; -683.078; -624.860
698.102;   -8.572; -498.078; -407.860
698.368;   92.755;  384.923;  396.139
698.635;  -10.268;  -47.077; -424.861
698.901;   14.309; -240.077; -348.861
699.168;  127.337; -534.077; -456.862
699.435;  124.089;  -72.077;  -13.862
699.701;  -87.409; -868.076; -764.862
699.968;   35.868;  144.924; -441.863
700.234;  -80.254; -783.076; -822.863
700.500;  -26.127; -448.076; -539.864
700.767;   37.125;   -1.075;   26.136
701.033;  -95.047;-1015.075; -963.864
701.299;  -34.520; -450.075; -483.865
701.566;  122.732;  950.925;  763.135
701.832;   44.209;  -31.075;  -76.865
702.098;  -63.388;-1054.074;-1034.866
702.365;  -36.386;-1098.074;-1030.866
702.631;   47.041;-1038.074;-1063.867
702.897; 1767.368; -765.074; -676.867
703.163; 3355.646;  348.926;  254.133
703.429;  272.648; -256.073; -273.868
703.695;   18.450; -796.073; -792.868
703.961;   67.253; -214.073; -210.868
704.227;   -7.820; -630.073; -725.869
704.493;  163.032;  613.927;  510.131
704.759;   14.984; -565.072; -540.870
705.025;   67.787; -203.072; -194.870
705.291;   44.564; -666.072; -562.870
705.557;  220.391;  719.928;   34.129
705.823;   96.343; -742.072; -694.871
706.089;  221.421; -307.071; -326.871
706.355;  477.448; -315.071; -244.872
706.620; 6800.725; -776.071; -729.872
706.886;11100.278; -309.071; -362.873
707.152; 1188.480; -818.070; -973.873
707.418;   75.032;-1153.070;-1186.873
707.683;   47.934; -550.070; -530.874
707.949;   -4.338; -547.070; -578.874
708.215;   30.314; -129.070; -207.874
708.480;   17.466; -520.069; -420.875
708.746;  164.893;   68.931;   28.125
709.011;  -46.529; -578.069; -612.876
709.277;  -43.302; -538.069; -543.876
709.542;   -5.875; -428.069; -387.876
709.808;   11.453;  -59.068;   89.123
710.073;  -61.670; -577.068; -695.877
710.339;  -13.768; -242.068; -228.877
710.604;  141.284; -780.068; -845.878
710.869;  525.662; -277.068; -366.878
711.135;  -26.061; -715.067; -628.879
711.400;  -65.384; -507.067; -608.879
711.665;  -30.782; -404.067; -479.879
711.931;  -81.229; -661.067; -677.880
712.196;  -80.927; -876.067; -954.880
712.461;  189.900; -402.066; -490.880
712.726;  296.078; -727.066; -771.881
712.991;  -52.995; -647.066; -664.881
713.256;  -24.968; -350.066; -332.882
713.521;  -37.716; -417.065; -381.882
713.787;  -16.138; -454.065; -472.882
714.052;   -0.736; -214.065; -400.883
714.317;  -43.384;-1045.065; -981.883
714.581; 1440.418; -374.065; -268.883
714.846; 2422.246; -822.064; -888.884
715.111;  199.723;  261.936;  257.116
715.376;   10.575;  -86.064; -223.885
715.641;   17.327; -365.064; -367.885
715.906;  457.130;   15.936; -551.885
716.171;  185.807;  221.937;  209.114
716.436;   79.984;  -78.063; -104.886
716.700;  -94.463; -818.063; -692.886
716.965; -108.186; -794.063; -807.887
717.230;  -60.809; -339.063; -392.887
717.494;   -7.382;  -40.062; -134.888
717.759;  -73.904; -784.062; -640.888
718.024;    8.573;  269.938;  250.112
718.288;   69.250;  685.938;  395.111
718.553; -124.523; -803.062; -977.889
718.817; -127.795; -883.061; -899.889
719.082;  -22.793; -115.061; -125.890
719.346; -131.266;-1000.061; -947.890
719.611;  -39.663; -300.061; -255.891
719.875;  -92.136; -568.060; -537.891
720.140;  -42.534; -453.060; -603.891
720.404;   53.893; -136.060; -249.892
720.668; 1217.621; -475.060; -411.892
720.933;  537.798;  146.940;  137.108
721.197;  -76.350; -667.059; -600.893
721.461; -116.973; -851.059; -826.893
721.725;    3.855;  -21.059; -250.894
721.990;  -49.718; -284.059; -204.894
722.254;   -9.641;  -26.059; -108.894
722.518;  -55.088; -286.058; -442.895
722.782;  -73.536; -743.058; -594.895
723.046;  156.216;  614.942;  570.105
723.310;   29.643;  374.942;  210.104
723.574;  -86.204; -654.058; -614.896
723.838;  -82.202; -576.057; -642.897
724.102;  -27.100; -226.057; -239.897
724.366; -117.448;-1032.057; -978.897
724.630;  -61.745; -749.057; -571.898
724.894;  -53.568; -722.057; -514.898
725.158;  -10.316;   38.944; -295.898
725.422;  -24.088; -394.056; -327.899
725.685;  -40.911; -441.056; -349.899
725.949;  -51.784; -566.056; -519.900
726.213;  -28.607; -732.056; -811.900
726.477;  301.046;-1020.055; -933.900
726.740;  257.073; -274.055; -104.901
727.004;  457.700; -384.055; -510.901
727.268; 4796.102; -442.055; -400.901
727.531; 1649.405; -961.055; -775.902
727.795;   19.582; -713.054; -673.902
728.059;  -28.066; -552.054; -557.903
728.322;  -34.988; -841.054; -669.903
728.586;  112.889; -692.054; -701.903
728.849;  -47.084; -695.053; -756.904
729.112;  -91.207; -812.053; -912.904
729.376;  -93.204; -959.053; -905.904
729.639;  -48.302; -536.053; -536.905
729.903;  -83.375; -733.053; -699.905
730.166;  -33.723; -437.052; -399.906
730.429;  -11.870; -317.052; -468.906
730.693;  -39.393; -355.052; -894.906
730.956;  233.909;  810.948;  651.093
731.219; 1081.187; -310.052; -103.907
731.482;  233.239;-1003.051; -894.907
731.745;  253.366; -794.051; -935.908
732.009;   38.468;  -30.051;   50.092
732.272;  -58.204; -904.051; -771.909
732.535;  -28.052; -300.051; -310.909
732.798; -117.300;-1083.050;-1166.909
733.061;  -39.248; -430.050; -456.910
733.324;   27.280;   31.950; -180.910
733.587;   92.032;  290.950;  365.090
733.850;  -56.516; -973.049;-1050.911
734.113;   50.562;   33.951;   32.089
734.376;   55.464; -328.049; -447.912
734.639;  253.441; 1188.951; 1011.088
734.901;  129.343; -180.049; -402.912
735.164;  680.371; -883.048; -837.913
735.427; 2035.148; -166.048; -355.913
735.690;  182.200; -205.048; -234.913
735.952;   45.652; -923.048; -925.914
736.215;   44.055;-1113.048;-1009.914
736.478;  114.307; -771.047; -774.915
736.740;  316.809;   33.953;  129.085
737.003;  840.637; -658.047; -672.915
737.266; 5830.514;  -94.047;   46.084
737.528;  719.841; -682.047; -660.916
737.791;  472.818; -316.046; -327.916
738.053; 1030.196;  465.954;  649.083
738.316;13403.923; -162.046; -136.917
738.578;11721.725; -770.046; -736.918
738.841;  688.002; -382.046; -446.918
739.103;  323.430; -875.045; -777.918
739.365;  771.982;   79.955;  -69.919
739.628;   84.384; -884.045; -805.919
739.890;   14.187; -758.045; -710.919
740.152;    6.439; -692.044; -754.920
740.414;   41.116; -408.044; -359.920
740.677;   10.243; -785.044; -634.921
740.939;   -3.779; -587.044; -487.921
741.201;  410.373; -432.044; -572.921
741.463;  142.675; -689.043; -745.922
741.725;   51.252;  -21.043; -199.922
741.987;   79.230;  220.957;  116.078
742.249;   78.982; -751.043; -859.923
742.511;  366.684; -703.043; -794.923
742.773;   84.012; -546.042; -546.924
743.035;  163.939;  796.958;  533.076
743.297;   -3.734; -963.042;-1013.924
743.559; 1062.718; -278.042; -262.925
743.821;  202.271; -735.042; -744.925
744.083;   52.223;  -44.041; -149.925
744.345;  -46.100; -869.041; -892.926
744.607;   64.552;   75.959;  122.074
744.868;  -17.695; -490.041; -554.927
745.130;  -63.043; -994.041;-1008.927
745.392;   79.484;   -1.040;  -44.927
745.653;   29.612; -411.040; -378.928
745.915;  186.464;  896.960;  631.072
746.177;  106.441;   35.960;  -43.928
746.438;   57.668; -428.040; -543.929
746.700;   14.996; -947.039; -988.929
746.961;   86.123; -659.039; -740.930
747.223;  232.950; -190.039;  -74.930
747.484;  185.752; -391.039; -471.930
747.746;  243.680;  -23.038; -106.931
748.007;  241.132; -647.038; -689.931
748.269;  457.259; -468.038; -440.931
748.530;  805.561; -852.038; -638.932
748.791;  422.839; -354.038; -420.932
749.053;  625.216;  286.963;  163.067
749.314;  679.343; -236.037; -169.933
749.575;  820.871; -945.037; -905.933
749.836; 1242.198; -217.037;   86.066
750.098; 3095.475;  -60.037;  -21.934
750.359;49550.377;  414.964;  555.066
750.620;16038.230; -121.036; -220.935
750.881; 1550.657; -585.036; -513.935
751.142; 1954.884; -950.036; -938.936
751.403;21056.511; -789.036; -705.936
751.664;11911.264;-1034.035; -999.936
751.925;  764.666; -175.035; -262.937
752.186;  445.018; -298.035; -278.937
752.447;  255.796; -590.035; -445.937
752.708;  139.348; -532.035; -648.938
752.969;   76.850; -566.034; -576.938
753.230;   74.977; -777.034; -672.939
753.491;   54.280; -650.034; -631.939
753.751;  103.357;  109.966;   19.061
754.012;  138.784;  258.967;  181.060
754.273;  106.861; -174.033;  -71.940
754.534;   71.489; -487.033; -580.940
754.794;  -27.159; -926.033; -911.941
755.055;  176.118; 1051.967;  881.059
755.316;   -3.279; -700.032; -566.942
755.576;    9.623; -606.032; -576.942
755.837;   -7.375; -527.032; -695.942
756.097;    0.102; -530.032; -564.943
756.358;  -30.120; -725.032; -770.943
756.618;   -2.068; -705.031; -641.943
756.879;   60.509; -254.031; -349.944
757.139;  -70.814;-1098.031;-1116.944
757.400;  -32.036; -538.031; -553.945
757.660;   13.141; -365.031; -401.945
757.920;   58.268; -266.030; -228.945
758.181;   18.346; -468.030; -351.946
758.441;  -47.602; -870.030; -809.946
758.701;    1.550; -308.030; -215.946
758.961;    7.802; -220.030; -278.947
759.222;  -22.445; -574.029; -502.947
759.482;  -54.968; -683.029; -723.948
759.742;  -44.316; -706.029; -547.948
760.002;   32.611;  -83.029; -143.948
760.262;   39.914;   50.972;  182.051
760.522;  -10.609; -498.028; -574.949
760.782;  -38.157; -738.028; -612.949
761.042;   -3.329; -618.028; -573.950
761.302;   66.473;   55.972;  -18.950
761.562;   73.350; -164.027; -154.951
761.822;  142.277; -710.027; -551.951
762.082;   -4.595;-1104.027;-1093.951
762.342;   77.607; -328.027; -403.952
762.601;   96.459; -567.027; -506.952
762.861;  449.611; -281.026; -207.952
763.121;  413.089; -406.026; -411.953
763.381; 6422.741; -499.026; -485.953
763.640; 9274.093; -139.026; -307.954
763.900;  402.196; -242.026; -203.954
764.160;  103.723; -458.025; -491.954
764.419;   13.900; -726.025; -782.955
764.679;  -49.173; -795.025; -726.955
764.939;    7.480; -124.025; -210.955
765.198;  -55.643; -608.025; -563.956
765.458;  -68.491; -710.024; -612.956
765.717;  -62.764; -454.024; -590.957
765.976;  -52.786; -428.024; -411.957
766.236;  -58.609; -475.024; -610.957
766.495;   20.868;  260.977;   73.042
766.755;  -42.404;-1090.023; -987.958
767.014;   62.223; -594.023; -665.958
767.273;  -28.250; -373.023; -397.959
767.533;  -45.548; -228.023; -307.959
767.792;  -16.620; -151.022; -188.960
768.051;  -46.093; -228.022; -276.960
768.310;  -55.866; -546.022; -650.960
768.569;   -3.589; -161.022;    4.039
768.828;  -15.661; -285.022; -363.961
769.088;  -80.059;-1050.021; -942.961
769.347;  -60.307; -755.021; -599.962
769.606;  -76.179; -876.021; -857.962
769.865;  -88.252;-1016.021;-1033.963
770.124;   32.025; -411.021; -336.963
770.383;  -15.398; -778.020; -910.963
770.641;   41.130; -398.020; -400.964
770.900;  -29.668; -953.020; -846.964
771.159;  -13.091; -851.020; -951.964
771.418;   44.586; -917.020; -779.965
771.677;  179.489; -224.019; -293.965
771.936;  234.716; -794.019; -865.966
772.194; 2118.618; -465.019; -437.966
772.453;14122.271; -213.019; -391.966
772.712; 1111.123;  416.982;  329.033
772.970;  166.275;   32.982;   63.033
773.229;  135.352;  -22.018;  102.033
773.488;  -60.245; -814.018; -770.968
773.746;   58.707;  296.982;  335.032
774.005;   20.634;  190.983;  -22.969
774.263;   29.336;  243.983;  177.031
774.522;  -25.161; -422.017; -548.969
774.780;  -67.834; -484.017; -417.970
775.039;  -74.307; -551.017; -531.970
775.297;  -13.204; -135.016; -351.970
775.555;  -93.127; -489.016; -612.971
775.814; -106.700; -618.016; -570.971
776.072; -103.148; -749.016; -740.971
776.330;  -94.095; -630.016; -520.972
776.589; -106.418; -703.015; -721.972
776.847; -103.566; -645.015; -624.973
777.105; -151.064;-1016.015;-1032.973
777.363;  -72.511; -459.015; -454.973
777.621; -109.559; -660.015; -717.974
777.879;  -22.382;  -42.014;   32.026
778.138;  -84.279; -554.014; -717.974
778.396;  -93.352; -585.014; -526.975
778.654; -137.550;-1015.014; -970.975
778.912;  -58.223; -269.014; -371.976
779.170; -113.870; -880.013; -803.976
779.427; -133.568; -922.013; -897.976
779.685; -111.416; -880.013; -832.977
779.943;  -48.064; -654.013; -593.977
780.201; -134.561; -964.012; -883.978
780.459; -114.259; -651.012; -610.978
780.717;  -67.832; -440.012; -390.978
780.974;  -73.680; -449.012; -490.979
781.232;  -70.027; -358.012; -338.979
781.490;  -36.825; -551.011; -472.979
781.747;  -86.973; -555.011; -476.980
782.005;   24.955;  462.989;  254.020
782.263; -141.543; -542.011;-1004.981
782.520;  -80.641; -326.011; -501.981
782.778; -146.989;-1013.010;-1051.981
783.035; -153.711; -962.010; -938.982
783.293;  -49.709; -248.010; -206.982
783.550;  -66.382; -134.010; -198.982
783.808; -118.430; -764.010; -776.983
784.065; -136.852; -745.009; -874.983
784.322;  -41.125;   25.991;  -86.984
784.580; -110.248; -915.009; -771.984
784.837;  -82.870; -392.009; -466.984
785.094; -117.668; -783.009; -762.985
785.352;  -55.591; -304.008; -404.985
785.609;  -71.789; -934.008; -839.985
785.866;  -55.436; -345.008; -401.986
786.123;  -38.484; -639.008; -583.986
786.380;  -66.407; -665.008; -604.987
786.637;  -18.055; -225.007; -380.987
786.895;   45.598; -456.007; -543.987
787.152;  -49.725; -135.007; -267.988
787.409;  -36.623; -123.007; -225.988
787.666;  -80.495; -299.006; -378.988
787.923;  -85.793; -616.006; -695.989
788.179;  -83.091; -551.006; -584.989
788.436;  -87.714; -585.006; -585.990
788.693;  -38.186;  -92.006;  -87.990
788.950;  185.366; -125.005; -112.990
789.207;  406.993; -381.005; -372.991
789.464;  -50.930; -161.005; -301.991
789.720;   -5.902;  150.995;  110.009
789.977; -151.550;-1003.005; -671.992
790.234;  -29.423;   44.996;  -66.992
790.490; -131.520; -884.004;-1031.993
790.747;   -2.793;  -85.004;   22.007
791.004;    9.509; -426.004; -348.993
791.260;  -66.564; -430.004; -560.994
791.517;  -71.661; -843.003; -788.994
791.773;  -16.684; -379.003; -342.994
792.030;  -95.307; -596.003; -660.995
792.286;  -87.055; -686.003; -636.995
792.543;  -11.702;  -74.002; -159.995
792.799;  -39.650; -584.002; -382.996
793.055; -144.648;-1179.002;-1210.996
793.312;  -92.670; -827.002; -816.997
793.568;  -43.593; -746.002; -599.997
793.824;   11.559; -226.001; -284.997
794.081;   32.861; -447.001; -508.998
794.337;   68.489; -664.001; -561.998
794.593; 1029.591; -319.001; -271.999
794.849; 7261.043; -746.001; -772.999
795.105;  489.045; -270.000; -261.999
795.361;   29.823; -490.000; -457.000
795.617;  -23.750; -875.000; -945.000
795.873;  -29.350; -360.000; -407.000
796.129;  -13.875; -368.000; -306.000
796.385;  -10.700; -124.000; -156.000
796.641;   80.025;  412.000;  550.000
796.897;  -62.950; -666.000; -635.000
797.153;   80.475;  453.000;  357.000
797.409;  -77.000; -785.000; -868.000
797.665;  -39.000; -625.000; -732.000
797.921;  -40.650; -775.000; -762.000
798.176;  -15.275; -744.000; -747.000
798.432;   -4.800; -824.000; -596.000
798.688;  -19.650;-1174.000;-1078.000
798.943;  125.375; -165.000; -147.000
799.199;   70.700;-1005.000; -959.000
799.455;  285.050;  369.000;  316.000
799.710;  221.825; -813.000; -380.000
799.966;  417.125; -162.000; -160.000
800.221;  641.975; -638.000; -721.000
800.477;11757.675; -743.000; -710.000
800.732;14610.900; -773.000; -800.000
800.988;  878.325;  205.000;  -19.000
801.243; 1617.950; -454.000; -344.000
801.498; 9354.400; -814.000; -739.000
801.754;  692.850; -289.000; -163.000
802.009;  127.650; -257.000; -335.000
802.264;   -0.225; -967.000;-1033.000
802.520;   60.625;  222.000;   -3.000
802.775;  -20.275; -524.000; -359.000
803.030;   57.875;  395.000;  356.000
803.285;  -96.500; -840.000; -903.000
803.540;  -39.125; -686.000; -699.000
803.795;   14.825; -648.000; -583.000
804.051;  -33.550; -279.000; -346.000
804.306;   42.300;  168.000;  128.000
804.561;  173.400;  451.000;  362.000
804.816;  142.500;  714.000;  861.000
805.071;   22.550; -185.000; -280.000
805.325;  329.050; -257.000; -427.000
805.580;  -51.775; -841.000; -877.000
805.835;    2.025; -204.000; -297.000
806.090;  -57.150; -760.000; -676.000
806.345;  -14.975; -344.000; -264.000
806.600;  -11.700; -549.000; -632.000
806.854;    2.675; -408.000; -538.000
807.109;    9.600; -493.000; -577.000
807.364;   39.775; -407.000; -328.000
807.618;   29.050; -415.000; -381.000
807.873;  100.175; -470.000; -494.000
808.128;  133.325; -257.000; -518.000
808.382;  156.575; -224.000; -332.000
808.637;  112.550; -440.000; -511.000
808.891;  228.125; -257.000; -180.000
809.146;  131.250; -902.000; -794.000
809.400;  326.000; -848.000; -923.000
809.654;  421.400; -779.000; -551.000
809.909;  573.775; -841.000; -927.000
810.163; 6091.225; -813.000; -651.000
810.418;22184.400; -940.000; -861.000
810.672; 1457.300; -685.000; -690.000
810.926;  754.750; -993.000; -973.000
811.180; 1312.875; -439.000; -372.000
811.434;28570.075;  240.000;  135.000
811.689;16443.950; -231.000; -365.000
811.943;  817.850; -936.000; -953.000
812.197;  397.175; -893.000; -671.000
812.451;  182.625; -379.000; -514.000
812.705;   -4.525; -809.000; -619.000
812.959;   23.275; -263.000; -388.000
813.213;    7.125; -283.000; -209.000
813.467;   76.675;  470.000;  253.000
813.721;  -77.350; -764.000; -792.000
813.975; -111.175; -826.000; -877.000
814.229;   58.875;  430.000;  353.000
814.482;  -39.200; -517.000; -566.000
814.736;  -97.275; -766.000; -744.000
814.990; -106.500; -779.000; -872.000
815.244;  -32.925; -228.000; -285.000
815.497;  -82.175; -636.000; -601.000
815.751;   -4.525; -141.000;   82.000
816.005;  -68.800; -470.000; -586.000
816.258;  -53.275; -510.000; -363.000
816.512;  -96.325; -693.000; -610.000
816.766;    3.925;  121.000;  157.000
817.019;   32.675;  148.000;  149.000
817.273;  -81.950;-1000.000; -802.000
817.526;  -12.925; -206.000; -173.000
817.779;   -6.250;-1049.000; -960.000
818.033;   -8.875; -693.000; -807.000
818.286; -107.575; -725.000; -792.000
818.540;  -71.700; -403.000; -403.000
818.793;  -60.150; -402.000; -489.000
819.046;  -89.300; -582.000; -520.000
819.299;  -34.675; -157.000; -166.000
819.553;  -92.250; -552.000; -592.000
819.806; -141.700;-1016.000; -838.000
820.059;  -50.950; -334.000; -354.000
820.312;   17.050;  152.000;  185.000
820.565;    7.875;  110.000;  -27.000
820.818;  -42.175;  -59.000; -173.000
821.071; -148.250;-1041.000; -957.000
821.324;  -96.375; -536.000; -540.000
821.577;  -90.875; -457.000; -483.000
821.830;  -62.850; -270.000; -172.000
822.083; -115.900; -733.000; -288.000
822.336;  -41.225; -261.000; -167.000
822.589; -109.150; -805.000; -688.000
822.842; -137.375; -875.000; -770.000
823.094; -151.750;-1076.000;-1114.000
823.347; -113.975; -925.000; -729.000
823.600;   12.525;  402.000;  187.000
823.853;  -46.050; -311.000; -267.000
824.105;  -47.350; -331.000; -575.000
824.358;  -90.075; -617.000; -716.000
824.611;   56.175;  234.000;   40.000
824.863;  -13.075; -612.000; -591.000
825.116;   85.000;  -33.000;   27.000
825.368;  128.450; -366.000; -372.000
825.621;  277.875; -186.000; -240.000
825.873;  159.700; -704.000; -737.000
826.126;  683.825; -669.000; -641.000
826.378;14446.325; -389.000; -505.000
826.630; 5414.400; -890.000; -898.000
826.883;  162.700; -754.000; -693.000
827.135;  103.600; -279.000; -270.000
827.387;  -73.000; -893.000; -839.000
827.639;  -26.225;  -86.000;   32.000
827.892; -103.500; -742.000; -582.000
828.144; -125.700; -848.000; -804.000
828.396;  -25.925;  104.000;  -80.000
828.648;  -81.175; -440.000; -333.000
828.900; -137.275; -702.000; -795.000
829.152; -114.650; -684.000; -683.000
829.404;  -62.050; -215.000; -267.000
829.656;   13.975;  321.000;  214.000
829.908;  -14.150;  393.000;  229.000
830.160; -146.625;-1064.000;-1047.000
830.412;  -98.975; -481.000; -430.000
830.664; -101.175; -557.000; -665.000
830.916;  -75.425; -268.000; -206.000
831.167; -159.600;-1073.000; -951.000
831.419; -110.400; -623.000; -566.000
831.671; -126.075; -764.000; -809.000
831.923;  -87.000; -311.000; -447.000
832.174;  -69.200; -273.000; -331.000
832.426; -110.475; -493.000; -582.000
832.678; -157.775;-1043.000;-1091.000
832.929; -146.250; -947.000; -935.000
833.181;  -29.625; -575.000; -677.000
833.432;  -37.650;  -59.000; -186.000
833.684;  -21.900;  112.000;  -27.000
833.935; -103.450; -610.000; -566.000
834.187; -118.575; -829.000; -823.000
834.438;  -41.825;  -58.000;  -25.000
834.689;  -55.775; -255.000; -123.000
834.941;  -45.675; -343.000; -244.000
835.192;  -87.850; -590.000; -533.000
835.443;  -80.050; -419.000; -506.000
835.695;    4.725;  138.000;  -16.000
835.946;  -82.250; -608.000; -378.000
836.197;  -86.425; -599.000; -622.000
836.448;  -71.100; -528.000; -395.000
836.699;  -46.725; -253.000; -341.000
836.950;    0.375;   72.000;    7.000
837.201; -114.950;-1003.000; -987.000
837.452;  -34.050; -356.000; -170.000
837.703;  -72.900; -791.000; -737.000
837.954;  -18.850; -205.000; -365.000
838.205;  -54.275;-1029.000;-1008.000
838.456;  281.550; -196.000; -282.000
838.707;   55.250; -423.000; -519.000
838.958;   54.725; -634.000; -647.000
839.209;  399.850;   18.000;   40.000
839.460;  175.475; -439.000; -201.000
839.710;  230.175; -135.000; -297.000
839.961;  524.725;  730.000;  612.000
840.212;  460.425; -382.000; -497.000
840.462; 1293.550; -328.000; -277.000
840.713;20448.375; -571.000; -536.000
840.964;11963.025;  -62.000; -143.000
841.214;  725.200; -384.000; -624.000
841.465;  702.500; -214.000; -141.000
841.715;  655.725; -417.000; -380.000
841.966;  755.825; -746.000; -685.000
842.216; 7723.325; -330.000; -431.000
842.466;40905.850; -169.000; -313.000
842.717; 3530.900; -964.000; -952.000
842.967;  405.025; -635.000; -641.000
843.217;  343.725;   20.000;   28.000
843.468;  114.150; -104.000; -132.000
843.718;   -0.325; -718.000; -726.000
843.968;  -67.350; -837.000; -765.000
844.218;   44.350; -315.000; -262.000
844.469;   -0.800; -577.000; -561.000
844.719;  -94.750; -537.000; -682.000
844.969;  -87.025; -550.000; -580.000
845.219; -125.450; -814.000; -862.000
845.469;  -82.075; -392.000; -342.000
845.719; -130.000; -792.000; -884.000
845.969;   -8.825;  119.000;  174.000
846.219; -100.150; -738.000; -720.000
846.469;   16.750;  464.000;  432.000
846.718;  -25.100; -115.000;   31.000
846.968; -120.675; -827.000; -827.000
847.218;  -30.850; -224.000; -371.000
847.468;   10.725; -586.000; -555.000
847.718; -122.175; -827.000; -798.000
847.967; -114.475; -826.000; -915.000
848.217;  -73.475; -449.000; -569.000
848.467;  -53.250; -405.000; -376.000
848.716;  -85.225; -708.000; -725.000
848.966;   35.850; -372.000; -358.000
849.215;  -24.750; -428.000; -419.000
849.465;  -63.975; -785.000; -615.000
849.714;  -90.550;-1132.000;-1150.000
849.964;  -47.875; -551.000; -613.000
850.213;    8.450; -393.000; -355.000
850.463;  114.275;  137.000;  340.000
850.712;   72.650; -542.000; -567.000
850.961;   83.225; -739.000; -678.000
851.211;  197.525; -513.000; -504.000
851.460;  283.575; -635.000; -650.000
851.709;  753.125;  -25.000;   18.000
851.958;11762.450; -912.000; -750.000
852.208;20741.825; -859.000; -879.000
852.457;  905.725; -181.000;  -13.000
852.706;  175.950; -791.000; -823.000
852.955;  117.775; -507.000; -528.000
853.204;  -30.800; -521.000; -461.000
853.453;  -46.725; -418.000; -458.000
853.702; -120.250; -660.000; -750.000
853.951;  -95.025; -532.000; -520.000
854.200; -102.100; -613.000; -562.000
854.449; -107.875; -695.000; -661.000
854.698;  -89.550; -340.000; -279.000
854.946;  -52.950; -181.000; -284.000
855.195; -133.550; -843.000; -868.000
855.444;  -86.025; -395.000; -420.000
855.693; -106.775; -345.000; -432.000
855.941;  -91.075; -387.000; -516.000
856.190;  -41.725; -256.000; -382.000
856.439; -120.775; -652.000; -703.000
856.687;  -60.850;  -99.000;  -72.000
856.936; -108.425; -621.000; -323.000
857.184; -169.050;-1067.000;-1020.000
857.433; -102.825; -423.000; -512.000
857.681; -157.650; -989.000; -953.000
857.930;  -64.950; -282.000; -433.000
858.178; -145.550; -856.000; -929.000
858.427; -136.650; -802.000; -781.000
858.675;  -94.125; -377.000; -544.000
858.923;  -91.275; -527.000; -819.000
859.172; -170.175;-1094.000;-1070.000
859.420;  -75.675; -339.000; -239.000
859.668; -132.275; -624.000; -628.000
859.916;   -8.575;  109.000;  115.000
860.164;  -94.175; -699.000; -603.000
860.413;  386.750; -878.000; -696.000
860.661;  503.375; -709.000; -577.000
860.909;  -65.025; -339.000; -325.000
861.157;  -75.625; -277.000; -444.000
861.405; -112.425; -534.000; -670.000
861.653;   17.650;  310.000;  310.000
861.901;  256.750; -543.000; -613.000
862.149;  143.975; -801.000; -824.000
862.396;  -74.600; -297.000; -187.000
862.644;  -82.775; -368.000; -347.000
862.892;  -39.275;   98.000;  138.000
863.140; -100.875; -549.000; -530.000
863.388; -144.650; -815.000; -759.000
863.635; -103.575; -642.000; -601.000
863.883;   -9.250;  231.000;  190.000
864.131;  -85.175; -288.000; -357.000
864.378; -123.575; -675.000; -540.000
864.626;  -87.425; -347.000; -415.000
864.873;  -98.350; -556.000; -505.000
865.121; -128.650; -714.000; -799.000
865.368;  -26.100; -173.000;   75.000
865.616;  -16.300;  -33.000;  -40.000
865.863;  -49.025; -462.000; -506.000
866.111;  -69.900; -795.000; -824.000
866.358;   62.300; -426.000; -420.000
866.605; 2579.675;  -64.000; -804.000
866.853; 3892.550; -621.000; -537.000
867.100;   72.125; -728.000; -775.000
867.347;  -82.975; -672.000; -611.000
867.594;  -47.500; -740.000; -714.000
867.841;  147.500;   97.000;   17.000
868.089; -121.525; -746.000; -698.000
868.336; -106.350; -477.000; -420.000
868.583; -126.975; -637.000; -741.000
868.830;  -51.375; -131.000; -170.000
869.077; -144.600; -859.000; -787.000
869.324; -118.025; -502.000; -458.000
869.571; -126.475; -398.000; -430.000
869.818; -116.950; -485.000; -439.000
870.065;  -96.375; -439.000; -513.000
870.311; -104.975; -456.000; -542.000
870.558;  -95.625; -332.000; -311.000
870.805;  -83.125; -320.000; -384.000
871.052; -107.800; -494.000; -369.000
871.298;  -42.725; -204.000; -131.000
871.545;  -60.650; -151.000; -185.000
871.792;  -78.350; -173.000; -222.000
872.038;  -64.600;   43.000; -126.000
872.285; -122.050; -496.000; -387.000
872.532;  -79.325; -357.000; -387.000
872.778;   12.950;  556.000;  403.000
873.025;  -76.250; -384.000; -359.000
873.271;   16.875;  501.000;  578.000
873.517;  -19.000; -133.000; -209.000
873.764;   -9.450; -193.000;  -80.000
874.010;  -42.225; -143.000; -230.000
874.257;  -52.100;  123.000;   90.000
874.503; -124.650; -579.000; -479.000
874.749;  -61.100;   31.000;  275.000
874.995;  -50.800;  -80.000;  -20.000
875.242; -110.650; -540.000; -478.000
875.488;  -82.500; -414.000; -439.000
875.734;  -55.150; -106.000; -234.000
875.980;  268.425; -872.000;-1032.000
876.226;  678.100; -157.000; -255.000
876.472;   23.075;  343.000;  237.000
876.718;  -44.150;  184.000;  158.000
876.964;  -29.375;   56.000;   55.000
877.210; -129.800; -547.000; -677.000
877.456; -127.525; -630.000; -557.000
877.702; -169.950; -821.000; -832.000
877.948; -109.175; -377.000; -497.000
878.193;    8.950;  361.000;  255.000
878.439;  -67.400; -487.000; -472.000
878.685; -100.100; -272.000; -343.000
878.931; -127.500; -618.000; -676.000
879.176;  -81.400; -201.000; -201.000
879.422; -167.500; -933.000; -820.000
879.668;   56.200;   10.000;   79.000
879.913;  224.700;   53.000;  137.000
880.159;  -31.925; -112.000;  -17.000
880.404;  -54.900; -152.000; -162.000
880.650;  -40.000;   91.000;  141.000
880.895; -142.550; -670.000; -710.000
881.141; -110.800; -454.000; -428.000
881.386; -134.975; -503.000; -658.000
881.631;  -83.300; -311.000; -166.000
881.877;  -28.925;  112.000;  -13.000
882.122; -139.475; -684.000; -600.000
882.367;  -72.625; -136.000; -186.000
882.612;  -71.225;  -80.000; -176.000
882.858; -162.325; -877.000; -823.000
883.103;  -90.875; -297.000; -267.000
883.348; -146.475; -759.000; -852.000
883.593; -142.175; -677.000; -602.000
883.838;  -47.150; -311.000;  -24.000
884.083;   52.225;  353.000;  288.000
884.328;  -70.550; -564.000; -545.000
884.573;  -40.500; -196.000; -143.000
884.818;  281.450; -694.000; -531.000
885.063;  403.700; -348.000; -315.000
885.308;  -78.350; -475.000; -398.000
885.553;  -16.775;  245.000;  325.000
885.797; -113.700; -545.000; -615.000
886.042;  -61.750;    8.000;   58.000
886.287;  -79.075; -253.000; -211.000
886.532;  -52.000;   26.000;  204.000
886.776;  -91.625; -407.000; -525.000
887.021; -145.250; -621.000; -574.000
887.265; -132.725; -685.000; -689.000
887.510; -108.450; -557.000; -496.000
887.755;  -89.125; -194.000; -164.000
887.999; -144.350; -552.000; -575.000
888.244;  -57.650;  -58.000;  161.000
888.488;   -3.350;  371.000;  393.000
888.732; -124.900; -368.000; -520.000
888.977; -116.400; -622.000; -567.000
889.221; -132.875; -683.000; -659.000
889.465; -121.850; -422.000; -566.000
889.710;  -69.075;  -56.000; -299.000
889.954;    3.900;  579.000;  467.000
890.198; -145.325; -584.000; -707.000
890.442; -141.550; -716.000; -712.000
890.687; -153.200; -800.000; -753.000
890.931;  -96.225; -273.000; -210.000
891.175; -119.350; -502.000; -500.000
891.419;  -66.350; -105.000; -110.000
891.663;  -76.050; -239.000; -112.000
891.907; -160.550; -801.000; -545.000
892.151; -165.225; -920.000; -815.000
892.395; -110.425; -274.000; -387.000
892.638;  -25.225;  408.000;  291.000
892.882; -167.175; -780.000; -867.000
893.126;   18.225;  758.000;  558.000
893.370;  -87.675; -167.000; -168.000
893.614; -127.250; -714.000; -715.000
893.857; -109.175; -183.000; -197.000
894.101; -134.850; -527.000; -631.000
894.345;  -47.950;  300.000;  150.000
894.588;    9.625;  569.000;  380.000
894.832;  -97.400; -178.000;  -84.000
895.075;  -85.675;   15.000;  -92.000
895.319; -127.825; -552.000; -420.000
895.563; -108.775; -413.000; -353.000
895.806; -142.675; -628.000; -741.000
896.049;  -36.550; -576.000; -368.000
896.293;  145.050;  527.000;  405.000
896.536;  -22.300; -465.000; -468.000
896.779;  -59.200; -149.000;   -1.000
897.023; -124.175; -751.000; -714.000
897.266;  -33.950;  325.000;  269.000
897.509; -176.875; -900.000; -901.000
897.752;  -50.275;  149.000;  171.000
897.996; -177.775; -972.000; -864.000
898.239;  -41.800;  168.000;  102.000
898.482; -115.650; -431.000; -453.000
898.725;  -26.700;  101.000;   53.000
898.968; -126.225; -609.000; -744.000
899.211; -106.800; -513.000; -361.000
899.454;  -93.025; -633.000; -539.000
899.697;  -65.500;   90.000;  -43.000
899.940; -163.950; -761.000; -757.000
900.182; -102.800; -335.000; -405.000
900.425;  -78.225; -150.000; -298.000
900.668;  -17.950;  491.000;  350.000
900.911; -108.425; -292.000; -345.000
901.154;  -55.250;  141.000;   -3.000
901.396; -125.575; -407.000; -412.000
901.639; -138.175; -430.000; -496.000
901.882; -174.125; -790.000; -809.000
902.124;  -87.350;  -29.000; -143.000
902.367; -101.125; -315.000; -361.000
902.609; -128.650; -476.000; -453.000
902.852;  -83.625; -108.000; -260.000
903.094; -119.850; -458.000; -337.000
903.337;  -57.025;  -26.000;   53.000
903.579; -111.475; -228.000; -441.000
903.821; -152.275; -597.000; -744.000
904.064;  -57.825;   85.000;  127.000
904.306;  -83.225; -126.000; -166.000
904.548;  -94.900; -152.000; -366.000
904.790;  -81.725; -195.000; -340.000
905.033; -129.725; -625.000; -577.000
905.275; -116.200; -513.000; -524.000
905.517;   41.375;  468.000;  256.000
905.759;   -2.925; -667.000; -761.000
906.001;  -88.550; -322.000; -369.000
906.243;  -53.625; -162.000; -224.000
906.485;  178.475; -265.000; -207.000
906.727;  285.125; -499.000; -542.000
906.969;   -3.300;  -30.000; -135.000
907.211;  186.775; -316.000; -382.000
907.453;  446.375; -188.000; -237.000
907.695;  108.050; -158.000; -385.000
907.936;   41.275;  818.000;  706.000
908.178;  -50.075;   92.000; -135.000
908.420;  -64.225; -111.000; -162.000
908.662; -115.875; -633.000; -682.000
908.903;  -78.050; -208.000; -123.000
909.145;  -45.875; -240.000; -305.000
909.386;   10.600;  315.000;  280.000
909.628;   28.500;  363.000;  397.000
909.870;    2.825;   29.000;  264.000
910.111;  -78.250; -809.000; -949.000
910.353;   22.350; -123.000; -161.000
910.594;   17.050; -574.000; -606.000
910.835;   93.950; -265.000; -326.000
911.077;  176.950; -503.000; -604.000
911.318;  309.550; -505.000; -471.000
911.559;  489.500; -577.000; -880.000
911.801; 1260.150; -284.000; -280.000
912.042; 8844.475;  -50.000; -159.000
912.283;28894.675;  404.000;  371.000
912.524; 6322.750; -396.000; -457.000
912.765;  635.750; -193.000;   79.000
913.006;  291.950; -307.000; -338.000
913.247;   99.450; -270.000; -290.000
913.488;   19.550;  -43.000;   30.000
913.729;  -61.425; -373.000; -373.000
913.970;  -56.700;  -96.000; -292.000
914.211;  -77.225; -160.000; -198.000
914.452;  -57.650; -118.000;  -11.000
914.693;   11.425;  510.000;  592.000
914.934;   14.450;  510.000;  440.000
915.175;  -61.200;   53.000;  -95.000
915.415;  -66.700; -137.000;   27.000
915.656;  -64.800;  -28.000;  192.000
915.897;  -82.575; -252.000;  -82.000
916.137;  -52.850;   74.000;   -9.000
916.378; -121.450; -573.000; -517.000
916.619;  -87.300; -159.000;  -63.000
916.859;  -12.200;  303.000;  330.000
917.100;  123.400; 1655.000; 1070.000
917.340;   50.475;  930.000;  728.000
917.581;   44.125;  965.000;  789.000
917.821;    4.100; -171.000;  143.000
918.061;   76.175; -199.000;  -72.000
918.302;  -27.275; -152.000; -211.000
918.542;  -15.700;  -22.000;    3.000
918.782;   64.000;  369.000;  377.000
919.023;  190.075;  360.000;  427.000
919.263; 1899.800; 8131.000;  202.000
919.503; 1849.525; -137.000;  -54.000
919.743;  929.775;  390.000;  266.000
919.983;  498.075; -134.000;  -26.000
920.223;  164.925;  135.000;   14.000
920.463;  189.500;  631.000;  554.000
920.703;  212.575;   84.000;   39.000
920.943;  264.600; -110.000;   90.000
921.183;  351.425; -414.000; -405.000
921.423;  688.900;  307.000;  546.000
921.663; 1033.850; -174.000; -257.000
921.903; 2019.375;  237.000;  173.000
922.143;10294.400;  372.000;  389.000
922.383;44033.400;  158.000;  115.000
922.622;20924.075; -120.000;  -15.000
922.862; 2132.275;  796.000;  785.000
923.102;  770.350;  -51.000;   33.000
923.341;  339.300;   59.000;   74.000
923.581;  162.550;  450.000;  360.000
923.821;   60.100;  301.000;  398.000
924.060;   37.825;  351.000;  193.000
924.300;  -17.200;  -16.000; -128.000
924.539;    3.300;  584.000;  473.000
924.779;   19.725;  812.000;  597.000
925.018;  -46.300;  247.000;  353.000
925.257;   10.875;  595.000;  666.000
925.497;  -18.800;  447.000;  412.000
925.736;  -66.075;  -35.000;  102.000
925.975;   12.800;  687.000;  669.000
926.214;   28.175;  907.000;  850.000
926.454;   32.625;  706.000;  757.000
926.693;  -28.425;  419.000;  543.000
926.932;   48.600; 1021.000;  825.000
927.171;   59.700; 1107.000; 1044.000
927.410;   47.150; 1144.000;  967.000
927.649;   25.500;  924.000;  742.000
927.888;   -4.600;  590.000;  564.000
928.127;   -5.025;  680.000;  678.000
928.366;   38.550;  842.000;  826.000
928.605;   65.275;  831.000;  737.000
928.844;  263.925; 1451.000; 1393.000
929.083;  853.700;  770.000;  613.000
929.321;  543.675; 1335.000; 1359.000
929.560;  108.000; 1158.000; 1122.000
929.799;  -11.600;  574.000;  475.000
930.038;   84.400; 1025.000; 1394.000
930.276;  -39.800;  334.000;  397.000
930.515;   11.025;  827.000;  681.000
930.753;  -20.125;  614.000;  589.000
930.992;   -5.325;  664.000;  717.000
931.230;    7.225;  847.000;  847.000
931.469;  169.625; 2162.000;  892.000
931.707;   78.750;  840.000;  751.000
931.946;   61.875; 1278.000; 1344.000
932.184;   56.125; 1437.000; 1175.000
932.423;   49.375; 1265.000;  963.000
932.661;  101.675; 1296.000; 1428.000
932.899;   60.500;  987.000;  821.000
933.137;   49.600;  754.000;  564.000
933.376;  191.225; 1664.000; 1335.000
933.614;  190.950; 1759.000; 1196.000
933.852;   69.175; 1357.000; 1171.000
934.090;  147.100; 1722.000; 1747.000
934.328;  112.850; 1252.000; 1457.000
934.566;  130.050; 1431.000; 1110.000
934.804;  195.925; 1263.000; 1309.000
935.042;  622.150; 1861.000; 1850.000
935.280; 2462.675; 2088.000; 2063.000
935.518; 3012.750; 2113.000; 2007.000
935.756;  594.425; 2481.000; 2316.000
935.994;  233.325; 1808.000; 1751.000
936.231;  393.575; 2890.000; 2950.000
936.469;  225.050; 2367.000; 2378.000
936.707;  181.550; 2220.000; 2167.000
936.945;  237.225; 2825.000; 2882.000
937.182;  207.250; 2679.000; 2741.000
937.420;  314.450; 3602.000; 3031.000
937.657;  421.475; 3365.000; 3478.000
937.895;  406.050; 3331.000; 3488.000
938.133;  313.325; 3540.000; 3528.000
938.370;  350.575; 3896.000; 4191.000
938.607;  388.750; 4488.000; 4205.000
938.845;  530.500; 5587.000; 5549.000
939.082;  471.825; 5387.000; 5177.000
939.320;  537.075; 5799.000; 5728.000
939.557;  618.250; 6549.000; 6491.000
939.794;  694.875; 7285.000; 7097.000
940.031;  906.225; 8421.000; 8368.000
940.269; 1172.350; 9552.000; 9107.000
940.506; 1151.325;10901.000;10507.000

