
Integration time [ms]: 100.000
Averaging Nr. [scans]: 40
Smoothing Nr. [pixels]: 0
Data measured with spectrometer [name]: 2101013U2
Wave   ;Sample   ;Dark     ;Reference
[nm]   ;[counts] ;[counts] ;[counts] 

394.013;  -36.574; -450.257; -315.536
394.305;  -74.924; -461.258; -419.536
394.596;  -82.513; -676.269; -527.514
394.887;  -92.585; -796.268; -654.518
395.178;    1.494;  145.736;   11.476
395.470;  -27.855; -210.263; -356.526
395.761;   45.816;  305.734;  394.479
396.052;  -61.679; -545.284; -306.489
396.343;  -60.295; -557.276; -454.503
396.634;  -40.449; -200.279; -290.497
396.926;  -78.111; -618.268; -565.517
397.217;    2.631;   11.725;  -17.504
397.508;  -43.092; -366.273; -154.507
397.799;  -88.224; -555.279; -571.497
398.090; -126.025; -973.280; -902.495
398.381;  -14.514;   11.708;  -11.473
398.672;  -96.714; -585.292; -742.473
398.963;  -45.123; -348.279; -373.498
399.254;    7.187;   54.709; -209.475
399.545; -123.059;-1017.266; -883.520
399.836;  -55.696; -407.277; -343.501
400.127;  -10.117; -205.295; -209.468
400.418;  -46.843; -423.274; -392.506
400.709;  -42.702; -359.281; -333.493
401.000;  -45.512; -268.291; -309.476
401.290;   28.999;  225.698;  115.545
401.581;  -17.507; -166.286; -228.485
401.872;  -63.996; -542.298; -486.462
402.163;  -37.393; -313.296; -252.467
402.454;  -10.038; -123.291; -163.475
402.744; -116.270; -844.297; -813.465
403.035;  -14.140; -226.293;  -86.471
403.326;  -43.039; -366.292; -384.474
403.617;   13.878;  204.701;  165.539
403.907;  -74.229; -593.283; -679.490
404.198;  -73.457; -545.307; -599.446
404.489;  -89.328; -618.283; -588.491
404.779;  -78.250; -618.302; -660.456
405.070;   -1.278;  -67.304; -174.451
405.360;  -22.440; -259.293; -238.472
405.651;   12.001;  125.699;   98.542
405.942;   29.843;  209.714;  127.516
406.232;  -68.955; -432.285; -413.487
406.523;   96.209;  641.706;  758.530
406.813;  -85.507; -579.286; -644.484
407.104;   51.361;  261.708;  144.527
407.394; -106.997; -604.299; -591.462
407.685;   24.045;  336.715;  222.513
407.975;  -59.828; -400.283; -382.490
408.265;    0.739; -134.289; -190.478
408.556;  -68.088; -472.291; -459.475
408.846;   84.634;  474.706;  429.530
409.137;  -10.910;   -1.288; -216.480
409.427;  -46.580; -193.285; -271.487
409.717;  -90.767; -776.273; -692.508
410.007;    0.069;    4.715; -170.486
410.298;  -43.692; -360.295; -342.469
410.588;  -48.881; -495.285; -510.486
410.878; -125.958; -792.287; -873.482
411.168;  -56.596; -481.298; -478.463
411.459;  -18.354; -295.283; -242.489
411.749;  -81.738; -609.292; -507.474
412.039; -115.385; -755.289; -386.480
412.329;   22.478;   40.722;  132.501
412.619;  -26.607;  -62.286; -148.485
412.909;   96.115;  639.711;  594.521
413.199;  -28.625; -130.280; -251.495
413.490;   64.638;  521.710;  352.523
413.780; -121.974;-1013.279; -913.496
414.070;   15.630;  -46.276;  235.497
414.360;  -87.173; -729.278; -666.498
414.650;  -90.359; -726.288; -688.482
414.940;  -65.499; -538.280; -441.496
415.230;    9.791;   50.712;   74.519
415.520;   31.987;  155.730;   66.486
415.809;  -21.227; -305.281; -125.493
416.099;  -42.646; -388.277; -229.501
416.389;   58.307;  435.726;  236.494
416.679;    6.746;   91.738;   85.473
416.969;  -66.283; -527.287; -503.483
417.259;   39.801;  341.721;  171.503
417.549;   53.723;  522.718;  318.508
417.838;  -40.636; -205.268; -147.518
418.128;   88.189;  650.710;  492.522
418.418;  -89.166; -491.272; -579.509
418.708;    5.007;    9.726;  -48.506
418.997;  -60.944; -474.275; -480.505
419.287; -114.967; -733.273; -790.507
419.577;  -21.829; -160.283; -123.489
419.866;  -72.821; -588.277; -498.501
420.156;  -28.113; -242.270;  -55.513
420.446;  -17.755; -112.263;  -26.526
420.735;  -78.889; -376.271; -446.512
421.025;  265.552; 1830.722;  315.502
421.314;  -20.039; -203.271; -226.512
421.604;   15.713;   89.732;  233.484
421.893;  -87.040; -705.271; -602.511
422.183;  -70.730; -487.263; -461.526
422.472;  -27.115;  -36.271; -107.511
422.762;  -66.183; -416.266; -379.521
423.051; -135.970; -916.276; -916.503
423.341;  -70.242; -491.273; -439.507
423.630;   -3.607; -121.265;   15.477
423.919;   -2.969;   58.725;   49.495
424.209;  -21.780;  -31.263;   56.473
424.498;    3.239;   68.732;  161.483
424.787;  -90.910; -535.267; -601.518
425.077;   15.142;   34.735;   29.478
425.366; -106.854; -734.262; -744.528
425.655;   89.133;  639.727;  259.493
425.945;  -50.812; -313.247; -268.554
426.234;   29.374;  117.741;  300.467
426.523;  -40.350;  -86.259; -350.534
426.812;   15.041;  107.734;  159.480
427.101;  -13.987; -127.269; -323.515
427.390;   -8.788;  -55.270;  -86.514
427.680;  -62.623; -624.257; -411.538
427.969;  -45.446; -330.255; -301.540
428.258;  -67.799; -385.257; -477.536
428.547;   40.084;  449.728;  397.490
428.836;  -71.169; -421.253; -398.543
429.125;  -28.850; -199.259;  -72.534
429.414;  -55.716; -330.251; -294.548
429.703;  -46.716; -231.251; -213.548
429.992; -126.516; -938.250; -828.549
430.281;  -70.456; -397.264; -331.524
430.570;  -10.542;  -21.252;   32.454
430.859;   21.000;  279.741;  352.466
431.148;   81.863;  636.752;  631.446
431.437;   43.583;  391.748;  367.454
431.725;  -79.249; -544.257; -481.536
432.014; -128.293; -845.253; -756.545
432.303;  -51.752; -149.239; -105.569
432.592;  -53.431; -460.263; -178.525
432.881;  -94.287; -601.248; -437.554
433.169;  -48.071; -343.255;  -61.540
433.458;   49.077;  445.765;  540.424
433.747;  -64.178; -397.261; -289.529
434.036;  -63.506; -275.242; -280.564
434.324;  -81.114; -395.249; -379.551
434.613;   -1.606;   40.757;  159.437
434.902;   36.146;  333.760;  439.433
435.190;    4.447;   75.761;  295.431
435.479;  -25.484;  -52.245;   83.441
435.767;  -65.058; -411.244; -427.561
436.056;  -62.431; -340.242; -294.563
436.345;  -66.753; -372.240; -223.568
436.633;   23.685;   60.750;  383.450
436.922;   27.047;  208.760;  414.432
437.210;  -33.099; -194.236;    1.426
437.499; -107.323; -583.235; -432.576
437.787;  -45.899; -339.236;  -10.574
438.075;  -11.577;   56.761;  162.430
438.364;   -5.177;  -44.238;  250.429
438.652;  -52.063; -286.226; -138.592
438.941;  -17.642;    3.770;  269.415
439.229; -111.443; -665.252; -466.545
439.517;  -44.672; -160.234;  -85.577
439.806;  -99.986; -501.225; -290.595
440.094;   41.754;  377.766;  650.421
440.382;  -95.321; -653.233; -302.580
440.670;  -78.698; -361.235; -285.576
440.959;  -81.608; -347.223; -170.599
441.247;  -39.466; -151.229; -109.587
441.535;  -45.522; -266.235;   31.423
441.823;  -96.746; -497.234; -305.578
442.111;   12.585;  173.771;  327.412
442.400;  -88.459; -628.245; -335.559
442.688;  -38.646; -111.234; -620.579
442.976; -133.597; -786.213; -450.617
443.264;  -73.435; -324.224; -364.597
443.552;  -37.712; -258.226;   51.408
443.840;   58.953;  602.765;  876.423
444.128;   14.529;  265.767;  269.420
444.416; -105.290; -694.228; -312.588
444.704;  -66.404; -465.219;  -92.605
444.992;  -27.787;   -0.226;  240.407
445.280;  -59.842; -517.230;  -94.585
445.568; -116.196; -694.212; -396.618
445.856;  -25.206; -174.221;  357.398
446.143;  -64.605;  -54.220;   -7.604
446.431;    9.461;  -25.228;  625.411
446.719;   61.148;  489.783;  675.391
447.007;   55.232;  481.769;  705.416
447.295;   63.916;  597.777;  871.402
447.583;  -70.116; -464.229;  -34.587
447.870;  -65.732; -434.221; -202.601
448.158;  -32.292; -104.230;  129.415
448.446; -109.555; -800.219; -338.604
448.733;  -27.884;   13.776;  269.403
449.021;   -4.796;   60.788;  341.382
449.309;  -29.544; -296.210;  208.379
449.596;   11.448;  128.783;   59.392
449.884;  -93.433; -571.222; -325.600
450.172; -139.289; -756.227; -406.590
450.459;   55.876;  645.786;  780.387
450.747;  -79.077; -411.218; -147.608
451.034;   62.161;  493.772;  889.411
451.322;  -91.423; -413.214; -170.614
451.609;   19.741;  292.777;  508.403
451.897;  -79.386; -550.203; -183.634
452.184;  -98.834; -622.223; -400.598
452.472;  -12.316;   97.792;  269.375
452.759;   73.720;  512.781;  864.395
453.047;  -77.647; -407.212; -125.617
453.334;  -90.804; -732.219; -216.606
453.621;  -88.598; -438.214; -161.615
453.909;  -11.587;   13.796;  384.368
454.196;  -46.856; -299.199; -123.641
454.483;   18.716;  317.798;  540.364
454.771;  -41.741; -215.208;  196.374
455.058;  -31.391; -316.207;  102.374
455.345;   -4.399;   71.807;  344.347
455.632;  -33.690; -128.207;  235.373
455.919;  -20.053;  -82.196;  182.354
456.207; -123.855; -774.198; -450.642
456.494; -101.958; -475.200;  -66.639
456.781;  -81.560; -399.202; -198.635
457.068;  -60.489; -253.206;  -29.628
457.355; -103.589; -698.206; -401.629
457.642;  -95.288; -552.205; -290.630
457.929; -107.600; -778.194; -417.651
458.216; -100.522; -575.212; -354.617
458.503;  -30.774; -173.193;  -19.652
458.790; -136.466; -864.208; -630.625
459.077;  -39.959;  -77.202;  110.364
459.364;  -82.801; -350.195; -210.649
459.651;  -15.365;  -46.206;  220.372
459.938; -146.768; -864.209; -665.623
460.225;   -1.534;  132.799;  276.363
460.512; -146.303; -836.197; -688.645
460.799;   -8.703;  -32.218;  320.392
461.086;  -73.632; -370.200; -251.640
461.372;  -82.955; -509.198; -279.642
461.659;   -5.353; -165.196;  108.354
461.946;  -61.974; -445.193;  -54.651
462.233;  106.393;  842.800;  888.361
462.519; -130.083; -814.201; -464.639
462.806; -118.303; -768.197; -497.645
463.093;  -71.022; -445.191;  -66.656
463.380; -142.591; -920.186; -824.664
463.666;  -47.203; -259.197;  -18.646
463.953;  -59.101; -406.195; -243.648
464.239;  -48.701; -173.195;  -77.648
464.526;   25.200;  413.806;  743.350
464.813;  -83.620; -565.190; -304.658
465.099;   28.376;  606.807;  607.348
465.386;  100.976;  903.807;  921.348
465.672; -127.953; -694.197; -522.645
465.959;  -96.718; -598.188; -520.662
466.245;  -91.274; -468.193; -359.652
466.532;  -18.652; -109.195;   63.352
466.818;  -66.516; -357.186; -216.664
467.104;  -98.436; -488.182; -415.672
467.391; -111.420; -628.189; -459.658
467.677;  -48.366; -289.186;    9.335
467.964; -102.694; -682.189; -471.660
468.250;  -51.565; -331.186; -160.665
468.536;  -22.670;   90.811;  180.341
468.822; -123.289; -821.184; -574.668
469.109;   61.275;  351.827;  471.311
469.395;   75.153;  729.808;  787.346
469.681;  -18.994;   46.811;  156.341
469.967;  -92.819; -699.188; -382.660
470.254;  -65.643; -494.188; -306.662
470.540;  -97.578; -601.196; -476.646
470.826;  -85.109; -488.181; -397.675
471.112;   18.312;  288.816;  113.331
471.398;  -31.888; -253.183;  -58.670
471.684;  -89.031; -626.177; -447.680
471.970; -158.484; -918.180; -981.675
472.256;  -75.623; -521.192; -441.654
472.542;  -94.749; -499.171; -434.691
472.828; -109.861; -743.182; -607.672
473.114;  -86.343; -380.166; -283.700
473.400;  -70.679; -504.175; -293.684
473.686;  -84.167; -452.166; -400.701
473.972;  -25.202; -230.174; -131.687
474.258; -139.350; -925.173; -843.689
474.544;  -21.207; -183.178;   -2.679
474.830;  -18.303;  -65.175;   45.316
475.116;  -39.820; -123.190; -196.658
475.401;  -84.284; -558.180; -467.676
475.687; -110.584; -725.180; -718.676
475.973; -115.410; -673.181; -770.673
476.259;   83.522;  736.825;  764.315
476.544;  -96.705; -539.176; -437.682
476.830;  -81.524; -398.172; -322.690
477.116;  -67.455; -430.177; -336.682
477.401;   44.291;  346.820;  358.324
477.687;  -71.479; -289.175; -405.684
477.973;   -5.335;   21.819;   28.326
478.258;  -80.090; -448.163; -348.706
478.544;  -11.690;   21.815;   61.334
478.829; -133.223; -818.171; -738.692
479.115; -102.924; -749.172; -651.690
479.401;  -75.352; -444.174; -449.686
479.686;  -32.834; -253.180;  -74.676
479.972; -128.931; -886.178; -776.680
480.257;  -29.493; -258.166;  -65.700
480.542;  -93.373; -614.170; -469.693
480.828;  169.921; 1288.824; 1392.317
481.113;  -81.954; -464.176; -426.683
481.399;  -45.036; -236.161; -202.711
481.684;  -90.568; -620.166; -462.700
481.969;  -20.610; -158.159;  -73.713
482.255;  -72.596; -439.169; -285.695
482.540;  -89.306; -569.178; -441.680
482.825;  -80.592; -395.187; -404.663
483.110;   -8.771;  -85.169; -105.696
483.396; -115.807; -840.157; -652.718
483.681;   64.398;  543.826;  730.313
483.966; -113.785; -696.160; -700.712
484.251;  -73.777; -404.174; -310.687
484.536;  -73.492; -356.165; -378.703
484.822;  -54.751; -205.173; -218.687
485.107; -100.577; -599.152; -502.726
485.392;   76.334;  662.836;  541.296
485.677;  -12.869;  354.832;  163.302
485.962;   16.518;  160.843;  270.283
486.247;  -17.088;  -14.162;   -8.707
486.532;  -62.643; -178.166; -325.701
486.817;   28.313;  381.839;  431.291
487.102;  -84.529; -453.154; -514.722
487.387; -101.682; -637.156; -652.718
487.672;  -31.215; -154.164;  -38.705
487.957;  -58.836; -394.160; -286.711
488.241;  -60.299; -290.150; -314.729
488.526;  -70.577; -280.152; -148.726
488.811; -137.481; -881.177; -818.680
489.096; -120.629; -666.154; -702.723
489.381;  -29.252;    3.847;  162.275
489.666;  -78.361; -428.161; -510.710
489.950;   68.197;  558.846;  627.277
490.235;  -97.700; -480.151; -458.728
490.520; -115.487; -756.161; -723.710
490.804; -140.781; -827.156; -736.719
491.089;  -69.122; -469.149; -299.732
491.374;  -43.065; -132.164;  -75.704
491.658; -121.046; -817.147; -717.735
491.943; -100.951; -657.152; -609.727
492.227;  -39.180; -178.155;  -38.721
492.512;  -63.207; -294.157; -341.717
492.797; -118.598; -713.149; -716.731
493.081; -117.521; -588.147; -598.735
493.366; -110.236; -751.161; -635.711
493.650;   88.986;  831.859;  917.254
493.935;  -89.746; -648.147; -447.734
494.219; -123.415; -778.142; -687.743
494.503; -101.549; -585.150; -487.730
494.788;  -16.908;   46.842;   74.285
495.072;   17.851;  184.850;  434.271
495.356;  -73.697; -463.148; -343.733
495.641; -134.145; -812.146; -736.736
495.925; -144.281; -976.156; -903.719
496.209;  -80.297; -599.149; -451.732
496.494; -118.565; -763.142; -544.744
496.778;  -52.854; -364.154; -360.722
497.062; -137.756; -819.156; -627.719
497.346; -116.761; -869.160; -640.711
497.631;   49.803;  580.852;  560.266
497.915;  -23.893;  -64.145;  175.261
498.199;  -63.257; -341.157; -277.718
498.483;  -80.252; -562.152; -508.725
498.767;   26.526;  301.850;  300.271
499.051;  -31.123; -126.149; -100.732
499.335; -127.873; -693.149; -739.731
499.619;  -74.625; -381.129; -423.767
499.903;  -59.205; -272.155;  -65.721
500.187;  -90.853; -588.153; -316.724
500.471; -150.226; -796.152; -595.727
500.755;  -36.562;   62.839;  -96.710
501.039;  -59.930; -270.155; -357.721
501.323;   15.462;  -21.141;  264.254
501.607;  -73.889; -447.163; -503.706
501.891; -101.982; -607.156; -512.718
502.174; -111.442; -726.144; -585.741
502.458;   -6.976;   89.849;  370.273
502.742;  -49.985; -180.138; -191.751
503.026;  -75.296; -412.147; -254.734
503.310;  -60.435; -437.159; -375.713
503.593;  -75.696; -464.147; -325.735
503.877;  -56.755; -232.133; -156.760
504.161;  -48.628;    2.847;  -50.724
504.444; -116.083; -841.158; -710.716
504.728;  -93.840; -487.164; -522.704
505.012;  -45.500; -257.150;  -76.729
505.295;  -58.211; -417.161; -212.711
505.579;  -63.456; -256.156; -496.719
505.862;  -85.344; -555.145; -333.738
506.146; -119.109; -681.159; -758.714
506.429;   44.591;  568.841;  461.286
506.713; -111.550; -732.151; -667.728
506.996;    5.371;   90.846;  295.278
507.280; -107.466; -633.165; -474.703
507.563;  -89.905; -469.155; -261.721
507.847;  -90.553; -423.153; -112.724
508.130;  -98.136; -665.161; -456.711
508.413; -118.493; -758.167; -577.700
508.697;  -19.843; -151.167;   12.300
508.980;  -75.453; -422.153; -312.724
509.263;  -89.180; -466.155; -450.720
509.547;  -37.775; -124.150;   82.271
509.830;  -18.986; -172.160;  140.289
510.113;   -6.856;  128.844;  298.281
510.396;  -84.127; -530.152; -300.725
510.680; -146.244; -818.145; -812.738
510.963;    8.422;  184.846;  180.277
511.246;  -94.549; -493.150; -357.730
511.529;  -72.093; -482.145;  -83.739
511.812;  -51.480; -250.134;   10.241
512.095; -109.825; -740.151; -396.728
512.378;  -73.920; -317.147; -245.736
512.661; -114.109; -703.137; -623.753
512.944; -134.365; -750.142; -637.744
513.227;  -56.134; -170.137; -171.752
513.510;  -98.767; -479.144; -671.741
513.793;  -87.413; -485.140; -435.747
514.076;  -40.922;  -43.127;  -39.771
514.359;  -50.797; -294.149; -135.732
514.642; -102.640; -442.142; -567.744
514.925;   45.412;  581.860;  561.253
515.208;  -98.981; -498.134; -443.758
515.491;  -56.754; -276.133; -182.761
515.773;  -96.616; -410.143; -337.742
516.056;    8.817;  249.864;  409.246
516.339; -132.133; -754.136; -652.755
516.622;  -97.074; -518.150; -488.730
516.904;  109.810;  882.857;  975.257
517.187; -121.335; -730.138; -523.752
517.470; -104.041; -568.143; -510.743
517.752; -105.457; -624.136; -470.756
518.035; -126.886; -708.139; -725.749
518.318; -144.583; -799.136; -744.755
518.600;  -77.778; -300.132; -325.762
518.883;    4.560;  310.858;   88.256
519.165; -113.711; -585.138; -426.751
519.448;  -16.328;  -61.132;  -19.762
519.730; -118.446; -573.126; -415.773
520.013;   70.146;  588.867;  664.240
520.295;  -53.805;  -94.134;  -15.759
520.578;  -71.527; -335.131; -305.764
520.860;  -51.328; -254.132;   56.238
521.143; -132.107; -763.135; -584.756
521.425;  -67.795; -251.125; -279.775
521.707;  -94.572; -622.127; -380.771
521.990;  -22.722; -199.127;  167.229
522.272;  -45.512; -116.140;   -4.748
522.554;  -65.641; -237.143; -157.742
522.836;  -39.705;  -24.134;   99.241
523.119;  -94.921; -496.148; -189.734
523.401;  -78.201; -448.130; -314.766
523.683; -136.134; -865.137; -693.753
523.965;    0.615;  408.862;  260.248
524.247;  -28.592;   54.878;  170.220
524.529;  -92.055; -451.134; -367.759
524.812;  -49.876;   -3.130;  191.234
525.094; -131.310; -773.138; -631.751
525.376;  -44.568; -143.124;   78.223
525.658;  -77.008; -441.136; -339.754
525.940; -156.927; -805.131; -671.764
526.222;  -74.708; -188.136;  -88.755
526.504;  -55.077; -190.131;   32.237
526.786; -137.680; -960.133; -647.760
527.068;  -81.318; -124.123;  -67.778
527.349; -149.309; -865.137; -774.754
527.631;  -46.729; -137.132;   22.238
527.913; -108.597; -664.127; -450.771
528.195; -132.521; -761.125; -639.774
528.477;  -44.406;  -93.134;  -30.758
528.759; -118.651; -648.130; -522.766
529.040;  -91.718; -569.123; -293.778
529.322;  -67.845; -235.125;  -10.774
529.604;  -31.075;  -47.130;   93.233
529.886;  -87.671; -546.126; -302.773
530.167;   -5.326;  232.870;  192.235
530.449;  -23.970;    1.853;   63.265
530.731; -113.517; -572.122; -459.779
531.012; -108.839; -513.120; -216.784
531.294;  -47.234; -118.116;  -43.792
531.575;   21.430;  290.875;  538.225
531.857;  -93.531; -548.135; -266.757
532.138;  -46.588; -113.141;   40.254
532.420;    4.768;  294.865;  403.244
532.701; -143.579; -722.133; -751.760
532.983;   10.496;  232.867;  182.239
533.264;  -51.472; -243.126;  175.228
533.546;  -97.683; -491.136; -508.755
533.827;  -37.755;  173.867;   -1.759
534.109;  -78.831; -352.135;  -80.757
534.390; -144.578; -725.132; -582.762
534.671;  -60.632; -270.135;  -82.756
534.953; -133.843; -751.123; -611.779
535.234;  -92.136; -426.117; -255.789
535.515; -159.638; -891.119; -735.785
535.796;  -75.023; -431.128; -193.770
536.078; -180.594;-1050.124; -904.777
536.359;  -50.917;  -22.123;    3.221
536.640;  -96.770; -480.125; -197.774
536.921;   -3.200;  225.871;  143.232
537.202;  -55.535;  -87.138;  -16.751
537.483;  -10.002;  251.869;  377.236
537.764;  -36.651;   17.870;   98.235
538.045; -107.831; -543.134; -371.758
538.326; -104.674; -596.129; -447.768
538.607; -127.297; -686.127; -476.771
538.888;  -44.640;   98.879;    5.218
539.169; -134.966; -704.122; -535.781
539.450;  -22.400;  236.871;   16.233
539.731;  -61.790; -361.121; -182.783
540.012;  -31.939;  199.880;  412.216
540.293;  -27.444;   82.876;  158.224
540.574; -159.681; -895.113; -717.796
540.855;   27.035;  435.879;  377.218
541.136;  -19.367;   47.878;  139.220
541.416;  -65.276; -161.130; -220.766
541.697;  -89.777; -274.131; -170.763
541.978;  -71.832; -270.135; -315.757
542.259; -100.147; -211.127; -236.771
542.539;  -81.060; -191.116; -186.790
542.820;    9.155;  461.875;  480.225
543.101;  -59.168;  -52.145;  -77.738
543.381; -160.947; -638.127; -591.771
543.662;  -22.873;  159.873; -254.771
543.942; -158.848; -751.127; -830.770
544.223;  -19.141;  193.878;  161.219
544.504; -102.769; -275.124; -182.777
544.784; -104.196; -592.126; -408.773
545.065;  -83.809;  104.884; -254.791
545.345;  -31.938;  227.881;   14.215
545.626;  -53.031;  -14.113; -108.796
545.906;  -30.351;   77.869;   98.235
546.186;  -72.371;   92.874;  -95.773
546.467;  -43.443;   99.877;  -95.778
546.747;  -17.685;  264.884;  327.210
547.027;  -27.019;   91.876;  111.223
547.308; -116.623; -376.127; -530.770
547.588;   15.076;  299.871;  371.232
547.868;   18.599;  458.870;  588.235
548.149;   55.817;  609.885;  593.207
548.429;  -83.272; -347.127; -299.771
548.709; -117.289; -645.120; -461.784
548.989;  -38.612;   84.882;   88.213
549.269;  -36.104;   10.868;  139.239
549.550;  -32.918;  215.877;  117.222
549.830; -138.654; -758.111; -556.799
550.110;  -97.278; -468.110; -320.801
550.390;  -67.792; -128.122;  -56.779
550.670; -162.432; -868.114; -783.795
550.950; -117.690; -509.121; -471.782
551.230;   43.934;  549.879;  460.218
551.510; -104.815; -381.121; -326.782
551.790;  -66.727; -173.109; -127.803
552.070;  126.382;  940.877; 1181.223
552.350;  -91.113; -492.119; -377.786
552.630;  -22.591;   -2.121;   77.219
552.909;  -25.034;  181.884;   73.209
553.189;  -44.103;  -49.132;   33.237
553.469; -131.663; -703.119; -514.786
553.749; -116.372; -469.127; -357.772
554.029;  -42.511;   33.883;  -24.790
554.308;  -51.958; -154.115;  -37.794
554.588;  -76.348; -196.128; -204.770
554.868;  -75.440; -366.121;  -47.782
555.147;  -75.158; -114.115;  -46.793
555.427;  -91.659; -260.116; -250.792
555.707;  -79.059; -284.115; -200.793
555.986; -137.629; -719.111; -538.800
556.266;  -38.735;   23.884;   72.210
556.546; -147.065; -888.121; -675.782
556.825; -145.257; -657.114; -556.794
557.105;  -45.398; -125.128;   17.230
557.384;  -29.210;  122.884;  187.209
557.664; -141.059; -717.116; -508.792
557.943; -104.890; -557.121; -411.782
558.222;  -82.636; -345.118; -344.788
558.502;  -57.633; -116.115;  -76.793
558.781;    6.966;  194.885;  499.208
559.061;  -90.512; -232.118; -227.788
559.340;   -0.811;  302.883;  353.211
559.619;  -21.560;   93.884;  148.210
559.899;  -84.461; -239.117; -266.789
560.178; -128.558; -778.115; -593.793
560.457; -130.935; -623.117; -562.790
560.736; -110.803; -472.111; -482.800
561.015; -108.474; -500.128; -502.769
561.295;  -42.974;  180.893;  215.193
561.574;  -31.808;  119.885;  116.207
561.853;  -15.552;  274.891;  303.197
562.132;  -39.008;  -45.114;  182.206
562.411;   21.034;  396.879;  553.219
562.690; -117.134; -592.115; -458.792
562.969;   41.494;  472.888;  630.203
563.248;  362.109; 2966.878; 2487.219
563.527;  -90.829; -290.111; -408.800
563.806; -117.597; -650.127; -521.771
564.085;  -65.822; -297.105; -206.810
564.364; -109.360; -594.117; -405.790
564.643;  -77.366; -276.121; -223.781
564.922;   -0.977;  221.890;  397.198
565.201; -136.752; -640.109; -700.803
565.479;  -76.359; -297.115; -219.792
565.758; -155.723; -810.128; -712.770
566.037;  -60.177; -155.109; -100.803
566.316;  -79.584; -286.116;  -28.791
566.595;  -41.409;  -17.115;  -12.793
566.873;   25.672; -166.111;  -79.801
567.152; -117.481; -490.113; -590.797
567.431;  -45.985; -113.116;    6.210
567.709;  -74.474; -344.107; -212.807
567.988; -165.532; -810.114; -769.794
568.266;  -52.659; -160.115;  -68.793
568.545; -116.866; -644.100; -514.819
568.824;   -6.909;  160.885;  356.208
569.102;  -90.532; -351.114; -235.794
569.381; -111.909; -492.116; -407.792
569.659; -110.131; -553.113; -553.796
569.938; -130.166; -743.122; -465.780
570.216;  -75.876; -225.109; -225.804
570.494; -126.807; -632.114; -572.795
570.773;  -19.265;  202.879;  114.218
571.051;  -92.943; -373.123; -357.778
571.330;  -59.381; -221.113; -174.796
571.608;  -65.814; -181.098; -173.823
571.886; -143.104; -671.111; -581.799
572.164; -135.065; -739.121; -621.782
572.443; -114.697; -562.105; -512.811
572.721;  -88.685; -399.117; -289.790
572.999;  -85.836; -280.117; -168.788
573.277;   17.677;  379.894;  620.191
573.555;  -49.298;   94.894;   37.190
573.834;  -65.086;  -86.117; -114.788
574.112;   67.326;  880.893;  811.193
574.390;  -53.853; -143.111;  -96.801
574.668;  -59.780;  -91.112;  -61.797
574.946;  -63.348; -165.106; -187.810
575.224;  -57.052;   71.891;  -16.803
575.502;  -60.160; -200.116; -204.791
575.780; -149.355; -767.112; -829.798
576.058;  157.096; 1589.889; 1004.200
576.336;  -71.653; -210.110; -129.801
576.614;  -98.705; -511.112; -340.798
576.891; -136.633; -711.115; -823.794
577.169;  -66.975; -158.108; -285.805
577.447;   -8.399;  169.893;  202.193
577.725;   65.495;  629.888;  854.201
578.003;  -79.955;  -71.112; -371.798
578.280;  -64.396; -208.104; -242.812
578.558; -122.358; -450.115; -422.793
578.836;  -56.957; -210.114; -145.795
579.114; -138.755; -630.112; -670.797
579.391;  -31.661;   -6.117;  -18.789
579.669; -134.808; -595.114; -704.794
579.947;  -72.825; -326.107; -127.806
580.224; -122.925; -692.107; -524.806
580.502;  -35.624;  127.893;   76.193
580.779;  -52.085;  -42.117;   75.210
581.057; -120.451; -584.109; -470.804
581.334; -143.119; -726.102; -695.815
581.612;    8.253;   54.895;  511.190
581.889;  -76.517;  -83.101; -129.818
582.167;  -85.215; -298.099; -190.821
582.444; -154.118; -845.102; -814.817
582.721;   61.282;  657.899;  715.183
582.999;  -67.241; -326.100; -167.821
583.276; -140.417; -812.123; -713.779
583.553;  -94.218; -364.102; -294.816
583.831; -134.196; -607.104; -631.812
584.108;  -17.451;  349.892;  174.195
584.385;  -63.719; -122.102;  -98.815
584.662; -168.928; -651.111; -828.801
584.940;  -19.778;  204.889;  204.199
585.217;  -76.981;  -73.113; -303.796
585.494;  -13.377;   71.890;  118.198
585.771;  -96.126; -250.109; -354.804
586.048;  -69.306; -196.113;  -76.796
586.325; -134.753; -721.110; -773.801
586.602;   -7.446;  230.896;  213.188
586.879; -122.316; -499.100; -580.820
587.156;  -60.047; -156.105; -331.810
587.433; -149.418; -701.102; -667.817
587.710;  -27.405;  152.888;  234.202
587.987;  -99.447; -264.105; -236.811
588.264;   12.920;  315.888;  387.202
588.541;  -67.145;  -61.104;   26.187
588.818;  -44.176;   72.892;  171.196
589.095;  -76.496; -163.104; -174.812
589.371; -108.201; -459.109; -414.804
589.648; -116.474; -581.107; -437.807
589.925; -102.832; -517.114; -621.795
590.202; -145.580; -741.112; -607.798
590.478;  -57.771; -166.105;  -73.811
590.755;  -77.400; -241.108; -132.806
591.032; -121.253; -741.110; -699.802
591.308; -159.109; -732.094; -790.831
591.585; -116.528; -573.110; -560.802
591.862; -177.018;-1056.102; -950.817
592.138; -105.050; -475.108; -474.805
592.415; -120.596; -486.104; -495.813
592.691;   18.954;  460.896;  518.188
592.968;  -94.939; -208.098; -123.824
593.244; -141.935; -695.116; -595.790
593.521;  -64.543; -105.102;  -42.817
593.797; -134.617; -810.122; -720.780
594.074; -130.962; -611.096; -588.826
594.350;   61.140;  828.905;  729.172
594.626;  -74.628; -303.111; -283.801
594.903; -130.293; -643.101; -645.817
595.179;   -6.445;  243.896;  418.187
595.455;  -71.374; -136.107; -150.807
595.731;  -61.320;  -19.103;  -38.814
596.008; -107.254; -464.111; -434.800
596.284;  -84.691; -187.100; -242.820
596.560; -112.358; -501.093; -493.833
596.836;  -78.097; -173.105;  -70.810
597.112; -109.750; -582.108; -437.805
597.388;  -71.762;  -49.097;  -48.826
597.665;   15.844;  437.887;  530.203
597.941; -137.779; -572.089; -658.839
598.217;  -95.252; -323.110; -293.802
598.493;  -65.251;   61.891; -204.804
598.769;  -65.441; -175.100;  -50.819
599.045; -136.125; -490.108; -562.806
599.321;  -90.291; -193.100; -261.820
599.597; -111.726; -355.109; -476.804
599.872;   11.830;  409.896;  429.187
600.148;  -67.562;  -61.097; -172.826
600.424;  -10.399;   91.893;  202.193
600.700;  -71.399; -170.107; -280.807
600.976; -112.838; -442.097; -464.825
601.252;  -82.502; -226.109; -272.803
601.527; -158.720; -833.104; -840.813
601.803;  -92.146; -453.105; -404.812
602.079;  -49.416; -124.100; -118.819
602.354; -135.881; -620.092; -531.835
602.630;  -67.431; -140.113; -482.796
602.906; -161.467; -910.101; -863.818
603.181; -117.038; -627.119; -534.786
603.457;  -49.512;   98.903; -278.826
603.733; -129.940; -605.120; -626.783
604.008;  -61.872; -245.106; -164.810
604.284;  -61.143; -636.101; -580.817
604.559;  -43.630;   -3.112;  -42.799
604.835;  -67.322; -163.105; -225.810
605.110; -167.940; -732.099; -892.821
605.385;   12.193;  224.907;  267.167
605.661; -136.835; -625.095; -729.829
605.936; -136.625; -664.108; -737.806
606.211;  -58.994;  -17.103; -170.815
606.487;  -79.458; -329.114; -376.794
606.762; -154.013; -791.119; -745.786
607.037; -100.347; -501.105; -433.810
607.313; -120.011; -589.096; -574.828
607.588;  -84.897; -375.106; -137.810
607.863;  -51.517;  -28.101; -143.818
608.138;   29.498;  513.890;  516.198
608.413; -133.940; -576.099; -592.822
608.688;  -80.950; -203.108; -267.805
608.964;  -90.773; -509.106; -218.809
609.239;  -59.147; -107.105; -212.810
609.514;   -7.721;  281.895;  240.188
609.789; -137.671; -187.104; -716.812
610.064; -123.661; -435.096; -609.827
610.339; -142.001; -855.109; -799.804
610.614;  -50.966; -131.100; -315.820
610.889;   -8.471;  215.895;  107.188
611.163; -125.621; -407.104; -591.812
611.438;  -63.032;   81.886; -167.794
611.713; -118.993; -467.101; -499.817
611.988;  -80.192; -144.101; -328.818
612.263; -158.044; -771.102; -717.815
612.538;   14.869;  385.887;  251.204
612.812; -174.191; -832.100; -911.820
613.087;  -97.264; -358.098; -338.823
613.362; -123.099; -497.107; -557.807
613.637;  -32.970;  261.897;  138.186
613.911;  -85.531; -256.092; -345.835
614.186;  -84.549; -249.107; -292.807
614.460; -154.994; -842.081; -758.854
614.735;  -41.626;  -55.087;  -17.843
615.010;  -49.177;   43.912;  -82.841
615.284;    5.775;  360.892;  246.195
615.559; -162.632; -792.092; -955.835
615.833;  -51.915;  -76.099;  -87.822
616.108;  -87.180; -225.090; -390.837
616.382;   22.024;  274.913;  402.156
616.656;  -81.255; -241.090; -232.837
616.931; -147.265; -785.099; -700.822
617.205; -175.245; -973.104; -979.813
617.480;  -43.245;  -91.125;    6.225
617.754;  -98.820; -396.125; -128.774
618.028;  -83.024; -369.129; -382.768
618.302;  -34.801;   73.892;  -25.805
618.577; -120.944; -371.103; -518.815
618.851; -111.377; -399.109; -600.803
619.125;  -88.430; -335.134; -378.759
619.399;  -80.995; -244.104; -374.813
619.673;  -83.659; -330.115; -515.792
619.947;  -96.657; -333.114; -448.795
620.222;  -74.828; -198.110; -204.801
620.496;  -75.240;  -47.121;  -96.782
620.770;  -59.441; -187.122;  -93.781
621.044;    2.328;  323.895;  346.190
621.318; -115.890; -653.120; -614.783
621.592;  -90.340; -430.121; -409.783
621.866; -131.805; -476.112; -572.799
622.140;  -72.560; -207.116; -356.791
622.413;  -38.529;  138.889;  112.200
622.687; -118.818; -746.101; -492.817
622.961;  -56.151; -130.108; -143.805
623.235; -129.229; -633.111; -661.800
623.509; -157.271; -816.105; -848.811
623.783;  -37.200;  -12.107;   48.193
624.056;  -74.240; -254.120; -280.783
624.330;  -28.855;   63.888;   -3.797
624.604;  -66.985; -271.116; -355.790
624.877;  -30.703;  180.890;   26.198
625.151;  -76.433; -249.114; -238.794
625.425;  -72.620; -150.103; -283.814
625.698;  -99.813; -367.119; -374.785
625.972; -143.877; -799.110; -765.802
626.245;   27.190;  685.884;  484.210
626.519;  -95.564; -426.120; -340.784
626.792;  -61.749; -192.107; -380.807
627.066; -134.542; -485.122; -662.779
627.339; -129.478; -736.110; -663.802
627.613;   -9.539;  351.880;  148.216
627.886; -126.452;  187.891; -612.803
628.160;  -94.415;  312.880; -161.783
628.433; -135.795; -695.125; -703.775
628.706; -113.214; -517.120; -615.784
628.979;   -0.944;  296.876;  117.223
629.253; -170.138; -785.119; -833.786
629.526;  -85.397; -334.126; -253.772
629.799; -119.893; -641.123; -479.778
630.072; -113.599; -497.128; -516.769
630.346; -198.160;-1115.116;-1080.790
630.619; -111.749; -467.107; -545.808
630.892;   15.996;  709.889;  593.200
631.165;   37.805;  790.896;  679.187
631.438; -208.430;-1092.112;-1055.798
631.711;   10.258;  453.877;  257.221
631.984; -116.036; -523.117; -624.789
632.257; -115.461; -636.117; -681.789
632.530; -101.038; -412.119; -433.785
632.803;   -5.858; -109.115;    7.207
633.076;  -92.868; -360.123; -422.777
633.349;  -19.173;  173.872;  121.231
633.622;  -70.963; -187.119; -240.785
633.895; -166.565; -903.120; -823.783
634.167; -105.371; -496.126; -525.773
634.440;  -51.584;  -19.116; -137.792
634.713;  -46.438;  -22.119; -120.786
634.986;   38.825;  593.871;  453.233
635.258; -122.933; -507.115; -597.793
635.531;   59.938;  742.882; -343.788
635.804;  -92.686; -303.117; -318.789
636.077; -157.235; -830.116; -852.791
636.349; -128.708; -586.115; -474.793
636.622;  226.928; 1695.874; 1392.228
636.894; -115.014; -474.120; -909.784
637.167; -156.698; -836.127; -789.771
637.439;  -80.523; -278.128; -213.770
637.712;  -73.572; -312.126; -293.772
637.984; -133.560; -635.116; -707.791
638.257;   35.032;  515.877;  488.222
638.529; -166.444; -881.125; -924.776
638.802; -121.674; -508.128; -449.769
639.074; -181.491; -927.122; -952.781
639.346; -166.781; -942.135; -930.757
639.619;  -50.965;  -79.142; -319.744
639.891;  -51.042;  -83.122; -168.779
640.163; -140.042; -689.122; -756.780
640.435;  -14.167;  273.878;  103.220
640.708;  -37.066;  -72.122; -132.780
640.980; -107.691; -366.122; -362.781
641.252;  -55.991;  -25.121;  -71.781
641.524;   49.234;  580.879;  573.219
641.796; -173.765;-1094.121; -907.782
642.068;  -84.840; -191.121; -300.782
642.340; -120.240; -486.121; -566.783
642.613;   -3.665;  294.880;  323.217
642.885; -149.614; -787.120; -878.783
643.157; -137.864; -810.120; -658.784
643.428;   -0.939;  170.880;  218.216
643.700;  -92.789; -498.120; -425.784
643.972;  -75.064;  -16.119; -133.785
644.244; -110.788; -474.119; -559.785
644.516;  -80.463; -250.119; -114.786
644.788;   41.562;  662.881;  548.214
645.060;  -57.713;  -12.119; -124.786
645.332; -120.162; -525.118; -535.787
645.603;   11.238;  479.882;  342.213
645.875;  -96.087; -334.118; -369.787
646.147;  141.888; 1487.882; 1242.212
646.418; -168.261; -931.117; -918.788
646.690; -148.461; -714.117; -715.789
646.962; -106.286; -413.117; -451.789
647.233;  -21.961;   15.883;   11.211
647.505; -115.235; -595.117; -475.790
647.776;   -8.060;  328.884;  229.210
648.048;  -80.335; -248.116; -418.790
648.320; -141.010; -752.116; -679.791
648.591; -170.834;-1055.116; -958.791
648.862; -115.459; -505.116; -577.792
649.134;  -12.559;  115.885;  198.208
649.405; -144.759; -661.115; -618.792
649.677; -110.508; -475.115; -598.793
649.948;  -83.083; -181.115; -296.793
650.219;  -52.033;  -37.115; -147.793
650.491; -103.908; -431.114; -520.794
650.762; -135.957; -705.114; -731.794
651.033; -105.907; -437.114; -424.795
651.304; -161.582; -743.114; -728.795
651.576; -138.507; -680.114; -645.795
651.847;  -63.957; -250.113; -140.796
652.118;  -44.331;  -32.113; -189.796
652.389; -116.331; -639.113; -722.796
652.660;  -55.556; -147.113;  -89.797
652.931; -162.306; -897.112; -871.797
653.202; -117.430; -382.112; -541.798
653.473; -118.855; -633.112; -533.798
653.744; -115.055; -595.112; -590.798
654.015;  -90.155; -356.112; -303.799
654.286; -119.954; -642.111; -663.799
654.557; -125.404; -586.111; -521.799
654.828; -197.754;-1114.111;-1088.800
655.099;  -78.429; -404.111; -291.800
655.370; -109.353; -427.111; -543.801
655.641; -145.278; -656.110; -714.801
655.911; -134.603; -618.110; -638.801
656.182;   14.397;  437.890;  387.198
656.453;   49.623;  830.890;  746.198
656.724;  -97.652; -466.110; -426.802
656.994; -114.502; -553.109; -568.803
657.265; -165.802; -862.109; -873.803
657.536; -104.426; -500.109; -377.804
657.806; -127.376; -561.109; -593.804
658.077; -165.576; -866.109; -950.804
658.347;  -96.151; -523.108; -598.805
658.618; -143.625; -646.108; -694.805
658.888;  -49.450;  -41.108;  112.195
659.159; -117.875; -432.108; -548.806
659.429; -104.375; -292.108; -349.806
659.700; -100.675; -435.107; -390.807
659.970;  -98.799; -370.107; -359.807
660.241; -173.724; -754.107; -921.807
660.511;  -54.224; -147.107; -174.808
660.781; -158.074; -793.106; -748.808
661.052;  -73.598; -222.106; -381.808
661.322;  -44.323;   21.894;   -9.809
661.592;  -11.698;  257.894;  148.191
661.862;  -91.748; -369.106; -382.810
662.133; -122.572; -551.105; -502.810
662.403; -144.972; -770.105; -676.810
662.673;  -62.772; -256.105; -213.811
662.943; -118.772; -612.105; -551.811
663.213;  -50.646;  -85.105;  -81.811
663.483; -114.246; -593.104; -568.812
663.753;  -58.296; -194.104; -152.812
664.023;  -26.446;   68.896;  -32.813
664.293;  -77.195; -319.104; -126.813
664.563; -143.170; -694.104; -648.813
664.833; -137.045; -743.103; -608.814
665.103; -158.595; -730.103; -793.814
665.373; -140.069; -766.103; -806.814
665.643; -174.344; -863.103; -918.815
665.913; -138.394; -534.103; -714.815
666.182; -137.169; -685.102; -719.816
666.452;  -61.968;  -22.102;  -89.816
666.722; -160.193; -724.102; -784.816
666.992; -169.793; -948.102; -921.817
667.261; -158.818; -824.102; -808.817
667.531;  -46.693;  134.899;   45.183
667.801;  -99.917; -440.101; -412.818
668.070;   55.383;  714.899;  697.182
668.340; -176.692; -883.101; -840.819
668.609;   20.858;  588.900;  301.181
668.879; -141.166; -490.100; -558.819
669.149; -120.591; -539.100; -516.820
669.418; -143.591; -698.100; -726.820
669.688; -109.391; -482.100; -666.820
669.957; -115.915; -423.099; -546.821
670.226;  -70.615; -268.099; -331.821
670.496; -123.140; -431.099; -635.822
670.765; -103.565; -418.099; -501.822
671.034; -171.014; -872.099; -828.822
671.304;  -37.264;   55.902; -111.823
671.573; -198.764;-1085.098; -957.823
671.842;  -88.764; -380.098; -294.823
672.112; -135.563; -692.098; -586.824
672.381;  -68.288; -239.098; -214.824
672.650; -182.413;-1005.097;-1021.825
672.919; -125.838; -631.097; -507.825
673.188; -144.962; -681.097; -878.825
673.457; -197.562;-1101.097;-1143.826
673.726; -125.587; -579.096; -646.826
673.995;  -95.512; -533.096; -479.826
674.265;  -90.061; -263.096; -333.827
674.534;  -66.186; -183.096; -235.827
674.802; -112.561; -618.096; -703.828
675.071; -167.611; -886.095; -801.828
675.340; -126.161; -464.095; -339.828
675.609;  -16.535;  103.905;   82.171
675.878; -168.385; -949.095; -893.829
676.147;  -43.585;  -26.095;   -8.829
676.416;  -89.510; -210.094; -294.830
676.685;  130.191; 1000.906; -622.830
676.953; -125.659; -603.094; -452.831
677.222;  -82.684; -193.094; -273.831
677.491;  -59.609;  -24.094; -127.831
677.759;  -52.058;   11.907;  172.168
678.028;  -77.808; -279.093; -222.832
678.297;  -47.583;   71.907;  197.168
678.565; -172.158; -898.093; -944.833
678.834;  -71.882; -311.093; -268.833
679.102; -106.982; -411.092; -391.834
679.371; -161.407; -898.092; -727.834
679.639; -165.557; -797.092; -786.834
679.908; -134.006; -794.092; -724.835
680.176; -184.006; -895.091; -941.835
680.445;  -82.456; -346.091; -352.835
680.713;  -40.006;  -58.091;  -23.836
680.982; -123.355; -523.091; -525.836
681.250; -139.180; -578.091; -507.837
681.518; -121.030; -534.090; -751.837
681.787;  -95.080; -204.090; -167.837
682.055; -117.079; -490.090; -422.838
682.323; -189.379; -993.090; -992.838
682.591;  -76.029; -216.090; -538.838
682.859;  -79.479;    9.911;  -35.839
683.128;  -11.829;  232.911;  497.161
683.396; -198.103;-1102.089;-1122.840
683.664;  -54.903; -241.089;   21.160
683.932;  -34.378;  144.911;  -76.840
684.200; -105.428; -576.088; -320.841
684.468;  -52.452;  -73.088; -124.841
684.736;  -61.227; -214.088; -175.841
685.004; -200.502;-1024.088; -982.842
685.272; -153.102; -880.088; -774.842
685.540; -113.876; -499.087; -557.843
685.808; -146.526; -651.087; -682.843
686.076; -168.251; -894.087; -969.843
686.343; -139.401; -601.087; -815.844
686.611;  -56.550; -195.087; -224.844
686.879; -108.750; -530.086; -553.844
687.147; -106.575; -483.086; -480.845
687.414;  -59.925;  -12.086; -169.845
687.682; -145.724; -658.086; -757.846
687.950;    3.851;  259.915;  263.154
688.217; -145.249; -792.085; -760.846
688.485; -123.149; -632.085; -636.847
688.753;  -62.348;  -11.085; -102.847
689.020; -149.498; -820.085; -851.847
689.288; -154.323; -853.084; -787.848
689.555;  -64.523; -195.084; -148.848
689.823;  -89.147; -241.084; -345.849
690.090; -129.122; -546.084; -651.849
690.358; -183.047; -877.084; -897.849
690.625;  -23.047;  120.917;   45.150
690.892; -121.672; -403.083; -369.850
691.160;  -40.546;   72.917;  -35.850
691.427;  -36.496;  141.917;  130.149
691.694; -174.771; -855.083; -929.851
691.962; -188.946;-1177.082;-1060.852
692.229;  -35.570;  127.918;   56.148
692.496;  -51.970;  130.918;  -49.852
692.763;  -65.595; -164.082; -201.853
693.031; -131.320; -739.082; -716.853
693.298; -138.569; -509.081; -368.853
693.565;  -70.919; -155.081; -163.854
693.832;  -41.969;   -5.081;   -9.854
694.099; -133.019; -643.081; -642.855
694.366; -170.768; -882.081; -896.855
694.633; -169.043; -920.080; -633.855
694.900;  610.057; 4367.920; -114.856
695.167;  -76.768; -214.080; -380.856
695.434; -127.567; -646.080; -623.856
695.701;  -13.792;  121.921;  -61.857
695.968;  -99.742; -365.079; -361.857
696.234; -137.017; -415.079; -646.858
696.501; -118.491; -776.079; -614.858
696.768; -134.741; -554.079; -617.858
697.035; -140.741; -632.078; -667.859
697.302; -144.541; -448.078; -552.859
697.568; -107.390; -458.078; -497.859
697.835; -142.090; -683.078; -624.860
698.102; -110.765; -498.078; -407.860
698.368;   -6.640;  384.923;  396.139
698.635;  -99.190;  -47.077; -424.861
698.901;  -74.339; -240.077; -348.861
699.168; -104.939; -534.077; -456.862
699.435;  -64.814;  -72.077;  -13.862
699.701; -153.889; -868.076; -764.862
699.968;  -98.738;  144.924; -441.863
700.234; -148.638; -783.076; -822.863
700.500; -105.563; -448.076; -539.864
700.767;  -37.213;   -1.075;   26.136
701.033; -191.587;-1015.075; -963.864
701.299; -109.462; -450.075; -483.865
701.566;   67.063;  950.925;  763.135
701.832;  -33.362;  -31.075;  -76.865
702.098; -171.736;-1054.074;-1034.866
702.365; -188.986;-1098.074;-1030.866
702.631; -200.536;-1038.074;-1063.867
702.897; -137.311; -765.074; -676.867
703.163;  -19.185;  348.926;  254.133
703.429;  -74.285; -256.073; -273.868
703.695; -135.285; -796.073; -792.868
703.961;  -76.960; -214.073; -210.868
704.227; -150.234; -630.073; -725.869
704.493;   36.616;  613.927;  510.131
704.759; -122.009; -565.072; -540.870
705.025;  -63.284; -203.072; -194.870
705.291; -137.758; -666.072; -562.870
705.557;   57.717;  719.928;   34.129
705.823; -126.983; -742.072; -694.871
706.089;  -89.208; -307.071; -326.871
706.355;  -79.208; -315.071; -244.872
706.620; -162.607; -776.071; -729.872
706.886;  -80.482; -309.071; -362.873
707.152; -176.032; -818.070; -973.873
707.418; -204.057;-1153.070;-1186.873
707.683; -118.206; -550.070; -530.874
707.949; -128.306; -547.070; -578.874
708.215;  -70.381; -129.070; -207.874
708.480; -107.056; -520.069; -420.875
708.746;  -54.955;   68.931;   28.125
709.011; -122.330; -578.069; -612.876
709.277; -122.730; -538.069; -543.876
709.542; -111.705; -428.069; -387.876
709.808;  -44.104;  -59.068;   89.123
710.073; -134.629; -577.068; -695.877
710.339;  -76.779; -242.068; -228.877
710.604; -166.179; -780.068; -845.878
710.869;  -80.728; -277.068; -366.878
711.135; -144.353; -715.067; -628.879
711.400; -126.903; -507.067; -608.879
711.665; -103.128; -404.067; -479.879
711.931; -132.827; -661.067; -677.880
712.196; -171.602; -876.067; -954.880
712.461; -112.902; -402.066; -490.880
712.726; -154.652; -727.066; -771.881
712.991; -130.251; -647.066; -664.881
713.256;  -95.526; -350.066; -332.882
713.521; -104.101; -417.065; -381.882
713.787; -124.951; -454.065; -472.882
714.052;  -84.701; -214.065; -400.883
714.317; -188.525;-1045.065; -981.883
714.581;  -98.875; -374.065; -268.883
714.846; -173.025; -822.064; -888.884
715.111;    1.700;  261.936;  257.116
715.376;  -88.524;  -86.064; -223.885
715.641;  -86.699; -365.064; -367.885
715.906; -125.174;   15.936; -551.885
716.171;  -20.299;  221.937;  209.114
716.436;  -61.598;  -78.063; -104.886
716.700; -146.573; -818.063; -692.886
716.965; -154.048; -794.063; -807.887
717.230; -101.398; -339.063; -392.887
717.494;  -79.072;  -40.062; -134.888
717.759; -133.247; -784.062; -640.888
718.024;  -28.872;  269.938;  250.112
718.288;   42.203;  685.938;  395.111
718.553; -183.046; -803.062; -977.889
718.817; -165.371; -883.061; -899.889
719.082;  -58.596; -115.061; -125.890
719.346; -164.721;-1000.061; -947.890
719.611;  -83.420; -300.061; -255.891
719.875; -136.445; -568.060; -537.891
720.140; -116.395; -453.060; -603.891
720.404;  -65.845; -136.060; -249.892
720.668;  -99.595; -475.060; -411.892
720.933;  -18.194;  146.940;  137.108
721.197; -153.669; -667.059; -600.893
721.461; -170.444; -851.059; -826.893
721.725;  -45.344;  -21.059; -250.894
721.990;  -90.743; -284.059; -204.894
722.254;  -42.668;  -26.059; -108.894
722.518;  -87.918; -286.058; -442.895
722.782; -131.668; -743.058; -594.895
723.046;   33.183;  614.942;  570.105
723.310;  -10.567;  374.942;  210.104
723.574; -126.567; -654.058; -614.896
723.838; -136.442; -576.057; -642.897
724.102;  -65.441; -226.057; -239.897
724.366; -178.866;-1032.057; -978.897
724.630; -134.916; -749.057; -571.898
724.894; -137.666; -722.057; -514.898
725.158;  -55.290;   38.944; -295.898
725.422; -104.315; -394.056; -327.899
725.685; -109.415; -441.056; -349.899
725.949; -134.690; -566.056; -519.900
726.213; -160.539; -732.056; -811.900
726.477; -180.564;-1020.055; -933.900
726.740;  -73.264; -274.055; -104.901
727.004; -116.989; -384.055; -510.901
727.268; -100.363; -442.055; -400.901
727.531; -174.163; -961.055; -775.902
727.795; -136.688; -713.054; -673.902
728.059; -128.188; -552.054; -557.903
728.322; -142.938; -841.054; -669.903
728.586; -144.987; -692.054; -701.903
728.849; -147.112; -695.053; -756.904
729.112; -174.562; -812.053; -912.904
729.376; -158.712; -959.053; -905.904
729.639; -110.586; -536.053; -536.905
729.903; -150.536; -733.053; -699.905
730.166; -111.711; -437.052; -399.906
730.429;  -72.536; -317.052; -468.906
730.693; -121.235; -355.052; -894.906
730.956;   59.065;  810.948;  651.093
731.219;  -69.560; -310.052; -103.907
731.482; -170.660;-1003.051; -894.907
731.745; -182.559; -794.051; -935.908
732.009;  -44.634;  -30.051;   50.092
732.272; -145.809; -904.051; -771.909
732.535;  -79.184; -300.051; -310.909
732.798; -211.108;-1083.050;-1166.909
733.061; -116.508; -430.050; -456.910
733.324;  -59.208;   31.950; -180.910
733.587;   -3.658;  290.950;  365.090
733.850; -143.082; -973.049;-1050.911
734.113;  -26.182;   33.951;   32.089
734.376; -120.857; -328.049; -447.912
734.639;   99.418; 1188.951; 1011.088
734.901;  -83.631; -180.049; -402.912
735.164; -167.431; -883.048; -837.913
735.427;  -69.031; -166.048; -355.913
735.690;  -80.231; -205.048; -234.913
735.952; -189.806; -923.048; -925.914
736.215; -180.955;-1113.048;-1009.914
736.478; -177.655; -771.047; -774.915
736.740;  -51.430;   33.953;  129.085
737.003; -157.380; -658.047; -672.915
737.266;   69.221;  -94.047;   46.084
737.528; -152.979; -682.047; -660.916
737.791; -100.929; -316.046; -327.916
738.053;   11.646;  465.954;  649.083
738.316;  -85.178; -162.046; -136.917
738.578; -154.728; -770.046; -736.918
738.841; -103.903; -382.046; -446.918
739.103; -163.228; -875.045; -777.918
739.365;  -50.102;   79.955;  -69.919
739.628; -170.277; -884.045; -805.919
739.890; -128.777; -758.045; -710.919
740.152; -153.202; -692.044; -754.920
740.414;  -98.101; -408.044; -359.920
740.677; -151.351; -785.044; -634.921
740.939; -146.226; -587.044; -487.921
741.201; -126.901; -432.044; -572.921
741.463; -130.650; -689.043; -745.922
741.725;  -75.475;  -21.043; -199.922
741.987;  -27.225;  220.957;  116.078
742.249; -162.075; -751.043; -859.923
742.511; -140.174; -703.043; -794.923
742.773; -120.924; -546.042; -546.924
743.035;   64.076;  796.958;  533.076
743.297; -192.999; -963.042;-1013.924
743.559;  -66.999; -278.042; -262.925
743.821; -160.173; -735.042; -744.925
744.083;  -66.148;  -44.041; -149.925
744.345; -180.698; -869.041; -892.926
744.607;  -20.748;   75.959;  122.074
744.868; -137.147; -490.041; -554.927
745.130; -192.622; -994.041;-1008.927
745.392;  -54.922;   -1.040;  -44.927
745.653; -101.797; -411.040; -378.928
745.915;   59.004;  896.960;  631.072
746.177;  -62.721;   35.960;  -43.928
746.438; -118.871; -428.040; -543.929
746.700; -175.821; -947.039; -988.929
746.961; -163.495; -659.039; -740.930
747.223;  -69.645; -190.039;  -74.930
747.484; -120.595; -391.039; -471.930
747.746;  -54.870;  -23.038; -106.931
748.007; -160.069; -647.038; -689.931
748.269;  -98.694; -468.038; -440.931
748.530; -144.144; -852.038; -638.932
748.791; -109.694; -354.038; -420.932
749.053;   -5.868;  286.963;  163.067
749.314;  -81.468; -236.037; -169.933
749.575; -167.043; -945.037; -905.933
749.836;  -65.743; -217.037;   86.066
750.098;  -61.492;  -60.037;  -21.934
750.359;    3.583;  414.964;  555.066
750.620;  -70.942; -121.036; -220.935
750.881; -128.567; -585.036; -513.935
751.142; -187.167; -950.036; -938.936
751.403; -142.041; -789.036; -705.936
751.664; -197.166;-1034.035; -999.936
751.925;  -72.991; -175.035; -262.937
752.186;  -95.466; -298.035; -278.937
752.447; -115.665; -590.035; -445.937
752.708; -125.365; -532.035; -648.938
752.969; -135.715; -566.034; -576.938
753.230; -155.815; -777.034; -672.939
753.491; -147.914; -650.034; -631.939
753.751;  -53.214;  109.966;   19.061
754.012;   -5.839;  258.967;  181.060
754.273;  -84.414; -174.033;  -71.940
754.534; -110.713; -487.033; -580.940
754.794; -171.713; -926.033; -911.941
755.055;   76.487; 1051.967;  881.059
755.316; -154.088; -700.032; -566.942
755.576; -109.162; -606.032; -576.942
755.837; -127.012; -527.032; -695.942
756.097; -119.312; -530.032; -564.943
756.358; -172.137; -725.032; -770.943
756.618; -142.811; -705.031; -641.943
756.879;  -93.886; -254.031; -349.944
757.139; -210.636;-1098.031;-1116.944
757.400; -143.336; -538.031; -553.945
757.660;  -93.960; -365.031; -401.945
757.920;  -99.210; -266.030; -228.945
758.181;  -97.035; -468.030; -351.946
758.441; -158.610; -870.030; -809.946
758.701; -105.285; -308.030; -215.946
758.961;  -86.034; -220.030; -278.947
759.222; -114.334; -574.029; -502.947
759.482; -149.984; -683.029; -723.948
759.742; -151.009; -706.029; -547.948
760.002;  -68.333;  -83.029; -143.948
760.262;  -45.183;   50.972;  182.051
760.522; -140.708; -498.028; -574.949
760.782; -137.233; -738.028; -612.949
761.042; -137.707; -618.028; -573.950
761.302;  -53.582;   55.972;  -18.950
761.562;  -80.432; -164.027; -154.951
761.822; -130.557; -710.027; -551.951
762.082; -218.306;-1104.027;-1093.951
762.342; -111.181; -328.027; -403.952
762.601; -139.006; -567.027; -506.952
762.861;  -93.631; -281.026; -207.952
763.121; -112.205; -406.026; -411.953
763.381; -111.855; -499.026; -485.953
763.640;  -78.805; -139.026; -307.954
763.900;  -87.430; -242.026; -203.954
764.160; -117.479; -458.025; -491.954
764.419; -141.754; -726.025; -782.955
764.679; -167.629; -795.025; -726.955
764.939;  -81.254; -124.025; -210.955
765.198; -128.478; -608.025; -563.956
765.458; -131.503; -710.024; -612.956
765.717; -135.278; -454.024; -590.957
765.976;  -86.178; -428.024; -411.957
766.236; -142.928; -475.024; -610.957
766.495;  -31.227;  260.977;   73.042
766.755; -198.052;-1090.023; -987.958
767.014; -121.802; -594.023; -665.958
767.273; -123.127; -373.023; -397.959
767.533;  -89.176; -228.023; -307.959
767.792;  -82.901; -151.022; -188.960
768.051; -104.026; -228.022; -276.960
768.310; -139.126; -546.022; -650.960
768.569;  -52.300; -161.022;    4.039
768.828; -104.400; -285.022; -363.961
769.088; -186.475;-1050.021; -942.961
769.347; -163.100; -755.021; -599.962
769.606; -176.349; -876.021; -857.962
769.865; -203.999;-1016.021;-1033.963
770.124;  -81.324; -411.021; -336.963
770.383; -186.424; -778.020; -910.963
770.641; -111.248; -398.020; -400.964
770.900; -193.448; -953.020; -846.964
771.159; -178.148; -851.020; -951.964
771.418; -180.848; -917.020; -779.965
771.677;  -74.572; -224.019; -293.965
771.936; -171.697; -794.019; -865.966
772.194; -162.622; -465.019; -437.966
772.453;  -98.547; -213.019; -391.966
772.712;   -2.396;  416.982;  329.033
772.970;  -64.171;   32.982;   63.033
773.229;  -65.396;  -22.018;  102.033
773.488; -169.221; -814.018; -770.968
773.746;  -21.171;  296.982;  335.032
774.005;  -39.620;  190.983;  -22.969
774.263;  -30.970;  243.983;  177.031
774.522; -135.545; -422.017; -548.969
774.780; -113.270; -484.017; -417.970
775.039; -139.919; -551.017; -531.970
775.297;  -59.169; -135.016; -351.970
775.555; -144.194; -489.016; -612.971
775.814; -141.694; -618.016; -570.971
776.072; -148.843; -749.016; -740.971
776.330; -127.718; -630.016; -520.972
776.589; -158.943; -703.015; -721.972
776.847; -160.593; -645.015; -624.973
777.105; -201.217;-1016.015;-1032.973
777.363;  -98.342; -459.015; -454.973
777.621; -177.767; -660.015; -717.974
777.879;  -56.142;  -42.014;   32.026
778.138; -137.691; -554.014; -717.974
778.396; -146.216; -585.014; -526.975
778.654; -197.816;-1015.014; -970.975
778.912;  -86.116; -269.014; -371.976
779.170; -162.590; -880.013; -803.976
779.427; -182.465; -922.013; -897.976
779.685; -181.990; -880.013; -832.977
779.943; -151.315; -654.013; -593.977
780.201; -201.089; -964.012; -883.978
780.459; -143.764; -651.012; -610.978
780.717; -113.014; -440.012; -390.978
780.974; -129.389; -449.012; -490.979
781.232; -114.889; -358.012; -338.979
781.490; -135.638; -551.011; -472.979
781.747; -121.288; -555.011; -476.980
782.005;  -10.438;  462.989;  254.020
782.263; -195.063; -542.011;-1004.981
782.520; -101.312; -326.011; -501.981
782.778; -210.012;-1013.010;-1051.981
783.035; -186.562; -962.010; -938.982
783.293;  -92.537; -248.010; -206.982
783.550;  -78.236; -134.010; -198.982
783.808; -167.261; -764.010; -776.983
784.065; -168.911; -745.009; -874.983
784.322;  -80.936;   25.991;  -86.984
784.580; -172.135; -915.009; -771.984
784.837; -110.735; -392.009; -466.984
785.094; -157.710; -783.009; -762.985
785.352; -123.785; -304.008; -404.985
785.609; -172.334; -934.008; -839.985
785.866; -124.684; -345.008; -401.986
786.123; -135.184; -639.008; -583.986
786.380; -159.009; -665.008; -604.987
786.637;  -99.508; -225.007; -380.987
786.895; -125.883; -456.007; -543.987
787.152;  -77.133; -135.007; -267.988
787.409;  -79.058; -123.007; -225.988
787.666; -114.557; -299.006; -378.988
787.923; -150.182; -616.006; -695.989
788.179; -129.532; -551.006; -584.989
788.436; -151.982; -585.006; -585.990
788.693;  -74.157;  -92.006;  -87.990
788.950;  -63.531; -125.005; -112.990
789.207; -125.881; -381.005; -372.991
789.464;  -94.356; -161.005; -301.991
789.720;  -40.281;  150.995;  110.009
789.977; -208.755;-1003.005; -671.992
790.234;  -56.080;   44.996;  -66.992
790.490; -194.630; -884.004;-1031.993
790.747;  -55.680;  -85.004;   22.007
791.004; -113.804; -426.004; -348.993
791.260; -114.654; -430.004; -560.994
791.517; -168.129; -843.003; -788.994
791.773; -108.504; -379.003; -342.994
792.030; -160.478; -596.003; -660.995
792.286; -154.828; -686.003; -636.995
792.543;  -78.003;  -74.002; -159.995
792.799; -109.178; -584.002; -382.996
793.055; -238.552;-1179.002;-1210.996
793.312; -175.827; -827.002; -816.997
793.568; -155.302; -746.002; -599.997
793.824;  -85.177; -226.001; -284.997
794.081; -128.476; -447.001; -508.998
794.337; -139.826; -664.001; -561.998
794.593; -109.851; -319.001; -271.999
794.849; -153.051; -746.001; -772.999
795.105; -114.350; -270.000; -261.999
795.361; -116.600; -490.000; -457.000
795.617; -196.625; -875.000; -945.000
795.873; -121.325; -360.000; -407.000
796.129; -110.050; -368.000; -306.000
796.385;  -64.925; -124.000; -156.000
796.641;    1.925;  412.000;  550.000
796.897; -151.575; -666.000; -635.000
797.153;    6.000;  453.000;  357.000
797.409; -180.050; -785.000; -868.000
797.665; -156.625; -625.000; -732.000
797.921; -166.250; -775.000; -762.000
798.176; -168.100; -744.000; -747.000
798.432; -179.150; -824.000; -596.000
798.688; -220.825;-1174.000;-1078.000
798.943;  -71.975; -165.000; -147.000
799.199; -194.375;-1005.000; -959.000
799.455;   13.675;  369.000;  316.000
799.710; -169.500; -813.000; -380.000
799.966;  -86.025; -162.000; -160.000
800.221; -155.675; -638.000; -721.000
800.477; -165.175; -743.000; -710.000
800.732; -182.025; -773.000; -800.000
800.988;  -44.400;  205.000;  -19.000
801.243; -124.175; -454.000; -344.000
801.498; -165.825; -814.000; -739.000
801.754;  -89.300; -289.000; -163.000
802.009;  -92.650; -257.000; -335.000
802.264; -204.700; -967.000;-1033.000
802.520;  -59.675;  222.000;   -3.000
802.775; -135.425; -524.000; -359.000
803.030;   -7.625;  395.000;  356.000
803.285; -178.750; -840.000; -903.000
803.540; -143.200; -686.000; -699.000
803.795; -132.050; -648.000; -583.000
804.051;  -93.425; -279.000; -346.000
804.306;  -54.425;  168.000;  128.000
804.561;  -10.575;  451.000;  362.000
804.816;   51.975;  714.000;  861.000
805.071;  -99.800; -185.000; -280.000
805.325; -111.325; -257.000; -427.000
805.580; -180.450; -841.000; -877.000
805.835;  -98.850; -204.000; -297.000
806.090; -155.775; -760.000; -676.000
806.345; -124.350; -344.000; -264.000
806.600; -141.175; -549.000; -632.000
806.854; -131.700; -408.000; -538.000
807.109; -126.050; -493.000; -577.000
807.364; -116.250; -407.000; -328.000
807.618; -122.075; -415.000; -381.000
807.873; -148.525; -470.000; -494.000
808.128;  -86.275; -257.000; -518.000
808.382; -109.675; -224.000; -332.000
808.637; -132.425; -440.000; -511.000
808.891;  -86.425; -257.000; -180.000
809.146; -176.425; -902.000; -794.000
809.400; -184.425; -848.000; -923.000
809.654; -138.775; -779.000; -551.000
809.909; -188.075; -841.000; -927.000
810.163; -168.375; -813.000; -651.000
810.418; -201.400; -940.000; -861.000
810.672; -157.375; -685.000; -690.000
810.926; -201.900; -993.000; -973.000
811.180; -127.325; -439.000; -372.000
811.434;  -38.050;  240.000;  135.000
811.689; -112.750; -231.000; -365.000
811.943; -202.500; -936.000; -953.000
812.197; -157.425; -893.000; -671.000
812.451; -129.625; -379.000; -514.000
812.705; -172.350; -809.000; -619.000
812.959; -110.575; -263.000; -388.000
813.213;  -88.475; -283.000; -209.000
813.467;  -11.675;  470.000;  253.000
813.721; -158.925; -764.000; -792.000
813.975; -169.650; -826.000; -877.000
814.229;   -7.750;  430.000;  353.000
814.482; -139.800; -517.000; -566.000
814.736; -168.200; -766.000; -744.000
814.990; -188.700; -779.000; -872.000
815.244; -105.100; -228.000; -285.000
815.497; -151.200; -636.000; -601.000
815.751;  -59.900; -141.000;   82.000
816.005; -134.075; -470.000; -586.000
816.258; -115.000; -510.000; -363.000
816.512; -165.575; -693.000; -610.000
816.766;  -51.375;  121.000;  157.000
817.019;  -44.625;  148.000;  149.000
817.273; -173.550;-1000.000; -802.000
817.526;  -83.325; -206.000; -173.000
817.779; -194.675;-1049.000; -960.000
818.033; -183.375; -693.000; -807.000
818.286; -176.700; -725.000; -792.000
818.540; -131.050; -403.000; -403.000
818.793; -119.600; -402.000; -489.000
819.046; -155.125; -582.000; -520.000
819.299;  -76.300; -157.000; -166.000
819.553; -145.825; -552.000; -592.000
819.806; -194.025;-1016.000; -838.000
820.059;  -98.425; -334.000; -354.000
820.312;  -44.900;  152.000;  185.000
820.565;  -58.500;  110.000;  -27.000
820.818;  -71.850;  -59.000; -173.000
821.071; -204.850;-1041.000; -957.000
821.324; -148.300; -536.000; -540.000
821.577; -141.475; -457.000; -483.000
821.830;  -95.250; -270.000; -172.000
822.083; -172.625; -733.000; -288.000
822.336;  -85.100; -261.000; -167.000
822.589; -175.575; -805.000; -688.000
822.842; -186.325; -875.000; -770.000
823.094; -236.800;-1076.000;-1114.000
823.347; -165.200; -925.000; -729.000
823.600;  -32.775;  402.000;  187.000
823.853; -104.025; -311.000; -267.000
824.105; -127.825; -331.000; -575.000
824.358; -155.675; -617.000; -716.000
824.611;  -38.525;  234.000;   40.000
824.863; -140.150; -612.000; -591.000
825.116;  -65.375;  -33.000;   27.000
825.368; -133.850; -366.000; -372.000
825.621;  -93.125; -186.000; -240.000
825.873; -162.275; -704.000; -737.000
826.126; -153.975; -669.000; -641.000
826.378; -125.125; -389.000; -505.000
826.630; -193.700; -890.000; -898.000
826.883; -168.100; -754.000; -693.000
827.135; -107.725; -279.000; -270.000
827.387; -182.250; -893.000; -839.000
827.639;  -78.075;  -86.000;   32.000
827.892; -172.475; -742.000; -582.000
828.144; -194.225; -848.000; -804.000
828.396;  -67.350;  104.000;  -80.000
828.648; -127.300; -440.000; -333.000
828.900; -176.175; -702.000; -795.000
829.152; -165.600; -684.000; -683.000
829.404;  -77.625; -215.000; -267.000
829.656;  -81.025;  321.000;  214.000
829.908;  -46.000;  393.000;  229.000
830.160; -201.050;-1064.000;-1047.000
830.412; -132.825; -481.000; -430.000
830.664; -163.950; -557.000; -665.000
830.916; -101.075; -268.000; -206.000
831.167; -210.775;-1073.000; -951.000
831.419; -141.650; -623.000; -566.000
831.671; -178.375; -764.000; -809.000
831.923; -105.950; -311.000; -447.000
832.174; -112.425; -273.000; -331.000
832.426; -135.725; -493.000; -582.000
832.678; -220.150;-1043.000;-1091.000
832.929; -198.400; -947.000; -935.000
833.181; -155.825; -575.000; -677.000
833.432;  -81.850;  -59.000; -186.000
833.684;  -54.775;  112.000;  -27.000
833.935; -151.375; -610.000; -566.000
834.187; -176.875; -829.000; -823.000
834.438;  -83.800;  -58.000;  -25.000
834.689;  -92.650; -255.000; -123.000
834.941;  -86.975; -343.000; -244.000
835.192; -136.800; -590.000; -533.000
835.443; -149.800; -419.000; -506.000
835.695;  -55.475;  138.000;  -16.000
835.946; -130.400; -608.000; -378.000
836.197; -155.200; -599.000; -622.000
836.448; -128.825; -528.000; -395.000
836.699; -110.550; -253.000; -341.000
836.950;  -53.250;   72.000;    7.000
837.201; -213.550;-1003.000; -987.000
837.452; -109.375; -356.000; -170.000
837.703; -196.175; -791.000; -737.000
837.954; -118.550; -205.000; -365.000
838.205; -212.400;-1029.000;-1008.000
838.456; -105.675; -196.000; -282.000
838.707; -131.700; -423.000; -519.000
838.958; -160.400; -634.000; -647.000
839.209;  -58.725;   18.000;   40.000
839.460; -109.500; -439.000; -201.000
839.710; -107.275; -135.000; -297.000
839.961;    8.625;  730.000;  612.000
840.212; -136.225; -382.000; -497.000
840.462; -119.400; -328.000; -277.000
840.713; -143.350; -571.000; -536.000
840.964;  -81.600;  -62.000; -143.000
841.214; -143.800; -384.000; -624.000
841.465;  -80.300; -214.000; -141.000
841.715; -118.900; -417.000; -380.000
841.966; -155.950; -746.000; -685.000
842.216; -134.900; -330.000; -431.000
842.466; -102.650; -169.000; -313.000
842.717; -214.675; -964.000; -952.000
842.967; -142.875; -635.000; -641.000
843.217;  -67.525;   20.000;   28.000
843.468;  -73.600; -104.000; -132.000
843.718; -178.125; -718.000; -726.000
843.968; -176.550; -837.000; -765.000
844.218; -124.650; -315.000; -262.000
844.469; -128.600; -577.000; -561.000
844.719; -156.800; -537.000; -682.000
844.969; -145.400; -550.000; -580.000
845.219; -183.825; -814.000; -862.000
845.469; -114.550; -392.000; -342.000
845.719; -189.625; -792.000; -884.000
845.969;  -49.325;  119.000;  174.000
846.219; -166.475; -738.000; -720.000
846.469;   -9.825;  464.000;  432.000
846.718;  -87.700; -115.000;   31.000
846.968; -187.500; -827.000; -827.000
847.218;  -88.850; -224.000; -371.000
847.468;  -40.650; -586.000; -555.000
847.718; -199.250; -827.000; -798.000
847.967; -178.000; -826.000; -915.000
848.217; -138.925; -449.000; -569.000
848.467; -108.975; -405.000; -376.000
848.716; -174.675; -708.000; -725.000
848.966; -110.775; -372.000; -358.000
849.215; -131.150; -428.000; -419.000
849.465; -173.525; -785.000; -615.000
849.714; -214.850;-1132.000;-1150.000
849.964; -135.975; -551.000; -613.000
850.213; -128.700; -393.000; -355.000
850.463;  -32.800;  137.000;  340.000
850.712; -142.325; -542.000; -567.000
850.961; -155.700; -739.000; -678.000
851.211; -135.125; -513.000; -504.000
851.460; -152.850; -635.000; -650.000
851.709;  -73.975;  -25.000;   18.000
851.958; -174.950; -912.000; -750.000
852.208; -190.125; -859.000; -879.000
852.457;  -92.975; -181.000;  -13.000
852.706; -182.175; -791.000; -823.000
852.955; -136.100; -507.000; -528.000
853.204; -141.500; -521.000; -461.000
853.453; -132.800; -418.000; -458.000
853.702; -173.225; -660.000; -750.000
853.951; -145.925; -532.000; -520.000
854.200; -151.825; -613.000; -562.000
854.449; -158.800; -695.000; -661.000
854.698; -124.075; -340.000; -279.000
854.946;  -84.200; -181.000; -284.000
855.195; -190.175; -843.000; -868.000
855.444; -117.175; -395.000; -420.000
855.693; -141.275; -345.000; -432.000
855.941; -147.650; -387.000; -516.000
856.190; -110.200; -256.000; -382.000
856.439; -166.750; -652.000; -703.000
856.687;  -90.075;  -99.000;  -72.000
856.936; -137.875; -621.000; -323.000
857.184; -213.075;-1067.000;-1020.000
857.433; -124.675; -423.000; -512.000
857.681; -210.575; -989.000; -953.000
857.930; -113.150; -282.000; -433.000
858.178; -192.425; -856.000; -929.000
858.427; -175.875; -802.000; -781.000
858.675; -151.175; -377.000; -544.000
858.923; -143.075; -527.000; -819.000
859.172; -211.375;-1094.000;-1070.000
859.420; -110.125; -339.000; -239.000
859.668; -160.225; -624.000; -628.000
859.916;  -47.875;  109.000;  115.000
860.164; -161.200; -699.000; -603.000
860.413; -188.025; -878.000; -696.000
860.661; -154.475; -709.000; -577.000
860.909; -120.400; -339.000; -325.000
861.157; -117.125; -277.000; -444.000
861.405; -147.025; -534.000; -670.000
861.653;  -34.325;  310.000;  310.000
861.901; -140.075; -543.000; -613.000
862.149; -198.675; -801.000; -824.000
862.396;  -93.725; -297.000; -187.000
862.644; -120.975; -368.000; -347.000
862.892;  -52.700;   98.000;  138.000
863.140; -151.900; -549.000; -530.000
863.388; -178.975; -815.000; -759.000
863.635; -149.400; -642.000; -601.000
863.883;  -27.500;  231.000;  190.000
864.131; -134.275; -288.000; -357.000
864.378; -158.250; -675.000; -540.000
864.626; -124.650; -347.000; -415.000
864.873; -151.600; -556.000; -505.000
865.121; -182.250; -714.000; -799.000
865.368;  -77.450; -173.000;   75.000
865.616;  -86.025;  -33.000;  -40.000
865.863; -139.550; -462.000; -506.000
866.111; -193.550; -795.000; -824.000
866.358; -110.750; -426.000; -420.000
866.605;  -86.050;  -64.000; -804.000
866.853; -147.250; -621.000; -537.000
867.100; -184.975; -728.000; -775.000
867.347; -165.150; -672.000; -611.000
867.594; -175.950; -740.000; -714.000
867.841;  -37.600;   97.000;   17.000
868.089; -173.450; -746.000; -698.000
868.336; -129.875; -477.000; -420.000
868.583; -169.025; -637.000; -741.000
868.830;  -66.100; -131.000; -170.000
869.077; -188.800; -859.000; -787.000
869.324; -141.400; -502.000; -458.000
869.571; -151.100; -398.000; -430.000
869.818; -146.000; -485.000; -439.000
870.065; -157.700; -439.000; -513.000
870.311; -133.875; -456.000; -542.000
870.558; -129.700; -332.000; -311.000
870.805;  -94.550; -320.000; -384.000
871.052; -139.525; -494.000; -369.000
871.298; -108.100; -204.000; -131.000
871.545;  -84.900; -151.000; -185.000
871.792; -104.525; -173.000; -222.000
872.038;  -89.850;   43.000; -126.000
872.285; -150.350; -496.000; -387.000
872.532; -119.075; -357.000; -387.000
872.778;    7.050;  556.000;  403.000
873.025; -117.000; -384.000; -359.000
873.271;   11.175;  501.000;  578.000
873.517;  -80.300; -133.000; -209.000
873.764;  -78.575; -193.000;  -80.000
874.010; -117.675; -143.000; -230.000
874.257;  -56.950;  123.000;   90.000
874.503; -157.875; -579.000; -479.000
874.749;  -90.625;   31.000;  275.000
874.995;  -84.550;  -80.000;  -20.000
875.242; -146.600; -540.000; -478.000
875.488; -142.850; -414.000; -439.000
875.734; -101.525; -106.000; -234.000
875.980; -219.650; -872.000;-1032.000
876.226; -100.500; -157.000; -255.000
876.472;  -41.000;  343.000;  237.000
876.718;  -65.100;  184.000;  158.000
876.964;  -64.700;   56.000;   55.000
877.210; -185.350; -547.000; -677.000
877.456; -163.700; -630.000; -557.000
877.702; -201.350; -821.000; -832.000
877.948; -149.300; -377.000; -497.000
878.193;  -23.650;  361.000;  255.000
878.439; -151.200; -487.000; -472.000
878.685; -118.850; -272.000; -343.000
878.931; -152.150; -618.000; -676.000
879.176; -104.125; -201.000; -201.000
879.422; -209.300; -933.000; -820.000
879.668;  -54.800;   10.000;   79.000
879.913;  -81.600;   53.000;  137.000
880.159;  -90.750; -112.000;  -17.000
880.404;  -91.700; -152.000; -162.000
880.650;  -45.025;   91.000;  141.000
880.895; -182.175; -670.000; -710.000
881.141; -139.825; -454.000; -428.000
881.386; -160.350; -503.000; -658.000
881.631; -104.200; -311.000; -166.000
881.877;  -68.925;  112.000;  -13.000
882.122; -158.800; -684.000; -600.000
882.367; -113.550; -136.000; -186.000
882.612;  -84.900;  -80.000; -176.000
882.858; -180.550; -877.000; -823.000
883.103; -117.850; -297.000; -267.000
883.348; -182.200; -759.000; -852.000
883.593; -176.800; -677.000; -602.000
883.838;  -88.250; -311.000;  -24.000
884.083;  -46.750;  353.000;  288.000
884.328; -136.900; -564.000; -545.000
884.573;  -95.725; -196.000; -143.000
884.818; -172.750; -694.000; -531.000
885.063; -129.850; -348.000; -315.000
885.308; -145.225; -475.000; -398.000
885.553;  -29.050;  245.000;  325.000
885.797; -168.600; -545.000; -615.000
886.042;  -59.875;    8.000;   58.000
886.287; -115.175; -253.000; -211.000
886.532;  -61.125;   26.000;  204.000
886.776; -119.825; -407.000; -525.000
887.021; -158.775; -621.000; -574.000
887.265; -185.850; -685.000; -689.000
887.510; -156.600; -557.000; -496.000
887.755; -114.500; -194.000; -164.000
887.999; -159.125; -552.000; -575.000
888.244;  -82.850;  -58.000;  161.000
888.488;  -20.400;  371.000;  393.000
888.732; -147.400; -368.000; -520.000
888.977; -144.550; -622.000; -567.000
889.221; -196.900; -683.000; -659.000
889.465; -156.900; -422.000; -566.000
889.710; -108.100;  -56.000; -299.000
889.954;  -18.375;  579.000;  467.000
890.198; -160.500; -584.000; -707.000
890.442; -159.850; -716.000; -712.000
890.687; -194.400; -800.000; -753.000
890.931; -110.000; -273.000; -210.000
891.175; -157.850; -502.000; -500.000
891.419;  -87.600; -105.000; -110.000
891.663; -103.425; -239.000; -112.000
891.907; -167.975; -801.000; -545.000
892.151; -191.850; -920.000; -815.000
892.395; -127.550; -274.000; -387.000
892.638;  -25.225;  408.000;  291.000
892.882; -201.825; -780.000; -867.000
893.126;    1.325;  758.000;  558.000
893.370; -101.825; -167.000; -168.000
893.614; -170.950; -714.000; -715.000
893.857; -126.300; -183.000; -197.000
894.101; -147.625; -527.000; -631.000
894.345;  -70.550;  300.000;  150.000
894.588;    3.500;  569.000;  380.000
894.832;  -91.300; -178.000;  -84.000
895.075;  -95.600;   15.000;  -92.000
895.319; -153.925; -552.000; -420.000
895.563; -140.650; -413.000; -353.000
895.806; -166.150; -628.000; -741.000
896.049; -145.575; -576.000; -368.000
896.293;  -26.300;  527.000;  405.000
896.536; -147.400; -465.000; -468.000
896.779;  -90.750; -149.000;   -1.000
897.023; -179.725; -751.000; -714.000
897.266;  -37.375;  325.000;  269.000
897.509; -203.000; -900.000; -901.000
897.752;  -61.025;  149.000;  171.000
897.996; -211.750; -972.000; -864.000
898.239;  -59.125;  168.000;  102.000
898.482; -148.425; -431.000; -453.000
898.725;  -85.750;  101.000;   53.000
898.968; -179.075; -609.000; -744.000
899.211; -147.475; -513.000; -361.000
899.454; -167.600; -633.000; -539.000
899.697;  -88.700;   90.000;  -43.000
899.940; -182.350; -761.000; -757.000
900.182; -129.525; -335.000; -405.000
900.425; -114.650; -150.000; -298.000
900.668;  -41.525;  491.000;  350.000
900.911; -142.450; -292.000; -345.000
901.154;  -70.000;  141.000;   -3.000
901.396; -163.000; -407.000; -412.000
901.639; -159.550; -430.000; -496.000
901.882; -201.100; -790.000; -809.000
902.124; -101.025;  -29.000; -143.000
902.367; -137.675; -315.000; -361.000
902.609; -151.825; -476.000; -453.000
902.852; -105.350; -108.000; -260.000
903.094; -146.600; -458.000; -337.000
903.337;  -77.175;  -26.000;   53.000
903.579; -134.475; -228.000; -441.000
903.821; -189.050; -597.000; -744.000
904.064;  -79.850;   85.000;  127.000
904.306; -108.250; -126.000; -166.000
904.548; -118.100; -152.000; -366.000
904.790; -123.100; -195.000; -340.000
905.033; -152.375; -625.000; -577.000
905.275; -165.925; -513.000; -524.000
905.517;  -40.975;  468.000;  256.000
905.759; -180.400; -667.000; -761.000
906.001; -139.175; -322.000; -369.000
906.243; -135.375; -162.000; -224.000
906.485;  -99.850; -265.000; -207.000
906.727; -167.825; -499.000; -542.000
906.969; -109.550;  -30.000; -135.000
907.211; -137.200; -316.000; -382.000
907.453; -108.525; -188.000; -237.000
907.695; -124.675; -158.000; -385.000
907.936;    4.675;  818.000;  706.000
908.178;  -93.525;   92.000; -135.000
908.420; -104.425; -111.000; -162.000
908.662; -174.250; -633.000; -682.000
908.903; -121.525; -208.000; -123.000
909.145; -113.950; -240.000; -305.000
909.386;  -57.975;  315.000;  280.000
909.628;  -35.425;  363.000;  397.000
909.870;  -74.950;   29.000;  264.000
910.111; -211.300; -809.000; -949.000
910.353; -119.425; -123.000; -161.000
910.594; -170.225; -574.000; -606.000
910.835; -126.775; -265.000; -326.000
911.077; -165.475; -503.000; -604.000
911.318; -154.250; -505.000; -471.000
911.559; -189.850; -577.000; -880.000
911.801; -132.850; -284.000; -280.000
912.042;  -98.800;  -50.000; -159.000
912.283;  -37.425;  404.000;  371.000
912.524; -146.400; -396.000; -457.000
912.765;  -88.850; -193.000;   79.000
913.006; -145.025; -307.000; -338.000
913.247; -146.825; -270.000; -290.000
913.488; -111.450;  -43.000;   30.000
913.729; -164.600; -373.000; -373.000
913.970; -117.325;  -96.000; -292.000
914.211; -112.050; -160.000; -198.000
914.452; -111.275; -118.000;  -11.000
914.693;  -21.775;  510.000;  592.000
914.934;  -25.600;  510.000;  440.000
915.175;  -81.450;   53.000;  -95.000
915.415; -115.175; -137.000;   27.000
915.656;  -83.700;  -28.000;  192.000
915.897; -140.825; -252.000;  -82.000
916.137; -117.875;   74.000;   -9.000
916.378; -169.650; -573.000; -517.000
916.619; -107.475; -159.000;  -63.000
916.859;  -66.425;  303.000;  330.000
917.100;  100.175; 1655.000; 1070.000
917.340;    2.850;  930.000;  728.000
917.581;    2.275;  965.000;  789.000
917.821; -141.200; -171.000;  143.000
918.061; -103.250; -199.000;  -72.000
918.302; -127.650; -152.000; -211.000
918.542;  -94.675;  -22.000;    3.000
918.782;  -55.600;  369.000;  377.000
919.023;  -45.375;  360.000;  427.000
919.263;  959.500; 8131.000;  202.000
919.503; -120.900; -137.000;  -54.000
919.743;  -54.775;  390.000;  266.000
919.983; -102.400; -134.000;  -26.000
920.223;  -93.400;  135.000;   14.000
920.463;  -27.525;  631.000;  554.000
920.703;  -89.300;   84.000;   39.000
920.943; -113.100; -110.000;   90.000
921.183; -152.325; -414.000; -405.000
921.423;  -32.750;  307.000;  546.000
921.663; -132.200; -174.000; -257.000
921.903;  -64.750;  237.000;  173.000
922.143;  -62.050;  372.000;  389.000
922.383;  -86.875;  158.000;  115.000
922.622; -124.225; -120.000;  -15.000
922.862;   -0.500;  796.000;  785.000
923.102; -113.925;  -51.000;   33.000
923.341; -107.450;   59.000;   74.000
923.581;  -50.225;  450.000;  360.000
923.821;  -53.775;  301.000;  398.000
924.060;  -65.850;  351.000;  193.000
924.300; -102.975;  -16.000; -128.000
924.539;  -57.325;  584.000;  473.000
924.779;  -10.750;  812.000;  597.000
925.018;  -67.450;  247.000;  353.000
925.257;  -16.800;  595.000;  666.000
925.497;  -59.050;  447.000;  412.000
925.736;  -93.050;  -35.000;  102.000
925.975;  -34.600;  687.000;  669.000
926.214;    5.900;  907.000;  850.000
926.454;    2.700;  706.000;  757.000
926.693;  -48.250;  419.000;  543.000
926.932;    4.800; 1021.000;  825.000
927.171;   60.825; 1107.000; 1044.000
927.410;   38.400; 1144.000;  967.000
927.649;   -3.475;  924.000;  742.000
927.888;  -29.825;  590.000;  564.000
928.127;  -32.350;  680.000;  678.000
928.366;  -16.550;  842.000;  826.000
928.605;  -15.175;  831.000;  737.000
928.844;   61.325; 1451.000; 1393.000
929.083;  -25.300;  770.000;  613.000
929.321;   73.950; 1335.000; 1359.000
929.560;   59.500; 1158.000; 1122.000
929.799;  -75.150;  574.000;  475.000
930.038;   59.450; 1025.000; 1394.000
930.276;  -78.025;  334.000;  397.000
930.515;  -14.325;  827.000;  681.000
930.753;  -37.800;  614.000;  589.000
930.992;  -28.550;  664.000;  717.000
931.230;  -10.050;  847.000;  847.000
931.469;  165.450; 2162.000;  892.000
931.707;   62.600;  840.000;  751.000
931.946;   61.700; 1278.000; 1344.000
932.184;   23.800; 1437.000; 1175.000
932.423;   30.525; 1265.000;  963.000
932.661;   53.400; 1296.000; 1428.000
932.899;   -7.975;  987.000;  821.000
933.137;  -39.600;  754.000;  564.000
933.376;   43.350; 1664.000; 1335.000
933.614;   99.675; 1759.000; 1196.000
933.852;   23.550; 1357.000; 1171.000
934.090;   98.775; 1722.000; 1747.000
934.328;   53.650; 1252.000; 1457.000
934.566;   15.225; 1431.000; 1110.000
934.804;   38.925; 1263.000; 1309.000
935.042;   77.650; 1861.000; 1850.000
935.280;  127.850; 2088.000; 2063.000
935.518;  120.475; 2113.000; 2007.000
935.756;  153.325; 2481.000; 2316.000
935.994;   65.050; 1808.000; 1751.000
936.231;  243.225; 2890.000; 2950.000
936.469;  147.025; 2367.000; 2378.000
936.707;  152.000; 2220.000; 2167.000
936.945;  222.750; 2825.000; 2882.000
937.182;  186.400; 2679.000; 2741.000
937.420;  249.700; 3602.000; 3031.000
937.657;  304.875; 3365.000; 3478.000
937.895;  268.100; 3331.000; 3488.000
938.133;  316.325; 3540.000; 3528.000
938.370;  329.625; 3896.000; 4191.000
938.607;  384.450; 4488.000; 4205.000
938.845;  531.500; 5587.000; 5549.000
939.082;  465.750; 5387.000; 5177.000
939.320;  525.225; 5799.000; 5728.000
939.557;  632.775; 6549.000; 6491.000
939.794;  689.425; 7285.000; 7097.000
940.031;  828.400; 8421.000; 8368.000
940.269;  929.850; 9552.000; 9107.000
940.506; 1066.625;10901.000;10507.000

