
Integration time [ms]: 100.000
Averaging Nr. [scans]: 40
Smoothing Nr. [pixels]: 0
Data measured with spectrometer [name]: 2101013U2
Wave   ;Sample   ;Dark     ;Reference
[nm]   ;[counts] ;[counts] ;[counts] 

394.013;   18.177; -450.257; -315.536
394.305;   58.050; -461.258; -419.536
394.596;  895.845; -676.269; -527.514
394.887; 2388.433; -796.268; -654.518
395.178;  918.032;  145.736;   11.476
395.470;   40.241; -210.263; -356.526
395.761;  119.595;  305.734;  394.479
396.052;   17.873; -545.284; -306.489
396.343;   16.878; -557.276; -454.503
396.634;   10.653; -200.279; -290.497
396.926;  -17.969; -618.268; -565.517
397.217;   30.706;   11.725;  -17.504
397.508;    4.568; -366.273; -154.507
397.799;  -27.897; -555.279; -571.497
398.090;  -55.626; -973.280; -902.495
398.381;   62.340;   11.708;  -11.473
398.672;  -64.159; -585.292; -742.473
398.963;   -1.767; -348.279; -373.498
399.254;   65.748;   54.709; -209.475
399.545;  -73.808;-1017.266; -883.520
399.836;   17.194; -407.277; -343.501
400.127;    4.022; -205.295; -209.468
400.418;    5.614; -423.274; -392.506
400.709;    3.989; -359.281; -333.493
401.000;   20.076; -268.291; -309.476
401.290;   72.848;  225.698;  115.545
401.581;   38.760; -166.286; -228.485
401.872;    0.600; -542.298; -486.462
402.163;   28.566; -313.296; -252.467
402.454;   52.424; -123.291; -163.475
402.744;   -9.616; -844.297; -813.465
403.035;  141.383; -226.293;  -86.471
403.326;  188.543; -366.292; -384.474
403.617;  212.871;  204.701;  165.539
403.907;  181.928; -593.283; -679.490
404.198; 2103.237; -545.307; -599.446
404.489; 5310.507; -618.283; -588.491
404.779; 1592.675; -618.302; -660.456
405.070;  168.084;  -67.304; -174.451
405.360;  278.985; -259.293; -238.472
405.651;  302.034;  125.699;   98.542
405.942;  107.506;  209.714;  127.516
406.232;   24.743; -432.285; -413.487
406.523;  207.679;  641.706;  758.530
406.813;   -0.242; -579.286; -644.484
407.104;  136.914;  261.708;  144.527
407.394;   14.722; -604.299; -591.462
407.685;  109.967;  336.715;  222.513
407.975;   11.606; -400.283; -382.490
408.265;   78.635; -134.289; -190.478
408.556;   14.471; -472.291; -459.475
408.846;  149.580;  474.706;  429.530
409.137;   48.391;   -1.288; -216.480
409.427;   22.992; -193.285; -271.487
409.717;   -9.254; -776.273; -692.508
410.007;   83.537;    4.715; -170.486
410.298;   62.949; -360.295; -342.469
410.588;   44.040; -495.285; -510.486
410.878;  -24.850; -792.287; -873.482
411.168;   38.327; -481.298; -478.463
411.459;   80.226; -295.283; -242.489
411.749;   28.095; -609.292; -507.474
412.039;   13.015; -755.289; -386.480
412.329;  151.639;   40.722;  132.501
412.619;  126.033;  -62.286; -148.485
412.909;  269.112;  639.711;  594.521
413.199;  192.874; -130.280; -251.495
413.490;  262.730;  521.710;  352.523
413.780;   72.152;-1013.279; -913.496
414.070;  244.503;  -46.276;  235.497
414.360;  204.561; -729.278; -666.498
414.650;  283.372; -726.288; -688.482
414.940;  414.277; -538.280; -441.496
415.230;  751.020;   50.712;   74.519
415.520; 5142.195;  155.730;   66.486
415.809;20154.339; -305.281; -125.493
416.099;15966.721; -388.277; -229.501
416.389; 4653.987;  435.726;  236.494
416.679; 2749.569;   91.738;   85.473
416.969;  422.803; -527.287; -503.483
417.259;  476.204;  341.721;  171.503
417.549;  555.763;  522.718;  318.508
417.838; 1436.983; -205.268; -147.518
418.128; 4868.634;  650.710;  492.522
418.418; 4082.351; -491.272; -579.509
418.708; 2745.587;    9.726;  -48.506
418.997;10288.559; -474.275; -480.505
419.287;10935.918; -733.273; -790.507
419.577;10564.201; -160.283; -123.489
419.866;33459.969; -588.277; -498.501
420.156;33331.267; -242.270;  -55.513
420.446; 5892.138; -112.263;  -26.526
420.735;  532.737; -376.271; -446.512
421.025;  668.910; 1830.722;  315.502
421.314;  340.086; -203.271; -226.512
421.604;  465.877;   89.732;  233.484
421.893;  258.533; -705.271; -602.511
422.183;  136.463; -487.263; -461.526
422.472;  250.059;  -36.271; -107.511
422.762;  235.847; -416.266; -379.521
423.051;  124.804; -916.276; -916.503
423.341;  182.319; -491.273; -439.507
423.630;  255.226; -121.265;   15.477
423.919;  260.534;   58.725;   49.495
424.209;  288.192;  -31.263;   56.473
424.498;  401.906;   68.732;  161.483
424.787;  852.236; -535.267; -601.518
425.077; 2549.425;   34.735;   29.478
425.366; 2877.721; -734.262; -744.528
425.655; 8080.445;  639.727;  259.493
425.945;20087.121; -313.247; -268.554
426.234;11242.889;  117.741;  300.467
426.523; 4318.393;  -86.259; -350.534
426.812; 5975.019;  107.734;  159.480
427.101; 8837.025; -127.269; -323.515
427.390;10617.895;  -55.270;  -86.514
427.680; 1657.433; -624.257; -411.538
427.969;  314.217; -330.255; -301.540
428.258;  188.652; -385.257; -477.536
428.547;  343.004;  449.728;  397.490
428.836;  459.854; -421.253; -398.543
429.125;  647.244; -199.259;  -72.534
429.414;  476.347; -330.251; -294.548
429.703; 2695.847; -231.251; -213.548
429.992; 8159.199; -938.250; -828.549
430.281; 5475.207; -397.264; -331.524
430.570;  407.064;  -21.252;   32.454
430.859;  290.268;  279.741;  352.466
431.148;  326.293;  636.752;  631.446
431.437;  234.614;  391.748;  367.454
431.725;  104.453; -544.257; -481.536
432.014;   72.060; -845.253; -756.545
432.303;  240.377; -149.239; -105.569
432.592;  319.337; -460.263; -178.525
432.881;  840.694; -601.248; -437.554
433.169; 5648.167; -343.255;  -61.540
433.458;11425.478;  445.765;  540.424
433.747; 4672.276; -397.261; -289.529
434.036;  571.333; -275.242; -280.564
434.324; 1692.384; -395.249; -379.551
434.613; 3111.353;   40.757;  159.437
434.902;  970.619;  333.760;  439.433
435.190;  185.626;   75.761;  295.431
435.479;  102.314;  -52.245;   83.441
435.767;   39.920; -411.244; -427.561
436.056;  111.455; -340.242; -294.563
436.345;  267.496; -372.240; -223.568
436.633;  289.480;   60.750;  383.450
436.922;  163.073;  208.760;  414.432
437.210;  151.395; -194.236;    1.426
437.499;  333.951; -583.235; -432.576
437.787;  411.870; -339.236;  -10.574
438.075;  133.930;   56.761;  162.430
438.364;  135.957;  -44.238;  250.429
438.652;   68.163; -286.226; -138.592
438.941;   54.885;    3.770;  269.415
439.229;  -32.638; -665.252; -466.545
439.517;   15.983; -160.234;  -85.577
439.806;  -37.900; -501.225; -290.595
440.094;   98.914;  377.766;  650.421
440.382;   -1.133; -653.233; -302.580
440.670;    4.576; -361.235; -285.576
440.959;  -20.236; -347.223; -170.599
441.247;    6.994; -151.229; -109.587
441.535;   21.857; -266.235;   31.423
441.823;  -32.688; -497.234; -305.578
442.111;  107.498;  173.771;  327.412
442.400;  150.613; -628.245; -335.559
442.688;  369.789; -111.234; -620.579
442.976;  142.982; -786.213; -450.617
443.264;    8.906; -324.224; -364.597
443.552;   30.964; -258.226;   51.408
443.840;  117.856;  602.765;  876.423
444.128;   80.816;  265.767;  269.420
444.416;  -39.275; -694.228; -312.588
444.704;  -16.238; -465.219;  -92.605
444.992;   27.316;   -0.226;  240.407
445.280;  -18.989; -517.230;  -94.585
445.568;  -60.815; -694.212; -396.618
445.856;   85.150; -174.221;  357.398
446.143;  139.909;  -54.220;   -7.604
446.431;  179.852;  -25.228;  625.411
446.719;  143.377;  489.783;  675.391
447.007;  117.907;  481.769;  705.416
447.295;  123.387;  597.777;  871.402
447.583;   29.067; -464.229;  -34.587
447.870;   53.497; -434.221; -202.601
448.158;  140.035; -104.230;  129.415
448.446;   64.635; -800.219; -338.604
448.733;   74.432;   13.776;  269.403
449.021;  117.359;   60.788;  341.382
449.309;   99.471; -296.210;  208.379
449.596;  155.949;  128.783;   59.392
449.884;   93.992; -571.222; -325.600
450.172;  125.807; -756.227; -406.590
450.459;  410.344;  645.786;  780.387
450.747; 2222.573; -411.218; -147.608
451.034; 7164.328;  493.772;  889.411
451.322; 5943.871; -413.214; -170.614
451.609;  483.058;  292.777;  508.403
451.897;  493.320; -550.203; -183.634
452.184; 1554.012; -622.223; -400.598
452.472; 1478.937;   97.792;  269.375
452.759;  232.510;  512.781;  864.395
453.047;   24.432; -407.212; -125.617
453.334;   -4.034; -732.219; -216.606
453.621;  -11.977; -438.214; -161.615
453.909;   52.613;   13.796;  384.368
454.196;   55.649; -299.199; -123.641
454.483;  158.205;  317.798;  540.364
454.771;   87.515; -215.208;  196.374
455.058;    4.317; -316.207;  102.374
455.345;   93.666;   71.807;  344.347
455.632;   65.045; -128.207;  235.373
455.919;   41.566;  -82.196;  182.354
456.207;  -76.023; -774.198; -450.642
456.494;  -41.336; -475.200;  -66.639
456.781;  -23.374; -399.202; -198.635
457.068;    9.825; -253.206;  -29.628
457.355;  -35.449; -698.206; -401.629
457.642;  -13.295; -552.205; -290.630
457.929;  -26.466; -778.194; -417.651
458.216;   39.358; -575.212; -354.617
458.503;  219.563; -173.193;  -19.652
458.790;  210.388; -864.208; -630.625
459.077;  235.555;  -77.202;  110.364
459.364;  691.604; -350.195; -210.649
459.651; 1502.123;  -46.206;  220.372
459.938;  668.431; -864.209; -665.623
460.225;   82.383;  132.799;  276.363
460.512;  -85.061; -836.197; -688.645
460.799;   72.197;  -32.218;  320.392
461.086;   52.993; -370.200; -251.640
461.372;  -23.498; -509.198; -279.642
461.659;   23.742; -165.196;  108.354
461.946;    4.187; -445.193;  -54.651
462.233;  182.991;  842.800;  888.361
462.519;  245.563; -814.201; -464.639
462.806;  838.164; -768.197; -497.645
463.093;  758.878; -445.191;  -66.656
463.380;  -53.740; -920.186; -824.664
463.666;   18.916; -259.197;  -18.646
463.953;   53.750; -406.195; -243.648
464.239;  150.475; -173.195;  -77.648
464.526;  278.108;  413.806;  743.350
464.813;  167.162; -565.190; -304.658
465.099;  225.213;  606.807;  607.348
465.386;  213.241;  903.807;  921.348
465.672;  -36.361; -694.197; -522.645
465.959;   -8.424; -598.188; -520.662
466.245;   -8.709; -468.193; -359.652
466.532;   28.873; -109.195;   63.352
466.818;   -1.890; -357.186; -216.664
467.104;  -52.184; -488.182; -415.672
467.391;  -49.112; -628.189; -459.658
467.677;    1.437; -289.186;    9.335
467.964;  -31.957; -682.189; -471.660
468.250;    4.115; -331.186; -160.665
468.536;   38.939;   90.811;  180.341
468.822;  -58.026; -821.184; -574.668
469.109;  128.803;  351.827;  471.311
469.395;  178.348;  729.808;  787.346
469.681;  140.142;   46.811;  156.341
469.967; 1043.495; -699.188; -382.660
470.254; 2315.651; -494.188; -306.662
470.540; 1519.116; -601.196; -476.646
470.826;  200.924; -488.181; -397.675
471.112;  264.701;  288.816;  113.331
471.398;   51.005; -253.183;  -58.670
471.684;   -0.154; -626.177; -447.680
471.970;  -40.723; -918.180; -981.675
472.256;    6.548; -521.192; -441.654
472.542;  -13.538; -499.171; -434.691
472.828;  -16.687; -743.182; -607.672
473.114;   -0.430; -380.166; -283.700
473.400;  -14.716; -504.175; -293.684
473.686;   -1.425; -452.166; -400.701
473.972;   13.870; -230.174; -131.687
474.258;  -64.872; -925.173; -843.689
474.544;  197.265; -183.178;   -2.679
474.830;  306.960;  -65.175;   45.316
475.116;  482.088; -123.190; -196.658
475.401;  619.004; -558.180; -467.676
475.687;  136.228; -725.180; -718.676
475.973;  -46.506; -673.181; -770.673
476.259;  199.887;  736.825;  764.315
476.544;  298.602; -539.176; -437.682
476.830;  797.434; -398.172; -322.690
477.116;  738.051; -430.177; -336.682
477.401;  129.429;  346.820;  358.324
477.687;  -15.516; -289.175; -405.684
477.973;   18.647;   21.819;   28.326
478.258;  -36.084; -448.163; -348.706
478.544;   24.419;   21.815;   61.334
478.829;  -74.209; -818.171; -738.692
479.115;  -69.642; -749.172; -651.690
479.401;  -22.308; -444.174; -449.686
479.686;   26.253; -253.180;  -74.676
479.972;  -54.231; -886.178; -776.680
480.257;   21.397; -258.166;  -65.700
480.542;    0.194; -614.170; -469.693
480.828;  217.758; 1288.824; 1392.317
481.113;  -44.869; -464.176; -426.683
481.399;  -21.841; -236.161; -202.711
481.684;  -61.804; -620.166; -462.700
481.969;   10.745; -158.159;  -73.713
482.255;  -48.323; -439.169; -285.695
482.540;  -25.131; -569.178; -441.680
482.825;  -10.944; -395.187; -404.663
483.110;   75.305;  -85.169; -105.696
483.396;  193.287; -840.157; -652.718
483.681;  479.845;  543.826;  730.313
483.966;  144.665; -696.160; -700.712
484.251;  -18.080; -404.174; -310.687
484.536;  -28.371; -356.165; -378.703
484.822;    6.797; -205.173; -218.687
485.107;  -42.734; -599.152; -502.726
485.392;  116.809;  662.836;  541.296
485.677;   59.487;  354.832;  163.302
485.962;   83.585;  160.843;  270.283
486.247;   66.972;  -14.162;   -8.707
486.532;   27.097; -178.166; -325.701
486.817;  131.455;  381.839;  431.291
487.102;   56.953; -453.154; -514.722
487.387;  612.013; -637.156; -652.718
487.672; 1127.063; -154.164;  -38.705
487.957;  731.761; -394.160; -286.711
488.241;  209.604; -290.150; -314.729
488.526;  692.167; -280.152; -148.726
488.811; 1135.620; -881.177; -818.680
489.096;  801.030; -666.154; -702.723
489.381;  421.214;    3.847;  162.275
489.666;  358.709; -428.161; -510.710
489.950;  177.282;  558.846;  627.277
490.235;  -45.550; -480.151; -458.728
490.520;  -62.216; -756.161; -723.710
490.804;  -63.010; -827.156; -736.719
491.089;  -12.459; -469.149; -299.732
491.374;   17.262; -132.164;  -75.704
491.658;  -57.550; -817.147; -717.735
491.943;   44.295; -657.152; -609.727
492.227;  114.375; -178.155;  -38.721
492.512;   14.509; -294.157; -341.717
492.797;  -92.089; -713.149; -716.731
493.081;  -76.423; -588.147; -598.735
493.366;  -65.440; -751.161; -635.711
493.650;  189.768;  831.859;  917.254
493.935;    7.850; -648.147; -447.734
494.219;  -54.642; -778.142; -687.743
494.503;  -56.692; -585.150; -487.730
494.788;   25.478;   46.842;   74.285
495.072;  110.830;  184.850;  434.271
495.356;  119.769; -463.148; -343.733
495.641;  272.232; -812.146; -736.736
495.925;  228.943; -976.156; -903.719
496.209;  -18.334; -599.149; -451.732
496.494;  -58.316; -763.142; -544.744
496.778;   -7.397; -364.154; -360.722
497.062;  -70.107; -819.156; -627.719
497.346;  -41.338; -869.160; -640.711
497.631;  140.221;  580.852;  560.266
497.915;   40.390;  -64.145;  175.261
498.199;  -15.013; -341.157; -277.718
498.483;  -22.759; -562.152; -508.725
498.767;  179.231;  301.850;  300.271
499.051;  158.414; -126.149; -100.732
499.335;   11.163; -693.149; -739.731
499.619;  -62.178; -381.129; -423.767
499.903;  -11.876; -272.155;  -65.721
500.187;  -16.141; -588.153; -316.724
500.471;  -46.680; -796.152; -595.727
500.755;   56.784;   62.839;  -96.710
501.039;  -18.526; -270.155; -357.721
501.323;   50.445;  -21.141;  264.254
501.607;  -12.284; -447.163; -503.706
501.891;  -46.962; -607.156; -512.718
502.174;  -53.001; -726.144; -585.741
502.458;   37.698;   89.849;  370.273
502.742;   14.963; -180.138; -191.751
503.026;   98.074; -412.147; -254.734
503.310;  155.719; -437.159; -375.713
503.593;   96.676; -464.147; -325.735
503.877;   49.894; -232.133; -156.760
504.161;   96.010;    2.847;  -50.724
504.444;   83.755; -841.158; -710.716
504.728;  414.311; -487.164; -522.704
505.012;  649.729; -257.150;  -76.729
505.295;  451.360; -417.161; -212.711
505.579;  488.068; -256.156; -496.719
505.862;  717.088; -555.145; -333.738
506.146;  735.246; -681.159; -758.714
506.429;  403.521;  568.841;  461.286
506.713;   34.451; -732.151; -667.728
506.996;  288.328;   90.846;  295.278
507.280;  305.532; -633.165; -474.703
507.563;  216.273; -469.155; -261.721
507.847;   82.234; -423.153; -112.724
508.130;   68.810; -665.161; -456.711
508.413;  102.618; -758.167; -577.700
508.697;  236.393; -151.167;   12.300
508.980;  134.385; -422.153; -312.724
509.263;  -18.830; -466.155; -450.720
509.547;   31.228; -124.150;   82.271
509.830;   30.512; -172.160;  140.289
510.113;   62.443;  128.844;  298.281
510.396;   -1.810; -530.152; -300.725
510.680;  -28.461; -818.145; -812.738
510.963;  156.956;  184.846;  180.277
511.246;   48.859; -493.150; -357.730
511.529;  161.717; -482.145;  -83.739
511.812;  367.717; -250.134;   10.241
512.095;  247.224; -740.151; -396.728
512.378;   37.804; -317.147; -245.736
512.661;   -4.731; -703.137; -623.753
512.944;   12.360; -750.142; -637.744
513.227;   53.692; -170.137; -171.752
513.510;  -13.101; -479.144; -671.741
513.793;  -13.227; -485.140; -435.747
514.076;   74.563;  -43.127;  -39.771
514.359;   75.316; -294.149; -135.732
514.642;   61.437; -442.142; -567.744
514.925;  689.922;  581.860;  561.253
515.208;  922.889; -498.134; -443.758
515.491;  603.649; -276.133; -182.761
515.773;  340.827; -410.143; -337.742
516.056; 1972.374;  249.864;  409.246
516.339; 2453.127; -754.136; -652.755
516.622; 1231.982; -518.150; -488.730
516.904;  414.482;  882.857;  975.257
517.187;   99.741; -730.138; -523.752
517.470;  230.806; -568.143; -510.743
517.752;  392.729; -624.136; -470.756
518.035;  312.456; -708.139; -725.749
518.318;  324.277; -799.136; -744.755
518.600; 2309.377; -300.132; -325.762
518.883; 3203.887;  310.858;   88.256
519.165; 1509.060; -585.138; -426.751
519.448;  269.752;  -61.132;  -19.762
519.730;   81.743; -573.126; -415.773
520.013;  186.221;  588.867;  664.240
520.295;  178.318;  -94.134;  -15.759
520.578;  409.887; -335.131; -305.764
520.860;  569.802; -254.132;   56.238
521.143;  355.256; -763.135; -584.756
521.425;  328.353; -251.125; -279.775
521.707;  568.863; -622.127; -380.771
521.990; 1685.988; -199.127;  167.229
522.272; 1930.474; -116.140;   -4.748
522.554;  744.552; -237.143; -157.742
522.836;  152.366;  -24.134;   99.241
523.119;   81.923; -496.148; -189.734
523.401;   81.167; -448.130; -314.766
523.683;   40.319; -865.137; -693.753
523.965;  255.339;  408.862;  260.248
524.247;  255.670;   54.878;  170.220
524.529;  142.993; -451.134; -367.759
524.812;  309.669;   -3.130;  191.234
525.094;  807.739; -773.138; -631.751
525.376; 1298.785; -143.124;   78.223
525.658;  781.225; -441.136; -339.754
525.940;    3.784; -805.131; -671.764
526.222;  -16.422; -188.136;  -88.755
526.504;   29.908; -190.131;   32.237
526.786;  -32.505; -960.133; -647.760
527.068;   51.015; -124.123;  -67.778
527.349;  -56.053; -865.137; -774.754
527.631;   67.052; -137.132;   22.238
527.913;   93.037; -664.127; -450.771
528.195;  140.048; -761.125; -639.774
528.477;  223.339;  -93.134;  -30.758
528.759;  115.344; -648.130; -522.766
529.040;   46.164; -569.123; -293.778
529.322;   29.825; -235.125;  -10.774
529.604;   33.820;  -47.130;   93.233
529.886;   -6.157; -546.126; -302.773
530.167;   50.089;  232.870;  192.235
530.449;   21.328;    1.853;   63.265
530.731;    6.294; -572.122; -459.779
531.012;   49.185; -513.120; -216.784
531.294;   62.815; -118.116;  -43.792
531.575;  148.753;  290.875;  538.225
531.857;   41.460; -548.135; -266.757
532.138;   72.219; -113.141;   40.254
532.420;   78.682;  294.865;  403.244
532.701;  -22.478; -722.133; -751.760
532.983;  137.999;  232.867;  182.239
533.264;   42.917; -243.126;  175.228
533.546;  -63.723; -491.136; -508.755
533.827;   11.069;  173.867;   -1.759
534.109;  -14.740; -352.135;  -80.757
534.390;   -0.045; -725.132; -582.762
534.671;  165.157; -270.135;  -82.756
534.953;   77.816; -751.123; -611.779
535.234;    4.279; -426.117; -255.789
535.515;  -91.358; -891.119; -735.785
535.796;  -28.966; -431.128; -193.770
536.078; -133.115;-1050.124; -904.777
536.359;  -17.809;  -22.123;    3.221
536.640;  -50.851; -480.125; -197.774
536.921;  103.125;  225.871;  143.232
537.202;  303.461;  -87.138;  -16.751
537.483;  400.012;  251.869;  377.236
537.764;  163.214;   17.870;   98.235
538.045;  -51.412; -543.134; -371.758
538.326;  -56.374; -596.129; -447.768
538.607;   -0.236; -686.127; -476.771
538.888;  155.203;   98.879;    5.218
539.169;  143.524; -704.122; -535.781
539.450;  252.124;  236.871;   16.233
539.731;  139.581; -361.121; -182.783
540.012;   94.935;  199.880;  412.216
540.293;   39.831;   82.876;  158.224
540.574;  -66.944; -895.113; -717.796
540.855;  329.955;  435.879;  377.218
541.136;  407.172;   47.878;  139.220
541.416;  214.819; -161.130; -220.766
541.697;  158.808; -274.131; -170.763
541.978;  975.909; -270.135; -315.757
542.259; 1238.613; -211.127; -236.771
542.539;  581.711; -191.116; -186.790
542.820;  136.978;  461.875;  480.225
543.101;   72.965;  -52.145;  -77.738
543.381;  -44.362; -638.127; -591.771
543.662;  225.361;  159.873; -254.771
543.942;  533.210; -751.127; -830.770
544.223; 1013.748;  193.878;  161.219
544.504;  634.235; -275.124; -182.777
544.784;  497.143; -592.126; -408.773
545.065; 1448.163;  104.884; -254.791
545.345; 1750.117;  227.881;   14.215
545.626; 1195.931;  -14.113; -108.796
545.906;  831.064;   77.869;   98.235
546.186;  337.722;   92.874;  -95.773
546.467;  176.212;   99.877;  -95.778
546.747;  307.260;  264.884;  327.210
547.027;  335.559;   91.876;  111.223
547.308;  281.334; -376.127; -530.770
547.588;  377.326;  299.871;  371.232
547.868;  176.865;  458.870;  588.235
548.149;  192.469;  609.885;  593.207
548.429;  121.337; -347.127; -299.771
548.709;  185.110; -645.120; -461.784
548.989;  472.774;   84.882;   88.213
549.269; 2055.551;   10.868;  139.239
549.550; 4605.790;  215.877;  117.222
549.830; 4115.570; -758.111; -556.799
550.110;  832.600; -468.110; -320.801
550.390;  804.569; -128.122;  -56.779
550.670; 1078.003; -868.114; -783.795
550.950;  778.130; -509.121; -471.782
551.230;  175.127;  549.879;  460.218
551.510;  -23.196; -381.121; -326.782
551.790;   18.282; -173.109; -127.803
552.070;  248.737;  940.877; 1181.223
552.350;  383.070; -492.119; -377.786
552.630;  562.500;   -2.121;   77.219
552.909;  329.639;  181.884;   73.209
553.189;  226.906;  -49.132;   33.237
553.469;  180.620; -703.119; -514.786
553.749;  192.264; -469.127; -357.772
554.029;  167.582;   33.883;  -24.790
554.308;  141.098; -154.115;  -37.794
554.588;   61.908; -196.128; -204.770
554.868;   54.280; -366.121;  -47.782
555.147;  135.920; -114.115;  -46.793
555.427;  577.091; -260.116; -250.792
555.707; 3691.444; -284.115; -200.793
555.986; 4475.172; -719.111; -538.800
556.266; 2395.284;   23.884;   72.210
556.546;   86.279; -888.121; -675.782
556.825;  223.151; -657.114; -556.794
557.105; 1695.957; -125.128;   17.230
557.384; 2001.888;  122.884;  187.209
557.664;  747.290; -717.116; -508.792
557.943;  104.930; -557.121; -411.782
558.222;  172.002; -345.118; -344.788
558.502;  242.496; -116.115;  -76.793
558.781;  440.843;  194.885;  499.208
559.061;  361.276; -232.118; -227.788
559.340;  282.605;  302.883;  353.211
559.619;  700.734;   93.884;  148.210
559.899; 1008.782; -239.117; -266.789
560.178;  920.171; -778.115; -593.793
560.457; 2905.533; -623.117; -562.790
560.736; 4023.723; -472.111; -482.800
561.015; 2716.680; -500.128; -502.769
561.295;  323.922;  180.893;  215.193
561.574;  265.294;  119.885;  116.207
561.853;  410.910;  274.891;  303.197
562.132;  477.623;  -45.114;  182.206
562.411;  434.300;  396.879;  553.219
562.690;  118.618; -592.115; -458.792
562.969;  131.461;  472.888;  630.203
563.248;  507.499; 2966.878; 2487.219
563.527;  264.098; -290.111; -408.800
563.806;  358.662; -650.127; -521.771
564.085;  380.234; -297.105; -206.810
564.364;  224.359; -594.117; -405.790
564.643;  475.201; -276.121; -223.781
564.922; 1779.755;  221.890;  397.198
565.201; 1761.758; -640.109; -700.803
565.479;  765.117; -297.115; -219.792
565.758;  272.657; -810.128; -712.770
566.037;  455.334; -155.109; -100.803
566.316;  215.238; -286.116;  -28.791
566.595;   36.694;  -17.115;  -12.793
566.873;   86.924; -166.111;  -79.801
567.152;  -67.189; -490.113; -590.797
567.431;   -0.240; -113.116;    6.210
567.709;   -0.153; -344.107; -212.807
567.988;  228.551; -810.114; -769.794
568.266;  504.094; -160.115;  -68.793
568.545;  366.495; -644.100; -514.819
568.824;  587.241;  160.885;  356.208
569.102;  562.475; -351.114; -235.794
569.381;  247.591; -492.116; -407.792
569.659;  -45.842; -553.113; -553.796
569.938;   18.297; -743.122; -465.780
570.216;   90.511; -225.109; -225.804
570.494;  -25.847; -632.114; -572.795
570.773;   40.754;  202.879;  114.218
571.051;   -3.961; -373.123; -357.778
571.330;   52.456; -221.113; -174.796
571.608;   24.934; -181.098; -173.823
571.886;  -81.457; -671.111; -581.799
572.164;  -73.070; -739.121; -621.782
572.443;  -65.564; -562.105; -512.811
572.721;  -56.667; -399.117; -289.790
572.999;  -40.172; -280.117; -168.788
573.277;   95.606;  379.894;  620.191
573.555;  262.883;   94.894;   37.190
573.834; 1310.178;  -86.117; -114.788
574.112; 1508.149;  880.893;  811.193
574.390;  458.748; -143.111;  -96.801
574.668;   -1.038;  -91.112;  -61.797
574.946;  -33.992; -165.106; -187.810
575.224;   -0.792;   71.891;  -16.803
575.502;  -21.313; -200.116; -204.791
575.780; -102.987; -767.112; -829.798
576.058;  201.798; 1589.889; 1004.200
576.336;  -27.748; -210.110; -129.801
576.614;  -61.387; -511.112; -340.798
576.891;   33.497; -711.115; -823.794
577.169;  473.717; -158.108; -285.805
577.447;  558.248;  169.893;  202.193
577.725;  262.241;  629.888;  854.201
578.003;   -1.310;  -71.112; -371.798
578.280;   59.243; -208.104; -242.812
578.558;   12.446; -450.115; -422.793
578.836;   65.928; -210.114; -145.795
579.114;   -0.014; -630.112; -670.797
579.391;   44.054;   -6.117;  -18.789
579.669; -101.877; -595.114; -704.794
579.947;  149.746; -326.107; -127.806
580.224;  288.196; -692.107; -524.806
580.502;  293.549;  127.893;   76.193
580.779;   14.384;  -42.117;   75.210
581.057;  -90.314; -584.109; -470.804
581.334; -111.420; -726.102; -695.815
581.612;   38.909;   54.895;  511.190
581.889;  -42.960;  -83.101; -129.818
582.167;  -48.899; -298.099; -190.821
582.444; -116.139; -845.102; -814.817
582.721;  104.086;  657.899;  715.183
582.999;   28.524; -326.100; -167.821
583.276;  501.692; -812.123; -713.779
583.553;  669.532; -364.102; -294.816
583.831;  206.041; -607.104; -631.812
584.108;   53.290;  349.892;  174.195
584.385;    0.754; -122.102;  -98.815
584.662;  -77.900; -651.111; -828.801
584.940;   26.874;  204.889;  204.199
585.217;  -44.642;  -73.113; -303.796
585.494;   19.106;   71.890;  118.198
585.771;  171.487; -250.109; -354.804
586.048;  436.633; -196.113;  -76.796
586.325;  260.101; -721.110; -773.801
586.602;   74.294;  230.896;  213.188
586.879;  -20.904; -499.100; -580.820
587.156;   37.409; -156.105; -331.810
587.433;  -50.066; -701.102; -667.817
587.710;   58.713;  152.888;  234.202
587.987;  267.513; -264.105; -236.811
588.264;  707.364;  315.888;  387.202
588.541; 1209.896;  -61.104;   26.187
588.818; 2376.338;   72.892;  171.196
589.095; 2067.342; -163.104; -174.812
589.371;  317.460; -459.109; -414.804
589.648;  -12.201; -581.107; -437.807
589.925;   16.503; -517.114; -621.795
590.202;   -9.887; -741.112; -607.798
590.478;   76.790; -166.105;  -73.811
590.755;  247.243; -241.108; -132.806
591.032; 2330.128; -741.110; -699.802
591.308; 3219.415; -732.094; -790.831
591.585; 1683.378; -573.110; -560.802
591.862;  135.735;-1056.102; -950.817
592.138;   44.816; -475.108; -474.805
592.415;  109.469; -486.104; -495.813
592.691; 1383.793;  460.896;  518.188
592.968; 1738.985; -208.098; -123.824
593.244;  828.460; -695.116; -595.790
593.521;   56.461; -105.102;  -42.817
593.797;  -33.855; -810.122; -720.780
594.074;  272.370; -611.096; -588.826
594.350;  599.428;  828.905;  729.172
594.626;  259.250; -303.111; -283.801
594.903;   96.436; -643.101; -645.817
595.179;  185.447;  243.896;  418.187
595.455;   -4.050; -136.107; -150.807
595.731;  -20.527;  -19.103;  -38.814
596.008;  -47.055; -464.111; -434.800
596.284;   28.323; -187.100; -242.820
596.560;   42.720; -501.093; -493.833
596.836;  181.661; -173.105;  -70.810
597.112;  295.792; -582.108; -437.805
597.388;  271.418;  -49.097;  -48.826
597.665;   96.210;  437.887;  530.203
597.941;  -79.833; -572.089; -658.839
598.217;  -10.220; -323.110; -293.802
598.493;  225.088;   61.891; -204.804
598.769;  464.769; -175.100;  -50.819
599.045;  269.094; -490.108; -562.806
599.321;   47.322; -193.100; -261.820
599.597;  119.987; -355.109; -476.804
599.872;  444.095;  409.896;  429.187
600.148;  344.944;  -61.097; -172.826
600.424;  280.073;   91.893;  202.193
600.700;  231.174; -170.107; -280.807
600.976;   99.165; -442.097; -464.825
601.252;  238.210; -226.109; -272.803
601.527;  177.446; -833.104; -840.813
601.803;  118.465; -453.105; -404.812
602.079;  158.644; -124.100; -118.819
602.354;  519.577; -620.092; -531.835
602.630;  749.183; -140.113; -482.796
602.906; 2157.315; -910.101; -863.818
603.181; 6099.945; -627.119; -534.786
603.457; 5211.043;   98.903; -278.826
603.733;  781.957; -605.120; -626.783
604.008;  902.309; -245.106; -164.810
604.284; 2857.837; -636.101; -580.817
604.559; 2461.416;   -3.112;  -42.799
604.835;  451.886; -163.105; -225.810
605.110;  343.951; -732.099; -892.821
605.385;  609.322;  224.907;  267.167
605.661;  605.456; -625.095; -729.829
605.936; 1107.469; -664.108; -737.806
606.211;  953.978;  -17.103; -170.815
606.487;  184.674; -329.114; -376.794
606.762;   10.120; -791.119; -745.786
607.037;  -27.714; -501.105; -433.810
607.313;  -56.325; -589.096; -574.828
607.588;  -16.492; -375.106; -137.810
607.863;   31.440;  -28.101; -143.818
608.138;  168.654;  513.890;  516.198
608.413;   26.854; -576.099; -592.822
608.688;   28.366; -203.108; -267.805
608.964;  180.479; -509.106; -218.809
609.239;  209.509; -107.105; -212.810
609.514;  236.865;  281.895;  240.188
609.789;  602.443; -187.104; -716.812
610.064;  784.449; -435.096; -609.827
610.339;  823.310; -855.109; -799.804
610.614; 1102.898; -131.100; -315.820
610.889;  640.190;  215.895;  107.188
611.163;   40.116; -407.104; -591.812
611.438;   61.475;   81.886; -167.794
611.713;  -17.663; -467.101; -499.817
611.988;   44.764; -144.101; -328.818
612.263;  -32.945; -771.102; -717.815
612.538;  203.257;  385.887;  251.204
612.812;  151.674; -832.100; -911.820
613.087;  119.583; -358.098; -338.823
613.362;  -60.625; -497.107; -557.807
613.637;   47.825;  261.897;  138.186
613.911;  -20.122; -256.092; -345.835
614.186;  119.523; -249.107; -292.807
614.460;  639.975; -842.081; -758.854
614.735;  747.510;  -55.087;  -17.843
615.010;  139.127;   43.912;  -82.841
615.284;  216.941;  360.892;  246.195
615.559;  333.477; -792.092; -955.835
615.833;  270.153;  -76.099;  -87.822
616.108;   -7.164; -225.090; -390.837
616.382;  134.511;  274.913;  402.156
616.656;  150.736; -241.090; -232.837
616.931;  440.903; -785.099; -700.822
617.205;  988.697; -973.104; -979.813
617.480;  934.552;  -91.125;    6.225
617.754;  138.150; -396.125; -128.774
618.028;    3.127; -369.129; -382.768
618.302;   61.740;   73.892;  -25.805
618.577;  -62.224; -371.103; -518.815
618.851;  -73.168; -399.109; -600.803
619.125;  -58.632; -335.134; -378.759
619.399;  -19.403; -244.104; -374.813
619.673;  -57.234; -330.115; -515.792
619.947;  -48.847; -333.114; -448.795
620.222;  -15.175; -198.110; -204.801
620.496;  -18.945;  -47.121;  -96.782
620.770;    6.949; -187.122;  -93.781
621.044;  191.034;  323.895;  346.190
621.318;  669.657; -653.120; -614.783
621.592;  639.256; -430.121; -409.783
621.866;  329.767; -476.112; -572.799
622.140;   23.361; -207.116; -356.791
622.413;   40.620;  138.889;  112.200
622.687;  -62.938; -746.101; -492.817
622.961;   11.315; -130.108; -143.805
623.235;  -68.879; -633.111; -661.800
623.509; -122.485; -816.105; -848.811
623.783;   -2.329;  -12.107;   48.193
624.056;  -19.342; -254.120; -280.783
624.330;   51.287;   63.888;   -3.797
624.604;   40.159; -271.116; -355.790
624.877;   56.554;  180.890;   26.198
625.151;   24.049; -249.114; -238.794
625.425;  -50.852; -150.103; -283.814
625.698;  -86.060; -367.119; -374.785
625.972; -103.819; -799.110; -765.802
626.245;   69.660;  685.884;  484.210
626.519;  -65.364; -426.120; -340.784
626.792;  -24.001; -192.107; -380.807
627.066; -108.332; -485.122; -662.779
627.339; -107.873; -736.110; -663.802
627.613;   38.260;  351.880;  148.216
627.886;  -57.943;  187.891; -612.803
628.160;  -23.768;  312.880; -161.783
628.433; -106.771; -695.125; -703.775
628.706;  -83.814; -517.120; -615.784
628.979;   23.284;  296.876;  117.223
629.253;  -89.731; -785.119; -833.786
629.526;  337.842; -334.126; -253.772
629.799;  316.939; -641.123; -479.778
630.072;  155.353; -497.128; -516.769
630.346;  -70.140;-1115.116;-1080.790
630.619;  422.850; -467.107; -545.808
630.892;  573.796;  709.889;  593.200
631.165;  304.047;  790.896;  679.187
631.438;  -99.035;-1092.112;-1055.798
631.711;   43.792;  453.877;  257.221
631.984;  -52.918; -523.117; -624.789
632.257;  -73.621; -636.117; -681.789
632.530;  -55.884; -412.119; -433.785
632.803;    5.347; -109.115;    7.207
633.076;  -72.713; -360.123; -422.777
633.349;   15.281;  173.872;  121.231
633.622;  -47.935; -187.119; -240.785
633.895; -130.492; -903.120; -823.783
634.167;  -69.807; -496.126; -525.773
634.440;  -21.060;  -19.116; -137.792
634.713;  -19.282;  -22.119; -120.786
634.986;   69.173;  593.871;  453.233
635.258;  -79.254; -507.115; -597.793
635.531;  107.076;  742.882; -343.788
635.804;  -48.119; -303.117; -318.789
636.077; -117.963; -830.116; -852.791
636.349;  -25.206; -586.115; -474.793
636.622;  382.766; 1695.874; 1392.228
636.894;  200.937; -474.120; -909.784
637.167;  131.062; -836.127; -789.771
637.439;   13.609; -278.128; -213.770
637.712;  -47.857; -312.126; -293.772
637.984; -100.887; -635.116; -707.791
638.257;  352.837;  515.877;  488.222
638.529;  481.830; -881.125; -924.776
638.802;  198.003; -508.128; -449.769
639.074; -130.552; -927.122; -952.781
639.346; -141.664; -942.135; -930.757
639.619;  -15.789;  -79.142; -319.744
639.891;  -37.607;  -83.122; -168.779
640.163;  -91.105; -689.122; -756.780
640.435;   28.396;  273.878;  103.220
640.708;  -11.152;  -72.122; -132.780
640.980;  -40.301; -366.122; -362.781
641.252;  159.750;  -25.121;  -71.781
641.524; 1534.202;  580.879;  573.219
641.796; 1507.128;-1094.121; -907.782
642.068;  254.205; -191.121; -300.782
642.340;  -67.494; -486.121; -566.783
642.613;   24.757;  294.880;  323.217
642.885;  -93.416; -787.120; -878.783
643.157;  -66.740; -810.120; -658.784
643.428;   38.612;  170.880;  218.216
643.700;  -74.237; -498.120; -425.784
643.972;  -43.810;  -16.119; -133.785
644.244; -106.034; -474.119; -559.785
644.516;  -48.558; -250.119; -114.786
644.788;   68.344;  662.881;  548.214
645.060;  -30.880;  -12.119; -124.786
645.332; -107.903; -525.118; -535.787
645.603;   25.073;  479.882;  342.213
645.875; -107.676; -334.118; -369.787
646.147;  167.501; 1487.882; 1242.212
646.418;  -73.223; -931.117; -918.788
646.690;  128.979; -714.117; -715.789
646.962;   31.280; -413.117; -451.789
647.233;  -15.069;   15.883;   11.211
647.505; -106.217; -595.117; -475.790
647.776;   18.359;  328.884;  229.210
648.048;  -27.314; -248.116; -418.790
648.320;  -93.763; -752.116; -679.791
648.591; -160.086;-1055.116; -958.791
648.862;  -96.135; -505.116; -577.792
649.134;   16.941;  115.885;  198.208
649.405;  -46.357; -661.115; -618.792
649.677;  -57.981; -475.115; -598.793
649.948;  -14.029; -181.115; -296.793
650.219;   -9.753;  -37.115; -147.793
650.491;  -93.777; -431.114; -520.794
650.762; -123.650; -705.114; -731.794
651.033;  -95.499; -437.114; -424.795
651.304;  -89.697; -743.114; -728.795
651.576;  -84.121; -680.114; -645.795
651.847;  -49.795; -250.113; -140.796
652.118;  -28.643;  -32.113; -189.796
652.389; -110.292; -639.113; -722.796
652.660;  -39.540; -147.113;  -89.797
652.931; -149.664; -897.112; -871.797
653.202;  -91.087; -382.112; -541.798
653.473;  -75.236; -633.112; -533.798
653.744;  133.990; -595.112; -590.798
654.015;  107.917; -356.112; -303.799
654.286;  -68.482; -642.111; -663.799
654.557;  -51.030; -586.111; -521.799
654.828; -160.804;-1114.111;-1088.800
655.099;  -82.678; -404.111; -291.800
655.370;  -90.001; -427.111; -543.801
655.641; -122.175; -656.110; -714.801
655.911; -126.048; -618.110; -638.801
656.182;   39.178;  437.890;  387.198
656.453;   95.879;  830.890;  746.198
656.724;  -94.544; -466.110; -426.802
656.994;  -75.268; -553.109; -568.803
657.265; -113.691; -862.109; -873.803
657.536;  -91.940; -500.109; -377.804
657.806; -118.713; -561.109; -593.804
658.077; -152.962; -866.109; -950.804
658.347;  -82.986; -523.108; -598.805
658.618; -120.859; -646.108; -694.805
658.888;  -30.233;  -41.108;  112.195
659.159;  -87.556; -432.108; -548.806
659.429;  -35.105; -292.108; -349.806
659.700;   12.546; -435.107; -390.807
659.970;  -13.052; -370.107; -359.807
660.241;    3.899; -754.107; -921.807
660.511;  446.076; -147.107; -174.808
660.781;   74.777; -793.106; -748.808
661.052;  -49.047; -222.106; -381.808
661.322;  -24.870;   21.894;   -9.809
661.592;   22.531;  257.894;  148.191
661.862;  -77.567; -369.106; -382.810
662.133; -101.366; -551.105; -502.810
662.403; -137.289; -770.105; -676.810
662.673;  -42.888; -256.105; -213.811
662.943; -109.237; -612.105; -551.811
663.213;  -11.710;  -85.105;  -81.811
663.483;  -88.434; -593.104; -568.812
663.753;  -55.332; -194.104; -152.812
664.023;  -13.056;   68.896;  -32.813
664.293;  -66.430; -319.104; -126.813
664.563; -121.278; -694.104; -648.813
664.833; -127.802; -743.103; -608.814
665.103; -133.500; -730.103; -793.814
665.373; -130.074; -766.103; -806.814
665.643;  -93.398; -863.103; -918.815
665.913;   14.829; -534.103; -714.815
666.182;  112.080; -685.102; -719.816
666.452;  242.457;  -22.102;  -89.816
666.722;  -44.042; -724.102; -784.816
666.992; -129.165; -948.102; -921.817
667.261;  -99.364; -824.102; -808.817
667.531;  177.537;  134.899;   45.183
667.801;  467.264; -440.101; -412.818
668.070;  222.740;  714.899;  697.182
668.340; -113.283; -883.101; -840.819
668.609;   93.418;  588.900;  301.181
668.879;  -88.481; -490.100; -558.819
669.149;  -82.129; -539.100; -516.820
669.418; -108.903; -698.100; -726.820
669.688;  -41.051; -482.100; -666.820
669.957;   44.200; -423.099; -546.821
670.226;  -42.549; -268.099; -331.821
670.496; -108.947; -431.099; -635.822
670.765;  -66.096; -418.099; -501.822
671.034; -137.519; -872.099; -828.822
671.304;  -14.943;   55.902; -111.823
671.573; -155.841;-1085.098; -957.823
671.842;   50.785; -380.098; -294.823
672.112;    3.511; -692.098; -586.824
672.381;    0.263; -239.098; -214.824
672.650; -145.211;-1005.097;-1021.825
672.919;  -99.784; -631.097; -507.825
673.188;  -92.758; -681.097; -878.825
673.457; -163.107;-1101.097;-1143.826
673.726;  -89.755; -579.096; -646.826
673.995;  -48.629; -533.096; -479.826
674.265;  -33.752; -263.096; -333.827
674.534;    6.374; -183.096; -235.827
674.802;   -9.400; -618.096; -703.828
675.071;  952.927; -886.095; -801.828
675.340; 3567.403; -464.095; -339.828
675.609; 1183.355;  103.905;   82.171
675.878;   55.606; -949.095; -893.829
676.147;   20.833;  -26.095;   -8.829
676.416;   75.184; -210.094; -294.830
676.685;  695.785; 1000.906; -622.830
676.953;   84.862; -603.094; -452.831
677.222;  -30.512; -193.094; -273.831
677.491;  -31.410;  -24.094; -127.831
677.759;  -18.509;   11.907;  172.168
678.028;  -29.208; -279.093; -222.832
678.297;  -12.506;   71.907;  197.168
678.565; -158.155; -898.093; -944.833
678.834;  -59.903; -311.093; -268.833
679.102;  -82.227; -411.092; -391.834
679.371; -143.651; -898.092; -727.834
679.639; -141.824; -797.092; -786.834
679.908; -124.023; -794.092; -724.835
680.176; -156.996; -895.091; -941.835
680.445;  -78.020; -346.091; -352.835
680.713;  -20.368;  -58.091;  -23.836
680.982; -105.417; -523.091; -525.836
681.250; -108.216; -578.091; -507.837
681.518; -104.589; -534.090; -751.837
681.787;  -38.813; -204.090; -167.837
682.055;  -69.111; -490.090; -422.838
682.323; -155.810; -993.090; -992.838
682.591;   23.991; -216.090; -538.838
682.859;   68.543;    9.911;  -35.839
683.128;    7.969;  232.911;  497.161
683.396; -186.729;-1102.089;-1122.840
683.664;  -58.403; -241.089;   21.160
683.932;   -3.577;  144.911;  -76.840
684.200;  -98.075; -576.088; -320.841
684.468;  -37.524;  -73.088; -124.841
684.736;  -42.322; -214.088; -175.841
685.004; -130.246;-1024.088; -982.842
685.272;  -59.069; -880.088; -774.842
685.540;  -77.893; -499.087; -557.843
685.808;  -95.467; -651.087; -682.843
686.076; -113.015; -894.087; -969.843
686.343;  -61.764; -601.087; -815.844
686.611;   36.538; -195.087; -224.844
686.879;  443.214; -530.086; -553.844
687.147; 2972.490; -483.086; -480.845
687.414;  826.767;  -12.086; -169.845
687.682;  -18.107; -658.086; -757.846
687.950;  293.195;  259.915;  263.154
688.217;   -7.129; -792.085; -760.846
688.485;  -26.152; -632.085; -636.847
688.753;  492.649;  -11.085; -102.847
689.020;  128.675; -820.085; -851.847
689.288; -113.373; -853.084; -787.848
689.555;  -28.847; -195.084; -148.848
689.823;  -51.295; -241.084; -345.849
690.090;  -99.944; -546.084; -651.849
690.358; -152.968; -877.084; -897.849
690.625;    2.609;  120.917;   45.150
690.892;  -82.465; -403.083; -369.850
691.160;  -29.838;   72.917;  -35.850
691.427;   -2.362;  141.917;  130.149
691.694; -141.211; -855.083; -929.851
691.962; -167.234;-1177.082;-1060.852
692.229;   -7.508;  127.918;   56.148
692.496;   75.019;  130.918;  -49.852
692.763;   -1.855; -164.082; -201.853
693.031;  -96.378; -739.082; -716.853
693.298;  -64.802; -509.081; -368.853
693.565;  269.299; -155.081; -163.854
693.832; 1131.076;   -5.081;   -9.854
694.099;  101.827; -643.081; -642.855
694.366;  -90.621; -882.081; -896.855
694.633;  -81.970; -920.080; -633.855
694.900;  735.681; 4367.920; -114.856
695.167;  360.958; -214.080; -380.856
695.434;   46.534; -646.080; -623.856
695.701;  145.761;  121.921;  -61.857
695.968;  366.862; -365.079; -361.857
696.234;  744.813; -415.079; -646.858
696.501; 7413.040; -776.079; -614.858
696.768; 3637.366; -554.079; -617.858
697.035;  180.218; -632.078; -667.859
697.302;   -5.381; -448.078; -552.859
697.568;  -14.504; -458.078; -497.859
697.835;  -81.603; -683.078; -624.860
698.102;  -46.702; -498.078; -407.860
698.368;   50.425;  384.923;  396.139
698.635;  -47.024;  -47.077; -424.861
698.901;  -33.922; -240.077; -348.861
699.168;   42.129; -534.077; -456.862
699.435;   30.205;  -72.077;  -13.862
699.701; -133.943; -868.076; -764.862
699.968;  -56.167;  144.924; -441.863
700.234; -105.115; -783.076; -822.863
700.500;  -61.189; -448.076; -539.864
700.767;  -10.938;   -1.075;   26.136
701.033; -140.511;-1015.075; -963.864
701.299;  -62.635; -450.075; -483.865
701.566;  105.692;  950.925;  763.135
701.832;   24.018;  -31.075;  -76.865
702.098; -122.955;-1054.074;-1034.866
702.365; -124.254;-1098.074;-1030.866
702.631;  -49.678;-1038.074;-1063.867
702.897; 1188.874; -765.074; -676.867
703.163; 1889.950;  348.926;  254.133
703.429;  113.602; -256.073; -273.868
703.695;  -48.297; -796.073; -792.868
703.961;    5.004; -214.073; -210.868
704.227;  -75.094; -630.073; -725.869
704.493;  107.407;  613.927;  510.131
704.759;  -46.841; -565.072; -540.870
705.025;    6.385; -203.072; -194.870
705.291;  -40.839; -666.072; -562.870
705.557;  167.113;  719.928;   34.129
705.823;  -12.311; -742.072; -694.871
706.089;   77.516; -307.071; -326.871
706.355;  260.442; -315.071; -244.872
706.620; 4001.619; -776.071; -729.872
706.886; 5771.295; -309.071; -362.873
707.152;  533.246; -818.070; -973.873
707.418;  -69.127;-1153.070;-1186.873
707.683;  -26.176; -550.070; -530.874
707.949;  -57.824; -547.070; -578.874
708.215;  -13.098; -129.070; -207.874
708.480;  -56.447; -520.069; -420.875
708.746;   74.680;   68.931;   28.125
709.011;  -63.194; -578.069; -612.876
709.277;  -89.767; -538.069; -543.876
709.542;  -74.516; -428.069; -387.876
709.808;  -12.640;  -59.068;   89.123
710.073;  -99.138; -577.068; -695.877
710.339;  -41.987; -242.068; -228.877
710.604;   53.365; -780.068; -845.878
710.869;  238.541; -277.068; -366.878
711.135;  -89.332; -715.067; -628.879
711.400;  -98.731; -507.067; -608.879
711.665;  -86.780; -404.067; -479.879
711.931;  -99.778; -661.067; -677.880
712.196; -133.452; -876.067; -954.880
712.461;   89.800; -402.066; -490.880
712.726;   93.651; -727.066; -771.881
712.991; -110.123; -647.066; -664.881
713.256;  -56.921; -350.066; -332.882
713.521;  -68.395; -417.065; -381.882
713.787;  -75.993; -454.065; -472.882
714.052;  -42.892; -214.065; -400.883
714.317; -107.441;-1045.065; -981.883
714.581;  850.736; -374.065; -268.883
714.846; 1070.837; -822.064; -888.884
715.111;  102.964;  261.936;  257.116
715.376;  -23.660;  -86.064; -223.885
715.641;  -26.858; -365.064; -367.885
715.906;  237.018;   15.936; -551.885
716.171;  124.669;  221.937;  209.114
716.436;   30.446;  -78.063; -104.886
716.700; -118.078; -818.063; -692.886
716.965; -139.501; -794.063; -807.887
717.230;  -65.000; -339.063; -392.887
717.494;  -22.224;  -40.062; -134.888
717.759; -104.497; -784.062; -640.888
718.024;   -7.471;  269.938;  250.112
718.288;   55.431;  685.938;  395.111
718.553; -165.718; -803.062; -977.889
718.817; -159.467; -883.061; -899.889
719.082;  -35.615; -115.061; -125.890
719.346; -151.689;-1000.061; -947.890
719.611;  -58.162; -300.061; -255.891
719.875; -104.261; -568.060; -537.891
720.140;  -81.334; -453.060; -603.891
720.404;   18.292; -136.060; -249.892
720.668;  786.893; -475.060; -411.892
720.933;  282.820;  146.940;  137.108
721.197; -103.829; -667.059; -600.893
721.461; -135.127; -851.059; -826.893
721.725;   -7.976;  -21.059; -250.894
721.990;  -67.350; -284.059; -204.894
722.254;  -32.773;  -26.059; -108.894
722.518;  -74.172; -286.058; -442.895
722.782;  -98.445; -743.058; -594.895
723.046;  114.331;  614.942;  570.105
723.310;   15.582;  374.942;  210.104
723.574; -110.216; -654.058; -614.896
723.838; -117.440; -576.057; -642.897
724.102;  -54.613; -226.057; -239.897
724.366; -153.537;-1032.057; -978.897
724.630; -107.810; -749.057; -571.898
724.894;  -93.109; -722.057; -514.898
725.158;  -31.583;   38.944; -295.898
725.422;  -81.456; -394.056; -327.899
725.685;  -86.805; -441.056; -349.899
725.949;  -86.803; -566.056; -519.900
726.213;  -92.202; -732.056; -811.900
726.477;  146.349;-1020.055; -933.900
726.740;  121.251; -274.055; -104.901
727.004;  287.427; -384.055; -510.901
727.268; 2677.129; -442.055; -400.901
727.531;  663.605; -961.055; -775.902
727.795;  -73.319; -713.054; -673.902
728.059;  -82.292; -552.054; -557.903
728.322;  -85.691; -841.054; -669.903
728.586;   12.511; -692.054; -701.903
728.849;  -88.788; -695.053; -756.904
729.112; -130.986; -812.053; -912.904
729.376; -126.560; -959.053; -905.904
729.639;  -73.509; -536.053; -536.905
729.903; -122.832; -733.053; -699.905
730.166;  -62.306; -437.052; -399.906
730.429;  -42.654; -317.052; -468.906
730.693;  -72.128; -355.052; -894.906
730.956;  202.773;  810.948;  651.093
731.219;  613.925; -310.052; -103.907
731.482;   97.376;-1003.051; -894.907
731.745;   54.903; -794.051; -935.908
732.009;    3.879;  -30.051;   50.092
732.272; -111.970; -904.051; -771.909
732.535;  -55.118; -300.051; -310.909
732.798; -172.292;-1083.050;-1166.909
733.061;  -62.790; -430.050; -456.910
733.324;   -9.314;   31.950; -180.910
733.587;   62.688;  290.950;  365.090
733.850;  -86.286; -973.049;-1050.911
734.113;   25.040;   33.951;   32.089
734.376;  -11.783; -328.049; -447.912
734.639;  210.793; 1188.951; 1011.088
734.901;   46.445; -180.049; -402.912
735.164;  453.571; -883.048; -837.913
735.427; 1136.022; -166.048; -355.913
735.690;   67.449; -205.048; -234.913
735.952;  -77.500; -923.048; -925.914
736.215;  -49.948;-1113.048;-1009.914
736.478;   -6.697; -771.047; -774.915
736.740;  183.479;   33.953;  129.085
737.003;  630.081; -658.047; -672.915
737.266; 3607.207;  -94.047;   46.084
737.528;  348.384; -682.047; -660.916
737.791;  244.410; -316.046; -327.916
738.053;  662.612;  465.954;  649.083
738.316; 8874.238; -162.046; -136.917
738.578; 5807.939; -770.046; -736.918
738.841;  326.791; -382.046; -446.918
739.103;  109.767; -875.045; -777.918
739.365;  413.294;   79.955;  -69.919
739.628;  -27.880; -884.045; -805.919
739.890;  -46.529; -758.045; -710.919
740.152;  -67.002; -692.044; -754.920
740.414;  -17.501; -408.044; -359.920
740.677;  -70.924; -785.044; -634.921
740.939;  -63.923; -587.044; -487.921
741.201;  229.353; -432.044; -572.921
741.463;   -4.070; -689.043; -745.922
741.725;    3.906;  -21.043; -199.922
741.987;   31.308;  220.957;  116.078
742.249;  -15.666; -751.043; -859.923
742.511;  192.111; -703.043; -794.923
742.773;   -7.238; -546.042; -546.924
743.035;  108.988;  796.958;  533.076
743.297;  -61.960; -963.042;-1013.924
743.559;  615.416; -278.042; -262.925
743.821;   19.243; -735.042; -744.925
744.083;   -2.756;  -44.041; -149.925
744.345; -107.880; -869.041; -892.926
744.607;   28.422;   75.959;  122.074
744.868;  -68.577; -490.041; -554.927
745.130; -124.000; -994.041;-1008.927
745.392;   21.976;   -1.040;  -44.927
745.653;  -31.398; -411.040; -378.928
745.915;  141.404;  896.960;  631.072
746.177;   33.080;   35.960;  -43.928
746.438;  -33.693; -428.040; -543.929
746.700;  -74.517; -947.039; -988.929
746.961;  -18.640; -659.039; -740.930
747.223;   95.361; -190.039;  -74.930
747.484;   65.137; -391.039; -471.930
747.746;  113.414;  -23.038; -106.931
748.007;   68.565; -647.038; -689.931
748.269;  272.567; -468.038; -440.931
748.530;  414.218; -852.038; -638.932
748.791;  215.419; -354.038; -420.932
749.053;  397.546;  286.963;  163.067
749.314;  376.522; -236.037; -169.933
749.575;  399.774; -945.037; -905.933
749.836;  721.475; -217.037;   86.066
750.098; 2289.076;  -60.037;  -21.934
750.359;32577.303;  414.964;  555.066
750.620; 7674.304; -121.036; -220.935
750.881;  868.756; -585.036; -513.935
751.142; 1149.082; -950.036; -938.936
751.403;14344.459; -789.036; -705.936
751.664; 5829.435;-1034.035; -999.936
751.925;  389.786; -175.035; -262.937
752.186;  209.788; -298.035; -278.937
752.447;   95.564; -590.035; -445.937
752.708;   30.866; -532.035; -648.938
752.969;  -20.858; -566.034; -576.938
753.230;  -41.357; -777.034; -672.939
753.491;  -24.255; -650.034; -631.939
753.751;   37.496;  109.966;   19.061
754.012;   72.923;  258.967;  181.060
754.273;   37.749; -174.033;  -71.940
754.534;  -15.450; -487.033; -580.940
754.794;  -95.323; -926.033; -911.941
755.055;  130.803; 1051.967;  881.059
755.316;  -69.945; -700.032; -566.942
755.576;  -28.969; -606.032; -576.942
755.837;  -67.392; -527.032; -695.942
756.097;  -57.566; -530.032; -564.943
756.358;  -87.815; -725.032; -770.943
756.618;  -71.763; -705.031; -641.943
756.879;   -7.112; -254.031; -349.944
757.139; -145.685;-1098.031;-1116.944
757.400;  -55.909; -538.031; -553.945
757.660;  -38.633; -365.031; -401.945
757.920;   -3.956; -266.030; -228.945
758.181;  -30.955; -468.030; -351.946
758.441; -111.303; -870.030; -809.946
758.701;  -39.577; -308.030; -215.946
758.961;  -38.651; -220.030; -278.947
759.222;  -73.399; -574.029; -502.947
759.482;  -88.973; -683.029; -723.948
759.742; -108.346; -706.029; -547.948
760.002;   -5.120;  -83.029; -143.948
760.262;    5.532;   50.972;  182.051
760.522;  -69.267; -498.028; -574.949
760.782;  -82.516; -738.028; -612.949
761.042;  -71.914; -618.028; -573.950
761.302;   18.387;   55.972;  -18.950
761.562;    5.889; -164.027; -154.951
761.822;   22.515; -710.027; -551.951
762.082;  -93.159;-1104.027;-1093.951
762.342;   11.018; -328.027; -403.952
762.601;    0.544; -567.027; -506.952
762.861;  247.721; -281.026; -207.952
763.121;  203.047; -406.026; -411.953
763.381; 4385.674; -499.026; -485.953
763.640; 4411.075; -139.026; -307.954
763.900;  180.851; -242.026; -203.954
764.160;   14.178; -458.025; -491.954
764.419;  -72.721; -726.025; -782.955
764.679; -107.494; -795.025; -726.955
764.939;  -32.993; -124.025; -210.955
765.198;  -98.242; -608.025; -563.956
765.458; -124.890; -710.024; -612.956
765.717; -118.514; -454.024; -590.957
765.976;  -78.937; -428.024; -411.957
766.236;  -89.261; -475.024; -610.957
766.495;    6.965;  260.977;   73.042
766.755; -114.933;-1090.023; -987.958
767.014;  -16.132; -594.023; -665.958
767.273;  -66.230; -373.023; -397.959
767.533;  -59.404; -228.023; -307.959
767.792;  -52.677; -151.022; -188.960
768.051;  -75.551; -228.022; -276.960
768.310; -100.150; -546.022; -650.960
768.569;  -28.098; -161.022;    4.039
768.828;  -40.497; -285.022; -363.961
769.088; -130.445;-1050.021; -942.961
769.347; -108.069; -755.021; -599.962
769.606; -118.568; -876.021; -857.962
769.865; -159.116;-1016.021;-1033.963
770.124;  -25.615; -411.021; -336.963
770.383;  -88.863; -778.020; -910.963
770.641;  -30.187; -398.020; -400.964
770.900; -115.636; -953.020; -846.964
771.159;  -99.759; -851.020; -951.964
771.418;  -69.783; -917.020; -779.965
771.677;   37.594; -224.019; -293.965
771.936;   22.220; -794.019; -865.966
772.194; 1586.972; -465.019; -437.966
772.453; 7278.798; -213.019; -391.966
772.712;  490.824;  416.982;  329.033
772.970;   54.251;   32.982;   63.033
773.229;   45.377;  -22.018;  102.033
773.488; -117.846; -814.018; -770.968
773.746;   37.980;  296.982;  335.032
774.005;  -16.744;  190.983;  -22.969
774.263;  -12.467;  243.983;  177.031
774.522; -114.341; -422.017; -548.969
774.780; -111.739; -484.017; -417.970
775.039;  -96.513; -551.017; -531.970
775.297;  -42.312; -135.016; -351.970
775.555; -112.610; -489.016; -612.971
775.814; -131.834; -618.016; -570.971
776.072; -143.582; -749.016; -740.971
776.330; -108.306; -630.016; -520.972
776.589; -134.454; -703.015; -721.972
776.847; -142.628; -645.015; -624.973
777.105; -180.827;-1016.015;-1032.973
777.363;  -91.550; -459.015; -454.973
777.621; -156.649; -660.015; -717.974
777.879;  -29.172;  -42.014;   32.026
778.138; -103.521; -554.014; -717.974
778.396; -124.770; -585.014; -526.975
778.654; -174.943;-1015.014; -970.975
778.912;  -84.242; -269.014; -371.976
779.170; -163.140; -880.013; -803.976
779.427; -160.839; -922.013; -897.976
779.685; -143.488; -880.013; -832.977
779.943;  -95.736; -654.013; -593.977
780.201; -166.935; -964.012; -883.978
780.459; -134.058; -651.012; -610.978
780.717;  -92.657; -440.012; -390.978
780.974; -106.830; -449.012; -490.979
781.232;  -82.579; -358.012; -338.979
781.490;  -88.078; -551.011; -472.979
781.747; -112.176; -555.011; -476.980
782.005;    4.200;  462.989;  254.020
782.263; -177.273; -542.011;-1004.981
782.520; -104.447; -326.011; -501.981
782.778; -178.821;-1013.010;-1051.981
783.035; -181.094; -962.010; -938.982
783.293;  -74.118; -248.010; -206.982
783.550;  -67.591; -134.010; -198.982
783.808; -151.265; -764.010; -776.983
784.065; -161.314; -745.009; -874.983
784.322;  -49.012;   25.991;  -86.984
784.580; -156.111; -915.009; -771.984
784.837;  -96.309; -392.009; -466.984
785.094; -137.733; -783.009; -762.985
785.352;  -73.531; -304.008; -404.985
785.609; -112.830; -934.008; -839.985
785.866;  -98.279; -345.008; -401.986
786.123;  -92.552; -639.008; -583.986
786.380; -108.351; -665.008; -604.987
786.637;  -36.174; -225.007; -380.987
786.895;  -44.798; -456.007; -543.987
787.152;  -58.897; -135.007; -267.988
787.409;  -56.720; -123.007; -225.988
787.666;  -91.944; -299.006; -378.988
787.923; -122.717; -616.006; -695.989
788.179; -114.641; -551.006; -584.989
788.436; -116.340; -585.006; -585.990
788.693;  -36.688;  -92.006;  -87.990
788.950;  141.313; -125.005; -112.990
789.207;  193.865; -381.005; -372.991
789.464;  -55.084; -161.005; -301.991
789.720;  -29.757;  150.995;  110.009
789.977; -186.931;-1003.005; -671.992
790.234;  -36.955;   44.996;  -66.992
790.490; -161.903; -884.004;-1031.993
790.747;  -31.327;  -85.004;   22.007
791.004;  -26.825; -426.004; -348.993
791.260;  -92.874; -430.004; -560.994
791.517; -121.048; -843.003; -788.994
791.773;  -60.121; -379.003; -342.994
792.030; -127.720; -596.003; -660.995
792.286; -125.293; -686.003; -636.995
792.543;  -26.192;  -74.002; -159.995
792.799;  -67.491; -584.002; -382.996
793.055; -186.839;-1179.002;-1210.996
793.312; -135.888; -827.002; -816.997
793.568;  -94.061; -746.002; -599.997
793.824;  -18.760; -226.001; -284.997
794.081;  -33.833; -447.001; -508.998
794.337;    2.393; -664.001; -561.998
794.593;  870.469; -319.001; -271.999
794.849; 3915.521; -746.001; -772.999
795.105;  150.872; -270.000; -261.999
795.361;  -45.801; -490.000; -457.000
795.617; -105.575; -875.000; -945.000
795.873;  -72.100; -360.000; -407.000
796.129;  -52.525; -368.000; -306.000
796.385;  -35.175; -124.000; -156.000
796.641;   35.450;  412.000;  550.000
796.897;  -98.750; -666.000; -635.000
797.153;   40.200;  453.000;  357.000
797.409; -122.925; -785.000; -868.000
797.665; -105.625; -625.000; -732.000
797.921; -109.275; -775.000; -762.000
798.176;  -90.200; -744.000; -747.000
798.432;  -88.550; -824.000; -596.000
798.688; -103.325;-1174.000;-1078.000
798.943;   37.775; -165.000; -147.000
799.199;  -68.400;-1005.000; -959.000
799.455;  172.350;  369.000;  316.000
799.710;   48.075; -813.000; -380.000
799.966;  181.325; -162.000; -160.000
800.221;  328.250; -638.000; -721.000
800.477; 8485.375; -743.000; -710.000
800.732; 6672.300; -773.000; -800.000
800.988;  433.650;  205.000;  -19.000
801.243; 1135.525; -454.000; -344.000
801.498; 4375.100; -814.000; -739.000
801.754;  206.400; -289.000; -163.000
802.009;   25.775; -257.000; -335.000
802.264; -111.525; -967.000;-1033.000
802.520;  -14.600;  222.000;   -3.000
802.775;  -67.750; -524.000; -359.000
803.030;   44.350;  395.000;  356.000
803.285; -143.200; -840.000; -903.000
803.540;  -82.700; -686.000; -699.000
803.795;  -72.950; -648.000; -583.000
804.051;  -60.450; -279.000; -346.000
804.306;    1.325;  168.000;  128.000
804.561;  120.000;  451.000;  362.000
804.816;  110.875;  714.000;  861.000
805.071;  -10.350; -185.000; -280.000
805.325;  165.425; -257.000; -427.000
805.580; -126.300; -841.000; -877.000
805.835;  -45.375; -204.000; -297.000
806.090; -108.975; -760.000; -676.000
806.345;  -50.100; -344.000; -264.000
806.600;  -67.975; -549.000; -632.000
806.854;  -74.175; -408.000; -538.000
807.109;  -54.625; -493.000; -577.000
807.364;  -43.025; -407.000; -328.000
807.618;  -34.425; -415.000; -381.000
807.873;   -3.650; -470.000; -494.000
808.128;   54.575; -257.000; -518.000
808.382;   50.950; -224.000; -332.000
808.637;    0.050; -440.000; -511.000
808.891;  106.875; -257.000; -180.000
809.146;    7.375; -902.000; -794.000
809.400;  153.125; -848.000; -923.000
809.654;  194.125; -779.000; -551.000
809.909;  268.200; -841.000; -927.000
810.163; 5458.475; -813.000; -651.000
810.418;12747.450; -940.000; -861.000
810.672;  626.600; -685.000; -690.000
810.926;  348.850; -993.000; -973.000
811.180;  761.000; -439.000; -372.000
811.434;17371.350;  240.000;  135.000
811.689; 6188.225; -231.000; -365.000
811.943;  286.675; -936.000; -953.000
812.197;   92.225; -893.000; -671.000
812.451;   27.475; -379.000; -514.000
812.705;  -93.050; -809.000; -619.000
812.959;  -45.525; -263.000; -388.000
813.213;  -26.325; -283.000; -209.000
813.467;   38.750;  470.000;  253.000
813.721; -126.725; -764.000; -792.000
813.975; -142.750; -826.000; -877.000
814.229;   33.275;  430.000;  353.000
814.482;  -98.475; -517.000; -566.000
814.736; -138.100; -766.000; -744.000
814.990; -152.200; -779.000; -872.000
815.244;  -56.575; -228.000; -285.000
815.497; -117.150; -636.000; -601.000
815.751;  -50.925; -141.000;   82.000
816.005; -104.800; -470.000; -586.000
816.258;  -89.475; -510.000; -363.000
816.512; -132.700; -693.000; -610.000
816.766;  -19.075;  121.000;  157.000
817.019;  -10.225;  148.000;  149.000
817.273; -140.500;-1000.000; -802.000
817.526;  -47.700; -206.000; -173.000
817.779;  -65.700;-1049.000; -960.000
818.033; -105.825; -693.000; -807.000
818.286; -142.650; -725.000; -792.000
818.540; -103.925; -403.000; -403.000
818.793; -102.175; -402.000; -489.000
819.046; -113.525; -582.000; -520.000
819.299;  -54.425; -157.000; -166.000
819.553; -134.300; -552.000; -592.000
819.806; -177.200;-1016.000; -838.000
820.059;  -60.225; -334.000; -354.000
820.312;    1.525;  152.000;  185.000
820.565;  -21.450;  110.000;  -27.000
820.818;  -50.525;  -59.000; -173.000
821.071; -168.575;-1041.000; -957.000
821.324; -125.250; -536.000; -540.000
821.577; -110.250; -457.000; -483.000
821.830;  -79.550; -270.000; -172.000
822.083; -143.900; -733.000; -288.000
822.336;  -57.900; -261.000; -167.000
822.589; -135.275; -805.000; -688.000
822.842; -157.425; -875.000; -770.000
823.094; -190.350;-1076.000;-1114.000
823.347; -146.700; -925.000; -729.000
823.600;    3.750;  402.000;  187.000
823.853;  -65.775; -311.000; -267.000
824.105;  -86.050; -331.000; -575.000
824.358; -119.675; -617.000; -716.000
824.611;    7.150;  234.000;   40.000
824.863;  -67.075; -612.000; -591.000
825.116;   22.650;  -33.000;   27.000
825.368;   53.050; -366.000; -372.000
825.621;  116.125; -186.000; -240.000
825.873;   38.250; -704.000; -737.000
826.126;  472.825; -669.000; -641.000
826.378; 9459.275; -389.000; -505.000
826.630; 1956.575; -890.000; -898.000
826.883;  -14.675; -754.000; -693.000
827.135;    7.850; -279.000; -270.000
827.387; -134.800; -893.000; -839.000
827.639;  -53.525;  -86.000;   32.000
827.892; -150.025; -742.000; -582.000
828.144; -144.550; -848.000; -804.000
828.396;  -44.700;  104.000;  -80.000
828.648; -110.575; -440.000; -333.000
828.900; -159.300; -702.000; -795.000
829.152; -135.950; -684.000; -683.000
829.404;  -75.900; -215.000; -267.000
829.656;  -73.125;  321.000;  214.000
829.908;  -35.950;  393.000;  229.000
830.160; -180.000;-1064.000;-1047.000
830.412;  -98.600; -481.000; -430.000
830.664; -133.050; -557.000; -665.000
830.916;  -84.275; -268.000; -206.000
831.167; -187.975;-1073.000; -951.000
831.419; -131.375; -623.000; -566.000
831.671; -157.850; -764.000; -809.000
831.923; -102.925; -311.000; -447.000
832.174;  -91.300; -273.000; -331.000
832.426; -129.475; -493.000; -582.000
832.678; -209.800;-1043.000;-1091.000
832.929; -187.400; -947.000; -935.000
833.181;  -96.925; -575.000; -677.000
833.432;  -75.650;  -59.000; -186.000
833.684;  -40.275;  112.000;  -27.000
833.935; -117.450; -610.000; -566.000
834.187; -138.975; -829.000; -823.000
834.438;  -52.875;  -58.000;  -25.000
834.689;  -59.575; -255.000; -123.000
834.941;  -61.450; -343.000; -244.000
835.192; -101.900; -590.000; -533.000
835.443; -118.275; -419.000; -506.000
835.695;  -19.475;  138.000;  -16.000
835.946; -102.300; -608.000; -378.000
836.197; -138.775; -599.000; -622.000
836.448; -102.300; -528.000; -395.000
836.699;  -72.650; -253.000; -341.000
836.950;  -15.250;   72.000;    7.000
837.201; -166.150;-1003.000; -987.000
837.452;  -70.925; -356.000; -170.000
837.703; -135.550; -791.000; -737.000
837.954;  -52.400; -205.000; -365.000
838.205; -120.300;-1029.000;-1008.000
838.456;  127.475; -196.000; -282.000
838.707;  -29.675; -423.000; -519.000
838.958;  -10.725; -634.000; -647.000
839.209;  221.600;   18.000;   40.000
839.460;   73.550; -439.000; -201.000
839.710;  106.250; -135.000; -297.000
839.961;  348.925;  730.000;  612.000
840.212;  227.650; -382.000; -497.000
840.462;  896.950; -328.000; -277.000
840.713;14396.850; -571.000; -536.000
840.964; 5155.325;  -62.000; -143.000
841.214;  342.850; -384.000; -624.000
841.465;  393.525; -214.000; -141.000
841.715;  345.625; -417.000; -380.000
841.966;  446.000; -746.000; -685.000
842.216; 7430.725; -330.000; -431.000
842.466;25463.950; -169.000; -313.000
842.717; 1156.925; -964.000; -952.000
842.967;  188.600; -635.000; -641.000
843.217;  187.725;   20.000;   28.000
843.468;   33.725; -104.000; -132.000
843.718;  -60.700; -718.000; -726.000
843.968; -125.000; -837.000; -765.000
844.218;   16.250; -315.000; -262.000
844.469;  -76.550; -577.000; -561.000
844.719; -112.700; -537.000; -682.000
844.969; -113.200; -550.000; -580.000
845.219; -165.750; -814.000; -862.000
845.469;  -92.150; -392.000; -342.000
845.719; -150.325; -792.000; -884.000
845.969;  -17.825;  119.000;  174.000
846.219; -137.750; -738.000; -720.000
846.469;   15.150;  464.000;  432.000
846.718;  -63.425; -115.000;   31.000
846.968; -147.000; -827.000; -827.000
847.218;  -59.625; -224.000; -371.000
847.468;  -17.025; -586.000; -555.000
847.718; -167.725; -827.000; -798.000
847.967; -141.050; -826.000; -915.000
848.217;  -96.850; -449.000; -569.000
848.467;  -72.450; -405.000; -376.000
848.716; -126.200; -708.000; -725.000
848.966;  -20.525; -372.000; -358.000
849.215;  -89.275; -428.000; -419.000
849.465; -117.400; -785.000; -615.000
849.714; -169.250;-1132.000;-1150.000
849.964;  -94.875; -551.000; -613.000
850.213;  -65.325; -393.000; -355.000
850.463;   58.075;  137.000;  340.000
850.712;  -31.425; -542.000; -567.000
850.961;  -30.325; -739.000; -678.000
851.211;   48.950; -513.000; -504.000
851.460;   93.100; -635.000; -650.000
851.709;  459.225;  -25.000;   18.000
851.958; 8819.450; -912.000; -750.000
852.208; 9576.775; -859.000; -879.000
852.457;  334.375; -181.000;  -13.000
852.706;    0.350; -791.000; -823.000
852.955;  -30.025; -507.000; -528.000
853.204;  -96.000; -521.000; -461.000
853.453;  -84.550; -418.000; -458.000
853.702; -142.750; -660.000; -750.000
853.951; -117.750; -532.000; -520.000
854.200; -119.075; -613.000; -562.000
854.449; -146.750; -695.000; -661.000
854.698; -103.000; -340.000; -279.000
854.946;  -87.375; -181.000; -284.000
855.195; -169.400; -843.000; -868.000
855.444; -112.875; -395.000; -420.000
855.693; -141.250; -345.000; -432.000
855.941; -103.550; -387.000; -516.000
856.190;  -67.425; -256.000; -382.000
856.439; -139.975; -652.000; -703.000
856.687;  -60.150;  -99.000;  -72.000
856.936; -127.700; -621.000; -323.000
857.184; -193.275;-1067.000;-1020.000
857.433; -112.925; -423.000; -512.000
857.681; -172.250; -989.000; -953.000
857.930;  -94.875; -282.000; -433.000
858.178; -199.425; -856.000; -929.000
858.427; -157.525; -802.000; -781.000
858.675; -128.800; -377.000; -544.000
858.923; -115.075; -527.000; -819.000
859.172; -196.050;-1094.000;-1070.000
859.420;  -98.375; -339.000; -239.000
859.668; -136.600; -624.000; -628.000
859.916;  -32.125;  109.000;  115.000
860.164; -127.425; -699.000; -603.000
860.413;  257.925; -878.000; -696.000
860.661;  164.625; -709.000; -577.000
860.909;  -92.350; -339.000; -325.000
861.157;  -81.100; -277.000; -444.000
861.405; -129.925; -534.000; -670.000
861.653;    7.725;  310.000;  310.000
861.901;  151.050; -543.000; -613.000
862.149;  -36.125; -801.000; -824.000
862.396;  -78.450; -297.000; -187.000
862.644; -107.675; -368.000; -347.000
862.892;  -30.200;   98.000;  138.000
863.140; -131.775; -549.000; -530.000
863.388; -164.925; -815.000; -759.000
863.635; -135.475; -642.000; -601.000
863.883;  -11.150;  231.000;  190.000
864.131; -102.150; -288.000; -357.000
864.378; -150.975; -675.000; -540.000
864.626; -109.800; -347.000; -415.000
864.873; -129.900; -556.000; -505.000
865.121; -164.100; -714.000; -799.000
865.368;  -49.250; -173.000;   75.000
865.616;  -56.125;  -33.000;  -40.000
865.863;  -90.000; -462.000; -506.000
866.111; -141.325; -795.000; -824.000
866.358;   -3.550; -426.000; -420.000
866.605; 1673.550;  -64.000; -804.000
866.853; 1509.275; -621.000; -537.000
867.100;  -88.350; -728.000; -775.000
867.347; -116.125; -672.000; -611.000
867.594; -102.125; -740.000; -714.000
867.841;   58.300;   97.000;   17.000
868.089; -156.650; -746.000; -698.000
868.336; -118.300; -477.000; -420.000
868.583; -156.100; -637.000; -741.000
868.830;  -58.575; -131.000; -170.000
869.077; -178.150; -859.000; -787.000
869.324; -141.250; -502.000; -458.000
869.571; -139.150; -398.000; -430.000
869.818; -125.425; -485.000; -439.000
870.065; -124.825; -439.000; -513.000
870.311; -116.225; -456.000; -542.000
870.558; -112.850; -332.000; -311.000
870.805; -101.625; -320.000; -384.000
871.052; -123.300; -494.000; -369.000
871.298;  -52.525; -204.000; -131.000
871.545;  -77.250; -151.000; -185.000
871.792;  -94.500; -173.000; -222.000
872.038;  -74.025;   43.000; -126.000
872.285; -150.975; -496.000; -387.000
872.532; -110.975; -357.000; -387.000
872.778;   11.450;  556.000;  403.000
873.025; -107.825; -384.000; -359.000
873.271;   11.425;  501.000;  578.000
873.517;  -33.450; -133.000; -209.000
873.764;  -36.850; -193.000;  -80.000
874.010;  -66.825; -143.000; -230.000
874.257;  -49.150;  123.000;   90.000
874.503; -140.925; -579.000; -479.000
874.749;  -79.375;   31.000;  275.000
874.995;  -71.850;  -80.000;  -20.000
875.242; -136.450; -540.000; -478.000
875.488; -117.200; -414.000; -439.000
875.734;  -54.200; -106.000; -234.000
875.980;  163.750; -872.000;-1032.000
876.226;  301.625; -157.000; -255.000
876.472;  -11.650;  343.000;  237.000
876.718;  -47.050;  184.000;  158.000
876.964;  -49.500;   56.000;   55.000
877.210; -164.775; -547.000; -677.000
877.456; -144.375; -630.000; -557.000
877.702; -168.550; -821.000; -832.000
877.948; -129.750; -377.000; -497.000
878.193;    8.150;  361.000;  255.000
878.439; -107.575; -487.000; -472.000
878.685; -107.725; -272.000; -343.000
878.931; -141.425; -618.000; -676.000
879.176;  -90.700; -201.000; -201.000
879.422; -186.525; -933.000; -820.000
879.668;   54.125;   10.000;   79.000
879.913;  112.800;   53.000;  137.000
880.159;  -76.975; -112.000;  -17.000
880.404;  -62.525; -152.000; -162.000
880.650;  -39.100;   91.000;  141.000
880.895; -175.950; -670.000; -710.000
881.141; -127.175; -454.000; -428.000
881.386; -147.875; -503.000; -658.000
881.631;  -93.050; -311.000; -166.000
881.877;  -30.625;  112.000;  -13.000
882.122; -150.975; -684.000; -600.000
882.367;  -97.000; -136.000; -186.000
882.612;  -90.100;  -80.000; -176.000
882.858; -177.300; -877.000; -823.000
883.103; -101.025; -297.000; -267.000
883.348; -154.900; -759.000; -852.000
883.593; -142.400; -677.000; -602.000
883.838;  -64.050; -311.000;  -24.000
884.083;   22.300;  353.000;  288.000
884.328;  -93.150; -564.000; -545.000
884.573;  -71.450; -196.000; -143.000
884.818;  168.875; -694.000; -531.000
885.063;  141.575; -348.000; -315.000
885.308; -121.675; -475.000; -398.000
885.553;  -25.125;  245.000;  325.000
885.797; -145.675; -545.000; -615.000
886.042;  -55.375;    8.000;   58.000
886.287; -100.550; -253.000; -211.000
886.532;  -58.125;   26.000;  204.000
886.776; -118.950; -407.000; -525.000
887.021; -141.125; -621.000; -574.000
887.265; -157.225; -685.000; -689.000
887.510; -148.725; -557.000; -496.000
887.755; -101.775; -194.000; -164.000
887.999; -159.800; -552.000; -575.000
888.244;  -61.750;  -58.000;  161.000
888.488;   -9.050;  371.000;  393.000
888.732; -137.475; -368.000; -520.000
888.977; -152.175; -622.000; -567.000
889.221; -183.300; -683.000; -659.000
889.465; -133.175; -422.000; -566.000
889.710;  -81.525;  -56.000; -299.000
889.954;    0.625;  579.000;  467.000
890.198; -156.850; -584.000; -707.000
890.442; -167.550; -716.000; -712.000
890.687; -182.150; -800.000; -753.000
890.931;  -99.925; -273.000; -210.000
891.175; -147.125; -502.000; -500.000
891.419;  -84.275; -105.000; -110.000
891.663;  -98.700; -239.000; -112.000
891.907; -187.875; -801.000; -545.000
892.151; -179.900; -920.000; -815.000
892.395; -121.250; -274.000; -387.000
892.638;  -22.425;  408.000;  291.000
892.882; -193.050; -780.000; -867.000
893.126;    9.875;  758.000;  558.000
893.370;  -97.500; -167.000; -168.000
893.614; -154.400; -714.000; -715.000
893.857;  -95.600; -183.000; -197.000
894.101; -145.800; -527.000; -631.000
894.345;  -64.400;  300.000;  150.000
894.588;    0.375;  569.000;  380.000
894.832;  -93.325; -178.000;  -84.000
895.075;  -94.275;   15.000;  -92.000
895.319; -137.350; -552.000; -420.000
895.563; -136.150; -413.000; -353.000
895.806; -158.000; -628.000; -741.000
896.049;  -80.000; -576.000; -368.000
896.293;   78.550;  527.000;  405.000
896.536;  -93.000; -465.000; -468.000
896.779;  -58.450; -149.000;   -1.000
897.023; -162.450; -751.000; -714.000
897.266;  -40.925;  325.000;  269.000
897.509; -201.450; -900.000; -901.000
897.752;  -47.525;  149.000;  171.000
897.996; -198.175; -972.000; -864.000
898.239;  -58.275;  168.000;  102.000
898.482; -146.200; -431.000; -453.000
898.725;  -48.950;  101.000;   53.000
898.968; -164.425; -609.000; -744.000
899.211; -121.850; -513.000; -361.000
899.454; -134.575; -633.000; -539.000
899.697;  -91.525;   90.000;  -43.000
899.940; -171.350; -761.000; -757.000
900.182; -122.150; -335.000; -405.000
900.425;  -98.300; -150.000; -298.000
900.668;  -15.250;  491.000;  350.000
900.911; -136.900; -292.000; -345.000
901.154;  -61.200;  141.000;   -3.000
901.396; -144.825; -407.000; -412.000
901.639; -146.725; -430.000; -496.000
901.882; -190.575; -790.000; -809.000
902.124;  -96.325;  -29.000; -143.000
902.367; -134.825; -315.000; -361.000
902.609; -142.750; -476.000; -453.000
902.852;  -98.225; -108.000; -260.000
903.094; -135.550; -458.000; -337.000
903.337;  -69.425;  -26.000;   53.000
903.579; -132.200; -228.000; -441.000
903.821; -162.200; -597.000; -744.000
904.064;  -65.600;   85.000;  127.000
904.306;  -92.975; -126.000; -166.000
904.548; -129.575; -152.000; -366.000
904.790; -112.000; -195.000; -340.000
905.033; -134.275; -625.000; -577.000
905.275; -135.725; -513.000; -524.000
905.517;   36.400;  468.000;  256.000
905.759;  -91.250; -667.000; -761.000
906.001; -116.525; -322.000; -369.000
906.243;  -78.725; -162.000; -224.000
906.485;  103.925; -265.000; -207.000
906.727;   61.600; -499.000; -542.000
906.969;  -50.000;  -30.000; -135.000
907.211;   89.550; -316.000; -382.000
907.453;  214.675; -188.000; -237.000
907.695;  -22.675; -158.000; -385.000
907.936;   37.350;  818.000;  706.000
908.178;  -70.225;   92.000; -135.000
908.420;  -83.700; -111.000; -162.000
908.662; -156.250; -633.000; -682.000
908.903; -111.200; -208.000; -123.000
909.145;  -83.025; -240.000; -305.000
909.386;  -23.650;  315.000;  280.000
909.628;   16.250;  363.000;  397.000
909.870;  -20.950;   29.000;  264.000
910.111; -142.525; -809.000; -949.000
910.353;  -15.475; -123.000; -161.000
910.594;  -77.025; -574.000; -606.000
910.835;    2.575; -265.000; -326.000
911.077;   36.400; -503.000; -604.000
911.318;  111.975; -505.000; -471.000
911.559;  193.900; -577.000; -880.000
911.801;  768.200; -284.000; -280.000
912.042; 6562.600;  -50.000; -159.000
912.283;15599.450;  404.000;  371.000
912.524; 2064.750; -396.000; -457.000
912.765;  228.150; -193.000;   79.000
913.006;   62.950; -307.000; -338.000
913.247;  -48.875; -270.000; -290.000
913.488;  -41.525;  -43.000;   30.000
913.729; -112.250; -373.000; -373.000
913.970;  -84.725;  -96.000; -292.000
914.211;  -91.000; -160.000; -198.000
914.452;  -84.000; -118.000;  -11.000
914.693;   -2.375;  510.000;  592.000
914.934;   -3.325;  510.000;  440.000
915.175;  -61.000;   53.000;  -95.000
915.415;  -84.100; -137.000;   27.000
915.656;  -84.750;  -28.000;  192.000
915.897;  -96.200; -252.000;  -82.000
916.137;  -94.775;   74.000;   -9.000
916.378; -149.750; -573.000; -517.000
916.619;  -95.925; -159.000;  -63.000
916.859;  -32.300;  303.000;  330.000
917.100;  138.675; 1655.000; 1070.000
917.340;   34.050;  930.000;  728.000
917.581;   32.475;  965.000;  789.000
917.821;  -43.125; -171.000;  143.000
918.061;  -22.525; -199.000;  -72.000
918.302;  -70.625; -152.000; -211.000
918.542;  -37.150;  -22.000;    3.000
918.782;   21.150;  369.000;  377.000
919.023;  101.475;  360.000;  427.000
919.263; 1705.675; 8131.000;  202.000
919.503;  913.900; -137.000;  -54.000
919.743;  545.725;  390.000;  266.000
919.983;  187.625; -134.000;  -26.000
920.223;   21.700;  135.000;   14.000
920.463;  104.675;  631.000;  554.000
920.703;   75.550;   84.000;   39.000
920.943;   90.700; -110.000;   90.000
921.183;  138.275; -414.000; -405.000
921.423;  361.200;  307.000;  546.000
921.663;  524.225; -174.000; -257.000
921.903; 1214.450;  237.000;  173.000
922.143; 7011.800;  372.000;  389.000
922.383;25661.450;  158.000;  115.000
922.622; 7649.700; -120.000;  -15.000
922.862;  850.900;  796.000;  785.000
923.102;  297.725;  -51.000;   33.000
923.341;  102.000;   59.000;   74.000
923.581;   38.575;  450.000;  360.000
923.821;  -11.750;  301.000;  398.000
924.060;  -35.800;  351.000;  193.000
924.300;  -68.475;  -16.000; -128.000
924.539;  -22.350;  584.000;  473.000
924.779;   -1.975;  812.000;  597.000
925.018;  -43.725;  247.000;  353.000
925.257;   -7.425;  595.000;  666.000
925.497;  -45.725;  447.000;  412.000
925.736;  -87.475;  -35.000;  102.000
925.975;  -12.450;  687.000;  669.000
926.214;   17.425;  907.000;  850.000
926.454;   11.225;  706.000;  757.000
926.693;  -44.425;  419.000;  543.000
926.932;   22.400; 1021.000;  825.000
927.171;   53.700; 1107.000; 1044.000
927.410;   62.275; 1144.000;  967.000
927.649;   21.700;  924.000;  742.000
927.888;  -13.025;  590.000;  564.000
928.127;   -4.225;  680.000;  678.000
928.366;   21.600;  842.000;  826.000
928.605;   26.475;  831.000;  737.000
928.844;  215.500; 1451.000; 1393.000
929.083;  519.000;  770.000;  613.000
929.321;  266.025; 1335.000; 1359.000
929.560;   73.975; 1158.000; 1122.000
929.799;  -28.325;  574.000;  475.000
930.038;   81.950; 1025.000; 1394.000
930.276;  -65.575;  334.000;  397.000
930.515;  -11.100;  827.000;  681.000
930.753;  -21.975;  614.000;  589.000
930.992;   -9.625;  664.000;  717.000
931.230;    0.200;  847.000;  847.000
931.469;  170.825; 2162.000;  892.000
931.707;   51.625;  840.000;  751.000
931.946;   57.450; 1278.000; 1344.000
932.184;   41.400; 1437.000; 1175.000
932.423;   45.550; 1265.000;  963.000
932.661;   77.775; 1296.000; 1428.000
932.899;   18.475;  987.000;  821.000
933.137;  -10.100;  754.000;  564.000
933.376;  140.125; 1664.000; 1335.000
933.614;  149.025; 1759.000; 1196.000
933.852;   32.425; 1357.000; 1171.000
934.090;  125.850; 1722.000; 1747.000
934.328;   86.275; 1252.000; 1457.000
934.566;   68.625; 1431.000; 1110.000
934.804;  101.400; 1263.000; 1309.000
935.042;  372.000; 1861.000; 1850.000
935.280; 1501.950; 2088.000; 2063.000
935.518; 1278.725; 2113.000; 2007.000
935.756;  319.450; 2481.000; 2316.000
935.994;  144.800; 1808.000; 1751.000
936.231;  329.625; 2890.000; 2950.000
936.469;  176.475; 2367.000; 2378.000
936.707;  165.225; 2220.000; 2167.000
936.945;  218.175; 2825.000; 2882.000
937.182;  198.775; 2679.000; 2741.000
937.420;  301.500; 3602.000; 3031.000
937.657;  421.450; 3365.000; 3478.000
937.895;  348.050; 3331.000; 3488.000
938.133;  315.850; 3540.000; 3528.000
938.370;  350.925; 3896.000; 4191.000
938.607;  385.775; 4488.000; 4205.000
938.845;  530.275; 5587.000; 5549.000
939.082;  495.100; 5387.000; 5177.000
939.320;  543.550; 5799.000; 5728.000
939.557;  654.225; 6549.000; 6491.000
939.794;  735.425; 7285.000; 7097.000
940.031;  908.925; 8421.000; 8368.000
940.269; 1096.050; 9552.000; 9107.000
940.506; 1133.550;10901.000;10507.000

