
Integration time [ms]: 100.000
Averaging Nr. [scans]: 40
Smoothing Nr. [pixels]: 0
Data measured with spectrometer [name]: 2101013U2
Wave   ;Sample   ;Dark     ;Reference
[nm]   ;[counts] ;[counts] ;[counts] 

394.013;   63.254; -450.257; -315.536
394.305;  221.552; -461.258; -419.536
394.596; 1202.495; -676.269; -527.514
394.887; 2947.737; -796.268; -654.518
395.178; 1113.244;  145.736;   11.476
395.470;   90.056; -210.263; -356.526
395.761;  214.353;  305.734;  394.479
396.052;  334.190; -545.284; -306.489
396.343;  304.813; -557.276; -454.503
396.634;   87.105; -200.279; -290.497
396.926;  103.285; -618.268; -565.517
397.217;  109.767;   11.725;  -17.504
397.508;   49.159; -366.273; -154.507
397.799;   48.980; -555.279; -571.497
398.090;   -2.001; -973.280; -902.495
398.381;  120.212;   11.708;  -11.473
398.672;   -2.612; -585.292; -742.473
398.963;   47.261; -348.279; -373.498
399.254;  112.322;   54.709; -209.475
399.545;  -21.051;-1017.266; -883.520
399.836;   69.726; -407.277; -343.501
400.127;   55.187; -205.295; -209.468
400.418;   60.203; -423.274; -392.506
400.709;   66.186; -359.281; -333.493
401.000;   41.801; -268.291; -309.476
401.290;  105.746;  225.698;  115.545
401.581;   59.497; -166.286; -228.485
401.872;   25.758; -542.298; -486.462
402.163;   59.954; -313.296; -252.467
402.454;   85.798; -123.291; -163.475
402.744;   77.520; -844.297; -813.465
403.035;  399.028; -226.293;  -86.471
403.326;  534.841; -366.292; -384.474
403.617;  368.702;  204.701;  165.539
403.907;  253.021; -593.283; -679.490
404.198; 2592.623; -545.307; -599.446
404.489; 6681.401; -618.283; -588.491
404.779; 2138.000; -618.302; -660.456
405.070;  242.652;  -67.304; -174.451
405.360;  344.755; -259.293; -238.472
405.651;  375.061;  125.699;   98.542
405.942;  197.292;  209.714;  127.516
406.232;  241.157; -432.285; -413.487
406.523;  435.847;  641.706;  758.530
406.813;   87.419; -579.286; -644.484
407.104;  317.861;  261.708;  144.527
407.394;  160.903; -604.299; -591.462
407.685;  155.231;  336.715;  222.513
407.975;   63.124; -400.283; -382.490
408.265;  110.613; -134.289; -190.478
408.556;   93.045; -472.291; -459.475
408.846;  169.898;  474.706;  429.530
409.137;   84.772;   -1.288; -216.480
409.427;   54.782; -193.285; -271.487
409.717;   43.412; -776.273; -692.508
410.007;  137.225;    4.715; -170.486
410.298;   89.615; -360.295; -342.469
410.588;   69.004; -495.285; -510.486
410.878;   47.483; -792.287; -873.482
411.168;  112.861; -481.298; -478.463
411.459;  123.319; -295.283; -242.489
411.749;   70.368; -609.292; -507.474
412.039;   52.670; -755.289; -386.480
412.329;  200.869;   40.722;  132.501
412.619;  213.620;  -62.286; -148.485
412.909;  374.566;  639.711;  594.521
413.199;  327.074; -130.280; -251.495
413.490;  408.956;  521.710;  352.523
413.780;  149.054;-1013.279; -913.496
414.070;  336.664;  -46.276;  235.497
414.360;  377.740; -729.278; -666.498
414.650;  445.779; -726.288; -688.482
414.940;  569.078; -538.280; -441.496
415.230;  968.976;   50.712;   74.519
415.520; 6399.944;  155.730;   66.486
415.809;25513.935; -305.281; -125.493
416.099;19407.153; -388.277; -229.501
416.389; 5541.351;  435.726;  236.494
416.679; 3259.735;   91.738;   85.473
416.969;  557.363; -527.287; -503.483
417.259;  494.980;  341.721;  171.503
417.549;  737.834;  522.718;  318.508
417.838; 1757.312; -205.268; -147.518
418.128; 5926.612;  650.710;  492.522
418.418; 4906.144; -491.272; -579.509
418.708; 3274.426;    9.726;  -48.506
418.997;12514.246; -474.275; -480.505
419.287;12884.733; -733.273; -790.507
419.577;12348.043; -160.283; -123.489
419.866;40928.676; -588.277; -498.501
420.156;41455.190; -242.270;  -55.513
420.446; 7192.177; -112.263;  -26.526
420.735;  840.959; -376.271; -446.512
421.025;  819.339; 1830.722;  315.502
421.314;  654.032; -203.271; -226.512
421.604; 1274.104;   89.732;  233.484
421.893;  734.278; -705.271; -602.511
422.183;  233.102; -487.263; -461.526
422.472;  373.255;  -36.271; -107.511
422.762;  461.156; -416.266; -379.521
423.051;  248.014; -916.276; -916.503
423.341;  303.235; -491.273; -439.507
423.630;  407.662; -121.265;   15.477
423.919;  396.446;   58.725;   49.495
424.209;  387.933;  -31.263;   56.473
424.498;  503.409;   68.732;  161.483
424.787; 1131.791; -535.267; -601.518
425.077; 3510.435;   34.735;   29.478
425.366; 4680.313; -734.262; -744.528
425.655;10413.585;  639.727;  259.493
425.945;23784.248; -313.247; -268.554
426.234;12814.362;  117.741;  300.467
426.523; 5377.667;  -86.259; -350.534
426.812; 7294.101;  107.734;  159.480
427.101;10941.226; -127.269; -323.515
427.390;13500.894;  -55.270;  -86.514
427.680; 2817.438; -624.257; -411.538
427.969;  471.024; -330.255; -301.540
428.258;  326.079; -385.257; -477.536
428.547;  529.198;  449.728;  397.490
428.836; 1145.966; -421.253; -398.543
429.125; 1672.544; -199.259;  -72.534
429.414;  814.290; -330.251; -294.548
429.703; 3332.140; -231.251; -213.548
429.992;10001.118; -938.250; -828.549
430.281; 6431.794; -397.264; -331.524
430.570;  579.255;  -21.252;   32.454
430.859;  534.142;  279.741;  352.466
431.148;  427.068;  636.752;  631.446
431.437;  286.054;  391.748;  367.454
431.725;  178.856; -544.257; -481.536
432.014;  150.374; -845.253; -756.545
432.303;  385.072; -149.239; -105.569
432.592;  623.701; -460.263; -178.525
432.881; 1111.844; -601.248; -437.554
433.169; 6659.175; -343.255;  -61.540
433.458;13502.357;  445.765;  540.424
433.747; 5474.569; -397.261; -289.529
434.036;  871.647; -275.242; -280.564
434.324; 2156.481; -395.249; -379.551
434.613; 3845.315;   40.757;  159.437
434.902; 1224.287;  333.760;  439.433
435.190;  486.496;   75.761;  295.431
435.479;  276.021;  -52.245;   83.441
435.767;  111.430; -411.244; -427.561
436.056;  209.167; -340.242; -294.563
436.345;  389.514; -372.240; -223.568
436.633;  387.026;   60.750;  383.450
436.922;  231.942;  208.760;  414.432
437.210;  490.822; -194.236;    1.426
437.499; 1579.680; -583.235; -432.576
437.787; 1707.371; -339.236;  -10.574
438.075;  464.477;   56.761;  162.430
438.364;  642.904;  -44.238;  250.429
438.652;  381.788; -286.226; -138.592
438.941;  111.126;    3.770;  269.415
439.229;    7.077; -665.252; -466.545
439.517;   22.189; -160.234;  -85.577
439.806;    8.904; -501.225; -290.595
440.094;  164.097;  377.766;  650.421
440.382;  160.276; -653.233; -302.580
440.670;  161.980; -361.235; -285.576
440.959;   33.897; -347.223; -170.599
441.247;   60.612; -151.229; -109.587
441.535;   97.737; -266.235;   31.423
441.823;   20.419; -497.234; -305.578
442.111;  178.142;  173.771;  327.412
442.400;  479.246; -628.245; -335.559
442.688; 1204.171; -111.234; -620.579
442.976;  815.539; -786.213; -450.617
443.264;   84.011; -324.224; -364.597
443.552;  100.389; -258.226;   51.408
443.840;  167.986;  602.765;  876.423
444.128;  106.800;  265.767;  269.420
444.416;    5.945; -694.228; -312.588
444.704;   31.628; -465.219;  -92.605
444.992;   81.567;   -0.226;  240.407
445.280;   33.651; -517.230;  -94.585
445.568;   44.817; -694.212; -396.618
445.856;  289.787; -174.221;  357.398
446.143;  654.024;  -54.220;   -7.604
446.431;  532.048;  -25.228;  625.411
446.719;  244.398;  489.783;  675.391
447.007;  187.145;  481.769;  705.416
447.295;  165.319;  597.777;  871.402
447.583;  101.785; -464.229;  -34.587
447.870;  130.683; -434.221; -202.601
448.158;  379.250; -104.230;  129.415
448.446;  278.575; -800.219; -338.604
448.733;  163.788;   13.776;  269.403
449.021;  248.917;   60.788;  341.382
449.309;  193.258; -296.210;  208.379
449.596;  213.894;  128.783;   59.392
449.884;  158.652; -571.222; -325.600
450.172;  192.029; -756.227; -406.590
450.459;  457.196;  645.786;  780.387
450.747; 2583.043; -411.218; -147.608
451.034; 8288.950;  493.772;  889.411
451.322; 6763.349; -413.214; -170.614
451.609;  545.414;  292.777;  508.403
451.897;  649.223; -550.203; -183.634
452.184; 1935.670; -622.223; -400.598
452.472; 1788.680;   97.792;  269.375
452.759;  334.201;  512.781;  864.395
453.047;  120.639; -407.212; -125.617
453.334;   61.509; -732.219; -216.606
453.621;   67.077; -438.214; -161.615
453.909;  107.015;   13.796;  384.368
454.196;  115.537; -299.199; -123.641
454.483;  188.586;  317.798;  540.364
454.771;  131.158; -215.208;  196.374
455.058;   49.861; -316.207;  102.374
455.345;  117.294;   71.807;  344.347
455.632;   77.940; -128.207;  235.373
455.919;   54.610;  -82.196;  182.354
456.207;  -44.909; -774.198; -450.642
456.494;   -4.401; -475.200;  -66.639
456.781;   11.857; -399.202; -198.635
457.068;   58.971; -253.206;  -29.628
457.355;  -11.427; -698.206; -401.629
457.642;   -0.422; -552.205; -290.630
457.929;    9.035; -778.194; -417.651
458.216;   69.865; -575.212; -354.617
458.503;  265.615; -173.193;  -19.652
458.790;  254.531; -864.208; -630.625
459.077;  279.062;  -77.202;  110.364
459.364;  838.702; -350.195; -210.649
459.651; 1823.069;  -46.206;  220.372
459.938;  820.971; -864.209; -665.623
460.225;  119.940;  132.799;  276.363
460.512;  -41.143; -836.197; -688.645
460.799;  115.241;  -32.218;  320.392
461.086;   80.604; -370.200; -251.640
461.372;   31.967; -509.198; -279.642
461.659;  113.786; -165.196;  108.354
461.946;   60.638; -445.193;  -54.651
462.233;  221.676;  842.800;  888.361
462.519;  364.148; -814.201; -464.639
462.806; 1067.958; -768.197; -497.645
463.093;  949.335; -445.191;  -66.656
463.380;  -14.098; -920.186; -824.664
463.666;   60.610; -259.197;  -18.646
463.953;  113.572; -406.195; -243.648
464.239;  199.647; -173.195;  -77.648
464.526;  386.133;  413.806;  743.350
464.813;  326.472; -565.190; -304.658
465.099;  331.164;  606.807;  607.348
465.386;  308.268;  903.807;  921.348
465.672;   27.008; -694.197; -522.645
465.959;    6.790; -598.188; -520.662
466.245;   12.868; -468.193; -359.652
466.532;   98.595; -109.195;   63.352
466.818;   57.702; -357.186; -216.664
467.104;   -3.231; -488.182; -415.672
467.391;  -15.576; -628.189; -459.658
467.677;   24.406; -289.186;    9.335
467.964;    3.180; -682.189; -471.660
468.250;   48.809; -331.186; -160.665
468.536;   81.600;   90.811;  180.341
468.822;  -31.104; -821.184; -574.668
469.109;  145.078;  351.827;  471.311
469.395;  176.453;  729.808;  787.346
469.681;  194.003;   46.811;  156.341
469.967; 1313.908; -699.188; -382.660
470.254; 2919.166; -494.188; -306.662
470.540; 1805.810; -601.196; -476.646
470.826;  266.505; -488.181; -397.675
471.112;  314.900;  288.816;  113.331
471.398;   72.629; -253.183;  -58.670
471.684;   38.035; -626.177; -447.680
471.970;   10.159; -918.180; -981.675
472.256;   19.602; -521.192; -441.654
472.542;   15.689; -499.171; -434.691
472.828;   17.540; -743.182; -607.672
473.114;   30.534; -380.166; -283.700
473.400;   11.377; -504.175; -293.684
473.686;   42.816; -452.166; -400.701
473.972;   48.742; -230.174; -131.687
474.258;  -40.697; -925.173; -843.689
474.544;  228.901; -183.178;   -2.679
474.830;  347.279;  -65.175;   45.316
475.116;  544.523; -123.190; -196.658
475.401;  709.462; -558.180; -467.676
475.687;  208.811; -725.180; -718.676
475.973;   12.748; -673.181; -770.673
476.259;  224.806;  736.825;  764.315
476.544;  372.968; -539.176; -437.682
476.830;  907.835; -398.172; -322.690
477.116;  775.767; -430.177; -336.682
477.401;  136.586;  346.820;  358.324
477.687;   -6.648; -289.175; -405.684
477.973;   42.577;   21.819;   28.326
478.258;   -0.463; -448.163; -348.706
478.544;   60.889;   21.815;   61.334
478.829;  -56.105; -818.171; -738.692
479.115;  -37.940; -749.172; -651.690
479.401;    4.312; -444.174; -449.686
479.686;   40.010; -253.180;  -74.676
479.972;  -20.694; -886.178; -776.680
480.257;   35.886; -258.166;  -65.700
480.542;   -1.901; -614.170; -469.693
480.828;  224.125; 1288.824; 1392.317
481.113;  -31.052; -464.176; -426.683
481.399;  -21.363; -236.161; -202.711
481.684;  -62.040; -620.166; -462.700
481.969;    8.851; -158.159;  -73.713
482.255;   -8.540; -439.169; -285.695
482.540;    3.607; -569.178; -441.680
482.825;   10.322; -395.187; -404.663
483.110;   88.488;  -85.169; -105.696
483.396;  213.798; -840.157; -652.718
483.681;  532.842;  543.826;  730.313
483.966;  180.694; -696.160; -700.712
484.251;    0.891; -404.174; -310.687
484.536;    5.696; -356.165; -378.703
484.822;   11.469; -205.173; -218.687
485.107;  -21.812; -599.152; -502.726
485.392;  135.877;  662.836;  541.296
485.677;   79.199;  354.832;  163.302
485.962;  103.895;  160.843;  270.283
486.247;   97.870;  -14.162;   -8.707
486.532;   47.212; -178.166; -325.701
486.817;  171.381;  381.839;  431.291
487.102;  133.420; -453.154; -514.722
487.387;  736.275; -637.156; -652.718
487.672; 1279.533; -154.164;  -38.705
487.957;  821.288; -394.160; -286.711
488.241;  224.155; -290.150; -314.729
488.526;  812.014; -280.152; -148.726
488.811; 1311.709; -881.177; -818.680
489.096;  985.723; -666.154; -702.723
489.381;  540.910;    3.847;  162.275
489.666;  435.636; -428.161; -510.710
489.950;  179.126;  558.846;  627.277
490.235;  -29.450; -480.151; -458.728
490.520;  -46.990; -756.161; -723.710
490.804;  -47.848; -827.156; -736.719
491.089;  -11.279; -469.149; -299.732
491.374;   31.556; -132.164;  -75.704
491.658;  -12.592; -817.147; -717.735
491.943;  171.294; -657.152; -609.727
492.227;  256.716; -178.155;  -38.721
492.512;   62.095; -294.157; -341.717
492.797;  -67.235; -713.149; -716.731
493.081;  -51.014; -588.147; -598.735
493.366;  -45.363; -751.161; -635.711
493.650;  215.791;  831.859;  917.254
493.935;   31.608; -648.147; -447.734
494.219;  -41.172; -778.142; -687.743
494.503;  -37.765; -585.150; -487.730
494.788;   61.186;   46.842;   74.285
495.072;  101.031;  184.850;  434.271
495.356;  185.700; -463.148; -343.733
495.641;  458.593; -812.146; -736.736
495.925;  455.757; -976.156; -903.719
496.209;   33.221; -599.149; -451.732
496.494;  -43.371; -763.142; -544.744
496.778;   19.395; -364.154; -360.722
497.062;  -36.418; -819.156; -627.719
497.346;  -20.335; -869.160; -640.711
497.631;  147.478;  580.852;  560.266
497.915;   63.079;  -64.145;  175.261
498.199;   50.473; -341.157; -277.718
498.483;   47.212; -562.152; -508.725
498.767;  191.258;  301.850;  300.271
499.051;  182.768; -126.149; -100.732
499.335;   42.891; -693.149; -739.731
499.619;  -26.679; -381.129; -423.767
499.903;   25.739; -272.155;  -65.721
500.187;   38.253; -588.153; -316.724
500.471;   37.193; -796.152; -595.727
500.755;   98.736;   62.839;  -96.710
501.039;   28.815; -270.155; -357.721
501.323;   91.518;  -21.141;  264.254
501.607;   45.362; -447.163; -503.706
501.891;  -19.350; -607.156; -512.718
502.174;  -23.335; -726.144; -585.741
502.458;   66.922;   89.849;  370.273
502.742;   42.893; -180.138; -191.751
503.026;  122.557; -412.147; -254.734
503.310;  184.025; -437.159; -375.713
503.593;  135.934; -464.147; -325.735
503.877;  128.760; -232.133; -156.760
504.161;  170.030;    2.847;  -50.724
504.444;  138.439; -841.158; -710.716
504.728;  510.705; -487.164; -522.704
505.012;  781.554; -257.150;  -76.729
505.295;  565.737; -417.161; -212.711
505.579;  589.132; -256.156; -496.719
505.862;  813.325; -555.145; -333.738
506.146;  806.027; -681.159; -758.714
506.429;  407.878;  568.841;  461.286
506.713;   80.201; -732.151; -667.728
506.996;  330.620;   90.846;  295.278
507.280;  393.475; -633.165; -474.703
507.563;  247.788; -469.155; -261.721
507.847;  115.903; -423.153; -112.724
508.130;   98.263; -665.161; -456.711
508.413;  140.056; -758.167; -577.700
508.697;  263.956; -151.167;   12.300
508.980;  162.280; -422.153; -312.724
509.263;   -2.416; -466.155; -450.720
509.547;   38.854; -124.150;   82.271
509.830;   43.740; -172.160;  140.289
510.113;   87.106;  128.844;  298.281
510.396;   36.736; -530.152; -300.725
510.680;  139.126; -818.145; -812.738
510.963;  517.549;  184.846;  180.277
511.246;  440.087; -493.150; -357.730
511.529;  243.382; -482.145;  -83.739
511.812;  414.031; -250.134;   10.241
512.095;  295.423; -740.151; -396.728
512.378;   86.138; -317.147; -245.736
512.661;   28.701; -703.137; -623.753
512.944;   39.030; -750.142; -637.744
513.227;   77.923; -170.137; -171.752
513.510;   38.540; -479.144; -671.741
513.793;   23.323; -485.140; -435.747
514.076;  149.218;  -43.127;  -39.771
514.359;  113.272; -294.149; -135.732
514.642;  120.883; -442.142; -567.744
514.925;  826.871;  581.860;  561.253
515.208; 1106.577; -498.134; -443.758
515.491;  722.892; -276.133; -182.761
515.773;  393.144; -410.143; -337.742
516.056; 2292.157;  249.864;  409.246
516.339; 3061.736; -754.136; -652.755
516.622; 1894.210; -518.150; -488.730
516.904; 1125.401;  882.857;  975.257
517.187;  499.147; -730.138; -523.752
517.470;  407.925; -568.143; -510.743
517.752;  477.189; -624.136; -470.756
518.035;  383.284; -708.139; -725.749
518.318;  410.587; -799.136; -744.755
518.600; 2646.770; -300.132; -325.762
518.883; 3678.983;  310.858;   88.256
519.165; 1760.264; -585.138; -426.751
519.448;  395.420;  -61.132;  -19.762
519.730;  204.901; -573.126; -415.773
520.013;  315.038;  588.867;  664.240
520.295;  766.033;  -94.134;  -15.759
520.578; 1613.509; -335.131; -305.764
520.860; 1861.470; -254.132;   56.238
521.143; 1000.267; -763.135; -584.756
521.425;  516.439; -251.125; -279.775
521.707;  725.243; -622.127; -380.771
521.990; 1923.794; -199.127;  167.229
522.272; 2186.599; -116.140;   -4.748
522.554;  943.970; -237.143; -157.742
522.836;  329.181;  -24.134;   99.241
523.119;  227.406; -496.148; -189.734
523.401;  160.366; -448.130; -314.766
523.683;  116.501; -865.137; -693.753
523.965;  309.544;  408.862;  260.248
524.247;  300.686;   54.878;  170.220
524.529;  205.358; -451.134; -367.759
524.812;  364.968;   -3.130;  191.234
525.094;  948.594; -773.138; -631.751
525.376; 1494.873; -143.124;   78.223
525.658;  890.434; -441.136; -339.754
525.940;   39.180; -805.131; -671.764
526.222;   38.062; -188.136;  -88.755
526.504;  106.828; -190.131;   32.237
526.786;  162.660; -960.133; -647.760
527.068;  285.404; -124.123;  -67.778
527.349;  110.080; -865.137; -774.754
527.631;  138.970; -137.132;   22.238
527.913;  156.442; -664.127; -450.771
528.195;  191.907; -761.125; -639.774
528.477;  252.402;  -93.134;  -30.758
528.759;  155.042; -648.130; -522.766
529.040;   67.653; -569.123; -293.778
529.322;   70.185; -235.125;  -10.774
529.604;  131.270;  -47.130;   93.233
529.886;  119.800; -546.126; -302.773
530.167;  105.136;  232.870;  192.235
530.449;   51.563;    1.853;   63.265
530.731;   23.785; -572.122; -459.779
531.012;   75.057; -513.120; -216.784
531.294;   84.672; -118.116;  -43.792
531.575;  152.789;  290.875;  538.225
531.857;   64.872; -548.135; -266.757
532.138;  116.592; -113.141;   40.254
532.420;  157.693;  294.865;  403.244
532.701;  224.888; -722.133; -751.760
532.983;  339.066;  232.867;  182.239
533.264;  113.973; -243.126;  175.228
533.546;  -39.563; -491.136; -508.755
533.827;   50.184;  173.867;   -1.759
534.109;   45.922; -352.135;  -80.757
534.390;   93.574; -725.132; -582.762
534.671;  257.993; -270.135;  -82.756
534.953;  154.206; -751.123; -611.779
535.234;   29.332; -426.117; -255.789
535.515;  -67.335; -891.119; -735.785
535.796;  -15.212; -431.128; -193.770
536.078; -112.652;-1050.124; -904.777
536.359;    5.706;  -22.123;    3.221
536.640;  -24.042; -480.125; -197.774
536.921;  153.450;  225.871;  143.232
537.202;  397.065;  -87.138;  -16.751
537.483;  488.808;  251.869;  377.236
537.764;  181.536;   17.870;   98.235
538.045;  -46.148; -543.134; -371.758
538.326;  -35.773; -596.129; -447.768
538.607;   30.569; -686.127; -476.771
538.888;  182.247;   98.879;    5.218
539.169;  205.617; -704.122; -535.781
539.450;  369.624;  236.871;   16.233
539.731;  221.201; -361.121; -182.783
540.012;  141.232;  199.880;  412.216
540.293;   96.167;   82.876;  158.224
540.574;    9.419; -895.113; -717.796
540.855;  450.150;  435.879;  377.218
541.136;  546.514;   47.878;  139.220
541.416;  295.068; -161.130; -220.766
541.697;  208.178; -274.131; -170.763
541.978; 1120.420; -270.135; -315.757
542.259; 1427.269; -211.127; -236.771
542.539;  666.791; -191.116; -186.790
542.820;  194.864;  461.875;  480.225
543.101;  133.103;  -52.145;  -77.738
543.381;   37.794; -638.127; -591.771
543.662;  276.516;  159.873; -254.771
543.942;  621.839; -751.127; -830.770
544.223; 1121.316;  193.878;  161.219
544.504;  750.823; -275.124; -182.777
544.784;  619.625; -592.126; -408.773
545.065; 1781.770;  104.884; -254.791
545.345; 2098.465;  227.881;   14.215
545.626; 1351.643;  -14.113; -108.796
545.906;  948.886;   77.869;   98.235
546.186;  396.755;   92.874;  -95.773
546.467;  216.450;   99.877;  -95.778
546.747;  345.541;  264.884;  327.210
547.027;  397.971;   91.876;  111.223
547.308;  356.013; -376.127; -530.770
547.588;  421.403;  299.871;  371.232
547.868;  210.887;  458.870;  588.235
548.149;  201.902;  609.885;  593.207
548.429;  153.367; -347.127; -299.771
548.709;  218.106; -645.120; -461.784
548.989;  522.625;   84.882;   88.213
549.269; 2289.218;   10.868;  139.239
549.550; 5308.780;  215.877;  117.222
549.830; 4714.586; -758.111; -556.799
550.110;  917.769; -468.110; -320.801
550.390;  898.685; -128.122;  -56.779
550.670; 1224.138; -868.114; -783.795
550.950;  894.899; -509.121; -471.782
551.230;  204.896;  549.879;  460.218
551.510;   14.573; -381.121; -326.782
551.790;   46.602; -173.109; -127.803
552.070;  253.600;  940.877; 1181.223
552.350;  464.370; -492.119; -377.786
552.630;  641.468;   -2.121;   77.219
552.909;  353.720;  181.884;   73.209
553.189;  251.275;  -49.132;   33.237
553.469;  218.769; -703.119; -514.786
553.749;  204.745; -469.127; -357.772
554.029;  187.211;   33.883;  -24.790
554.308;  155.657; -154.115;  -37.794
554.588;   79.737; -196.128; -204.770
554.868;   80.700; -366.121;  -47.782
555.147;  177.404; -114.115;  -46.793
555.427;  637.923; -260.116; -250.792
555.707; 4287.552; -284.115; -200.793
555.986; 5188.865; -719.111; -538.800
556.266; 2676.889;   23.884;   72.210
556.546;  126.023; -888.121; -675.782
556.825;  272.086; -657.114; -556.794
557.105; 1943.935; -125.128;   17.230
557.384; 2287.694;  122.884;  187.209
557.664;  865.872; -717.116; -508.792
557.943;  132.300; -557.121; -411.782
558.222;  201.279; -345.118; -344.788
558.502;  286.530; -116.115;  -76.793
558.781;  545.101;  194.885;  499.208
559.061;  471.628; -232.118; -227.788
559.340;  323.333;  302.883;  353.211
559.619;  779.064;   93.884;  148.210
559.899; 1118.135; -239.117; -266.789
560.178; 1036.205; -778.115; -593.793
560.457; 3422.762; -623.117; -562.790
560.736; 4856.341; -472.111; -482.800
561.015; 3171.483; -500.128; -502.769
561.295;  404.473;  180.893;  215.193
561.574;  350.552;  119.885;  116.207
561.853;  535.807;  274.891;  303.197
562.132;  536.607;  -45.114;  182.206
562.411;  477.719;  396.879;  553.219
562.690;  154.150; -592.115; -458.792
562.969;  159.775;  472.888;  630.203
563.248;  501.266; 2966.878; 2487.219
563.527;  316.715; -290.111; -408.800
563.806;  411.867; -650.127; -521.771
564.085;  468.139; -297.105; -206.810
564.364;  284.164; -594.117; -405.790
564.643;  536.544; -276.121; -223.781
564.922; 2053.276;  221.890;  397.198
565.201; 2129.504; -640.109; -700.803
565.479;  892.749; -297.115; -219.792
565.758;  366.410; -810.128; -712.770
566.037;  524.380; -155.109; -100.803
566.316;  247.794; -286.116;  -28.791
566.595;   48.577;  -17.115;  -12.793
566.873;  100.743; -166.111;  -79.801
567.152;  -44.750; -490.113; -590.797
567.431;   24.415; -113.116;    6.210
567.709;   28.498; -344.107; -212.807
567.988;  282.111; -810.114; -769.794
568.266;  571.827; -160.115;  -68.793
568.545;  440.762; -644.100; -514.819
568.824;  621.123;  160.885;  356.208
569.102;  627.011; -351.114; -235.794
569.381;  250.622; -492.116; -407.792
569.659;  -43.154; -553.113; -553.796
569.938;   48.839; -743.122; -465.780
570.216;  115.883; -225.109; -225.804
570.494;   -8.661; -632.114; -572.795
570.773;   57.323;  202.879;  114.218
571.051;   26.128; -373.123; -357.778
571.330;   83.493; -221.113; -174.796
571.608;   39.381; -181.098; -173.823
571.886;  -59.016; -671.111; -581.799
572.164;  -58.200; -739.121; -621.782
572.443;  -40.257; -562.105; -512.811
572.721;  -39.288; -399.117; -289.790
572.999;   -8.694; -280.117; -168.788
573.277;   93.436;  379.894;  620.191
573.555;  321.738;   94.894;   37.190
573.834; 1479.330;  -86.117; -114.788
574.112; 1716.601;  880.893;  811.193
574.390;  524.167; -143.111;  -96.801
574.668;   22.076;  -91.112;  -61.797
574.946;  -16.112; -165.106; -187.810
575.224;   12.729;   71.891;  -16.803
575.502;  -19.133; -200.116; -204.791
575.780;  -88.273; -767.112; -829.798
576.058;  133.416; 1589.889; 1004.200
576.336;  -11.254; -210.110; -129.801
576.614;  -40.848; -511.112; -340.798
576.891;   68.231; -711.115; -823.794
577.169;  517.716; -158.108; -285.805
577.447;  626.675;  169.893;  202.193
577.725;  293.457;  629.888;  854.201
578.003;   13.280;  -71.112; -371.798
578.280;   89.902; -208.104; -242.812
578.558;   73.680; -450.115; -422.793
578.836;  143.514; -210.114; -145.795
579.114;   67.401; -630.112; -670.797
579.391;   68.357;   -6.117;  -18.789
579.669;  -65.768; -595.114; -704.794
579.947;  186.222; -326.107; -127.806
580.224;  369.696; -692.107; -524.806
580.502;  340.376;  127.893;   76.193
580.779;   24.038;  -42.117;   75.210
581.057;  -68.041; -584.109; -470.804
581.334;  -89.483; -726.102; -695.815
581.612;   34.889;   54.895;  511.190
581.889;  -15.819;  -83.101; -129.818
582.167;  -33.129; -298.099; -190.821
582.444;  -79.950; -845.102; -814.817
582.721;  102.976;  657.899;  715.183
582.999;   58.493; -326.100; -167.821
583.276;  592.308; -812.123; -713.779
583.553;  800.946; -364.102; -294.816
583.831;  273.023; -607.104; -631.812
584.108;   79.214;  349.892;  174.195
584.385;   11.642; -122.102;  -98.815
584.662;  -55.757; -651.111; -828.801
584.940;   25.217;  204.889;  204.199
585.217;  -22.204;  -73.113; -303.796
585.494;   34.776;   71.890;  118.198
585.771;  213.334; -250.109; -354.804
586.048;  544.720; -196.113;  -76.796
586.325;  359.645; -721.110; -773.801
586.602;  103.702;  230.896;  213.188
586.879;   -4.611; -499.100; -580.820
587.156;   44.790; -156.105; -331.810
587.433;  -19.077; -701.102; -667.817
587.710;   68.003;  152.888;  234.202
587.987;  337.695; -264.105; -236.811
588.264;  844.430;  315.888;  387.202
588.541; 1443.680;  -61.104;   26.187
588.818; 2878.137;   72.892;  171.196
589.095; 2503.625; -163.104; -174.812
589.371;  409.382; -459.109; -414.804
589.648;   26.851; -581.107; -437.807
589.925;   36.415; -517.114; -621.795
590.202;   42.152; -741.112; -607.798
590.478;   99.972; -166.105;  -73.811
590.755;  284.693; -241.108; -132.806
591.032; 2638.448; -741.110; -699.802
591.308; 3731.397; -732.094; -790.831
591.585; 1918.897; -573.110; -560.802
591.862;  169.875;-1056.102; -950.817
592.138;   76.315; -475.108; -474.805
592.415;  154.228; -486.104; -495.813
592.691; 1521.801;  460.896;  518.188
592.968; 1991.908; -208.098; -123.824
593.244;  930.315; -695.116; -595.790
593.521;   81.975; -105.102;  -42.817
593.797;   -7.013; -810.122; -720.780
594.074;  370.821; -611.096; -588.826
594.350;  730.707;  828.905;  729.172
594.626;  315.443; -303.111; -283.801
594.903;  130.476; -643.101; -645.817
595.179;  189.132;  243.896;  418.187
595.455;   13.852; -136.107; -150.807
595.731;    3.459;  -19.103;  -38.814
596.008;  -22.813; -464.111; -434.800
596.284;   61.492; -187.100; -242.820
596.560;   59.379; -501.093; -493.833
596.836;  241.067; -173.105;  -70.810
597.112;  378.266; -582.108; -437.805
597.388;  305.944;  -49.097;  -48.826
597.665;  113.923;  437.887;  530.203
597.941;  -65.066; -572.089; -658.839
598.217;   20.126; -323.110; -293.802
598.493;  303.486;   61.891; -204.804
598.769;  557.211; -175.100;  -50.819
599.045;  329.269; -490.108; -562.806
599.321;   63.916; -193.100; -261.820
599.597;  167.810; -355.109; -476.804
599.872;  500.580;  409.896;  429.187
600.148;  402.645;  -61.097; -172.826
600.424;  302.524;   91.893;  202.193
600.700;  258.776; -170.107; -280.807
600.976;  126.989; -442.097; -464.825
601.252;  272.207; -226.109; -272.803
601.527;  250.406; -833.104; -840.813
601.803;  179.598; -453.105; -404.812
602.079;  207.936; -124.100; -118.819
602.354;  617.639; -620.092; -531.835
602.630;  878.421; -140.113; -482.796
602.906; 2471.906; -910.101; -863.818
603.181; 7336.794; -627.119; -534.786
603.457; 6209.618;   98.903; -278.826
603.733;  902.152; -605.120; -626.783
604.008; 1028.789; -245.106; -164.810
604.284; 3312.752; -636.101; -580.817
604.559; 2888.807;   -3.112;  -42.799
604.835;  512.842; -163.105; -225.810
605.110;  453.221; -732.099; -892.821
605.385;  750.582;  224.907;  267.167
605.661;  719.910; -625.095; -729.829
605.936; 1271.019; -664.108; -737.806
606.211; 1083.165;  -17.103; -170.815
606.487;  227.134; -329.114; -376.794
606.762;   43.645; -791.119; -745.786
607.037;  -23.883; -501.105; -433.810
607.313;  -33.122; -589.096; -574.828
607.588;   -2.637; -375.106; -137.810
607.863;   48.405;  -28.101; -143.818
608.138;  199.125;  513.890;  516.198
608.413;   55.575; -576.099; -592.822
608.688;   47.441; -203.108; -267.805
608.964;  214.207; -509.106; -218.809
609.239;  269.414; -107.105; -212.810
609.514;  277.247;  281.895;  240.188
609.789;  702.902; -187.104; -716.812
610.064;  931.002; -435.096; -609.827
610.339;  960.907; -855.109; -799.804
610.614; 1298.966; -131.100; -315.820
610.889;  710.273;  215.895;  107.188
611.163;   50.998; -407.104; -591.812
611.438;   90.036;   81.886; -167.794
611.713;   17.952; -467.101; -499.817
611.988;   64.429; -144.101; -328.818
612.263;   -4.958; -771.102; -717.815
612.538;  231.045;  385.887;  251.204
612.812;  209.117; -832.100; -911.820
613.087;  160.806; -358.098; -338.823
613.362;  -32.198; -497.107; -557.807
613.637;   47.536;  261.897;  138.186
613.911;  -23.135; -256.092; -345.835
614.186;  131.275; -249.107; -292.807
614.460;  754.612; -842.081; -758.854
614.735;  852.084;  -55.087;  -17.843
615.010;  179.648;   43.912;  -82.841
615.284;  251.740;  360.892;  246.195
615.559;  398.789; -792.092; -955.835
615.833;  320.998;  -76.099;  -87.822
616.108;   15.926; -225.090; -390.837
616.382;  152.135;  274.913;  402.156
616.656;  184.801; -241.090; -232.837
616.931;  548.974; -785.099; -700.822
617.205; 1175.056; -973.104; -979.813
617.480; 1020.487;  -91.125;    6.225
617.754;  198.959; -396.125; -128.774
618.028;   20.804; -369.129; -382.768
618.302;   66.664;   73.892;  -25.805
618.577;  -41.762; -371.103; -518.815
618.851;  -50.921; -399.109; -600.803
619.125;  -45.917; -335.134; -378.759
619.399;  -39.944; -244.104; -374.813
619.673;  -39.876; -330.115; -515.792
619.947;  -33.986; -333.114; -448.795
620.222;  -21.206; -198.110; -204.801
620.496;    5.225;  -47.121;  -96.782
620.770;   26.291; -187.122;  -93.781
621.044;  214.640;  323.895;  346.190
621.318;  773.653; -653.120; -614.783
621.592;  730.751; -430.121; -409.783
621.866;  401.458; -476.112; -572.799
622.140;   37.867; -207.116; -356.791
622.413;   64.862;  138.889;  112.200
622.687;  -36.548; -746.101; -492.817
622.961;   14.314; -130.108; -143.805
623.235;  -48.487; -633.111; -661.800
623.509; -102.728; -816.105; -848.811
623.783;   18.697;  -12.107;   48.193
624.056;  -11.746; -254.120; -280.783
624.330;   45.601;   63.888;   -3.797
624.604;   72.439; -271.116; -355.790
624.877;   77.499;  180.890;   26.198
625.151;   57.483; -249.114; -238.794
625.425;  -22.717; -150.103; -283.814
625.698;  -51.361; -367.119; -374.785
625.972;  -82.449; -799.110; -765.802
626.245;   67.566;  685.884;  484.210
626.519;  -37.742; -426.120; -340.784
626.792;  -24.899; -192.107; -380.807
627.066;  -76.916; -485.122; -662.779
627.339;  -93.503; -736.110; -663.802
627.613;   41.107;  351.880;  148.216
627.886;   57.953;  187.891; -612.803
628.160;  -13.322;  312.880; -161.783
628.433;  -87.735; -695.125; -703.775
628.706;  -75.692; -517.120; -615.784
628.979;   18.321;  296.876;  117.223
629.253;  -75.331; -785.119; -833.786
629.526;  396.874; -334.126; -253.772
629.799;  406.354; -641.123; -479.778
630.072;  184.730; -497.128; -516.769
630.346;  -62.859;-1115.116;-1080.790
630.619;  488.277; -467.107; -545.808
630.892;  677.339;  709.889;  593.200
631.165;  340.431;  790.896;  679.187
631.438;  -75.695;-1092.112;-1055.798
631.711;   45.382;  453.877;  257.221
631.984;  -29.389; -523.117; -624.789
632.257;  -63.693; -636.117; -681.789
632.530;  -45.111; -412.119; -433.785
632.803;   26.306; -109.115;    7.207
633.076;  -51.600; -360.123; -422.777
633.349;    3.009;  173.872;  121.231
633.622;  -32.812; -187.119; -240.785
633.895; -119.321; -903.120; -823.783
634.167;  -52.224; -496.126; -525.773
634.440;   -5.178;  -19.116; -137.792
634.713;    4.768;  -22.119; -120.786
634.986;   81.074;  593.871;  453.233
635.258;  -73.696; -507.115; -597.793
635.531;   87.128;  742.882; -343.788
635.804;  -22.641; -303.117; -318.789
636.077;  -78.282; -830.116; -852.791
636.349;    8.577; -586.115; -474.793
636.622;  389.648; 1695.874; 1392.228
636.894;  275.609; -474.120; -909.784
637.167;  175.942; -836.127; -789.771
637.439;   46.163; -278.128; -213.770
637.712;  -54.475; -312.126; -293.772
637.984;  -70.106; -635.116; -707.791
638.257;  384.451;  515.877;  488.222
638.529;  610.991; -881.125; -924.776
638.802;  254.530; -508.128; -449.769
639.074;  -98.010; -927.122; -952.781
639.346; -113.101; -942.135; -930.757
639.619;   -2.369;  -79.142; -319.744
639.891;    8.509;  -83.122; -168.779
640.163;  -82.364; -689.122; -756.780
640.435;   40.463;  273.878;  103.220
640.708;   10.615;  -72.122; -132.780
640.980;  -26.858; -366.122; -362.781
641.252;  192.169;  -25.121;  -71.781
641.524; 1858.320;  580.879;  573.219
641.796; 1922.472;-1094.121; -907.782
642.068;  358.749; -191.121; -300.782
642.340;  -41.524; -486.121; -566.783
642.613;   41.753;  294.880;  323.217
642.885;  -95.120; -787.120; -878.783
643.157;  -46.443; -810.120; -658.784
643.428;   67.084;  170.880;  218.216
643.700;  -70.239; -498.120; -425.784
643.972;  -22.188;  -16.119; -133.785
644.244;  -93.311; -474.119; -559.785
644.516;  -49.184; -250.119; -114.786
644.788;   46.593;  662.881;  548.214
645.060;  -17.705;  -12.119; -124.786
645.332;  -86.703; -525.118; -535.787
645.603;   35.299;  479.882;  342.213
645.875;  -73.824; -334.118; -369.787
646.147;  168.953; 1487.882; 1242.212
646.418;  -53.495; -931.117; -918.788
646.690;  186.181; -714.117; -715.789
646.962;   49.358; -413.117; -451.789
647.233;  -11.315;   15.883;   11.211
647.505; -104.338; -595.117; -475.790
647.776;   40.614;  328.884;  229.210
648.048;   -6.859; -248.116; -418.790
648.320;  -54.607; -752.116; -679.791
648.591; -145.655;-1055.116; -958.791
648.862;  -89.528; -505.116; -577.792
649.134;   12.648;  115.885;  198.208
649.405;  -35.125; -661.115; -618.792
649.677;  -41.948; -475.115; -598.793
649.948;   11.604; -181.115; -296.793
650.219;   -2.419;  -37.115; -147.793
650.491;  -83.342; -431.114; -520.794
650.762; -118.240; -705.114; -731.794
651.033;  -83.188; -437.114; -424.795
651.304;  -96.486; -743.114; -728.795
651.576;  -70.634; -680.114; -645.795
651.847;  -39.733; -250.113; -140.796
652.118;  -21.831;  -32.113; -189.796
652.389;  -97.554; -639.113; -722.796
652.660;  -21.427; -147.113;  -89.797
652.931; -135.700; -897.112; -871.797
653.202;  -78.548; -382.112; -541.798
653.473;  -63.821; -633.112; -533.798
653.744;  165.931; -595.112; -590.798
654.015;  137.358; -356.112; -303.799
654.286;  -50.341; -642.111; -663.799
654.557;  -37.014; -586.111; -521.799
654.828; -155.787;-1114.111;-1088.800
655.099;  -77.485; -404.111; -291.800
655.370;  -79.583; -427.111; -543.801
655.641; -119.506; -656.110; -714.801
655.911; -106.204; -618.110; -638.801
656.182;   47.923;  437.890;  387.198
656.453;   98.900;  830.890;  746.198
656.724;  -66.723; -466.110; -426.802
656.994;  -76.622; -553.109; -568.803
657.265; -111.070; -862.109; -873.803
657.536;  -74.543; -500.109; -377.804
657.806; -106.466; -561.109; -593.804
658.077; -129.939; -866.109; -950.804
658.347;  -78.487; -523.108; -598.805
658.618;  -94.835; -646.108; -694.805
658.888;  -23.133;  -41.108;  112.195
659.159;  -68.781; -432.108; -548.806
659.429;  -21.005; -292.108; -349.806
659.700;   27.697; -435.107; -390.807
659.970;   -3.501; -370.107; -359.807
660.241;   23.551; -754.107; -921.807
660.511;  539.553; -147.107; -174.808
660.781;  114.280; -793.106; -748.808
661.052;  -37.193; -222.106; -381.808
661.322;  -22.341;   21.894;   -9.809
661.592;   13.886;  257.894;  148.191
661.862;  -67.787; -369.106; -382.810
662.133;  -81.886; -551.105; -502.810
662.403; -115.859; -770.105; -676.810
662.673;  -65.657; -256.105; -213.811
662.943;  -87.405; -612.105; -551.811
663.213;    0.047;  -85.105;  -81.811
663.483;  -71.126; -593.104; -568.812
663.753;  -66.674; -194.104; -152.812
664.023;  -16.472;   68.896;  -32.813
664.293;  -52.320; -319.104; -126.813
664.563;  -98.419; -694.104; -648.813
664.833; -117.867; -743.103; -608.814
665.103; -117.240; -730.103; -793.814
665.373; -122.338; -766.103; -806.814
665.643;  -83.911; -863.103; -918.815
665.913;   49.066; -534.103; -714.815
666.182;  163.418; -685.102; -719.816
666.452;  278.795;  -22.102;  -89.816
666.722;   -1.403; -724.102; -784.816
666.992; -130.701; -948.102; -921.817
667.261;  -77.575; -824.102; -808.817
667.531;  196.852;  134.899;   45.183
667.801;  575.429; -440.101; -412.818
668.070;  227.856;  714.899;  697.182
668.340;  -89.417; -883.101; -840.819
668.609;   94.935;  588.900;  301.181
668.879;  -75.988; -490.100; -558.819
669.149;  -73.936; -539.100; -516.820
669.418; -102.384; -698.100; -726.820
669.688;  -17.408; -482.100; -666.820
669.957;   97.019; -423.099; -546.821
670.226;  -28.429; -268.099; -331.821
670.496;  -77.902; -431.099; -635.822
670.765;  -74.625; -418.099; -501.822
671.034; -130.123; -872.099; -828.822
671.304;  -17.846;   55.902; -111.823
671.573; -136.044;-1085.098; -957.823
671.842;   95.083; -380.098; -294.823
672.112;   47.410; -692.098; -586.824
672.381;   -7.614; -239.098; -214.824
672.650; -121.312;-1005.097;-1021.825
672.919;  -99.335; -631.097; -507.825
673.188;  -88.108; -681.097; -878.825
673.457; -138.556;-1101.097;-1143.826
673.726;  -74.754; -579.096; -646.826
673.995;  -35.027; -533.096; -479.826
674.265;  -12.650; -263.096; -333.827
674.534;   18.002; -183.096; -235.827
674.802;   10.028; -618.096; -703.828
675.071; 1044.030; -886.095; -801.828
675.340; 4286.407; -464.095; -339.828
675.609; 1387.734;  103.905;   82.171
675.878;  102.186; -949.095; -893.829
676.147;   35.613;  -26.095;   -8.829
676.416;   92.190; -210.094; -294.830
676.685;  785.567; 1000.906; -622.830
676.953;  120.594; -603.094; -452.831
677.222;  -26.179; -193.094; -273.831
677.491;  -10.228;  -24.094; -127.831
677.759;    0.324;   11.907;  172.168
678.028;   -9.349; -279.093; -222.832
678.297;    2.703;   71.907;  197.168
678.565; -140.895; -898.093; -944.833
678.834;  -52.618; -311.093; -268.833
679.102;  -69.091; -411.092; -391.834
679.371; -146.514; -898.092; -727.834
679.639; -137.512; -797.092; -786.834
679.908; -119.886; -794.092; -724.835
680.176; -138.534; -895.091; -941.835
680.445;  -62.557; -346.091; -352.835
680.713;   -5.930;  -58.091;  -23.836
680.982;  -93.778; -523.091; -525.836
681.250;  -89.326; -578.091; -507.837
681.518;  -89.099; -534.090; -751.837
681.787;   -2.422; -204.090; -167.837
682.055;  -58.095; -490.090; -422.838
682.323; -136.918; -993.090; -992.838
682.591;   37.283; -216.090; -538.838
682.859;   95.860;    9.911;  -35.839
683.128;   24.387;  232.911;  497.161
683.396; -155.861;-1102.089;-1122.840
683.664;  -40.409; -241.089;   21.160
683.932;   16.068;  144.911;  -76.840
684.200;  -74.005; -576.088; -320.841
684.468;  -27.078;  -73.088; -124.841
684.736;  -24.551; -214.088; -175.841
685.004; -109.650;-1024.088; -982.842
685.272;  -45.648; -880.088; -774.842
685.540;  -46.396; -499.087; -557.843
685.808;  -82.769; -651.087; -682.843
686.076;  -92.317; -894.087; -969.843
686.343;  -60.815; -601.087; -815.844
686.611;   56.062; -195.087; -224.844
686.879;  471.589; -530.086; -553.844
687.147; 3543.841; -483.086; -480.845
687.414; 1046.318;  -12.086; -169.845
687.682;    6.269; -658.086; -757.846
687.950;  342.321;  259.915;  263.154
688.217;   30.898; -792.085; -760.846
688.485;   -0.250; -632.085; -636.847
688.753;  576.827;  -11.085; -102.847
689.020;  193.504; -820.085; -851.847
689.288;  -87.119; -853.084; -787.848
689.555;  -20.917; -195.084; -148.848
689.823;  -33.990; -241.084; -345.849
690.090;  -86.089; -546.084; -651.849
690.358; -128.687; -877.084; -897.849
690.625;    3.490;  120.917;   45.150
690.892;  -72.658; -403.083; -369.850
691.160;  -15.356;   72.917;  -35.850
691.427;    4.846;  141.917;  130.149
691.694; -127.452; -855.083; -929.851
691.962; -130.625;-1177.082;-1060.852
692.229;    8.752;  127.918;   56.148
692.496;   97.279;  130.918;  -49.852
692.763;   26.730; -164.082; -201.853
693.031;  -66.243; -739.082; -716.853
693.298;  -27.416; -509.081; -368.853
693.565;  315.086; -155.081; -163.854
693.832; 1412.563;   -5.081;   -9.854
694.099;  166.690; -643.081; -642.855
694.366;  -52.933; -882.081; -896.855
694.633;  -36.181; -920.080; -633.855
694.900;  726.846; 4367.920; -114.856
695.167;  445.147; -214.080; -380.856
695.434;  121.449; -646.080; -623.856
695.701;  211.776;  121.921;  -61.857
695.968;  505.578; -365.079; -361.857
696.234;  993.155; -415.079; -646.858
696.501;10490.832; -776.079; -614.858
696.768; 5568.559; -554.079; -617.858
697.035;  325.036; -632.078; -667.859
697.302;   59.188; -448.078; -552.859
697.568;    5.765; -458.078; -497.859
697.835;  -45.134; -683.078; -624.860
698.102;  -16.382; -498.078; -407.860
698.368;   79.470;  384.923;  396.139
698.635;  -22.578;  -47.077; -424.861
698.901;  -27.501; -240.077; -348.861
699.168;   86.926; -534.077; -456.862
699.435;   89.503;  -72.077;  -13.862
699.701; -102.720; -868.076; -764.862
699.968;   13.357;  144.924; -441.863
700.234;  -82.842; -783.076; -822.863
700.500;  -49.490; -448.076; -539.864
700.767;    2.537;   -1.075;   26.136
701.033; -125.261;-1015.075; -963.864
701.299;  -48.484; -450.075; -483.865
701.566;  116.643;  950.925;  763.135
701.832;   19.520;  -31.075;  -76.865
702.098;  -87.178;-1054.074;-1034.866
702.365;  -64.151;-1098.074;-1030.866
702.631;  -14.549;-1038.074;-1063.867
702.897; 1354.577; -765.074; -676.867
703.163; 2421.929;  348.926;  254.133
703.429;  164.756; -256.073; -273.868
703.695;  -25.142; -796.073; -792.868
703.961;   27.485; -214.073; -210.868
704.227;  -44.613; -630.073; -725.869
704.493;  124.464;  613.927;  510.131
704.759;  -10.284; -565.072; -540.870
705.025;   39.518; -203.072; -194.870
705.291;    5.869; -666.072; -562.870
705.557;  197.046;  719.928;   34.129
705.823;   35.673; -742.072; -694.871
706.089;  150.075; -307.071; -326.871
706.355;  353.827; -315.071; -244.872
706.620; 5346.454; -776.071; -729.872
706.886; 8069.631; -309.071; -362.873
707.152;  756.983; -818.070; -973.873
707.418;   -2.340;-1153.070;-1186.873
707.683;   -5.988; -550.070; -530.874
707.949;  -47.937; -547.070; -578.874
708.215;   -6.260; -129.070; -207.874
708.480;  -24.308; -520.069; -420.875
708.746;   92.344;   68.931;   28.125
709.011;  -54.004; -578.069; -612.876
709.277;  -66.152; -538.069; -543.876
709.542;  -40.500; -428.069; -387.876
709.808;    1.702;  -59.068;   89.123
710.073;  -64.396; -577.068; -695.877
710.339;  -24.495; -242.068; -228.877
710.604;   83.157; -780.068; -845.878
710.869;  345.134; -277.068; -366.878
711.135;  -57.814; -715.067; -628.879
711.400;  -74.962; -507.067; -608.879
711.665;  -49.660; -404.067; -479.879
711.931;  -91.033; -661.067; -677.880
712.196; -110.031; -876.067; -954.880
712.461;  106.396; -402.066; -490.880
712.726;  174.298; -727.066; -771.881
712.991;  -78.126; -647.066; -664.881
713.256;  -44.249; -350.066; -332.882
713.521;  -58.797; -417.065; -381.882
713.787;  -56.420; -454.065; -472.882
714.052;  -20.293; -214.065; -400.883
714.317;  -82.466;-1045.065; -981.883
714.581;  976.011; -374.065; -268.883
714.846; 1471.513; -822.064; -888.884
715.111;  127.040;  261.936;  257.116
715.376;  -19.384;  -86.064; -223.885
715.641;  -21.557; -365.064; -367.885
715.906;  332.570;   15.936; -551.885
716.171;  138.847;  221.937;  209.114
716.436;   44.024;  -78.063; -104.886
716.700; -109.924; -818.063; -692.886
716.965; -115.797; -794.063; -807.887
717.230;  -66.470; -339.063; -392.887
717.494;  -22.968;  -40.062; -134.888
717.759;  -89.816; -784.062; -640.888
718.024;    8.460;  269.938;  250.112
718.288;   86.612;  685.938;  395.111
718.553; -146.086; -803.062; -977.889
718.817; -141.034; -883.061; -899.889
719.082;  -31.757; -115.061; -125.890
719.346; -131.930;-1000.061; -947.890
719.611;  -41.303; -300.061; -255.891
719.875;  -84.976; -568.060; -537.891
720.140;  -73.624; -453.060; -603.891
720.404;   36.652; -136.060; -249.892
720.668;  903.204; -475.060; -411.892
720.933;  372.681;  146.940;  137.108
721.197;  -82.342; -667.059; -600.893
721.461; -127.790; -851.059; -826.893
721.725;   -7.913;  -21.059; -250.894
721.990;  -56.286; -284.059; -204.894
722.254;  -23.909;  -26.059; -108.894
722.518;  -69.707; -286.058; -442.895
722.782;  -96.080; -743.058; -594.895
723.046;  116.796;  614.942;  570.105
723.310;   18.273;  374.942;  210.104
723.574; -102.275; -654.058; -614.896
723.838;  -99.998; -576.057; -642.897
724.102;  -51.721; -226.057; -239.897
724.366; -120.644;-1032.057; -978.897
724.630;  -84.342; -749.057; -571.898
724.894;  -64.490; -722.057; -514.898
725.158;   -2.138;   38.944; -295.898
725.422;  -50.287; -394.056; -327.899
725.685;  -58.560; -441.056; -349.899
725.949;  -64.208; -566.056; -519.900
726.213;  -53.881; -732.056; -811.900
726.477;  176.421;-1020.055; -933.900
726.740;  149.523; -274.055; -104.901
727.004;  335.300; -384.055; -510.901
727.268; 3326.577; -442.055; -400.901
727.531;  980.804; -961.055; -775.902
727.795;  -31.719; -713.054; -673.902
728.059;  -55.368; -552.054; -557.903
728.322;  -73.216; -841.054; -669.903
728.586;   25.461; -692.054; -701.903
728.849;  -76.812; -695.053; -756.904
729.112; -108.960; -812.053; -912.904
729.376; -115.458; -959.053; -905.904
729.639;  -64.381; -536.053; -536.905
729.903;  -85.454; -733.053; -699.905
730.166;  -44.602; -437.052; -399.906
730.429;  -27.151; -317.052; -468.906
730.693;  -59.899; -355.052; -894.906
730.956;  194.453;  810.948;  651.093
731.219;  747.780; -310.052; -103.907
731.482;  143.982;-1003.051; -894.907
731.745;  128.009; -794.051; -935.908
732.009;   18.411;  -30.051;   50.092
732.272;  -94.587; -904.051; -771.909
732.535;  -41.910; -300.051; -310.909
732.798; -139.033;-1083.050;-1166.909
733.061;  -63.932; -430.050; -456.910
733.324;   19.870;   31.950; -180.910
733.587;   74.347;  290.950;  365.090
733.850;  -52.351; -973.049;-1050.911
734.113;   26.851;   33.951;   32.089
734.376;   19.878; -328.049; -447.912
734.639;  219.630; 1188.951; 1011.088
734.901;   87.857; -180.049; -402.912
735.164;  517.959; -883.048; -837.913
735.427; 1425.285; -166.048; -355.913
735.690;  137.387; -205.048; -234.913
735.952;  -19.236; -923.048; -925.914
736.215;   -5.634;-1113.048;-1009.914
736.478;   60.868; -771.047; -774.915
736.740;  223.145;   33.953;  129.085
737.003;  680.247; -658.047; -672.915
737.266; 4378.474;  -94.047;   46.084
737.528;  495.326; -682.047; -660.916
737.791;  338.828; -316.046; -327.916
738.053;  784.354;  465.954;  649.083
738.316;10692.231; -162.046; -136.917
738.578; 8205.183; -770.046; -736.918
738.841;  459.210; -382.046; -446.918
739.103;  183.312; -875.045; -777.918
739.365;  549.439;   79.955;  -69.919
739.628;   29.166; -884.045; -805.919
739.890;  -19.007; -758.045; -710.919
740.152;  -30.430; -692.044; -754.920
740.414;  -10.854; -408.044; -359.920
740.677;  -48.902; -785.044; -634.921
740.939;  -33.500; -587.044; -487.921
741.201;  301.152; -432.044; -572.921
741.463;   52.954; -689.043; -745.922
741.725;   14.956;  -21.043; -199.922
741.987;   47.758;  220.957;  116.078
742.249;    9.685; -751.043; -859.923
742.511;  249.112; -703.043; -794.923
742.773;   31.388; -546.042; -546.924
743.035;  114.740;  796.958;  533.076
743.297;  -46.158; -963.042;-1013.924
743.559;  774.519; -278.042; -262.925
743.821;   86.046; -735.042; -744.925
744.083;   13.098;  -44.041; -149.925
744.345;  -80.825; -869.041; -892.926
744.607;   42.152;   75.959;  122.074
744.868;  -44.696; -490.041; -554.927
745.130;  -86.294; -994.041;-1008.927
745.392;   40.382;   -1.040;  -44.927
745.653;  -16.066; -411.040; -378.928
745.915;  141.861;  896.960;  631.072
746.177;   61.938;   35.960;  -43.928
746.438;   11.190; -428.040; -543.929
746.700;  -33.558; -947.039; -988.929
746.961;   16.694; -659.039; -740.930
747.223;  158.621; -190.039;  -74.930
747.484;  108.198; -391.039; -471.930
747.746;  151.124;  -23.038; -106.931
748.007;  121.776; -647.038; -689.931
748.269;  310.828; -468.038; -440.931
748.530;  532.180; -852.038; -638.932
748.791;  277.632; -354.038; -420.932
749.053;  462.134;  286.963;  163.067
749.314;  494.661; -236.037; -169.933
749.575;  561.963; -945.037; -905.933
749.836;  883.440; -217.037;   86.066
750.098; 2358.617;  -60.037;  -21.934
750.359;37557.693;  414.964;  555.066
750.620;10478.120; -121.036; -220.935
750.881; 1092.872; -585.036; -513.935
751.142; 1422.949; -950.036; -938.936
751.403;16635.426; -789.036; -705.936
751.664; 8184.128;-1034.035; -999.936
751.925;  541.705; -175.035; -262.937
752.186;  291.032; -298.035; -278.937
752.447;  143.484; -590.035; -445.937
752.708;   65.085; -532.035; -648.938
752.969;   16.637; -566.034; -576.938
753.230;   -1.761; -777.034; -672.939
753.491;   11.341; -650.034; -631.939
753.751;   90.993;  109.966;   19.061
754.012;   98.995;  258.967;  181.060
754.273;   72.347; -174.033;  -71.940
754.534;   17.074; -487.033; -580.940
754.794;  -71.299; -926.033; -911.941
755.055;  131.803; 1051.967;  881.059
755.316;  -42.171; -700.032; -566.942
755.576;  -30.719; -606.032; -576.942
755.837;  -29.392; -527.032; -695.942
756.097;  -21.690; -530.032; -564.943
756.358;  -64.263; -725.032; -770.943
756.618;  -62.711; -705.031; -641.943
756.879;    8.366; -254.031; -349.944
757.139; -113.857;-1098.031;-1116.944
757.400;  -47.330; -538.031; -553.945
757.660;  -26.654; -365.031; -401.945
757.920;   13.473; -266.030; -228.945
758.181;  -16.300; -468.030; -351.946
758.441;  -65.898; -870.030; -809.946
758.701;  -32.896; -308.030; -215.946
758.961;  -26.969; -220.030; -278.947
759.222;  -58.192; -574.029; -502.947
759.482;  -70.015; -683.029; -723.948
759.742;  -78.388; -706.029; -547.948
760.002;   15.089;  -83.029; -143.948
760.262;   19.490;   50.972;  182.051
760.522;  -35.708; -498.028; -574.949
760.782;  -44.331; -738.028; -612.949
761.042;  -23.404; -618.028; -573.950
761.302;   46.248;   55.972;  -18.950
761.562;   67.200; -164.027; -154.951
761.822;   95.852; -710.027; -551.951
762.082;  -12.546;-1104.027;-1093.951
762.342;   74.706; -328.027; -403.952
762.601;  103.107; -567.027; -506.952
762.861;  380.084; -281.026; -207.952
763.121;  413.086; -406.026; -411.953
763.381; 7218.813; -499.026; -485.953
763.640; 8933.190; -139.026; -307.954
763.900;  386.417; -242.026; -203.954
764.160;  104.419; -458.025; -491.954
764.419;   -2.829; -726.025; -782.955
764.679;  -60.752; -795.025; -726.955
764.939;   -0.550; -124.025; -210.955
765.198;  -75.049; -608.025; -563.956
765.458;  -79.172; -710.024; -612.956
765.717;  -81.945; -454.024; -590.957
765.976;  -63.743; -428.024; -411.957
766.236;  -70.941; -475.024; -610.957
766.495;    7.286;  260.977;   73.042
766.755;  -76.512;-1090.023; -987.958
767.014;   -0.085; -594.023; -665.958
767.273;  -42.833; -373.023; -397.959
767.533;  -34.432; -228.023; -307.959
767.792;  -33.605; -151.022; -188.960
768.051;  -50.928; -228.022; -276.960
768.310;  -99.051; -546.022; -650.960
768.569;   -1.399; -161.022;    4.039
768.828;  -13.622; -285.022; -363.961
769.088; -109.920;-1050.021; -942.961
769.347;  -79.393; -755.021; -599.962
769.606;  -88.091; -876.021; -857.962
769.865; -104.939;-1016.021;-1033.963
770.124;   -0.588; -411.021; -336.963
770.383;  -31.661; -778.020; -910.963
770.641;   12.066; -398.020; -400.964
770.900;  -54.657; -953.020; -846.964
771.159;  -29.930; -851.020; -951.964
771.418;   -7.378; -917.020; -779.965
771.677;  123.799; -224.019; -293.965
771.936;  159.701; -794.019; -865.966
772.194; 1960.078; -465.019; -437.966
772.453;11436.004; -213.019; -391.966
772.712;  826.806;  416.982;  329.033
772.970;  132.658;   32.982;   63.033
773.229;   94.685;  -22.018;  102.033
773.488;  -73.238; -814.018; -770.968
773.746;   49.814;  296.982;  335.032
774.005;   16.416;  190.983;  -22.969
774.263;   -7.082;  243.983;  177.031
774.522;  -46.805; -422.017; -548.969
774.780;  -83.053; -484.017; -417.970
775.039;  -72.702; -551.017; -531.970
775.297;  -29.400; -135.016; -351.970
775.555; -100.073; -489.016; -612.971
775.814; -122.621; -618.016; -570.971
776.072; -113.619; -749.016; -740.971
776.330;  -92.317; -630.016; -520.972
776.589; -112.065; -703.015; -721.972
776.847; -113.188; -645.015; -624.973
777.105; -153.686;-1016.015;-1032.973
777.363;  -78.710; -459.015; -454.973
777.621; -123.458; -660.015; -717.974
777.879;  -28.106;  -42.014;   32.026
778.138;  -92.879; -554.014; -717.974
778.396; -105.402; -585.014; -526.975
778.654; -150.450;-1015.014; -970.975
778.912;  -76.073; -269.014; -371.976
779.170; -111.971; -880.013; -803.976
779.427; -150.044; -922.013; -897.976
779.685; -130.892; -880.013; -832.977
779.943;  -67.891; -654.013; -593.977
780.201; -159.539; -964.012; -883.978
780.459; -114.462; -651.012; -610.978
780.717;  -83.635; -440.012; -390.978
780.974; -108.283; -449.012; -490.979
781.232;  -68.081; -358.012; -338.979
781.490;  -71.004; -551.011; -472.979
781.747;  -94.927; -555.011; -476.980
782.005;   14.425;  462.989;  254.020
782.263; -150.899; -542.011;-1004.981
782.520;  -75.347; -326.011; -501.981
782.778; -152.870;-1013.010;-1051.981
783.035; -169.118; -962.010; -938.982
783.293;  -63.566; -248.010; -206.982
783.550;  -74.539; -134.010; -198.982
783.808; -127.912; -764.010; -776.983
784.065; -154.410; -745.009; -874.983
784.322;  -49.433;   25.991;  -86.984
784.580; -134.406; -915.009; -771.984
784.837;  -79.055; -392.009; -466.984
785.094; -126.203; -783.009; -762.985
785.352;  -75.101; -304.008; -404.985
785.609; -107.574; -934.008; -839.985
785.866;  -81.772; -345.008; -401.986
786.123;  -66.020; -639.008; -583.986
786.380;  -90.318; -665.008; -604.987
786.637;  -35.391; -225.007; -380.987
786.895;    1.061; -456.007; -543.987
787.152;  -50.513; -135.007; -267.988
787.409;  -42.761; -123.007; -225.988
787.666;  -86.134; -299.006; -378.988
787.923; -101.307; -616.006; -695.989
788.179; -102.555; -551.006; -584.989
788.436; -103.953; -585.006; -585.990
788.693;  -28.801;  -92.006;  -87.990
788.950;  140.976; -125.005; -112.990
789.207;  251.603; -381.005; -372.991
789.464;  -43.195; -161.005; -301.991
789.720;    3.031;  150.995;  110.009
789.977; -168.642;-1003.005; -671.992
790.234;  -36.015;   44.996;  -66.992
790.490; -142.638; -884.004;-1031.993
790.747;  -26.036;  -85.004;   22.007
791.004;  -19.584; -426.004; -348.993
791.260;  -63.982; -430.004; -560.994
791.517;  -87.205; -843.003; -788.994
791.773;  -40.178; -379.003; -342.994
792.030; -103.377; -596.003; -660.995
792.286;  -85.025; -686.003; -636.995
792.543;  -15.048;  -74.002; -159.995
792.799;  -57.046; -584.002; -382.996
793.055; -147.694;-1179.002;-1210.996
793.312;  -91.992; -827.002; -816.997
793.568;  -60.415; -746.002; -599.997
793.824;    1.512; -226.001; -284.997
794.081;   17.364; -447.001; -508.998
794.337;   61.366; -664.001; -561.998
794.593; 1212.217; -319.001; -271.999
794.849; 7011.569; -746.001; -772.999
795.105;  392.146; -270.000; -261.999
795.361;   16.023; -490.000; -457.000
795.617;  -40.500; -875.000; -945.000
795.873;  -46.200; -360.000; -407.000
796.129;  -17.475; -368.000; -306.000
796.385;  -18.675; -124.000; -156.000
796.641;   74.525;  412.000;  550.000
796.897;  -83.675; -666.000; -635.000
797.153;   69.525;  453.000;  357.000
797.409;  -97.025; -785.000; -868.000
797.665;  -61.000; -625.000; -732.000
797.921;  -72.600; -775.000; -762.000
798.176;  -40.125; -744.000; -747.000
798.432;  -34.650; -824.000; -596.000
798.688;  -65.575;-1174.000;-1078.000
798.943;   81.675; -165.000; -147.000
799.199;    9.775;-1005.000; -959.000
799.455;  245.825;  369.000;  316.000
799.710;  151.950; -813.000; -380.000
799.966;  308.250; -162.000; -160.000
800.221;  489.950; -638.000; -721.000
800.477; 9978.125; -743.000; -710.000
800.732;10238.375; -773.000; -800.000
800.988;  674.625;  205.000;  -19.000
801.243; 1570.225; -454.000; -344.000
801.498; 7809.225; -814.000; -739.000
801.754;  487.950; -289.000; -163.000
802.009;   85.150; -257.000; -335.000
802.264;  -46.175; -967.000;-1033.000
802.520;   31.075;  222.000;   -3.000
802.775;  -39.350; -524.000; -359.000
803.030;   63.175;  395.000;  356.000
803.285; -102.975; -840.000; -903.000
803.540;  -56.150; -686.000; -699.000
803.795;  -37.350; -648.000; -583.000
804.051;  -33.525; -279.000; -346.000
804.306;   21.475;  168.000;  128.000
804.561;  158.325;  451.000;  362.000
804.816;  137.875;  714.000;  861.000
805.071;   -9.225; -185.000; -280.000
805.325;  243.975; -257.000; -427.000
805.580; -102.800; -841.000; -877.000
805.835;  -12.675; -204.000; -297.000
806.090;  -72.150; -760.000; -676.000
806.345;   -8.875; -344.000; -264.000
806.600;  -25.500; -549.000; -632.000
806.854;  -13.300; -408.000; -538.000
807.109;   -8.625; -493.000; -577.000
807.364;   -1.575; -407.000; -328.000
807.618;    9.850; -415.000; -381.000
807.873;   77.800; -470.000; -494.000
808.128;  115.050; -257.000; -518.000
808.382;  123.800; -224.000; -332.000
808.637;   83.825; -440.000; -511.000
808.891;  216.600; -257.000; -180.000
809.146;  124.625; -902.000; -794.000
809.400;  289.875; -848.000; -923.000
809.654;  366.075; -779.000; -551.000
809.909;  511.175; -841.000; -927.000
810.163; 6268.250; -813.000; -651.000
810.418;18878.800; -940.000; -861.000
810.672; 1181.975; -685.000; -690.000
810.926;  753.350; -993.000; -973.000
811.180; 1371.750; -439.000; -372.000
811.434;30868.750;  240.000;  135.000
811.689;14658.950; -231.000; -365.000
811.943;  698.975; -936.000; -953.000
812.197;  348.150; -893.000; -671.000
812.451;  146.250; -379.000; -514.000
812.705;  -22.775; -809.000; -619.000
812.959;    9.325; -263.000; -388.000
813.213;    3.375; -283.000; -209.000
813.467;   79.175;  470.000;  253.000
813.721;  -90.450; -764.000; -792.000
813.975; -100.350; -826.000; -877.000
814.229;   40.650;  430.000;  353.000
814.482;  -56.600; -517.000; -566.000
814.736; -119.550; -766.000; -744.000
814.990; -121.250; -779.000; -872.000
815.244;  -46.400; -228.000; -285.000
815.497;  -89.750; -636.000; -601.000
815.751;  -24.350; -141.000;   82.000
816.005;  -85.325; -470.000; -586.000
816.258;  -66.925; -510.000; -363.000
816.512; -112.650; -693.000; -610.000
816.766;   12.425;  121.000;  157.000
817.019;   31.225;  148.000;  149.000
817.273; -103.725;-1000.000; -802.000
817.526;  -37.925; -206.000; -173.000
817.779;  -37.925;-1049.000; -960.000
818.033;  -54.950; -693.000; -807.000
818.286; -129.925; -725.000; -792.000
818.540;  -70.825; -403.000; -403.000
818.793;  -80.800; -402.000; -489.000
819.046;  -92.250; -582.000; -520.000
819.299;  -34.900; -157.000; -166.000
819.553;  -97.575; -552.000; -592.000
819.806; -159.400;-1016.000; -838.000
820.059;  -58.050; -334.000; -354.000
820.312;   23.475;  152.000;  185.000
820.565;  -14.700;  110.000;  -27.000
820.818;  -43.725;  -59.000; -173.000
821.071; -150.700;-1041.000; -957.000
821.324; -104.225; -536.000; -540.000
821.577;  -92.925; -457.000; -483.000
821.830;  -67.250; -270.000; -172.000
822.083; -115.550; -733.000; -288.000
822.336;  -54.175; -261.000; -167.000
822.589; -121.000; -805.000; -688.000
822.842; -152.000; -875.000; -770.000
823.094; -175.400;-1076.000;-1114.000
823.347; -137.225; -925.000; -729.000
823.600;    9.725;  402.000;  187.000
823.853;  -53.675; -311.000; -267.000
824.105;  -52.750; -331.000; -575.000
824.358; -104.725; -617.000; -716.000
824.611;   43.375;  234.000;   40.000
824.863;  -48.750; -612.000; -591.000
825.116;   46.525;  -33.000;   27.000
825.368;   89.425; -366.000; -372.000
825.621;  174.150; -186.000; -240.000
825.873;  107.575; -704.000; -737.000
826.126;  542.350; -669.000; -641.000
826.378;11573.900; -389.000; -505.000
826.630; 3426.625; -890.000; -898.000
826.883;   57.650; -754.000; -693.000
827.135;   57.400; -279.000; -270.000
827.387; -114.175; -893.000; -839.000
827.639;  -24.475;  -86.000;   32.000
827.892; -134.775; -742.000; -582.000
828.144; -142.450; -848.000; -804.000
828.396;  -47.875;  104.000;  -80.000
828.648;  -93.975; -440.000; -333.000
828.900; -132.550; -702.000; -795.000
829.152; -100.475; -684.000; -683.000
829.404;  -68.450; -215.000; -267.000
829.656;   -0.175;  321.000;  214.000
829.908;  -12.825;  393.000;  229.000
830.160; -154.600;-1064.000;-1047.000
830.412;  -99.175; -481.000; -430.000
830.664; -114.100; -557.000; -665.000
830.916;  -63.325; -268.000; -206.000
831.167; -174.050;-1073.000; -951.000
831.419; -114.575; -623.000; -566.000
831.671; -133.225; -764.000; -809.000
831.923;  -77.675; -311.000; -447.000
832.174;  -73.550; -273.000; -331.000
832.426; -115.975; -493.000; -582.000
832.678; -180.450;-1043.000;-1091.000
832.929; -170.075; -947.000; -935.000
833.181;  -52.425; -575.000; -677.000
833.432;  -42.650;  -59.000; -186.000
833.684;  -24.275;  112.000;  -27.000
833.935; -119.825; -610.000; -566.000
834.187; -119.450; -829.000; -823.000
834.438;  -50.425;  -58.000;  -25.000
834.689;  -56.500; -255.000; -123.000
834.941;  -54.550; -343.000; -244.000
835.192;  -99.725; -590.000; -533.000
835.443;  -96.475; -419.000; -506.000
835.695;  -21.500;  138.000;  -16.000
835.946;  -77.875; -608.000; -378.000
836.197; -102.975; -599.000; -622.000
836.448;  -95.400; -528.000; -395.000
836.699;  -56.475; -253.000; -341.000
836.950;   -8.900;   72.000;    7.000
837.201; -136.650;-1003.000; -987.000
837.452;  -48.500; -356.000; -170.000
837.703; -102.475; -791.000; -737.000
837.954;  -32.425; -205.000; -365.000
838.205;  -68.625;-1029.000;-1008.000
838.456;  182.850; -196.000; -282.000
838.707;   15.550; -423.000; -519.000
838.958;   16.125; -634.000; -647.000
839.209;  323.700;   18.000;   40.000
839.460;  132.075; -439.000; -201.000
839.710;  184.700; -135.000; -297.000
839.961;  429.675;  730.000;  612.000
840.212;  341.825; -382.000; -497.000
840.462; 1117.275; -328.000; -277.000
840.713;17541.900; -571.000; -536.000
840.964; 8437.950;  -62.000; -143.000
841.214;  580.650; -384.000; -624.000
841.465;  601.375; -214.000; -141.000
841.715;  569.500; -417.000; -380.000
841.966;  673.825; -746.000; -685.000
842.216; 8532.250; -330.000; -431.000
842.466;37958.800; -169.000; -313.000
842.717; 2547.700; -964.000; -952.000
842.967;  352.550; -635.000; -641.000
843.217;  314.975;   20.000;   28.000
843.468;   89.400; -104.000; -132.000
843.718;  -18.325; -718.000; -726.000
843.968;  -92.850; -837.000; -765.000
844.218;   27.475; -315.000; -262.000
844.469;  -48.875; -577.000; -561.000
844.719;  -99.800; -537.000; -682.000
844.969; -100.200; -550.000; -580.000
845.219; -139.275; -814.000; -862.000
845.469;  -63.850; -392.000; -342.000
845.719; -127.050; -792.000; -884.000
845.969;  -16.500;  119.000;  174.000
846.219; -106.625; -738.000; -720.000
846.469;   18.950;  464.000;  432.000
846.718;  -49.275; -115.000;   31.000
846.968; -123.700; -827.000; -827.000
847.218;  -46.750; -224.000; -371.000
847.468;  -13.550; -586.000; -555.000
847.718; -143.675; -827.000; -798.000
847.967; -122.925; -826.000; -915.000
848.217;  -71.525; -449.000; -569.000
848.467;  -54.425; -405.000; -376.000
848.716; -107.425; -708.000; -725.000
848.966;   10.725; -372.000; -358.000
849.215;  -62.025; -428.000; -419.000
849.465;  -97.000; -785.000; -615.000
849.714; -135.525;-1132.000;-1150.000
849.964;  -58.525; -551.000; -613.000
850.213;  -19.350; -393.000; -355.000
850.463;   80.700;  137.000;  340.000
850.712;   17.350; -542.000; -567.000
850.961;   16.475; -739.000; -678.000
851.211;  106.750; -513.000; -504.000
851.460;  179.250; -635.000; -650.000
851.709;  562.425;  -25.000;   18.000
851.958; 9732.925; -912.000; -750.000
852.208;14179.025; -859.000; -879.000
852.457;  545.450; -181.000;  -13.000
852.706;   91.150; -791.000; -823.000
852.955;   33.400; -507.000; -528.000
853.204;  -67.575; -521.000; -461.000
853.453;  -79.000; -418.000; -458.000
853.702; -134.675; -660.000; -750.000
853.951;  -97.875; -532.000; -520.000
854.200; -105.500; -613.000; -562.000
854.449; -130.175; -695.000; -661.000
854.698;  -86.500; -340.000; -279.000
854.946;  -68.200; -181.000; -284.000
855.195; -135.700; -843.000; -868.000
855.444; -104.225; -395.000; -420.000
855.693; -121.200; -345.000; -432.000
855.941; -100.800; -387.000; -516.000
856.190;  -61.025; -256.000; -382.000
856.439; -115.800; -652.000; -703.000
856.687;  -45.350;  -99.000;  -72.000
856.936; -125.025; -621.000; -323.000
857.184; -179.050;-1067.000;-1020.000
857.433; -104.850; -423.000; -512.000
857.681; -153.125; -989.000; -953.000
857.930;  -83.000; -282.000; -433.000
858.178; -159.625; -856.000; -929.000
858.427; -148.350; -802.000; -781.000
858.675; -118.975; -377.000; -544.000
858.923; -109.625; -527.000; -819.000
859.172; -174.375;-1094.000;-1070.000
859.420;  -85.425; -339.000; -239.000
859.668; -138.100; -624.000; -628.000
859.916;  -31.325;  109.000;  115.000
860.164; -110.075; -699.000; -603.000
860.413;  286.525; -878.000; -696.000
860.661;  280.825; -709.000; -577.000
860.909;  -66.400; -339.000; -325.000
861.157;  -81.750; -277.000; -444.000
861.405; -128.975; -534.000; -670.000
861.653;   15.100;  310.000;  310.000
861.901;  171.125; -543.000; -613.000
862.149;   36.000; -801.000; -824.000
862.396;  -90.025; -297.000; -187.000
862.644;  -89.350; -368.000; -347.000
862.892;  -32.675;   98.000;  138.000
863.140; -116.450; -549.000; -530.000
863.388; -169.625; -815.000; -759.000
863.635; -133.175; -642.000; -601.000
863.883;  -18.800;  231.000;  190.000
864.131;  -88.575; -288.000; -357.000
864.378; -131.475; -675.000; -540.000
864.626;  -93.325; -347.000; -415.000
864.873; -110.025; -556.000; -505.000
865.121; -140.575; -714.000; -799.000
865.368;  -53.075; -173.000;   75.000
865.616;  -46.000;  -33.000;  -40.000
865.863;  -77.850; -462.000; -506.000
866.111; -113.050; -795.000; -824.000
866.358;   27.550; -426.000; -420.000
866.605; 2039.375;  -64.000; -804.000
866.853; 2450.975; -621.000; -537.000
867.100;  -27.150; -728.000; -775.000
867.347; -105.800; -672.000; -611.000
867.594;  -80.475; -740.000; -714.000
867.841;   85.100;   97.000;   17.000
868.089; -136.825; -746.000; -698.000
868.336; -119.700; -477.000; -420.000
868.583; -145.325; -637.000; -741.000
868.830;  -57.050; -131.000; -170.000
869.077; -162.200; -859.000; -787.000
869.324; -141.775; -502.000; -458.000
869.571; -116.600; -398.000; -430.000
869.818; -123.225; -485.000; -439.000
870.065;  -96.825; -439.000; -513.000
870.311; -112.675; -456.000; -542.000
870.558;  -95.950; -332.000; -311.000
870.805;  -98.025; -320.000; -384.000
871.052; -108.475; -494.000; -369.000
871.298;  -69.150; -204.000; -131.000
871.545;  -64.825; -151.000; -185.000
871.792;  -92.175; -173.000; -222.000
872.038;  -78.425;   43.000; -126.000
872.285; -120.750; -496.000; -387.000
872.532;  -93.650; -357.000; -387.000
872.778;   -1.200;  556.000;  403.000
873.025;  -80.700; -384.000; -359.000
873.271;   18.575;  501.000;  578.000
873.517;  -31.475; -133.000; -209.000
873.764;  -32.100; -193.000;  -80.000
874.010;  -64.675; -143.000; -230.000
874.257;  -65.100;  123.000;   90.000
874.503; -121.550; -579.000; -479.000
874.749;  -78.525;   31.000;  275.000
874.995;  -61.850;  -80.000;  -20.000
875.242; -121.800; -540.000; -478.000
875.488; -114.200; -414.000; -439.000
875.734;  -57.450; -106.000; -234.000
875.980;  187.625; -872.000;-1032.000
876.226;  442.575; -157.000; -255.000
876.472;    5.300;  343.000;  237.000
876.718;  -47.625;  184.000;  158.000
876.964;  -46.500;   56.000;   55.000
877.210; -134.175; -547.000; -677.000
877.456; -135.475; -630.000; -557.000
877.702; -180.350; -821.000; -832.000
877.948; -113.625; -377.000; -497.000
878.193;   -0.200;  361.000;  255.000
878.439;  -87.000; -487.000; -472.000
878.685; -100.500; -272.000; -343.000
878.931; -130.975; -618.000; -676.000
879.176;  -85.825; -201.000; -201.000
879.422; -168.400; -933.000; -820.000
879.668;   46.900;   10.000;   79.000
879.913;  167.300;   53.000;  137.000
880.159;  -45.425; -112.000;  -17.000
880.404;  -61.700; -152.000; -162.000
880.650;  -30.525;   91.000;  141.000
880.895; -161.075; -670.000; -710.000
881.141; -121.025; -454.000; -428.000
881.386; -150.525; -503.000; -658.000
881.631;  -92.700; -311.000; -166.000
881.877;  -27.550;  112.000;  -13.000
882.122; -141.375; -684.000; -600.000
882.367;  -83.825; -136.000; -186.000
882.612;  -77.350;  -80.000; -176.000
882.858; -171.400; -877.000; -823.000
883.103; -100.575; -297.000; -267.000
883.348; -147.250; -759.000; -852.000
883.593; -139.000; -677.000; -602.000
883.838;  -48.800; -311.000;  -24.000
884.083;   19.350;  353.000;  288.000
884.328;  -97.675; -564.000; -545.000
884.573;  -74.000; -196.000; -143.000
884.818;  197.700; -694.000; -531.000
885.063;  231.750; -348.000; -315.000
885.308; -103.775; -475.000; -398.000
885.553;  -14.750;  245.000;  325.000
885.797; -117.300; -545.000; -615.000
886.042;  -61.850;    8.000;   58.000
886.287;  -84.150; -253.000; -211.000
886.532;  -61.250;   26.000;  204.000
886.776; -106.000; -407.000; -525.000
887.021; -138.950; -621.000; -574.000
887.265; -162.625; -685.000; -689.000
887.510; -131.375; -557.000; -496.000
887.755;  -93.575; -194.000; -164.000
887.999; -142.575; -552.000; -575.000
888.244;  -49.875;  -58.000;  161.000
888.488;    2.475;  371.000;  393.000
888.732; -118.800; -368.000; -520.000
888.977; -128.475; -622.000; -567.000
889.221; -148.975; -683.000; -659.000
889.465; -126.675; -422.000; -566.000
889.710;  -64.475;  -56.000; -299.000
889.954;    2.425;  579.000;  467.000
890.198; -136.600; -584.000; -707.000
890.442; -144.550; -716.000; -712.000
890.687; -158.975; -800.000; -753.000
890.931;  -91.175; -273.000; -210.000
891.175; -135.500; -502.000; -500.000
891.419;  -85.300; -105.000; -110.000
891.663;  -92.250; -239.000; -112.000
891.907; -161.425; -801.000; -545.000
892.151; -172.700; -920.000; -815.000
892.395; -111.875; -274.000; -387.000
892.638;  -28.025;  408.000;  291.000
892.882; -190.550; -780.000; -867.000
893.126;   21.775;  758.000;  558.000
893.370;  -99.025; -167.000; -168.000
893.614; -152.800; -714.000; -715.000
893.857;  -93.775; -183.000; -197.000
894.101; -128.525; -527.000; -631.000
894.345;  -61.175;  300.000;  150.000
894.588;    0.400;  569.000;  380.000
894.832;  -81.350; -178.000;  -84.000
895.075;  -82.250;   15.000;  -92.000
895.319; -126.125; -552.000; -420.000
895.563; -108.525; -413.000; -353.000
895.806; -155.800; -628.000; -741.000
896.049;  -66.100; -576.000; -368.000
896.293;   75.350;  527.000;  405.000
896.536;  -63.250; -465.000; -468.000
896.779;  -64.700; -149.000;   -1.000
897.023; -139.275; -751.000; -714.000
897.266;  -33.800;  325.000;  269.000
897.509; -172.850; -900.000; -901.000
897.752;  -50.050;  149.000;  171.000
897.996; -179.600; -972.000; -864.000
898.239;  -47.225;  168.000;  102.000
898.482; -116.550; -431.000; -453.000
898.725;  -28.925;  101.000;   53.000
898.968; -151.150; -609.000; -744.000
899.211; -109.125; -513.000; -361.000
899.454; -115.900; -633.000; -539.000
899.697;  -76.200;   90.000;  -43.000
899.940; -167.725; -761.000; -757.000
900.182; -105.450; -335.000; -405.000
900.425;  -82.525; -150.000; -298.000
900.668;  -19.850;  491.000;  350.000
900.911; -103.625; -292.000; -345.000
901.154;  -53.625;  141.000;   -3.000
901.396; -139.775; -407.000; -412.000
901.639; -141.350; -430.000; -496.000
901.882; -184.950; -790.000; -809.000
902.124;  -71.925;  -29.000; -143.000
902.367; -115.925; -315.000; -361.000
902.609; -141.125; -476.000; -453.000
902.852;  -77.600; -108.000; -260.000
903.094; -132.500; -458.000; -337.000
903.337;  -55.000;  -26.000;   53.000
903.579; -110.250; -228.000; -441.000
903.821; -148.900; -597.000; -744.000
904.064;  -56.600;   85.000;  127.000
904.306;  -81.175; -126.000; -166.000
904.548; -111.250; -152.000; -366.000
904.790; -104.875; -195.000; -340.000
905.033; -131.275; -625.000; -577.000
905.275; -134.100; -513.000; -524.000
905.517;   48.525;  468.000;  256.000
905.759;  -50.475; -667.000; -761.000
906.001;  -89.650; -322.000; -369.000
906.243;  -74.475; -162.000; -224.000
906.485;  110.175; -265.000; -207.000
906.727;  125.225; -499.000; -542.000
906.969;  -25.450;  -30.000; -135.000
907.211;  143.925; -316.000; -382.000
907.453;  314.125; -188.000; -237.000
907.695;   40.725; -158.000; -385.000
907.936;   36.650;  818.000;  706.000
908.178;  -46.725;   92.000; -135.000
908.420;  -76.500; -111.000; -162.000
908.662; -133.825; -633.000; -682.000
908.903;  -76.625; -208.000; -123.000
909.145;  -61.350; -240.000; -305.000
909.386;   11.625;  315.000;  280.000
909.628;   41.625;  363.000;  397.000
909.870;   -1.475;   29.000;  264.000
910.111;  -78.825; -809.000; -949.000
910.353;   14.675; -123.000; -161.000
910.594;   11.050; -574.000; -606.000
910.835;   85.725; -265.000; -326.000
911.077;  158.600; -503.000; -604.000
911.318;  280.625; -505.000; -471.000
911.559;  468.350; -577.000; -880.000
911.801; 1327.775; -284.000; -280.000
912.042; 9820.525;  -50.000; -159.000
912.283;28503.250;  404.000;  371.000
912.524; 5077.600; -396.000; -457.000
912.765;  531.975; -193.000;   79.000
913.006;  268.675; -307.000; -338.000
913.247;   59.600; -270.000; -290.000
913.488;    4.800;  -43.000;   30.000
913.729;  -86.250; -373.000; -373.000
913.970;  -44.625;  -96.000; -292.000
914.211;  -62.175; -160.000; -198.000
914.452;  -65.350; -118.000;  -11.000
914.693;   12.425;  510.000;  592.000
914.934;   15.050;  510.000;  440.000
915.175;  -66.250;   53.000;  -95.000
915.415;  -70.900; -137.000;   27.000
915.656;  -78.425;  -28.000;  192.000
915.897;  -92.575; -252.000;  -82.000
916.137;  -82.625;   74.000;   -9.000
916.378; -132.275; -573.000; -517.000
916.619;  -82.900; -159.000;  -63.000
916.859;  -21.575;  303.000;  330.000
917.100;  119.950; 1655.000; 1070.000
917.340;   40.550;  930.000;  728.000
917.581;   55.325;  965.000;  789.000
917.821;  -23.325; -171.000;  143.000
918.061;   29.125; -199.000;  -72.000
918.302;  -55.925; -152.000; -211.000
918.542;  -21.325;  -22.000;    3.000
918.782;   48.525;  369.000;  377.000
919.023;  122.700;  360.000;  427.000
919.263; 1728.125; 8131.000;  202.000
919.503; 1207.300; -137.000;  -54.000
919.743;  679.950;  390.000;  266.000
919.983;  333.525; -134.000;  -26.000
920.223;   94.125;  135.000;   14.000
920.463;  138.775;  631.000;  554.000
920.703;  137.675;   84.000;   39.000
920.943;  150.700; -110.000;   90.000
921.183;  247.075; -414.000; -405.000
921.423;  522.450;  307.000;  546.000
921.663;  743.650; -174.000; -257.000
921.903; 1538.400;  237.000;  173.000
922.143; 8235.150;  372.000;  389.000
922.383;33513.700;  158.000;  115.000
922.622;13239.050; -120.000;  -15.000
922.862; 1369.175;  796.000;  785.000
923.102;  513.425;  -51.000;   33.000
923.341;  223.500;   59.000;   74.000
923.581;   94.600;  450.000;  360.000
923.821;   17.725;  301.000;  398.000
924.060;   24.050;  351.000;  193.000
924.300;  -55.100;  -16.000; -128.000
924.539;   -2.550;  584.000;  473.000
924.779;    9.800;  812.000;  597.000
925.018;  -40.500;  247.000;  353.000
925.257;   -3.125;  595.000;  666.000
925.497;  -33.625;  447.000;  412.000
925.736;  -65.650;  -35.000;  102.000
925.975;    4.750;  687.000;  669.000
926.214;   36.600;  907.000;  850.000
926.454;   28.000;  706.000;  757.000
926.693;  -40.250;  419.000;  543.000
926.932;   38.200; 1021.000;  825.000
927.171;   71.900; 1107.000; 1044.000
927.410;   66.150; 1144.000;  967.000
927.649;   34.575;  924.000;  742.000
927.888;   -7.900;  590.000;  564.000
928.127;   -6.150;  680.000;  678.000
928.366;   29.625;  842.000;  826.000
928.605;   38.725;  831.000;  737.000
928.844;  237.825; 1451.000; 1393.000
929.083;  614.075;  770.000;  613.000
929.321;  383.000; 1335.000; 1359.000
929.560;   84.425; 1158.000; 1122.000
929.799;   -9.625;  574.000;  475.000
930.038;   75.975; 1025.000; 1394.000
930.276;  -44.900;  334.000;  397.000
930.515;   -5.150;  827.000;  681.000
930.753;  -19.025;  614.000;  589.000
930.992;  -28.425;  664.000;  717.000
931.230;    4.375;  847.000;  847.000
931.469;  165.750; 2162.000;  892.000
931.707;   64.750;  840.000;  751.000
931.946;   40.625; 1278.000; 1344.000
932.184;   51.750; 1437.000; 1175.000
932.423;   37.925; 1265.000;  963.000
932.661;   98.300; 1296.000; 1428.000
932.899;   29.100;  987.000;  821.000
933.137;    5.600;  754.000;  564.000
933.376;  136.425; 1664.000; 1335.000
933.614;  158.950; 1759.000; 1196.000
933.852;   42.550; 1357.000; 1171.000
934.090;  131.375; 1722.000; 1747.000
934.328;  105.275; 1252.000; 1457.000
934.566;  103.125; 1431.000; 1110.000
934.804;  116.025; 1263.000; 1309.000
935.042;  433.900; 1861.000; 1850.000
935.280; 1655.950; 2088.000; 2063.000
935.518; 1752.375; 2113.000; 2007.000
935.756;  402.700; 2481.000; 2316.000
935.994;  164.100; 1808.000; 1751.000
936.231;  315.950; 2890.000; 2950.000
936.469;  191.225; 2367.000; 2378.000
936.707;  171.700; 2220.000; 2167.000
936.945;  215.175; 2825.000; 2882.000
937.182;  198.425; 2679.000; 2741.000
937.420;  295.350; 3602.000; 3031.000
937.657;  405.900; 3365.000; 3478.000
937.895;  358.275; 3331.000; 3488.000
938.133;  314.475; 3540.000; 3528.000
938.370;  350.075; 3896.000; 4191.000
938.607;  388.250; 4488.000; 4205.000
938.845;  552.250; 5587.000; 5549.000
939.082;  472.125; 5387.000; 5177.000
939.320;  547.500; 5799.000; 5728.000
939.557;  623.900; 6549.000; 6491.000
939.794;  718.775; 7285.000; 7097.000
940.031;  910.375; 8421.000; 8368.000
940.269; 1142.175; 9552.000; 9107.000
940.506; 1117.800;10901.000;10507.000

