
Integration time [ms]: 100.000
Averaging Nr. [scans]: 40
Smoothing Nr. [pixels]: 0
Data measured with spectrometer [name]: 2101013U2
Wave   ;Sample   ;Dark     ;Reference
[nm]   ;[counts] ;[counts] ;[counts] 

394.013;   46.993; -450.257; -315.536
394.305;  205.191; -461.258; -419.536
394.596; 1073.963; -676.269; -527.514
394.887; 2636.080; -796.268; -654.518
395.178; 1043.435;  145.736;   11.476
395.470;   81.847; -210.263; -356.526
395.761;  200.820;  305.734;  394.479
396.052;  300.788; -545.284; -306.489
396.343;  303.558; -557.276; -454.503
396.634;  140.977; -200.279; -290.497
396.926;  136.552; -618.268; -565.517
397.217;  139.687;   11.725;  -17.504
397.508;   46.003; -366.273; -154.507
397.799;   42.927; -555.279; -571.497
398.090;    3.521; -973.280; -902.495
398.381;  138.638;   11.708;  -11.473
398.672;    7.314; -585.292; -742.473
398.963;   59.508; -348.279; -373.498
399.254;  104.223;   54.709; -209.475
399.545;  -28.809;-1017.266; -883.520
399.836;   76.222; -407.277; -343.501
400.127;   66.414; -205.295; -209.468
400.418;   76.623; -423.274; -392.506
400.709;   74.908; -359.281; -333.493
401.000;   51.927; -268.291; -309.476
401.290;  127.551;  225.698;  115.545
401.581;   73.546; -166.286; -228.485
401.872;   20.586; -542.298; -486.462
402.163;   66.182; -313.296; -252.467
402.454;   94.149; -123.291; -163.475
402.744;   72.723; -844.297; -813.465
403.035;  483.679; -226.293;  -86.471
403.326;  623.517; -366.292; -384.474
403.617;  428.580;  204.701;  165.539
403.907;  257.194; -593.283; -679.490
404.198; 2349.655; -545.307; -599.446
404.489; 6156.999; -618.283; -588.491
404.779; 2139.329; -618.302; -660.456
405.070;  232.033;  -67.304; -174.451
405.360;  342.181; -259.293; -238.472
405.651;  383.140;  125.699;   98.542
405.942;  201.066;  209.714;  127.516
406.232;  298.955; -432.285; -413.487
406.523;  537.374;  641.706;  758.530
406.813;  112.493; -579.286; -644.484
407.104;  370.787;  261.708;  144.527
407.394;  209.607; -604.299; -591.462
407.685;  161.705;  336.715;  222.513
407.975;   67.847; -400.283; -382.490
408.265;  119.513; -134.289; -190.478
408.556;   70.021; -472.291; -459.475
408.846;  174.950;  474.706;  429.530
409.137;   92.347;   -1.288; -216.480
409.427;   62.505; -193.285; -271.487
409.717;   51.031; -776.273; -692.508
410.007;  151.199;    4.715; -170.486
410.298;   94.492; -360.295; -342.469
410.588;   82.253; -495.285; -510.486
410.878;   30.358; -792.287; -873.482
411.168;  116.314; -481.298; -478.463
411.459;  121.967; -295.283; -242.489
411.749;   65.544; -609.292; -507.474
412.039;   62.770; -755.289; -386.480
412.329;  215.315;   40.722;  132.501
412.619;  217.493;  -62.286; -148.485
412.909;  370.466;  639.711;  594.521
413.199;  353.471; -130.280; -251.495
413.490;  428.781;  521.710;  352.523
413.780;  156.175;-1013.279; -913.496
414.070;  333.959;  -46.276;  235.497
414.360;  373.136; -729.278; -666.498
414.650;  431.229; -726.288; -688.482
414.940;  551.224; -538.280; -441.496
415.230;  924.651;   50.712;   74.519
415.520; 6072.212;  155.730;   66.486
415.809;23574.233; -305.281; -125.493
416.099;18344.474; -388.277; -229.501
416.389; 5017.295;  435.726;  236.494
416.679; 2979.575;   91.738;   85.473
416.969;  526.237; -527.287; -503.483
417.259;  575.077;  341.721;  171.503
417.549;  696.456;  522.718;  318.508
417.838; 1595.354; -205.268; -147.518
418.128; 5276.212;  650.710;  492.522
418.418; 4476.488; -491.272; -579.509
418.708; 3021.271;    9.726;  -48.506
418.997;11283.941; -474.275; -480.505
419.287;11788.077; -733.273; -790.507
419.577;11034.941; -160.283; -123.489
419.866;36622.822; -588.277; -498.501
420.156;37828.908; -242.270;  -55.513
420.446; 6925.818; -112.263;  -26.526
420.735;  918.377; -376.271; -446.512
421.025;  856.210; 1830.722;  315.502
421.314;  752.175; -203.271; -226.512
421.604; 1646.922;   89.732;  233.484
421.893;  953.697; -705.271; -602.511
422.183;  228.093; -487.263; -461.526
422.472;  404.648;  -36.271; -107.511
422.762;  456.722; -416.266; -379.521
423.051;  259.909; -916.276; -916.503
423.341;  350.479; -491.273; -439.507
423.630;  435.753; -121.265;   15.477
423.919;  390.166;   58.725;   49.495
424.209;  391.698;  -31.263;   56.473
424.498;  498.852;   68.732;  161.483
424.787; 1078.358; -535.267; -601.518
425.077; 3331.677;   34.735;   29.478
425.366; 4919.704; -734.262; -744.528
425.655; 9724.680;  639.727;  259.493
425.945;20435.583; -313.247; -268.554
426.234;11495.402;  117.741;  300.467
426.523; 4986.882;  -86.259; -350.534
426.812; 6876.193;  107.734;  159.480
427.101; 9958.943; -127.269; -323.515
427.390;12755.337;  -55.270;  -86.514
427.680; 3080.027; -624.257; -411.538
427.969;  504.812; -330.255; -301.540
428.258;  336.618; -385.257; -477.536
428.547;  556.492;  449.728;  397.490
428.836; 1351.479; -421.253; -398.543
429.125; 1995.034; -199.259;  -72.534
429.414;  849.526; -330.251; -294.548
429.703; 3075.526; -231.251; -213.548
429.992; 9124.380; -938.250; -828.549
430.281; 6029.211; -397.264; -331.524
430.570;  600.567;  -21.252;   32.454
430.859;  611.931;  279.741;  352.466
431.148;  457.304;  636.752;  631.446
431.437;  310.916;  391.748;  367.454
431.725;  151.695; -544.257; -481.536
432.014;  127.186; -845.253; -756.545
432.303;  387.105; -149.239; -105.569
432.592;  654.142; -460.263; -178.525
432.881; 1056.855; -601.248; -437.554
433.169; 6001.163; -343.255;  -61.540
433.458;12241.963;  445.765;  540.424
433.747; 5209.535; -397.261; -289.529
434.036;  936.230; -275.242; -280.564
434.324; 2065.242; -395.249; -379.551
434.613; 3577.949;   40.757;  159.437
434.902; 1244.920;  333.760;  439.433
435.190;  657.853;   75.761;  295.431
435.479;  368.956;  -52.245;   83.441
435.767;  113.814; -411.244; -427.561
436.056;  249.576; -340.242; -294.563
436.345;  379.872; -372.240; -223.568
436.633;  402.038;   60.750;  383.450
436.922;  300.349;  208.760;  414.432
437.210;  711.828; -194.236;    1.426
437.499; 2281.386; -583.235; -432.576
437.787; 2537.053; -339.236;  -10.574
438.075;  614.409;   56.761;  162.430
438.364;  829.662;  -44.238;  250.429
438.652;  505.291; -286.226; -138.592
438.941;  167.805;    3.770;  269.415
439.229;   18.864; -665.252; -466.545
439.517;   57.770; -160.234;  -85.577
439.806;    3.707; -501.225; -290.595
440.094;  206.278;  377.766;  650.421
440.382;  201.256; -653.233; -302.580
440.670;  250.461; -361.235; -285.576
440.959;   28.849; -347.223; -170.599
441.247;   86.292; -151.229; -109.587
441.535;  114.318; -266.235;   31.423
441.823;   38.100; -497.234; -305.578
442.111;  182.871;  173.771;  327.412
442.400;  595.680; -628.245; -335.559
442.688; 1619.927; -111.234; -620.579
442.976; 1224.487; -786.213; -450.617
443.264;  126.239; -324.224; -364.597
443.552;  115.817; -258.226;   51.408
443.840;  161.017;  602.765;  876.423
444.128;  120.405;  265.767;  269.420
444.416;   18.149; -694.228; -312.588
444.704;   31.154; -465.219;  -92.605
444.992;   83.370;   -0.226;  240.407
445.280;   56.581; -517.230;  -94.585
445.568;   66.516; -694.212; -396.618
445.856;  392.538; -174.221;  357.398
446.143;  841.725;  -54.220;   -7.604
446.431;  720.727;  -25.228;  625.411
446.719;  265.923;  489.783;  675.391
447.007;  193.900;  481.769;  705.416
447.295;  195.071;  597.777;  871.402
447.583;  101.114; -464.229;  -34.587
447.870;  176.160; -434.221; -202.601
448.158;  471.905; -104.230;  129.415
448.446;  352.751; -800.219; -338.604
448.733;  183.215;   13.776;  269.403
449.021;  271.015;   60.788;  341.382
449.309;  194.205; -296.210;  208.379
449.596;  206.419;  128.783;   59.392
449.884;  178.953; -571.222; -325.600
450.172;  155.233; -756.227; -406.590
450.459;  424.245;  645.786;  780.387
450.747; 2290.743; -411.218; -147.608
451.034; 7320.878;  493.772;  889.411
451.322; 6026.873; -413.214; -170.614
451.609;  512.317;  292.777;  508.403
451.897;  571.568; -550.203; -183.634
452.184; 1752.497; -622.223; -400.598
452.472; 1657.027;   97.792;  269.375
452.759;  368.352;  512.781;  864.395
453.047;  133.438; -407.212; -125.617
453.334;   87.535; -732.219; -216.606
453.621;   84.626; -438.214; -161.615
453.909;  122.935;   13.796;  384.368
454.196;  121.330; -299.199; -123.641
454.483;  219.056;  317.798;  540.364
454.771;  146.130; -215.208;  196.374
455.058;   62.433; -316.207;  102.374
455.345;  117.361;   71.807;  344.347
455.632;   87.386; -128.207;  235.373
455.919;   49.578;  -82.196;  182.354
456.207;  -59.840; -774.198; -450.642
456.494;  -23.332; -475.200;  -66.639
456.781;   -2.748; -399.202; -198.635
457.068;   53.493; -253.206;  -29.628
457.355;    9.069; -698.206; -401.629
457.642;   -0.126; -552.205; -290.630
457.929;   12.052; -778.194; -417.651
458.216;   60.063; -575.212; -354.617
458.503;  241.531; -173.193;  -19.652
458.790;  210.052; -864.208; -630.625
459.077;  269.182;  -77.202;  110.364
459.364;  752.395; -350.195; -210.649
459.651; 1634.566;  -46.206;  220.372
459.938;  793.293; -864.209; -665.623
460.225;  162.235;  132.799;  276.363
460.512;  -51.300; -836.197; -688.645
460.799;  105.792;  -32.218;  320.392
461.086;   83.473; -370.200; -251.640
461.372;   41.860; -509.198; -279.642
461.659;  120.904; -165.196;  108.354
461.946;   65.630; -445.193;  -54.651
462.233;  240.795;  842.800;  888.361
462.519;  341.617; -814.201; -464.639
462.806; 1004.751; -768.197; -497.645
463.093;  864.176; -445.191;  -66.656
463.380;  -29.133; -920.186; -824.664
463.666;   65.902; -259.197;  -18.646
463.953;   82.090; -406.195; -243.648
464.239;  186.714; -173.195;  -77.648
464.526;  409.150;  413.806;  743.350
464.813;  369.612; -565.190; -304.658
465.099;  362.131;  606.807;  607.348
465.386;  358.660;  903.807;  921.348
465.672;   32.051; -694.197; -522.645
465.959;   29.730; -598.188; -520.662
466.245;   14.135; -468.193; -359.652
466.532;  110.962; -109.195;   63.352
466.818;   85.367; -357.186; -216.664
467.104;   -6.143; -488.182; -415.672
467.391;  -23.836; -628.189; -459.658
467.677;   24.570; -289.186;    9.335
467.964;    6.821; -682.189; -471.660
468.250;   77.648; -331.186; -160.665
468.536;   90.790;   90.811;  180.341
468.822;  -23.140; -821.184; -574.668
469.109;  160.937;  351.827;  471.311
469.395;  200.595;  729.808;  787.346
469.681;  210.218;   46.811;  156.341
469.967; 1192.323; -699.188; -382.660
470.254; 2602.206; -494.188; -306.662
470.540; 1713.878; -601.196; -476.646
470.826;  232.193; -488.181; -397.675
471.112;  279.488;  288.816;  113.331
471.398;   98.043; -253.183;  -58.670
471.684;   53.671; -626.177; -447.680
471.970;   -9.428; -918.180; -981.675
472.256;   13.444; -521.192; -441.654
472.542;   20.073; -499.171; -434.691
472.828;   38.678; -743.182; -607.672
473.114;   12.567; -380.166; -283.700
473.400;   25.213; -504.175; -293.684
473.686;   45.148; -452.166; -400.701
473.972;   74.802; -230.174; -131.687
474.258;  -44.088; -925.173; -843.689
474.544;  178.813; -183.178;   -2.679
474.830;  286.214;  -65.175;   45.316
475.116;  470.564; -123.190; -196.658
475.401;  607.649; -558.180; -467.676
475.687;  187.323; -725.180; -718.676
475.973;   17.811; -673.181; -770.673
476.259;  246.916;  736.825;  764.315
476.544;  357.779; -539.176; -437.682
476.830;  770.644; -398.172; -322.690
477.116;  669.003; -430.177; -336.682
477.401;  136.498;  346.820;  358.324
477.687;  -23.287; -289.175; -405.684
477.973;   46.289;   21.819;   28.326
478.258;   -8.282; -448.163; -348.706
478.544;   46.978;   21.815;   61.334
478.829;  -54.046; -818.171; -738.692
479.115;  -42.056; -749.172; -651.690
479.401;  -17.477; -444.174; -449.686
479.686;   26.522; -253.180;  -74.676
479.972;  -28.032; -886.178; -776.680
480.257;   39.468; -258.166;  -65.700
480.542;   -4.667; -614.170; -469.693
480.828;  238.761; 1288.824; 1392.317
481.113;  -33.666; -464.176; -426.683
481.399;    6.967; -236.161; -202.711
481.684;  -49.607; -620.166; -462.700
481.969;   15.131; -158.159;  -73.713
482.255;   -2.957; -439.169; -285.695
482.540;    8.793; -569.178; -441.680
482.825;    5.837; -395.187; -404.663
483.110;   89.647;  -85.169; -105.696
483.396;  162.277; -840.157; -652.718
483.681;  452.652;  543.826;  730.313
483.966;  149.200; -696.160; -700.712
484.251;    8.176; -404.174; -310.687
484.536;   10.278; -356.165; -378.703
484.822;    9.204; -205.173; -218.687
485.107;  -29.860; -599.152; -502.726
485.392;  137.934;  662.836;  541.296
485.677;   82.881;  354.832;  163.302
485.962;  117.450;  160.843;  270.283
486.247;  100.801;  -14.162;   -8.707
486.532;   38.594; -178.166; -325.701
486.817;  166.662;  381.839;  431.291
487.102;  115.098; -453.154; -514.722
487.387;  607.129; -637.156; -652.718
487.672; 1069.789; -154.164;  -38.705
487.957;  700.044; -394.160; -286.711
488.241;  190.357; -290.150; -314.729
488.526;  697.867; -280.152; -148.726
488.811; 1126.620; -881.177; -818.680
489.096;  841.251; -666.154; -702.723
489.381;  474.038;    3.847;  162.275
489.666;  327.192; -428.161; -510.710
489.950;  166.729;  558.846;  627.277
490.235;  -40.648; -480.151; -458.728
490.520;  -45.734; -756.161; -723.710
490.804;  -57.469; -827.156; -736.719
491.089;   -6.502; -469.149; -299.732
491.374;   28.388; -132.164;  -75.704
491.658;    7.634; -817.147; -717.735
491.943;  170.996; -657.152; -609.727
492.227;  281.219; -178.155;  -38.721
492.512;   51.524; -294.157; -341.717
492.797;  -57.383; -713.149; -716.731
493.081;  -59.838; -588.147; -598.735
493.366;  -40.257; -751.161; -635.711
493.650;  207.415;  831.859;  917.254
493.935;   37.984; -648.147; -447.734
494.219;  -34.148; -778.142; -687.743
494.503;  -46.863; -585.150; -487.730
494.788;   49.541;   46.842;   74.285
495.072;  118.883;  184.850;  434.271
495.356;  165.326; -463.148; -343.733
495.641;  468.268; -812.146; -736.736
495.925;  457.261; -976.156; -903.719
496.209;   53.697; -599.149; -451.732
496.494;  -42.447; -763.142; -544.744
496.778;   -2.452; -364.154; -360.722
497.062;  -55.139; -819.156; -627.719
497.346;  -46.754; -869.160; -640.711
497.631;  142.954;  580.852;  560.266
497.915;   77.779;  -64.145;  175.261
498.199;   45.252; -341.157; -277.718
498.483;   36.840; -562.152; -508.725
498.767;  169.709;  301.850;  300.271
499.051;  199.320; -126.149; -100.732
499.335;   17.368; -693.149; -739.731
499.619;  -36.459; -381.129; -423.767
499.903;   36.218; -272.155;  -65.721
500.187;   31.306; -588.153; -316.724
500.471;   20.420; -796.152; -595.727
500.755;  125.516;   62.839;  -96.710
501.039;   12.143; -270.155; -357.721
501.323;   99.292;  -21.141;  264.254
501.607;   26.644; -447.163; -503.706
501.891;    1.929; -607.156; -512.718
502.174;  -29.085; -726.144; -585.741
502.458;   62.824;   89.849;  370.273
502.742;   46.041; -180.138; -191.751
503.026;  107.658; -412.147; -254.734
503.310;  149.430; -437.159; -375.713
503.593;  126.935; -464.147; -325.735
503.877;  128.781; -232.133; -156.760
504.161;  190.108;    2.847;  -50.724
504.444;  145.693; -841.158; -710.716
504.728;  419.662; -487.164; -522.704
505.012;  697.006; -257.150;  -76.729
505.295;  537.067; -417.161; -212.711
505.579;  483.135; -256.156; -496.719
505.862;  702.700; -555.145; -333.738
506.146;  690.607; -681.159; -758.714
506.429;  395.257;  568.841;  461.286
506.713;   59.703; -732.151; -667.728
506.996;  306.923;   90.846;  295.278
507.280;  320.407; -633.165; -474.703
507.563;  222.591; -469.155; -261.721
507.847;   93.956; -423.153; -112.724
508.130;   74.768; -665.161; -456.711
508.413;   90.739; -758.167; -577.700
508.697;  232.139; -151.167;   12.300
508.980;  144.458; -422.153; -312.724
509.263;  -16.812; -466.155; -450.720
509.547;   26.606; -124.150;   82.271
509.830;   42.545; -172.160;  140.289
510.113;   79.385;  128.844;  298.281
510.396;   27.263; -530.152; -300.725
510.680;  192.377; -818.145; -812.738
510.963;  738.077;  184.846;  180.277
511.246;  657.864; -493.150; -357.730
511.529;  276.357; -482.145;  -83.739
511.812;  335.277; -250.134;   10.241
512.095;  250.051; -740.151; -396.728
512.378;   67.989; -317.147; -245.736
512.661;   20.523; -703.137; -623.753
512.944;   17.754; -750.142; -637.744
513.227;   62.345; -170.137; -171.752
513.510;   14.940; -479.144; -671.741
513.793;   32.521; -485.140; -435.747
514.076;  129.112;  -43.127;  -39.771
514.359;  101.448; -294.149; -135.732
514.642;   74.807; -442.142; -567.744
514.925;  716.494;  581.860;  561.253
515.208;  910.349; -498.134; -443.758
515.491;  614.113; -276.133; -182.761
515.773;  358.719; -410.143; -337.742
516.056; 1955.730;  249.864;  409.246
516.339; 2724.908; -754.136; -652.755
516.622; 1996.686; -518.150; -488.730
516.904; 1440.201;  882.857;  975.257
517.187;  671.744; -730.138; -523.752
517.470;  408.925; -568.143; -510.743
517.752;  410.961; -624.136; -470.756
518.035;  311.057; -708.139; -725.749
518.318;  353.984; -799.136; -744.755
518.600; 2243.141; -300.132; -325.762
518.883; 3120.557;  310.858;   88.256
519.165; 1540.462; -585.138; -426.751
519.448;  406.341;  -61.132;  -19.762
519.730;  203.069; -573.126; -415.773
520.013;  342.159;  588.867;  664.240
520.295;  976.154;  -94.134;  -15.759
520.578; 2145.579; -335.131; -305.764
520.860; 2446.641; -254.132;   56.238
521.143; 1224.188; -763.135; -584.756
521.425;  490.582; -251.125; -279.775
521.707;  667.637; -622.127; -380.771
521.990; 1693.688; -199.127;  167.229
522.272; 1900.998; -116.140;   -4.748
522.554;  887.420; -237.143; -157.742
522.836;  396.627;  -24.134;   99.241
523.119;  219.082; -496.148; -189.734
523.401;  156.136; -448.130; -314.766
523.683;   77.124; -865.137; -693.753
523.965;  261.717;  408.862;  260.248
524.247;  263.653;   54.878;  170.220
524.529;  217.004; -451.134; -367.759
524.812;  349.612;   -3.130;  191.234
525.094;  778.841; -773.138; -631.751
525.376; 1291.216; -143.124;   78.223
525.658;  782.231; -441.136; -339.754
525.940;   18.225; -805.131; -671.764
526.222;   37.984; -188.136;  -88.755
526.504;  135.873; -190.131;   32.237
526.786;  224.756; -960.133; -647.760
527.068;  352.747; -124.123;  -67.778
527.349;  163.027; -865.137; -774.754
527.631;  131.241; -137.132;   22.238
527.913;  133.561; -664.127; -450.771
528.195;  142.675; -761.125; -639.774
528.477;  231.499;  -93.134;  -30.758
528.759;  122.337; -648.130; -522.766
529.040;   53.745; -569.123; -293.778
529.322;   45.153; -235.125;  -10.774
529.604;  143.640;  -47.130;   93.233
529.886;  155.819; -546.126; -302.773
530.167;  140.281;  232.870;  192.235
530.449;   54.663;    1.853;   63.265
530.731;   19.602; -572.122; -459.779
531.012;   58.673; -513.120; -216.784
531.294;   84.587; -118.116;  -43.792
531.575;  136.132;  290.875;  538.225
531.857;   42.519; -548.135; -266.757
532.138;   99.240; -113.141;   40.254
532.420;  176.115;  294.865;  403.244
532.701;  249.934; -722.133; -751.760
532.983;  380.562;  232.867;  182.239
533.264;  129.542; -243.126;  175.228
533.546;  -25.616; -491.136; -508.755
533.827;   63.705;  173.867;   -1.759
534.109;   46.294; -352.135;  -80.757
534.390;  111.245; -725.132; -582.762
534.671;  258.665; -270.135;  -82.756
534.953;  125.573; -751.123; -611.779
535.234;   24.747; -426.117; -255.789
535.515;  -94.369; -891.119; -735.785
535.796;  -21.743; -431.128; -193.770
536.078; -124.284;-1050.124; -904.777
536.359;   -2.076;  -22.123;    3.221
536.640;  -20.123; -480.125; -197.774
536.921;  161.895;  225.871;  143.232
537.202;  355.188;  -87.138;  -16.751
537.483;  444.978;  251.869;  377.236
537.764;  151.606;   17.870;   98.235
538.045;  -47.977; -543.134; -371.758
538.326;  -38.253; -596.129; -447.768
538.607;   15.388; -686.127; -476.771
538.888;  155.989;   98.879;    5.218
539.169;  165.759; -704.122; -535.781
539.450;  344.919;  236.871;   16.233
539.731;  232.443; -361.121; -182.783
540.012;  132.748;  199.880;  412.216
540.293;   81.010;   82.876;  158.224
540.574;    8.733; -895.113; -717.796
540.855;  462.992;  435.879;  377.218
541.136;  542.106;   47.878;  139.220
541.416;  280.213; -161.130; -220.766
541.697;  177.174; -274.131; -170.763
541.978;  989.117; -270.135; -315.757
542.259; 1252.313; -211.127; -236.771
542.539;  598.281; -191.116; -186.790
542.820;  197.257;  461.875;  480.225
543.101;  121.528;  -52.145;  -77.738
543.381;   38.787; -638.127; -591.771
543.662;  257.960;  159.873; -254.771
543.942;  546.308; -751.127; -830.770
544.223; 1005.808;  193.878;  161.219
544.504;  648.516; -275.124; -182.777
544.784;  562.669; -592.126; -408.773
545.065; 1596.435;  104.884; -254.791
545.345; 1864.532;  227.881;   14.215
545.626; 1205.557;  -14.113; -108.796
545.906;  830.681;   77.869;   98.235
546.186;  357.923;   92.874;  -95.773
546.467;  199.043;   99.877;  -95.778
546.747;  313.556;  264.884;  327.210
547.027;  345.889;   91.876;  111.223
547.308;  294.258; -376.127; -530.770
547.588;  374.872;  299.871;  371.232
547.868;  196.482;  458.870;  588.235
548.149;  194.892;  609.885;  593.207
548.429;  119.311; -347.127; -299.771
548.709;  179.898; -645.120; -461.784
548.989;  435.216;   84.882;   88.213
549.269; 2001.939;   10.868;  139.239
549.550; 4529.372;  215.877;  117.222
549.830; 4096.825; -758.111; -556.799
550.110;  811.407; -468.110; -320.801
550.390;  789.928; -128.122;  -56.779
550.670; 1063.228; -868.114; -783.795
550.950;  758.716; -509.121; -471.782
551.230;  176.712;  549.879;  460.218
551.510;  -14.510; -381.121; -326.782
551.790;   20.715; -173.109; -127.803
552.070;  244.668;  940.877; 1181.223
552.350;  369.461; -492.119; -377.786
552.630;  535.285;   -2.121;   77.219
552.909;  332.435;  181.884;   73.209
553.189;  220.771;  -49.132;   33.237
553.469;  164.360; -703.119; -514.786
553.749;  194.139; -469.127; -357.772
554.029;  146.626;   33.883;  -24.790
554.308;  133.196; -154.115;  -37.794
554.588;   58.006; -196.128; -204.770
554.868;   51.992; -366.121;  -47.782
555.147;  116.743; -114.115;  -46.793
555.427;  580.638; -260.116; -250.792
555.707; 3647.941; -284.115; -200.793
555.986; 4398.053; -719.111; -538.800
556.266; 2352.555;   23.884;   72.210
556.546;   96.365; -888.121; -675.782
556.825;  227.426; -657.114; -556.794
557.105; 1677.304; -125.128;   17.230
557.384; 1963.859;  122.884;  187.209
557.664;  745.937; -717.116; -508.792
557.943;   97.341; -557.121; -411.782
558.222;  152.119; -345.118; -344.788
558.502;  261.995; -116.115;  -76.793
558.781;  481.390;  194.885;  499.208
559.061;  380.319; -232.118; -227.788
559.340;  283.724;  302.883;  353.211
559.619;  660.879;   93.884;  148.210
559.899;  953.451; -239.117; -266.789
560.178;  865.769; -778.115; -593.793
560.457; 2958.452; -623.117; -562.790
560.736; 4089.454; -472.111; -482.800
561.015; 2737.452; -500.128; -502.769
561.295;  361.960;  180.893;  215.193
561.574;  340.342;  119.885;  116.207
561.853;  473.444;  274.891;  303.197
562.132;  460.797;  -45.114;  182.206
562.411;  423.511;  396.879;  553.219
562.690;  111.790; -592.115; -458.792
562.969;  136.914;  472.888;  630.203
563.248;  477.258; 2966.878; 2487.219
563.527;  251.279; -290.111; -408.800
563.806;  379.136; -650.127; -521.771
564.085;  388.950; -297.105; -206.810
564.364;  228.479; -594.117; -405.790
564.643;  483.336; -276.121; -223.781
564.922; 1787.713;  221.890;  397.198
565.201; 1745.692; -640.109; -700.803
565.479;  767.314; -297.115; -219.792
565.758;  287.879; -810.128; -712.770
566.037;  457.793; -155.109; -100.803
566.316;  212.459; -286.116;  -28.791
566.595;   38.092;  -17.115;  -12.793
566.873;   79.481; -166.111;  -79.801
567.152;  -72.761; -490.113; -590.797
567.431;    5.205; -113.116;    6.210
567.709;   11.710; -344.107; -212.807
567.988;  224.925; -810.114; -769.794
568.266;  482.616; -160.115;  -68.793
568.545;  365.247; -644.100; -514.819
568.824;  543.313;  160.885;  356.208
569.102;  523.450; -351.114; -235.794
569.381;  211.912; -492.116; -407.792
569.659;  -54.040; -553.113; -553.796
569.938;   38.307; -743.122; -465.780
570.216;  101.046; -225.109; -225.804
570.494;  -24.922; -632.114; -572.795
570.773;   40.440;  202.879;  114.218
571.051;   -2.454; -373.123; -357.778
571.330;   44.108; -221.113; -174.796
571.608;   40.490; -181.098; -173.823
571.886;  -66.102; -671.111; -581.799
572.164;  -81.333; -739.121; -621.782
572.443;  -42.021; -562.105; -512.811
572.721;  -41.797; -399.117; -289.790
572.999;  -32.729; -280.117; -168.788
573.277;   90.897;  379.894;  620.191
573.555;  260.849;   94.894;   37.190
573.834; 1263.996;  -86.117; -114.788
574.112; 1458.313;  880.893;  811.193
574.390;  440.605; -143.111;  -96.801
574.668;  -10.210;  -91.112;  -61.797
574.946;   -4.500; -165.106; -187.810
575.224;   13.917;   71.891;  -16.803
575.502;  -25.193; -200.116; -204.791
575.780;  -94.759; -767.112; -829.798
576.058;  206.429; 1589.889; 1004.200
576.336;  -17.040; -210.110; -129.801
576.614;  -54.184; -511.112; -340.798
576.891;   29.971; -711.115; -823.794
577.169;  438.754; -158.108; -285.805
577.447;  527.837;  169.893;  202.193
577.725;  252.745;  629.888;  854.201
578.003;   10.818;  -71.112; -371.798
578.280;   71.538; -208.104; -242.812
578.558;   57.745; -450.115; -422.793
578.836;  131.678; -210.114; -145.795
579.114;   41.039; -630.112; -670.797
579.391;   77.423;   -6.117;  -18.789
579.669;  -86.953; -595.114; -704.794
579.947;  163.359; -326.107; -127.806
580.224;  296.834; -692.107; -524.806
580.502;  296.438;  127.893;   76.193
580.779;   10.628;  -42.117;   75.210
581.057;  -74.604; -584.109; -470.804
581.334; -102.247; -726.102; -695.815
581.612;   39.400;   54.895;  511.190
581.889;  -38.534;  -83.101; -129.818
582.167;  -44.070; -298.099; -190.821
582.444; -102.740; -845.102; -814.817
582.721;   98.211;  657.899;  715.183
582.999;   53.152; -326.100; -167.821
583.276;  474.525; -812.123; -713.779
583.553;  640.031; -364.102; -294.816
583.831;  218.309; -607.104; -631.812
584.108;   35.252;  349.892;  174.195
584.385;    8.652; -122.102;  -98.815
584.662;  -79.994; -651.111; -828.801
584.940;   36.180;  204.889;  204.199
585.217;  -40.715;  -73.113; -303.796
585.494;   36.014;   71.890;  118.198
585.771;  190.072; -250.109; -354.804
586.048;  490.109; -196.113;  -76.796
586.325;  297.409; -721.110; -773.801
586.602;   90.838;  230.896;  213.188
586.879;  -18.776; -499.100; -580.820
587.156;   36.476; -156.105; -331.810
587.433;  -40.967; -701.102; -667.817
587.710;   61.767;  152.888;  234.202
587.987;  297.431; -264.105; -236.811
588.264;  746.793;  315.888;  387.202
588.541; 1294.916;  -61.104;   26.187
588.818; 2520.424;   72.892;  171.196
589.095; 2207.811; -163.104; -174.812
589.371;  349.470; -459.109; -414.804
589.648;    3.888; -581.107; -437.807
589.925;   10.329; -517.114; -621.795
590.202;   -4.834; -741.112; -607.798
590.478;   91.383; -166.105;  -73.811
590.755;  253.855; -241.108; -132.806
591.032; 2340.261; -741.110; -699.802
591.308; 3188.505; -732.094; -790.831
591.585; 1676.710; -573.110; -560.802
591.862;  110.435;-1056.102; -950.817
592.138;   48.103; -475.108; -474.805
592.415;  143.189; -486.104; -495.813
592.691; 1434.487;  460.896;  518.188
592.968; 1776.642; -208.098; -123.824
593.244;  853.831; -695.116; -595.790
593.521;   62.385; -105.102;  -42.817
593.797;  -22.546; -810.122; -720.780
594.074;  299.504; -611.096; -588.826
594.350;  633.490;  828.905;  729.172
594.626;  274.106; -303.111; -283.801
594.903;   85.861; -643.101; -645.817
595.179;  181.243;  243.896;  418.187
595.455;   17.189; -136.107; -150.807
595.731;    7.294;  -19.103;  -38.814
596.008;  -36.549; -464.111; -434.800
596.284;   29.701; -187.100; -242.820
596.560;   49.186; -501.093; -493.833
596.836;  185.153; -173.105;  -70.810
597.112;  319.603; -582.108; -437.805
597.388;  247.027;  -49.097;  -48.826
597.665;  108.812;  437.887;  530.203
597.941;  -72.185; -572.089; -658.839
598.217;   12.439; -323.110; -293.802
598.493;  236.323;   61.891; -204.804
598.769;  475.721; -175.100;  -50.819
599.045;  286.156; -490.108; -562.806
599.321;   33.050; -193.100; -261.820
599.597;  115.223; -355.109; -476.804
599.872;  460.791;  409.896;  429.187
600.148;  336.354;  -61.097; -172.826
600.424;  251.936;   91.893;  202.193
600.700;  208.213; -170.107; -280.807
600.976;  105.073; -442.097; -464.825
601.252;  218.419; -226.109; -272.803
601.527;  191.966; -833.104; -840.813
601.803;  129.384; -453.105; -404.812
602.079;  185.471; -124.100; -118.819
602.354;  512.396; -620.092; -531.835
602.630;  754.985; -140.113; -482.796
602.906; 2191.166; -910.101; -863.818
603.181; 6282.610; -627.119; -534.786
603.457; 5311.326;   98.903; -278.826
603.733;  771.244; -605.120; -626.783
604.008;  908.825; -245.106; -164.810
604.284; 2883.612; -636.101; -580.817
604.559; 2486.045;   -3.112;  -42.799
604.835;  460.703; -163.105; -225.810
605.110;  362.730; -732.099; -892.821
605.385;  653.414;  224.907;  267.167
605.661;  612.243; -625.095; -729.829
605.936; 1058.532; -664.108; -737.806
606.211;  915.576;  -17.103; -170.815
606.487;  182.924; -329.114; -376.794
606.762;    9.761; -791.119; -745.786
607.037;  -28.572; -501.105; -433.810
607.313;  -59.539; -589.096; -574.828
607.588;   -6.575; -375.106; -137.810
607.863;   35.140;  -28.101; -143.818
608.138;  169.538;  513.890;  516.198
608.413;   14.709; -576.099; -592.822
608.688;   29.453; -203.108; -267.805
608.964;  186.869; -509.106; -218.809
609.239;  224.551; -107.105; -212.810
609.514;  238.933;  281.895;  240.188
609.789;  623.813; -187.104; -716.812
610.064;  820.710; -435.096; -609.827
610.339;  815.295; -855.109; -799.804
610.614; 1078.751; -131.100; -315.820
610.889;  606.984;  215.895;  107.188
611.163;   16.834; -407.104; -591.812
611.438;   75.025;   81.886; -167.794
611.713;    6.412; -467.101; -499.817
611.988;   49.514; -144.101; -328.818
612.263;  -38.447; -771.102; -717.815
612.538;  198.984;  385.887;  251.204
612.812;  153.402; -832.100; -911.820
613.087;  111.690; -358.098; -338.823
613.362;  -65.361; -497.107; -557.807
613.637;   42.022;  261.897;  138.186
613.911;  -36.778; -256.092; -345.835
614.186;  104.037; -249.107; -292.807
614.460;  624.965; -842.081; -758.854
614.735;  731.889;  -55.087;  -17.843
615.010;  158.379;   43.912;  -82.841
615.284;  241.877;  360.892;  246.195
615.559;  326.745; -792.092; -955.835
615.833;  261.982;  -76.099;  -87.822
616.108;    3.182; -225.090; -390.837
616.382;  135.565;  274.913;  402.156
616.656;  126.258; -241.090; -232.837
616.931;  464.258; -785.099; -700.822
617.205;  999.692; -973.104; -979.813
617.480;  905.930;  -91.125;    6.225
617.754;  138.602; -396.125; -128.774
618.028;    2.748; -369.129; -382.768
618.302;   61.476;   73.892;  -25.805
618.577;  -56.402; -371.103; -518.815
618.851;  -65.284; -399.109; -600.803
619.125;  -53.646; -335.134; -378.759
619.399;  -44.758; -244.104; -374.813
619.673;  -52.337; -330.115; -515.792
619.947;  -42.122; -333.114; -448.795
620.222;  -35.593; -198.110; -204.801
620.496;   -9.308;  -47.121;  -96.782
620.770;   11.083; -187.122;  -93.781
621.044;  198.051;  323.895;  346.190
621.318;  689.220; -653.120; -614.783
621.592;  622.892; -430.121; -409.783
621.866;  319.046; -476.112; -572.799
622.140;   10.082; -207.116; -356.791
622.413;   50.475;  138.889;  112.200
622.687;  -51.138; -746.101; -492.817
622.961;    3.476; -130.108; -143.805
623.235;  -78.749; -633.111; -661.800
623.509; -104.317; -816.105; -848.811
623.783;    2.535;  -12.107;   48.193
624.056;  -24.504; -254.120; -280.783
624.330;   48.865;   63.888;   -3.797
624.604;   26.804; -271.116; -355.790
624.877;   61.137;  180.890;   26.198
625.151;   38.873; -249.114; -238.794
625.425;  -50.156; -150.103; -283.814
625.698;  -65.320; -367.119; -374.785
625.972; -100.811; -799.110; -765.802
626.245;   82.431;  685.884;  484.210
626.519;  -52.275; -426.120; -340.784
626.792;  -35.987; -192.107; -380.807
627.066;  -99.474; -485.122; -662.779
627.339; -104.465; -736.110; -663.802
627.613;   33.448;  351.880;  148.216
627.886;   56.616;  187.891; -612.803
628.160;  -29.731;  312.880; -161.783
628.433; -106.217; -695.125; -703.775
628.706;  -84.475; -517.120; -615.784
628.979;   15.864;  296.876;  117.223
629.253; -106.215; -785.119; -833.786
629.526;  340.467; -334.126; -253.772
629.799;  302.771; -641.123; -479.778
630.072;  142.375; -497.128; -516.769
630.346;  -71.019;-1115.116;-1080.790
630.619;  401.039; -467.107; -545.808
630.892;  576.127;  709.889;  593.200
631.165;  322.692;  790.896;  679.187
631.438; -102.407;-1092.112;-1055.798
631.711;   33.324;  453.877;  257.221
631.984;  -71.499; -523.117; -624.789
632.257;  -75.652; -636.117; -681.789
632.530;  -52.495; -412.119; -433.785
632.803;   18.571; -109.115;    7.207
633.076;  -84.432; -360.123; -422.777
633.349;   21.029;  173.872;  121.231
633.622;  -32.946; -187.119; -240.785
633.895; -128.505; -903.120; -823.783
634.167;  -83.631; -496.126; -525.773
634.440;  -24.563;  -19.116; -137.792
634.713;   -5.591;  -22.119; -120.786
634.986;   70.368;  593.871;  453.233
635.258;  -87.906; -507.115; -597.793
635.531;   98.144;  742.882; -343.788
635.804;  -48.475; -303.117; -318.789
636.077; -100.567; -830.116; -852.791
636.349;   -4.283; -586.115; -474.793
636.622;  366.542; 1695.874; 1392.228
636.894;  208.300; -474.120; -909.784
637.167;  131.111; -836.127; -789.771
637.439;   -1.818; -278.128; -213.770
637.712;  -50.382; -312.126; -293.772
637.984;  -93.541; -635.116; -707.791
638.257;  365.143;  515.877;  488.222
638.529;  522.859; -881.125; -924.776
638.802;  228.099; -508.128; -449.769
639.074; -136.142; -927.122; -952.781
639.346; -135.455; -942.135; -930.757
639.619;  -13.319;  -79.142; -319.744
639.891;  -18.549;  -83.122; -168.779
640.163;  -81.297; -689.122; -756.780
640.435;   24.855;  273.878;  103.220
640.708;   -5.668;  -72.122; -132.780
640.980;  -29.216; -366.122; -362.781
641.252;  181.336;  -25.121;  -71.781
641.524; 1737.887;  580.879;  573.219
641.796; 1734.889;-1094.121; -907.782
642.068;  317.166; -191.121; -300.782
642.340;  -57.807; -486.121; -566.783
642.613;   41.120;  294.880;  323.217
642.885; -101.554; -787.120; -878.783
643.157;  -60.277; -810.120; -658.784
643.428;   57.650;  170.880;  218.216
643.700;  -77.248; -498.120; -425.784
643.972;  -41.396;  -16.119; -133.785
644.244;  -91.494; -474.119; -559.785
644.516;  -52.018; -250.119; -114.786
644.788;   52.034;  662.881;  548.214
645.060;  -36.689;  -12.119; -124.786
645.332; -117.437; -525.118; -535.787
645.603;   26.465;  479.882;  342.213
645.875;  -81.008; -334.118; -369.787
646.147;  172.018; 1487.882; 1242.212
646.418;  -73.555; -931.117; -918.788
646.690;  109.797; -714.117; -715.789
646.962;   22.224; -413.117; -451.789
647.233;  -13.749;   15.883;   11.211
647.505; -100.048; -595.117; -475.790
647.776;   19.979;  328.884;  229.210
648.048;  -13.169; -248.116; -418.790
648.320;  -98.617; -752.116; -679.791
648.591; -168.065;-1055.116; -958.791
648.862;  -91.588; -505.116; -577.792
649.134;   11.788;  115.885;  198.208
649.405;  -56.435; -661.115; -618.792
649.677;  -79.083; -475.115; -598.793
649.948;  -21.431; -181.115; -296.793
650.219;   -8.329;  -37.115; -147.793
650.491;  -87.078; -431.114; -520.794
650.762; -119.851; -705.114; -731.794
651.033;  -88.899; -437.114; -424.795
651.304; -105.947; -743.114; -728.795
651.576;  -76.220; -680.114; -645.795
651.847;  -27.493; -250.113; -140.796
652.118;  -31.942;  -32.113; -189.796
652.389; -100.190; -639.113; -722.796
652.660;  -37.138; -147.113;  -89.797
652.931; -142.711; -897.112; -871.797
653.202;  -96.034; -382.112; -541.798
653.473;  -64.207; -633.112; -533.798
653.744;  142.169; -595.112; -590.798
654.015;  114.721; -356.112; -303.799
654.286;  -72.952; -642.111; -663.799
654.557;  -55.650; -586.111; -521.799
654.828; -166.848;-1114.111;-1088.800
655.099;  -80.247; -404.111; -291.800
655.370;  -97.345; -427.111; -543.801
655.641; -114.793; -656.110; -714.801
655.911; -105.741; -618.110; -638.801
656.182;   54.061;  437.890;  387.198
656.453;   86.588;  830.890;  746.198
656.724;  -72.911; -466.110; -426.802
656.994;  -92.034; -553.109; -568.803
657.265; -109.507; -862.109; -873.803
657.536;  -93.430; -500.109; -377.804
657.806; -111.178; -561.109; -593.804
658.077; -151.951; -866.109; -950.804
658.347;  -96.000; -523.108; -598.805
658.618; -130.098; -646.108; -694.805
658.888;  -33.646;  -41.108;  112.195
659.159;  -81.694; -432.108; -548.806
659.429;  -27.542; -292.108; -349.806
659.700;    7.784; -435.107; -390.807
659.970;  -17.164; -370.107; -359.807
660.241;    0.913; -754.107; -921.807
660.511;  464.765; -147.107; -174.808
660.781;   72.042; -793.106; -748.808
661.052;  -48.006; -222.106; -381.808
661.322;  -38.330;   21.894;   -9.809
661.592;    7.197;  257.894;  148.191
661.862;  -88.476; -369.106; -382.810
662.133;  -92.899; -551.105; -502.810
662.403; -130.847; -770.105; -676.810
662.673;  -62.520; -256.105; -213.811
662.943;  -91.269; -612.105; -551.811
663.213;  -25.892;  -85.105;  -81.811
663.483;  -74.390; -593.104; -568.812
663.753;  -41.538; -194.104; -152.812
664.023;  -15.411;   68.896;  -32.813
664.293;  -65.610; -319.104; -126.813
664.563; -117.983; -694.104; -648.813
664.833; -127.481; -743.103; -608.814
665.103; -142.454; -730.103; -793.814
665.373; -130.627; -766.103; -806.814
665.643;  -94.775; -863.103; -918.815
665.913;   16.551; -534.103; -714.815
666.182;  116.303; -685.102; -719.816
666.452;  243.055;  -22.102;  -89.816
666.722;  -47.993; -724.102; -784.816
666.992; -141.541; -948.102; -921.817
667.261;  -98.339; -824.102; -808.817
667.531;  200.087;  134.899;   45.183
667.801;  526.139; -440.101; -412.818
668.070;  239.966;  714.899;  697.182
668.340; -110.632; -883.101; -840.819
668.609;   86.245;  588.900;  301.181
668.879;  -88.504; -490.100; -558.819
669.149;  -91.152; -539.100; -516.820
669.418; -112.300; -698.100; -726.820
669.688;  -33.323; -482.100; -666.820
669.957;   46.604; -423.099; -546.821
670.226;  -39.419; -268.099; -331.821
670.496; -106.668; -431.099; -635.822
670.765;  -89.266; -418.099; -501.822
671.034; -143.964; -872.099; -828.822
671.304;  -17.687;   55.902; -111.823
671.573; -163.910;-1085.098; -957.823
671.842;   70.916; -380.098; -294.823
672.112;    6.668; -692.098; -586.824
672.381;   -4.455; -239.098; -214.824
672.650; -141.253;-1005.097;-1021.825
672.919; -102.526; -631.097; -507.825
673.188; -105.449; -681.097; -878.825
673.457; -145.498;-1101.097;-1143.826
673.726;  -99.471; -579.096; -646.826
673.995;  -42.719; -533.096; -479.826
674.265;  -33.567; -263.096; -333.827
674.534;   -4.765; -183.096; -235.827
674.802;   -2.213; -618.096; -703.828
675.071;  978.013; -886.095; -801.828
675.340; 3638.765; -464.095; -339.828
675.609; 1229.017;  103.905;   82.171
675.878;   51.319; -949.095; -893.829
676.147;   21.271;  -26.095;   -8.829
676.416;   68.022; -210.094; -294.830
676.685;  685.674; 1000.906; -622.830
676.953;   78.926; -603.094; -452.831
677.222;  -35.122; -193.094; -273.831
677.491;  -37.570;  -24.094; -127.831
677.759;  -10.918;   11.907;  172.168
678.028;  -20.717; -279.093; -222.832
678.297;   -2.340;   71.907;  197.168
678.565; -150.338; -898.093; -944.833
678.834;  -68.986; -311.093; -268.833
679.102;  -89.209; -411.092; -391.834
679.371; -149.132; -898.092; -727.834
679.639; -128.056; -797.092; -786.834
679.908; -115.004; -794.092; -724.835
680.176; -161.377; -895.091; -941.835
680.445;  -86.625; -346.091; -352.835
680.713;  -36.148;  -58.091;  -23.836
680.982;  -90.547; -523.091; -525.836
681.250; -114.370; -578.091; -507.837
681.518;  -88.843; -534.090; -751.837
681.787;  -23.841; -204.090; -167.837
682.055;  -70.014; -490.090; -422.838
682.323; -158.287; -993.090; -992.838
682.591;   19.589; -216.090; -538.838
682.859;   73.816;    9.911;  -35.839
683.128;    7.343;  232.911;  497.161
683.396; -170.530;-1102.089;-1122.840
683.664;  -32.503; -241.089;   21.160
683.932;  -14.626;  144.911;  -76.840
684.200;  -72.775; -576.088; -320.841
684.468;  -19.498;  -73.088; -124.841
684.736;  -23.621; -214.088; -175.841
685.004; -118.794;-1024.088; -982.842
685.272;  -66.092; -880.088; -774.842
685.540;  -72.241; -499.087; -557.843
685.808;  -88.389; -651.087; -682.843
686.076; -124.212; -894.087; -969.843
686.343;  -70.110; -601.087; -815.844
686.611;   28.292; -195.087; -224.844
686.879;  430.344; -530.086; -553.844
687.147; 3120.595; -483.086; -480.845
687.414;  884.722;  -12.086; -169.845
687.682;   -9.951; -658.086; -757.846
687.950;  277.376;  259.915;  263.154
688.217;   -0.797; -792.085; -760.846
688.485;   -5.595; -632.085; -636.847
688.753;  508.231;  -11.085; -102.847
689.020;  134.908; -820.085; -851.847
689.288;  -99.815; -853.084; -787.848
689.555;  -29.938; -195.084; -148.848
689.823;  -60.961; -241.084; -345.849
690.090;  -97.660; -546.084; -651.849
690.358; -156.733; -877.084; -897.849
690.625;   -6.156;  120.917;   45.150
690.892;  -84.604; -403.083; -369.850
691.160;  -25.752;   72.917;  -35.850
691.427;    0.950;  141.917;  130.149
691.694; -139.849; -855.083; -929.851
691.962; -158.447;-1177.082;-1060.852
692.229;   -1.070;  127.918;   56.148
692.496;   75.157;  130.918;  -49.852
692.763;    1.709; -164.082; -201.853
693.031;  -85.715; -739.082; -716.853
693.298;  -51.363; -509.081; -368.853
693.565;  289.939; -155.081; -163.854
693.832; 1176.741;   -5.081;   -9.854
694.099;  111.868; -643.081; -642.855
694.366;  -74.830; -882.081; -896.855
694.633;  -52.854; -920.080; -633.855
694.900;  748.423; 4367.920; -114.856
695.167;  399.325; -214.080; -380.856
695.434;   85.802; -646.080; -623.856
695.701;  202.529;  121.921;  -61.857
695.968;  450.931; -365.079; -361.857
696.234; 1030.107; -415.079; -646.858
696.501;10526.684; -776.079; -614.858
696.768; 5283.461; -554.079; -617.858
697.035;  312.213; -632.078; -667.859
697.302;   24.715; -448.078; -552.859
697.568;   -8.159; -458.078; -497.859
697.835;  -49.632; -683.078; -624.860
698.102;  -21.930; -498.078; -407.860
698.368;   75.722;  384.923;  396.139
698.635;  -39.601;  -47.077; -424.861
698.901;  -33.724; -240.077; -348.861
699.168;   62.827; -534.077; -456.862
699.435;   69.654;  -72.077;  -13.862
699.701; -116.444; -868.076; -764.862
699.968;   -9.142;  144.924; -441.863
700.234;  -99.465; -783.076; -822.863
700.500;  -61.213; -448.076; -539.864
700.767;    4.363;   -1.075;   26.136
701.033; -152.110;-1015.075; -963.864
701.299;  -58.433; -450.075; -483.865
701.566;  125.444;  950.925;  763.135
701.832;   26.371;  -31.075;  -76.865
702.098; -123.603;-1054.074;-1034.866
702.365;  -90.176;-1098.074;-1030.866
702.631;  -46.974;-1038.074;-1063.867
702.897; 1346.778; -765.074; -676.867
703.163; 2163.780;  348.926;  254.133
703.429;  164.007; -256.073; -273.868
703.695;  -37.142; -796.073; -792.868
703.961;   12.135; -214.073; -210.868
704.227;  -71.963; -630.073; -725.869
704.493;  139.514;  613.927;  510.131
704.759;  -26.434; -565.072; -540.870
705.025;   29.343; -203.072; -194.870
705.291;   -0.631; -666.072; -562.870
705.557;  204.621;  719.928;   34.129
705.823;   28.098; -742.072; -694.871
706.089;  135.175; -307.071; -326.871
706.355;  372.352; -315.071; -244.872
706.620; 5889.103; -776.071; -729.872
706.886; 7918.380; -309.071; -362.873
707.152;  730.482; -818.070; -973.873
707.418;  -25.241;-1153.070;-1186.873
707.683;    4.786; -550.070; -530.874
707.949;  -59.487; -547.070; -578.874
708.215;   -8.411; -129.070; -207.874
708.480;  -28.159; -520.069; -420.875
708.746;   92.643;   68.931;   28.125
709.011;  -82.455; -578.069; -612.876
709.277;  -88.003; -538.069; -543.876
709.542;  -66.677; -428.069; -387.876
709.808;  -12.275;  -59.068;   89.123
710.073;  -95.873; -577.068; -695.877
710.339;  -32.171; -242.068; -228.877
710.604;   79.031; -780.068; -845.878
710.869;  317.683; -277.068; -366.878
711.135;  -76.891; -715.067; -628.879
711.400;  -86.264; -507.067; -608.879
711.665;  -66.787; -404.067; -479.879
711.931;  -99.010; -661.067; -677.880
712.196; -125.108; -876.067; -954.880
712.461;   98.144; -402.066; -490.880
712.726;  103.720; -727.066; -771.881
712.991;  -88.578; -647.066; -664.881
713.256;  -51.326; -350.066; -332.882
713.521;  -57.099; -417.065; -381.882
713.787;  -64.997; -454.065; -472.882
714.052;  -36.621; -214.065; -400.883
714.317;  -91.769;-1045.065; -981.883
714.581; 1076.633; -374.065; -268.883
714.846; 1415.335; -822.064; -888.884
715.111;  134.212;  261.936;  257.116
715.376;  -32.136;  -86.064; -223.885
715.641;  -19.310; -365.064; -367.885
715.906;  280.367;   15.936; -551.885
716.171;  121.319;  221.937;  209.114
716.436;   19.146;  -78.063; -104.886
716.700; -115.477; -818.063; -692.886
716.965; -122.425; -794.063; -807.887
717.230;  -66.824; -339.063; -392.887
717.494;  -26.872;  -40.062; -134.888
717.759;  -99.445; -784.062; -640.888
718.024;   -0.443;  269.938;  250.112
718.288;   61.959;  685.938;  395.111
718.553; -156.165; -803.062; -977.889
718.817; -148.438; -883.061; -899.889
719.082;  -34.661; -115.061; -125.890
719.346; -145.484;-1000.061; -947.890
719.611;  -49.157; -300.061; -255.891
719.875; -102.455; -568.060; -537.891
720.140;  -75.604; -453.060; -603.891
720.404;   35.773; -136.060; -249.892
720.668;  809.425; -475.060; -411.892
720.933;  296.727;  146.940;  137.108
721.197; -104.396; -667.059; -600.893
721.461; -144.844; -851.059; -826.893
721.725;  -23.518;  -21.059; -250.894
721.990;  -65.841; -284.059; -204.894
722.254;  -37.064;  -26.059; -108.894
722.518;  -68.537; -286.058; -442.895
722.782;  -98.060; -743.058; -594.895
723.046;  123.491;  614.942;  570.105
723.310;   12.193;  374.942;  210.104
723.574; -107.405; -654.058; -614.896
723.838; -104.878; -576.057; -642.897
724.102;  -38.201; -226.057; -239.897
724.366; -150.524;-1032.057; -978.897
724.630; -113.223; -749.057; -571.898
724.894;  -82.971; -722.057; -514.898
725.158;  -11.844;   38.944; -295.898
725.422;  -66.767; -394.056; -327.899
725.685;  -59.965; -441.056; -349.899
725.949;  -82.413; -566.056; -519.900
726.213;  -93.987; -732.056; -811.900
726.477;  147.890;-1020.055; -933.900
726.740;  134.717; -274.055; -104.901
727.004;  340.294; -384.055; -510.901
727.268; 3434.171; -442.055; -400.901
727.531;  937.322; -961.055; -775.902
727.795;  -36.951; -713.054; -673.902
728.059;  -67.949; -552.054; -557.903
728.322;  -80.672; -841.054; -669.903
728.586;   -3.095; -692.054; -701.903
728.849;  -93.793; -695.053; -756.904
729.112; -127.192; -812.053; -912.904
729.376; -146.540; -959.053; -905.904
729.639;  -76.288; -536.053; -536.905
729.903; -118.586; -733.053; -699.905
730.166;  -60.984; -437.052; -399.906
730.429;  -35.383; -317.052; -468.906
730.693;  -81.281; -355.052; -894.906
730.956;  203.696;  810.948;  651.093
731.219;  672.398; -310.052; -103.907
731.482;  105.775;-1003.051; -894.907
731.745;   90.477; -794.051; -935.908
732.009;   30.953;  -30.051;   50.092
732.272; -107.245; -904.051; -771.909
732.535;  -34.643; -300.051; -310.909
732.798; -162.966;-1083.050;-1166.909
733.061;  -60.689; -430.050; -456.910
733.324;    1.563;   31.950; -180.910
733.587;   53.839;  290.950;  365.090
733.850;  -78.559; -973.049;-1050.911
734.113;   21.993;   33.951;   32.089
734.376;  -12.580; -328.049; -447.912
734.639;  196.897; 1188.951; 1011.088
734.901;   65.598; -180.049; -402.912
735.164;  517.100; -883.048; -837.913
735.427; 1267.377; -166.048; -355.913
735.690;  104.804; -205.048; -234.913
735.952;  -32.669; -923.048; -925.914
736.215;  -29.742;-1113.048;-1009.914
736.478;   30.034; -771.047; -774.915
736.740;  208.236;   33.953;  129.085
737.003;  685.913; -658.047; -672.915
737.266; 3872.615;  -94.047;   46.084
737.528;  410.717; -682.047; -660.916
737.791;  316.819; -316.046; -327.916
738.053;  816.070;  465.954;  649.083
738.316;11187.647; -162.046; -136.917
738.578; 7541.924; -770.046; -736.918
738.841;  442.776; -382.046; -446.918
739.103;  166.953; -875.045; -777.918
739.365;  479.429;   79.955;  -69.919
739.628;  -11.269; -884.045; -805.919
739.890;  -23.992; -758.045; -710.919
740.152;  -46.915; -692.044; -754.920
740.414;   -9.063; -408.044; -359.920
740.677;  -54.386; -785.044; -634.921
740.939;  -55.185; -587.044; -487.921
741.201;  235.142; -432.044; -572.921
741.463;   22.394; -689.043; -745.922
741.725;   11.096;  -21.043; -199.922
741.987;   48.023;  220.957;  116.078
742.249;  -10.700; -751.043; -859.923
742.511;  208.151; -703.043; -794.923
742.773;    0.678; -546.042; -546.924
743.035;  127.630;  796.958;  533.076
743.297;  -61.193; -963.042;-1013.924
743.559;  734.009; -278.042; -262.925
743.821;   53.185; -735.042; -744.925
744.083;   18.037;  -44.041; -149.925
744.345; -111.311; -869.041; -892.926
744.607;   26.116;   75.959;  122.074
744.868;  -59.757; -490.041; -554.927
745.130; -117.230; -994.041;-1008.927
745.392;   38.246;   -1.040;  -44.927
745.653;   -8.477; -411.040; -378.928
745.915;  143.450;  896.960;  631.072
746.177;   59.577;   35.960;  -43.928
746.438;   -6.896; -428.040; -543.929
746.700;  -47.794; -947.039; -988.929
746.961;   -0.093; -659.039; -740.930
747.223;  140.009; -190.039;  -74.930
747.484;   79.336; -391.039; -471.930
747.746;  138.763;  -23.038; -106.931
748.007;  102.865; -647.038; -689.931
748.269;  301.141; -468.038; -440.931
748.530;  446.868; -852.038; -638.932
748.791;  267.270; -354.038; -420.932
749.053;  419.022;  286.963;  163.067
749.314;  445.624; -236.037; -169.933
749.575;  494.926; -945.037; -905.933
749.836;  812.027; -217.037;   86.066
750.098; 2506.754;  -60.037;  -21.934
750.359;36242.181;  414.964;  555.066
750.620; 8848.883; -121.036; -220.935
750.881; 1015.785; -585.036; -513.935
751.142; 1349.861; -950.036; -938.936
751.403;17020.788; -789.036; -705.936
751.664; 7169.115;-1034.035; -999.936
751.925;  481.342; -175.035; -262.937
752.186;  262.069; -298.035; -278.937
752.447;  129.221; -590.035; -445.937
752.708;   41.922; -532.035; -648.938
752.969;   -1.176; -566.034; -576.938
753.230;  -17.674; -777.034; -672.939
753.491;   -7.972; -650.034; -631.939
753.751;   57.105;  109.966;   19.061
754.012;   95.032;  258.967;  181.060
754.273;   57.308; -174.033;  -71.940
754.534;   -4.465; -487.033; -580.940
754.794;  -95.613; -926.033; -911.941
755.055;  120.839; 1051.967;  881.059
755.316;  -49.934; -700.032; -566.942
755.576;  -21.508; -606.032; -576.942
755.837;  -43.506; -527.032; -695.942
756.097;  -43.554; -530.032; -564.943
756.358;  -82.577; -725.032; -770.943
756.618;  -47.025; -705.031; -641.943
756.879;   -7.048; -254.031; -349.944
757.139; -130.247;-1098.031;-1116.944
757.400;  -64.345; -538.031; -553.945
757.660;  -27.768; -365.031; -401.945
757.920;   11.159; -266.030; -228.945
758.181;  -21.439; -468.030; -351.946
758.441;  -99.787; -870.030; -809.946
758.701;  -31.686; -308.030; -215.946
758.961;  -28.859; -220.030; -278.947
759.222;  -52.132; -574.029; -502.947
759.482;  -86.930; -683.029; -723.948
759.742;  -87.378; -706.029; -547.948
760.002;    6.373;  -83.029; -143.948
760.262;    6.950;   50.972;  182.051
760.522;  -45.248; -498.028; -574.949
760.782;  -52.846; -738.028; -612.949
761.042;  -44.369; -618.028; -573.950
761.302;   57.133;   55.972;  -18.950
761.562;   42.209; -164.027; -154.951
761.822;   86.361; -710.027; -551.951
762.082;  -56.962;-1104.027;-1093.951
762.342;   76.565; -328.027; -403.952
762.601;   75.467; -567.027; -506.952
762.861;  353.969; -281.026; -207.952
763.121;  408.795; -406.026; -411.953
763.381; 7593.922; -499.026; -485.953
763.640; 7977.674; -139.026; -307.954
763.900;  344.451; -242.026; -203.954
764.160;   86.853; -458.025; -491.954
764.419;  -17.446; -726.025; -782.955
764.679;  -73.844; -795.025; -726.955
764.939;   -8.792; -124.025; -210.955
765.198;  -87.365; -608.025; -563.956
765.458;  -89.113; -710.024; -612.956
765.717;  -81.661; -454.024; -590.957
765.976;  -59.360; -428.024; -411.957
766.236;  -81.133; -475.024; -610.957
766.495;   13.594;  260.977;   73.042
766.755; -111.229;-1090.023; -987.958
767.014;   11.498; -594.023; -665.958
767.273;  -60.301; -373.023; -397.959
767.533;  -49.799; -228.023; -307.959
767.792;  -41.497; -151.022; -188.960
768.051;  -56.770; -228.022; -276.960
768.310;  -89.693; -546.022; -650.960
768.569;  -15.741; -161.022;    4.039
768.828;  -37.215; -285.022; -363.961
769.088; -128.063;-1050.021; -942.961
769.347;  -97.386; -755.021; -599.962
769.606; -108.109; -876.021; -857.962
769.865; -143.707;-1016.021;-1033.963
770.124;  -12.830; -411.021; -336.963
770.383;  -51.029; -778.020; -910.963
770.641;    1.048; -398.020; -400.964
770.900;  -67.350; -953.020; -846.964
771.159;  -35.173; -851.020; -951.964
771.418;  -34.596; -917.020; -779.965
771.677;  127.855; -224.019; -293.965
771.936;  147.857; -794.019; -865.966
772.194; 2369.159; -465.019; -437.966
772.453;11272.111; -213.019; -391.966
772.712;  762.288;  416.982;  329.033
772.970;  118.840;   32.982;   63.033
773.229;   93.841;  -22.018;  102.033
773.488;  -89.057; -814.018; -770.968
773.746;   59.345;  296.982;  335.032
774.005;    5.397;  190.983;  -22.969
774.263;    7.624;  243.983;  177.031
774.522; -109.349; -422.017; -548.969
774.780;  -82.598; -484.017; -417.970
775.039;  -84.996; -551.017; -531.970
775.297;  -25.469; -135.016; -351.970
775.555; -101.942; -489.016; -612.971
775.814; -122.415; -618.016; -570.971
776.072; -123.464; -749.016; -740.971
776.330; -105.112; -630.016; -520.972
776.589; -120.710; -703.015; -721.972
776.847; -136.008; -645.015; -624.973
777.105; -174.331;-1016.015;-1032.973
777.363;  -86.904; -459.015; -454.973
777.621; -157.903; -660.015; -717.974
777.879;  -18.501;  -42.014;   32.026
778.138; -102.374; -554.014; -717.974
778.396; -110.772; -585.014; -526.975
778.654; -180.945;-1015.014; -970.975
778.912;  -74.468; -269.014; -371.976
779.170; -146.817; -880.013; -803.976
779.427; -154.640; -922.013; -897.976
779.685; -148.513; -880.013; -832.977
779.943;  -81.861; -654.013; -593.977
780.201; -166.159; -964.012; -883.978
780.459; -124.533; -651.012; -610.978
780.717;  -94.931; -440.012; -390.978
780.974; -113.904; -449.012; -490.979
781.232;  -71.702; -358.012; -338.979
781.490;  -78.950; -551.011; -472.979
781.747; -112.148; -555.011; -476.980
782.005;   18.953;  462.989;  254.020
782.263; -187.995; -542.011;-1004.981
782.520;  -88.518; -326.011; -501.981
782.778; -167.716;-1013.010;-1051.981
783.035; -178.664; -962.010; -938.982
783.293;  -66.637; -248.010; -206.982
783.550;  -54.236; -134.010; -198.982
783.808; -142.559; -764.010; -776.983
784.065; -158.582; -745.009; -874.983
784.322;  -48.280;   25.991;  -86.984
784.580; -141.253; -915.009; -771.984
784.837;  -97.477; -392.009; -466.984
785.094; -145.850; -783.009; -762.985
785.352;  -76.723; -304.008; -404.985
785.609; -122.446; -934.008; -839.985
785.866;  -97.394; -345.008; -401.986
786.123;  -56.467; -639.008; -583.986
786.380;  -98.391; -665.008; -604.987
786.637;  -41.139; -225.007; -380.987
786.895;  -37.487; -456.007; -543.987
787.152;  -39.310; -135.007; -267.988
787.409;  -71.008; -123.007; -225.988
787.666; -108.932; -299.006; -378.988
787.923; -120.605; -616.006; -695.989
788.179;  -91.353; -551.006; -584.989
788.436; -114.026; -585.006; -585.990
788.693;  -40.549;  -92.006;  -87.990
788.950;  147.028; -125.005; -112.990
789.207;  186.354; -381.005; -372.991
789.464;  -69.144; -161.005; -301.991
789.720;  -11.917;  150.995;  110.009
789.977; -176.390;-1003.005; -671.992
790.234;  -22.813;   44.996;  -66.992
790.490; -163.186; -884.004;-1031.993
790.747;  -24.285;  -85.004;   22.007
791.004;  -32.608; -426.004; -348.993
791.260;  -80.031; -430.004; -560.994
791.517; -107.929; -843.003; -788.994
791.773;  -52.502; -379.003; -342.994
792.030; -120.176; -596.003; -660.995
792.286;  -96.649; -686.003; -636.995
792.543;  -28.397;  -74.002; -159.995
792.799;  -42.420; -584.002; -382.996
793.055; -164.293;-1179.002;-1210.996
793.312;  -97.841; -827.002; -816.997
793.568;  -60.765; -746.002; -599.997
793.824;    1.012; -226.001; -284.997
794.081;   -4.161; -447.001; -508.998
794.337;   66.716; -664.001; -561.998
794.593; 1366.818; -319.001; -271.999
794.849; 6462.195; -746.001; -772.999
795.105;  306.496; -270.000; -261.999
795.361;    3.023; -490.000; -457.000
795.617;  -71.150; -875.000; -945.000
795.873;  -50.300; -360.000; -407.000
796.129;  -41.275; -368.000; -306.000
796.385;  -21.975; -124.000; -156.000
796.641;   56.750;  412.000;  550.000
796.897;  -89.775; -666.000; -635.000
797.153;   66.350;  453.000;  357.000
797.409;  -93.125; -785.000; -868.000
797.665;  -90.100; -625.000; -732.000
797.921;  -72.500; -775.000; -762.000
798.176;  -62.900; -744.000; -747.000
798.432;  -63.125; -824.000; -596.000
798.688;  -75.100;-1174.000;-1078.000
798.943;   84.825; -165.000; -147.000
799.199;    5.050;-1005.000; -959.000
799.455;  227.525;  369.000;  316.000
799.710;  126.125; -813.000; -380.000
799.966;  305.750; -162.000; -160.000
800.221;  496.600; -638.000; -721.000
800.477;10927.425; -743.000; -710.000
800.732; 9194.025; -773.000; -800.000
800.988;  634.975;  205.000;  -19.000
801.243; 1992.000; -454.000; -344.000
801.498; 8153.975; -814.000; -739.000
801.754;  463.700; -289.000; -163.000
802.009;   90.000; -257.000; -335.000
802.264;  -70.750; -967.000;-1033.000
802.520;   15.425;  222.000;   -3.000
802.775;  -58.375; -524.000; -359.000
803.030;   32.550;  395.000;  356.000
803.285; -130.425; -840.000; -903.000
803.540;  -64.525; -686.000; -699.000
803.795;  -47.175; -648.000; -583.000
804.051;  -38.650; -279.000; -346.000
804.306;    9.400;  168.000;  128.000
804.561;  150.050;  451.000;  362.000
804.816;  129.925;  714.000;  861.000
805.071;   -0.900; -185.000; -280.000
805.325;  184.350; -257.000; -427.000
805.580; -105.175; -841.000; -877.000
805.835;  -29.225; -204.000; -297.000
806.090;  -72.975; -760.000; -676.000
806.345;  -23.675; -344.000; -264.000
806.600;  -31.000; -549.000; -632.000
806.854;  -39.825; -408.000; -538.000
807.109;  -15.325; -493.000; -577.000
807.364;   -0.225; -407.000; -328.000
807.618;  -11.575; -415.000; -381.000
807.873;   39.175; -470.000; -494.000
808.128;  103.550; -257.000; -518.000
808.382;  105.425; -224.000; -332.000
808.637;   66.275; -440.000; -511.000
808.891;  172.850; -257.000; -180.000
809.146;   84.575; -902.000; -794.000
809.400;  268.325; -848.000; -923.000
809.654;  311.500; -779.000; -551.000
809.909;  471.825; -841.000; -927.000
810.163; 6713.150; -813.000; -651.000
810.418;16520.275; -940.000; -861.000
810.672;  993.425; -685.000; -690.000
810.926;  713.650; -993.000; -973.000
811.180; 1426.575; -439.000; -372.000
811.434;32850.625;  240.000;  135.000
811.689;12509.400; -231.000; -365.000
811.943;  603.050; -936.000; -953.000
812.197;  311.250; -893.000; -671.000
812.451;  114.500; -379.000; -514.000
812.705;  -27.175; -809.000; -619.000
812.959;   -8.525; -263.000; -388.000
813.213;   -3.325; -283.000; -209.000
813.467;   57.050;  470.000;  253.000
813.721; -106.700; -764.000; -792.000
813.975; -120.800; -826.000; -877.000
814.229;   54.375;  430.000;  353.000
814.482;  -79.050; -517.000; -566.000
814.736; -126.225; -766.000; -744.000
814.990; -125.350; -779.000; -872.000
815.244;  -46.475; -228.000; -285.000
815.497;  -97.400; -636.000; -601.000
815.751;  -13.950; -141.000;   82.000
816.005;  -96.325; -470.000; -586.000
816.258;  -78.825; -510.000; -363.000
816.512; -116.750; -693.000; -610.000
816.766;  -17.325;  121.000;  157.000
817.019;   20.300;  148.000;  149.000
817.273; -121.175;-1000.000; -802.000
817.526;  -50.075; -206.000; -173.000
817.779;  -46.200;-1049.000; -960.000
818.033;  -85.150; -693.000; -807.000
818.286; -116.850; -725.000; -792.000
818.540;  -92.375; -403.000; -403.000
818.793;  -80.750; -402.000; -489.000
819.046; -106.875; -582.000; -520.000
819.299;  -43.150; -157.000; -166.000
819.553; -107.025; -552.000; -592.000
819.806; -174.150;-1016.000; -838.000
820.059;  -73.150; -334.000; -354.000
820.312;   23.800;  152.000;  185.000
820.565;  -31.875;  110.000;  -27.000
820.818;  -55.650;  -59.000; -173.000
821.071; -170.275;-1041.000; -957.000
821.324; -104.575; -536.000; -540.000
821.577; -118.050; -457.000; -483.000
821.830;  -62.150; -270.000; -172.000
822.083; -147.700; -733.000; -288.000
822.336;  -59.225; -261.000; -167.000
822.589; -133.475; -805.000; -688.000
822.842; -139.550; -875.000; -770.000
823.094; -194.450;-1076.000;-1114.000
823.347; -138.725; -925.000; -729.000
823.600;   16.075;  402.000;  187.000
823.853;  -57.250; -311.000; -267.000
824.105;  -80.625; -331.000; -575.000
824.358; -106.775; -617.000; -716.000
824.611;   18.075;  234.000;   40.000
824.863;  -57.100; -612.000; -591.000
825.116;   25.575;  -33.000;   27.000
825.368;   68.800; -366.000; -372.000
825.621;  165.100; -186.000; -240.000
825.873;   62.450; -704.000; -737.000
826.126;  597.075; -669.000; -641.000
826.378;11800.275; -389.000; -505.000
826.630; 2683.025; -890.000; -898.000
826.883;   26.775; -754.000; -693.000
827.135;   37.800; -279.000; -270.000
827.387; -111.250; -893.000; -839.000
827.639;  -30.325;  -86.000;   32.000
827.892; -132.500; -742.000; -582.000
828.144; -149.025; -848.000; -804.000
828.396;  -41.675;  104.000;  -80.000
828.648; -101.675; -440.000; -333.000
828.900; -151.175; -702.000; -795.000
829.152; -124.975; -684.000; -683.000
829.404;  -75.375; -215.000; -267.000
829.656;  -20.800;  321.000;  214.000
829.908;  -36.375;  393.000;  229.000
830.160; -179.475;-1064.000;-1047.000
830.412; -105.350; -481.000; -430.000
830.664; -129.850; -557.000; -665.000
830.916;  -77.150; -268.000; -206.000
831.167; -189.550;-1073.000; -951.000
831.419; -123.350; -623.000; -566.000
831.671; -164.225; -764.000; -809.000
831.923; -104.500; -311.000; -447.000
832.174;  -82.025; -273.000; -331.000
832.426; -118.175; -493.000; -582.000
832.678; -186.825;-1043.000;-1091.000
832.929; -167.700; -947.000; -935.000
833.181;  -79.950; -575.000; -677.000
833.432;  -49.375;  -59.000; -186.000
833.684;  -38.125;  112.000;  -27.000
833.935; -117.525; -610.000; -566.000
834.187; -130.825; -829.000; -823.000
834.438;  -54.475;  -58.000;  -25.000
834.689;  -79.450; -255.000; -123.000
834.941;  -67.325; -343.000; -244.000
835.192; -103.825; -590.000; -533.000
835.443; -104.775; -419.000; -506.000
835.695;  -25.400;  138.000;  -16.000
835.946; -104.975; -608.000; -378.000
836.197; -122.275; -599.000; -622.000
836.448;  -94.100; -528.000; -395.000
836.699;  -64.350; -253.000; -341.000
836.950;  -12.825;   72.000;    7.000
837.201; -153.075;-1003.000; -987.000
837.452;  -61.525; -356.000; -170.000
837.703; -133.625; -791.000; -737.000
837.954;  -38.675; -205.000; -365.000
838.205;  -98.125;-1029.000;-1008.000
838.456;  154.700; -196.000; -282.000
838.707;   -4.275; -423.000; -519.000
838.958;  -11.625; -634.000; -647.000
839.209;  258.075;   18.000;   40.000
839.460;   96.600; -439.000; -201.000
839.710;  143.950; -135.000; -297.000
839.961;  406.725;  730.000;  612.000
840.212;  331.625; -382.000; -497.000
840.462; 1166.175; -328.000; -277.000
840.713;18314.700; -571.000; -536.000
840.964; 6976.550;  -62.000; -143.000
841.214;  496.825; -384.000; -624.000
841.465;  558.175; -214.000; -141.000
841.715;  480.750; -417.000; -380.000
841.966;  625.025; -746.000; -685.000
842.216; 9099.975; -330.000; -431.000
842.466;32958.525; -169.000; -313.000
842.717; 1668.425; -964.000; -952.000
842.967;  298.600; -635.000; -641.000
843.217;  244.850;   20.000;   28.000
843.468;   66.375; -104.000; -132.000
843.718;  -62.400; -718.000; -726.000
843.968; -106.750; -837.000; -765.000
844.218;    9.000; -315.000; -262.000
844.469;  -55.825; -577.000; -561.000
844.719; -110.875; -537.000; -682.000
844.969;  -91.750; -550.000; -580.000
845.219; -154.725; -814.000; -862.000
845.469;  -78.125; -392.000; -342.000
845.719; -140.425; -792.000; -884.000
845.969;  -18.750;  119.000;  174.000
846.219; -119.275; -738.000; -720.000
846.469;   14.300;  464.000;  432.000
846.718;  -67.650; -115.000;   31.000
846.968; -148.800; -827.000; -827.000
847.218;  -68.300; -224.000; -371.000
847.468;   -2.075; -586.000; -555.000
847.718; -148.050; -827.000; -798.000
847.967; -136.500; -826.000; -915.000
848.217;  -94.100; -449.000; -569.000
848.467;  -70.100; -405.000; -376.000
848.716; -110.025; -708.000; -725.000
848.966;  -16.775; -372.000; -358.000
849.215;  -69.550; -428.000; -419.000
849.465; -105.025; -785.000; -615.000
849.714; -158.675;-1132.000;-1150.000
849.964;  -63.300; -551.000; -613.000
850.213;  -26.825; -393.000; -355.000
850.463;   78.325;  137.000;  340.000
850.712;   -0.850; -542.000; -567.000
850.961;   10.375; -739.000; -678.000
851.211;   90.925; -513.000; -504.000
851.460;  165.300; -635.000; -650.000
851.709;  565.850;  -25.000;   18.000
851.958;10731.100; -912.000; -750.000
852.208;12481.750; -859.000; -879.000
852.457;  440.650; -181.000;  -13.000
852.706;   59.850; -791.000; -823.000
852.955;    7.850; -507.000; -528.000
853.204;  -78.200; -521.000; -461.000
853.453;  -83.175; -418.000; -458.000
853.702; -137.275; -660.000; -750.000
853.951;  -91.525; -532.000; -520.000
854.200; -117.075; -613.000; -562.000
854.449; -142.450; -695.000; -661.000
854.698; -106.350; -340.000; -279.000
854.946;  -68.775; -181.000; -284.000
855.195; -162.350; -843.000; -868.000
855.444;  -99.175; -395.000; -420.000
855.693; -129.250; -345.000; -432.000
855.941; -106.875; -387.000; -516.000
856.190;  -67.150; -256.000; -382.000
856.439; -149.625; -652.000; -703.000
856.687;  -55.000;  -99.000;  -72.000
856.936; -119.625; -621.000; -323.000
857.184; -192.325;-1067.000;-1020.000
857.433; -110.600; -423.000; -512.000
857.681; -173.200; -989.000; -953.000
857.930;  -80.875; -282.000; -433.000
858.178; -170.450; -856.000; -929.000
858.427; -155.625; -802.000; -781.000
858.675; -120.000; -377.000; -544.000
858.923; -116.750; -527.000; -819.000
859.172; -189.825;-1094.000;-1070.000
859.420; -104.100; -339.000; -239.000
859.668; -143.100; -624.000; -628.000
859.916;  -24.500;  109.000;  115.000
860.164; -116.475; -699.000; -603.000
860.413;  267.975; -878.000; -696.000
860.661;  172.600; -709.000; -577.000
860.909; -101.450; -339.000; -325.000
861.157;  -91.625; -277.000; -444.000
861.405; -132.900; -534.000; -670.000
861.653;    2.875;  310.000;  310.000
861.901;  161.950; -543.000; -613.000
862.149;  -21.925; -801.000; -824.000
862.396;  -84.950; -297.000; -187.000
862.644; -107.500; -368.000; -347.000
862.892;  -37.525;   98.000;  138.000
863.140; -119.925; -549.000; -530.000
863.388; -154.375; -815.000; -759.000
863.635; -129.300; -642.000; -601.000
863.883;  -14.900;  231.000;  190.000
864.131; -109.525; -288.000; -357.000
864.378; -128.725; -675.000; -540.000
864.626; -118.950; -347.000; -415.000
864.873; -126.775; -556.000; -505.000
865.121; -151.550; -714.000; -799.000
865.368;  -52.200; -173.000;   75.000
865.616;  -47.975;  -33.000;  -40.000
865.863;  -68.750; -462.000; -506.000
866.111; -116.000; -795.000; -824.000
866.358;   41.650; -426.000; -420.000
866.605; 2494.150;  -64.000; -804.000
866.853; 2401.675; -621.000; -537.000
867.100;  -45.875; -728.000; -775.000
867.347; -103.250; -672.000; -611.000
867.594;  -96.675; -740.000; -714.000
867.841;   82.500;   97.000;   17.000
868.089; -164.550; -746.000; -698.000
868.336; -114.225; -477.000; -420.000
868.583; -155.075; -637.000; -741.000
868.830;  -74.000; -131.000; -170.000
869.077; -170.375; -859.000; -787.000
869.324; -134.550; -502.000; -458.000
869.571; -140.550; -398.000; -430.000
869.818; -115.050; -485.000; -439.000
870.065; -120.050; -439.000; -513.000
870.311; -125.725; -456.000; -542.000
870.558; -111.075; -332.000; -311.000
870.805;  -98.375; -320.000; -384.000
871.052; -127.700; -494.000; -369.000
871.298;  -57.675; -204.000; -131.000
871.545;  -81.900; -151.000; -185.000
871.792; -109.300; -173.000; -222.000
872.038;  -65.500;   43.000; -126.000
872.285; -124.650; -496.000; -387.000
872.532; -103.425; -357.000; -387.000
872.778;   -4.575;  556.000;  403.000
873.025; -103.600; -384.000; -359.000
873.271;   12.350;  501.000;  578.000
873.517;  -36.000; -133.000; -209.000
873.764;  -44.525; -193.000;  -80.000
874.010;  -73.225; -143.000; -230.000
874.257;  -52.725;  123.000;   90.000
874.503; -147.350; -579.000; -479.000
874.749;  -74.450;   31.000;  275.000
874.995;  -79.050;  -80.000;  -20.000
875.242; -125.000; -540.000; -478.000
875.488; -105.900; -414.000; -439.000
875.734;  -58.350; -106.000; -234.000
875.980;  167.625; -872.000;-1032.000
876.226;  323.350; -157.000; -255.000
876.472;  -23.625;  343.000;  237.000
876.718;  -42.475;  184.000;  158.000
876.964;  -50.825;   56.000;   55.000
877.210; -162.825; -547.000; -677.000
877.456; -146.175; -630.000; -557.000
877.702; -182.025; -821.000; -832.000
877.948; -119.975; -377.000; -497.000
878.193;   -4.850;  361.000;  255.000
878.439; -121.200; -487.000; -472.000
878.685; -119.500; -272.000; -343.000
878.931; -143.375; -618.000; -676.000
879.176;  -77.900; -201.000; -201.000
879.422; -193.625; -933.000; -820.000
879.668;   27.650;   10.000;   79.000
879.913;  110.125;   53.000;  137.000
880.159;  -70.000; -112.000;  -17.000
880.404;  -66.675; -152.000; -162.000
880.650;  -62.675;   91.000;  141.000
880.895; -168.750; -670.000; -710.000
881.141; -126.175; -454.000; -428.000
881.386; -159.675; -503.000; -658.000
881.631;  -85.725; -311.000; -166.000
881.877;  -42.875;  112.000;  -13.000
882.122; -140.725; -684.000; -600.000
882.367; -101.025; -136.000; -186.000
882.612;  -71.475;  -80.000; -176.000
882.858; -189.750; -877.000; -823.000
883.103; -105.425; -297.000; -267.000
883.348; -167.400; -759.000; -852.000
883.593; -146.800; -677.000; -602.000
883.838;  -63.675; -311.000;  -24.000
884.083;   14.950;  353.000;  288.000
884.328; -100.625; -564.000; -545.000
884.573;  -60.475; -196.000; -143.000
884.818;  185.675; -694.000; -531.000
885.063;  156.150; -348.000; -315.000
885.308; -113.425; -475.000; -398.000
885.553;  -19.350;  245.000;  325.000
885.797; -133.625; -545.000; -615.000
886.042;  -57.025;    8.000;   58.000
886.287; -103.300; -253.000; -211.000
886.532;  -60.075;   26.000;  204.000
886.776; -108.250; -407.000; -525.000
887.021; -154.950; -621.000; -574.000
887.265; -170.450; -685.000; -689.000
887.510; -143.875; -557.000; -496.000
887.755; -102.350; -194.000; -164.000
887.999; -144.275; -552.000; -575.000
888.244;  -73.325;  -58.000;  161.000
888.488;  -21.875;  371.000;  393.000
888.732; -126.425; -368.000; -520.000
888.977; -135.475; -622.000; -567.000
889.221; -179.600; -683.000; -659.000
889.465; -136.575; -422.000; -566.000
889.710;  -88.175;  -56.000; -299.000
889.954;   -3.225;  579.000;  467.000
890.198; -164.025; -584.000; -707.000
890.442; -162.800; -716.000; -712.000
890.687; -180.800; -800.000; -753.000
890.931; -105.650; -273.000; -210.000
891.175; -148.425; -502.000; -500.000
891.419;  -82.675; -105.000; -110.000
891.663;  -84.750; -239.000; -112.000
891.907; -167.825; -801.000; -545.000
892.151; -184.075; -920.000; -815.000
892.395; -131.225; -274.000; -387.000
892.638;  -36.175;  408.000;  291.000
892.882; -188.450; -780.000; -867.000
893.126;    3.500;  758.000;  558.000
893.370;  -99.900; -167.000; -168.000
893.614; -174.100; -714.000; -715.000
893.857; -117.200; -183.000; -197.000
894.101; -152.700; -527.000; -631.000
894.345;  -58.225;  300.000;  150.000
894.588;   11.275;  569.000;  380.000
894.832;  -84.625; -178.000;  -84.000
895.075;  -81.900;   15.000;  -92.000
895.319; -141.650; -552.000; -420.000
895.563; -120.450; -413.000; -353.000
895.806; -170.450; -628.000; -741.000
896.049;  -82.775; -576.000; -368.000
896.293;   88.050;  527.000;  405.000
896.536;  -83.175; -465.000; -468.000
896.779;  -83.050; -149.000;   -1.000
897.023; -157.200; -751.000; -714.000
897.266;  -40.775;  325.000;  269.000
897.509; -197.500; -900.000; -901.000
897.752;  -51.750;  149.000;  171.000
897.996; -199.900; -972.000; -864.000
898.239;  -58.200;  168.000;  102.000
898.482; -134.025; -431.000; -453.000
898.725;  -35.950;  101.000;   53.000
898.968; -166.800; -609.000; -744.000
899.211; -111.725; -513.000; -361.000
899.454; -133.700; -633.000; -539.000
899.697;  -91.750;   90.000;  -43.000
899.940; -182.275; -761.000; -757.000
900.182; -118.950; -335.000; -405.000
900.425; -105.325; -150.000; -298.000
900.668;  -28.800;  491.000;  350.000
900.911; -132.725; -292.000; -345.000
901.154;  -63.825;  141.000;   -3.000
901.396; -142.375; -407.000; -412.000
901.639; -146.325; -430.000; -496.000
901.882; -183.925; -790.000; -809.000
902.124;  -97.600;  -29.000; -143.000
902.367; -111.750; -315.000; -361.000
902.609; -136.275; -476.000; -453.000
902.852;  -93.400; -108.000; -260.000
903.094; -126.525; -458.000; -337.000
903.337;  -63.875;  -26.000;   53.000
903.579; -112.075; -228.000; -441.000
903.821; -151.075; -597.000; -744.000
904.064;  -57.725;   85.000;  127.000
904.306;  -88.500; -126.000; -166.000
904.548; -108.775; -152.000; -366.000
904.790; -114.650; -195.000; -340.000
905.033; -145.875; -625.000; -577.000
905.275; -141.950; -513.000; -524.000
905.517;   33.025;  468.000;  256.000
905.759;  -85.475; -667.000; -761.000
906.001; -110.900; -322.000; -369.000
906.243;  -78.325; -162.000; -224.000
906.485;  112.675; -265.000; -207.000
906.727;   85.025; -499.000; -542.000
906.969;  -43.225;  -30.000; -135.000
907.211;   92.800; -316.000; -382.000
907.453;  254.950; -188.000; -237.000
907.695;  -37.225; -158.000; -385.000
907.936;   38.825;  818.000;  706.000
908.178;  -78.850;   92.000; -135.000
908.420;  -85.300; -111.000; -162.000
908.662; -139.750; -633.000; -682.000
908.903; -102.050; -208.000; -123.000
909.145;  -70.900; -240.000; -305.000
909.386;    7.325;  315.000;  280.000
909.628;    7.725;  363.000;  397.000
909.870;   -5.025;   29.000;  264.000
910.111; -111.025; -809.000; -949.000
910.353;   11.150; -123.000; -161.000
910.594;  -10.425; -574.000; -606.000
910.835;   90.000; -265.000; -326.000
911.077;  144.000; -503.000; -604.000
911.318;  281.525; -505.000; -471.000
911.559;  442.500; -577.000; -880.000
911.801; 1375.975; -284.000; -280.000
912.042;10763.125;  -50.000; -159.000
912.283;26884.475;  404.000;  371.000
912.524; 3876.775; -396.000; -457.000
912.765;  470.800; -193.000;   79.000
913.006;  220.900; -307.000; -338.000
913.247;   50.700; -270.000; -290.000
913.488;  -34.450;  -43.000;   30.000
913.729;  -95.450; -373.000; -373.000
913.970;  -65.025;  -96.000; -292.000
914.211;  -85.175; -160.000; -198.000
914.452;  -75.750; -118.000;  -11.000
914.693;   13.700;  510.000;  592.000
914.934;    3.725;  510.000;  440.000
915.175;  -61.350;   53.000;  -95.000
915.415;  -78.600; -137.000;   27.000
915.656;  -57.800;  -28.000;  192.000
915.897;  -96.500; -252.000;  -82.000
916.137;  -67.600;   74.000;   -9.000
916.378; -153.050; -573.000; -517.000
916.619;  -95.425; -159.000;  -63.000
916.859;  -30.200;  303.000;  330.000
917.100;  132.100; 1655.000; 1070.000
917.340;   36.800;  930.000;  728.000
917.581;   39.400;  965.000;  789.000
917.821;  -39.650; -171.000;  143.000
918.061;   -2.950; -199.000;  -72.000
918.302;  -55.825; -152.000; -211.000
918.542;  -40.700;  -22.000;    3.000
918.782;   34.650;  369.000;  377.000
919.023;  130.125;  360.000;  427.000
919.263; 1778.625; 8131.000;  202.000
919.503; 1064.800; -137.000;  -54.000
919.743;  596.400;  390.000;  266.000
919.983;  227.650; -134.000;  -26.000
920.223;   77.300;  135.000;   14.000
920.463;  148.975;  631.000;  554.000
920.703;  127.850;   84.000;   39.000
920.943;  155.900; -110.000;   90.000
921.183;  220.750; -414.000; -405.000
921.423;  524.575;  307.000;  546.000
921.663;  745.200; -174.000; -257.000
921.903; 1618.900;  237.000;  173.000
922.143; 9215.100;  372.000;  389.000
922.383;34675.275;  158.000;  115.000
922.622;11012.725; -120.000;  -15.000
922.862; 1201.225;  796.000;  785.000
923.102;  467.100;  -51.000;   33.000
923.341;  185.325;   59.000;   74.000
923.581;   85.075;  450.000;  360.000
923.821;    9.625;  301.000;  398.000
924.060;   -2.500;  351.000;  193.000
924.300;  -69.825;  -16.000; -128.000
924.539;  -12.125;  584.000;  473.000
924.779;   -1.225;  812.000;  597.000
925.018;  -64.075;  247.000;  353.000
925.257;   -2.300;  595.000;  666.000
925.497;  -38.600;  447.000;  412.000
925.736;  -83.250;  -35.000;  102.000
925.975;   -5.600;  687.000;  669.000
926.214;   18.875;  907.000;  850.000
926.454;    9.925;  706.000;  757.000
926.693;  -42.400;  419.000;  543.000
926.932;   32.750; 1021.000;  825.000
927.171;   61.525; 1107.000; 1044.000
927.410;   62.175; 1144.000;  967.000
927.649;   12.250;  924.000;  742.000
927.888;   -6.775;  590.000;  564.000
928.127;  -26.450;  680.000;  678.000
928.366;   20.225;  842.000;  826.000
928.605;   36.175;  831.000;  737.000
928.844;  237.250; 1451.000; 1393.000
929.083;  598.250;  770.000;  613.000
929.321;  293.625; 1335.000; 1359.000
929.560;   91.875; 1158.000; 1122.000
929.799;  -30.700;  574.000;  475.000
930.038;   60.550; 1025.000; 1394.000
930.276;  -52.850;  334.000;  397.000
930.515;    1.900;  827.000;  681.000
930.753;  -30.675;  614.000;  589.000
930.992;  -27.450;  664.000;  717.000
931.230;    1.450;  847.000;  847.000
931.469;  152.200; 2162.000;  892.000
931.707;   78.275;  840.000;  751.000
931.946;   55.975; 1278.000; 1344.000
932.184;   44.225; 1437.000; 1175.000
932.423;   45.075; 1265.000;  963.000
932.661;   73.875; 1296.000; 1428.000
932.899;   34.075;  987.000;  821.000
933.137;  -10.350;  754.000;  564.000
933.376;  152.950; 1664.000; 1335.000
933.614;  151.375; 1759.000; 1196.000
933.852;   67.325; 1357.000; 1171.000
934.090;  132.450; 1722.000; 1747.000
934.328;  104.650; 1252.000; 1457.000
934.566;   87.700; 1431.000; 1110.000
934.804;  145.000; 1263.000; 1309.000
935.042;  463.650; 1861.000; 1850.000
935.280; 1976.050; 2088.000; 2063.000
935.518; 1767.775; 2113.000; 2007.000
935.756;  383.075; 2481.000; 2316.000
935.994;  150.125; 1808.000; 1751.000
936.231;  340.775; 2890.000; 2950.000
936.469;  189.700; 2367.000; 2378.000
936.707;  155.500; 2220.000; 2167.000
936.945;  222.575; 2825.000; 2882.000
937.182;  217.600; 2679.000; 2741.000
937.420;  300.425; 3602.000; 3031.000
937.657;  406.275; 3365.000; 3478.000
937.895;  361.300; 3331.000; 3488.000
938.133;  289.225; 3540.000; 3528.000
938.370;  333.175; 3896.000; 4191.000
938.607;  388.300; 4488.000; 4205.000
938.845;  550.000; 5587.000; 5549.000
939.082;  499.650; 5387.000; 5177.000
939.320;  554.350; 5799.000; 5728.000
939.557;  616.750; 6549.000; 6491.000
939.794;  709.975; 7285.000; 7097.000
940.031;  922.625; 8421.000; 8368.000
940.269; 1103.850; 9552.000; 9107.000
940.506; 1119.275;10901.000;10507.000

