
Integration time [ms]: 100.000
Averaging Nr. [scans]: 40
Smoothing Nr. [pixels]: 0
Data measured with spectrometer [name]: 2101013U2
Wave   ;Sample   ;Dark     ;Reference
[nm]   ;[counts] ;[counts] ;[counts] 

394.013;   41.970; -450.257; -315.536
394.305;  195.692; -461.258; -419.536
394.596; 1581.218; -676.269; -527.514
394.887; 4171.538; -796.268; -654.518
395.178; 1476.000;  145.736;   11.476
395.470;   79.313; -210.263; -356.526
395.761;  148.231;  305.734;  394.479
396.052;  159.241; -545.284; -306.489
396.343;  117.401; -557.276; -454.503
396.634;   60.288; -200.279; -290.497
396.926;   32.410; -618.268; -565.517
397.217;   69.581;   11.725;  -17.504
397.508;   33.700; -366.273; -154.507
397.799;   24.988; -555.279; -571.497
398.090;   11.206; -973.280; -902.495
398.381;   83.700;   11.708;  -11.473
398.672;  -23.448; -585.292; -742.473
398.963;   39.295; -348.279; -373.498
399.254;   89.262;   54.709; -209.475
399.545;  -18.673;-1017.266; -883.520
399.836;   47.362; -407.277; -343.501
400.127;   45.721; -205.295; -209.468
400.418;   33.318; -423.274; -392.506
400.709;   31.090; -359.281; -333.493
401.000;   33.642; -268.291; -309.476
401.290;  108.295;  225.698;  115.545
401.581;   73.395; -166.286; -228.485
401.872;   21.688; -542.298; -486.462
402.163;   60.787; -313.296; -252.467
402.454;  118.838; -123.291; -163.475
402.744;   44.077; -844.297; -813.465
403.035;  265.965; -226.293;  -86.471
403.326;  366.605; -366.292; -384.474
403.617;  340.431;  204.701;  165.539
403.907;  351.298; -593.283; -679.490
404.198; 3607.814; -545.307; -599.446
404.489; 9172.429; -618.283; -588.491
404.779; 2591.274; -618.302; -660.456
405.070;  290.923;  -67.304; -174.451
405.360;  504.192; -259.293; -238.472
405.651;  469.762;  125.699;   98.542
405.942;  179.989;  209.714;  127.516
406.232;   99.982; -432.285; -413.487
406.523;  267.508;  641.706;  758.530
406.813;   46.792; -579.286; -644.484
407.104;  194.799;  261.708;  144.527
407.394;   82.757; -604.299; -591.462
407.685;  144.681;  336.715;  222.513
407.975;   61.302; -400.283; -382.490
408.265;   99.181; -134.289; -190.478
408.556;   62.135; -472.291; -459.475
408.846;  185.909;  474.706;  429.530
409.137;   98.916;   -1.288; -216.480
409.427;   87.707; -193.285; -271.487
409.717;   42.329; -776.273; -692.508
410.007;  136.074;    4.715; -170.486
410.298;  101.400; -360.295; -342.469
410.588;   92.278; -495.285; -510.486
410.878;   48.879; -792.287; -873.482
411.168;  118.240; -481.298; -478.463
411.459;  149.321; -295.283; -242.489
411.749;   89.358; -609.292; -507.474
412.039;   87.164; -755.289; -386.480
412.329;  234.954;   40.722;  132.501
412.619;  225.267;  -62.286; -148.485
412.909;  384.134;  639.711;  594.521
413.199;  326.481; -130.280; -251.495
413.490;  414.798;  521.710;  352.523
413.780;  206.936;-1013.279; -913.496
414.070;  398.527;  -46.276;  235.497
414.360;  404.899; -729.278; -666.498
414.650;  540.000; -726.288; -688.482
414.940;  763.710; -538.280; -441.496
415.230; 1235.796;   50.712;   74.519
415.520; 8638.867;  155.730;   66.486
415.809;34861.890; -305.281; -125.493
416.099;26217.365; -388.277; -229.501
416.389; 7707.341;  435.726;  236.494
416.679; 4465.268;   91.738;   85.473
416.969;  776.710; -527.287; -503.483
417.259;  643.413;  341.721;  171.503
417.549;  874.763;  522.718;  318.508
417.838; 2401.137; -205.268; -147.518
418.128; 8277.029;  650.710;  492.522
418.418; 6810.937; -491.272; -579.509
418.708; 4488.691;    9.726;  -48.506
418.997;17702.986; -474.275; -480.505
419.287;18047.649; -733.273; -790.507
419.577;17552.145; -160.283; -123.489
419.866;56278.813; -588.277; -498.501
420.156;54898.587; -242.270;  -55.513
420.446; 9197.784; -112.263;  -26.526
420.735;  904.404; -376.271; -446.512
421.025;  923.073; 1830.722;  315.502
421.314;  576.602; -203.271; -226.512
421.604;  821.628;   89.732;  233.484
421.893;  486.698; -705.271; -602.511
422.183;  289.534; -487.263; -461.526
422.472;  401.174;  -36.271; -107.511
422.762;  429.684; -416.266; -379.521
423.051;  278.452; -916.276; -916.503
423.341;  349.577; -491.273; -439.507
423.630;  421.116; -121.265;   15.477
423.919;  434.760;   58.725;   49.495
424.209;  475.240;  -31.263;   56.473
424.498;  650.009;   68.732;  161.483
424.787; 1491.942; -535.267; -601.518
425.077; 4414.389;   34.735;   29.478
425.366; 4943.872; -734.262; -744.528
425.655;13489.902;  639.727;  259.493
425.945;33962.628; -313.247; -268.554
426.234;17997.375;  117.741;  300.467
426.523; 7428.806;  -86.259; -350.534
426.812;10021.479;  107.734;  159.480
427.101;14952.874; -127.269; -323.515
427.390;17599.141;  -55.270;  -86.514
427.680; 2705.680; -624.257; -411.538
427.969;  518.968; -330.255; -301.540
428.258;  360.070; -385.257; -477.536
428.547;  530.342;  449.728;  397.490
428.836;  850.287; -421.253; -398.543
429.125; 1174.158; -199.259;  -72.534
429.414;  826.740; -330.251; -294.548
429.703; 4524.690; -231.251; -213.548
429.992;14101.319; -938.250; -828.549
430.281; 8939.875; -397.264; -331.524
430.570;  616.928;  -21.252;   32.454
430.859;  444.855;  279.741;  352.466
431.148;  428.273;  636.752;  631.446
431.437;  321.778;  391.748;  367.454
431.725;  194.871; -544.257; -481.536
432.014;  208.971; -845.253; -756.545
432.303;  423.515; -149.239; -105.569
432.592;  568.058; -460.263; -178.525
432.881; 1458.075; -601.248; -437.554
433.169; 9512.919; -343.255;  -61.540
433.458;19367.506;  445.765;  540.424
433.747; 7579.004; -397.261; -289.529
434.036;  945.036; -275.242; -280.564
434.324; 2917.234; -395.249; -379.551
434.613; 5249.478;   40.757;  159.437
434.902; 1509.803;  333.760;  439.433
435.190;  341.413;   75.761;  295.431
435.479;  185.131;  -52.245;   83.441
435.767;   97.541; -411.244; -427.561
436.056;  223.481; -340.242; -294.563
436.345;  478.631; -372.240; -223.568
436.633;  456.353;   60.750;  383.450
436.922;  208.759;  208.760;  414.432
437.210;  270.494; -194.236;    1.426
437.499;  713.578; -583.235; -432.576
437.787;  784.118; -339.236;  -10.574
438.075;  230.420;   56.761;  162.430
438.364;  259.698;  -44.238;  250.429
438.652;  137.500; -286.226; -138.592
438.941;   78.281;    3.770;  269.415
439.229;  -17.025; -665.252; -466.545
439.517;   14.914; -160.234;  -85.577
439.806;   -9.031; -501.225; -290.595
440.094;  141.623;  377.766;  650.421
440.382;   59.302; -653.233; -302.580
440.670;   73.553; -361.235; -285.576
440.959;    2.565; -347.223; -170.599
441.247;   34.845; -151.229; -109.587
441.535;   48.087; -266.235;   31.423
441.823;    1.069; -497.234; -305.578
442.111;  158.350;  173.771;  327.412
442.400;  338.830; -628.245; -335.559
442.688;  667.522; -111.234; -620.579
442.976;  361.046; -786.213; -450.617
443.264;   47.777; -324.224; -364.597
443.552;   58.951; -258.226;   51.408
443.840;  134.535;  602.765;  876.423
444.128;   92.876;  265.767;  269.420
444.416;  -10.172; -694.228; -312.588
444.704;   23.951; -465.219;  -92.605
444.992;   55.880;   -0.226;  240.407
445.280;   25.207; -517.230;  -94.585
445.568;    8.725; -694.212; -396.618
445.856;  172.682; -174.221;  357.398
446.143;  334.146;  -54.220;   -7.604
446.431;  283.458;  -25.228;  625.411
446.719;  179.174;  489.783;  675.391
447.007;  152.675;  481.769;  705.416
447.295;  167.411;  597.777;  871.402
447.583;   92.092; -464.229;  -34.587
447.870;  116.478; -434.221; -202.601
448.158;  287.056; -104.230;  129.415
448.446;  158.073; -800.219; -338.604
448.733;  147.154;   13.776;  269.403
449.021;  185.700;   60.788;  341.382
449.309;  170.068; -296.210;  208.379
449.596;  225.020;  128.783;   59.392
449.884;  188.270; -571.222; -325.600
450.172;  259.214; -756.227; -406.590
450.459;  641.951;  645.786;  780.387
450.747; 3743.943; -411.218; -147.608
451.034;12063.409;  493.772;  889.411
451.322; 9652.105; -413.214; -170.614
451.609;  732.855;  292.777;  508.403
451.897;  880.844; -550.203; -183.634
452.184; 2735.062; -622.223; -400.598
452.472; 2411.019;   97.792;  269.375
452.759;  353.548;  512.781;  864.395
453.047;   90.447; -407.212; -125.617
453.334;   35.508; -732.219; -216.606
453.621;   45.832; -438.214; -161.615
453.909;   91.760;   13.796;  384.368
454.196;   91.089; -299.199; -123.641
454.483;  223.960;  317.798;  540.364
454.771;  143.023; -215.208;  196.374
455.058;   56.727; -316.207;  102.374
455.345;  139.556;   71.807;  344.347
455.632;  126.181; -128.207;  235.373
455.919;   59.817;  -82.196;  182.354
456.207;  -34.505; -774.198; -450.642
456.494;   -3.500; -475.200;  -66.639
456.781;   26.430; -399.202; -198.635
457.068;   73.188; -253.206;  -29.628
457.355;   -2.710; -698.206; -401.629
457.642;   24.571; -552.205; -290.630
457.929;   29.295; -778.194; -417.651
458.216;  107.772; -575.212; -354.617
458.503;  361.826; -173.193;  -19.652
458.790;  406.145; -864.208; -630.625
459.077;  371.311;  -77.202;  110.364
459.364; 1184.162; -350.195; -210.649
459.651; 2542.436;  -46.206;  220.372
459.938; 1152.558; -864.209; -665.623
460.225;  123.815;  132.799;  276.363
460.512;  -40.662; -836.197; -688.645
460.799;  132.366;  -32.218;  320.392
461.086;   90.230; -370.200; -251.640
461.372;   16.745; -509.198; -279.642
461.659;   61.118; -165.196;  108.354
461.946;   40.924; -445.193;  -54.651
462.233;  216.902;  842.800;  888.361
462.519;  494.648; -814.201; -464.639
462.806; 1515.964; -768.197; -497.645
463.093; 1293.074; -445.191;  -66.656
463.380;   -0.851; -920.186; -824.664
463.666;   46.141; -259.197;  -18.646
463.953;  118.056; -406.195; -243.648
464.239;  263.530; -173.195;  -77.648
464.526;  401.044;  413.806;  743.350
464.813;  346.838; -565.190; -304.658
465.099;  322.151;  606.807;  607.348
465.386;  254.205;  903.807;  921.348
465.672;   19.214; -694.197; -522.645
465.959;   17.860; -598.188; -520.662
466.245;    5.330; -468.193; -359.652
466.532;   52.628; -109.195;   63.352
466.818;   38.224; -357.186; -216.664
467.104;  -17.003; -488.182; -415.672
467.391;  -20.059; -628.189; -459.658
467.677;   33.728; -289.186;    9.335
467.964;  -19.027; -682.189; -471.660
468.250;   37.581; -331.186; -160.665
468.536;   69.967;   90.811;  180.341
468.822;  -27.254; -821.184; -574.668
469.109;  139.345;  351.827;  471.311
469.395;  202.717;  729.808;  787.346
469.681;  233.246;   46.811;  156.341
469.967; 1804.651; -699.188; -382.660
470.254; 4013.636; -494.188; -306.662
470.540; 2474.266; -601.196; -476.646
470.826;  360.611; -488.181; -397.675
471.112;  403.400;  288.816;  113.331
471.398;   89.006; -253.183;  -58.670
471.684;   42.695; -626.177; -447.680
471.970;   24.390; -918.180; -981.675
472.256;   45.391; -521.192; -441.654
472.542;   17.958; -499.171; -434.691
472.828;   23.292; -743.182; -607.672
473.114;   18.136; -380.166; -283.700
473.400;   23.015; -504.175; -293.684
473.686;   43.543; -452.166; -400.701
473.972;   64.783; -230.174; -131.687
474.258;  -17.330; -925.173; -843.689
474.544;  316.035; -183.178;   -2.679
474.830;  487.817;  -65.175;   45.316
475.116;  770.890; -123.190; -196.658
475.401; 1054.068; -558.180; -467.676
475.687;  281.592; -725.180; -718.676
475.973;  -31.773; -673.181; -770.673
476.259;  248.295;  736.825;  764.315
476.544;  515.255; -539.176; -437.682
476.830; 1303.703; -398.172; -322.690
477.116; 1148.653; -430.177; -336.682
477.401;  158.893;  346.820;  358.324
477.687;  -26.010; -289.175; -405.684
477.973;   51.806;   21.819;   28.326
478.258;  -13.082; -448.163; -348.706
478.544;   31.338;   21.815;   61.334
478.829;  -54.760; -818.171; -738.692
479.115;  -58.772; -749.172; -651.690
479.401;  -19.823; -444.174; -449.686
479.686;   53.166; -253.180;  -74.676
479.972;   -9.309; -886.178; -776.680
480.257;   44.538; -258.166;  -65.700
480.542;   10.969; -614.170; -469.693
480.828;  229.438; 1288.824; 1392.317
481.113;  -34.665; -464.176; -426.683
481.399;   13.322; -236.161; -202.711
481.684;  -44.413; -620.166; -462.700
481.969;   18.163; -158.159;  -73.713
482.255;  -10.193; -439.169; -285.695
482.540;    5.417; -569.178; -441.680
482.825;   22.243; -395.187; -404.663
483.110;  144.211;  -85.169; -105.696
483.396;  338.464; -840.157; -652.718
483.681;  731.058;  543.826;  730.313
483.966;  283.431; -696.160; -700.712
484.251;    2.631; -404.174; -310.687
484.536;   16.800; -356.165; -378.703
484.822;   42.235; -205.173; -218.687
485.107;  -11.940; -599.152; -502.726
485.392;  127.882;  662.836;  541.296
485.677;   73.798;  354.832;  163.302
485.962;   97.786;  160.843;  270.283
486.247;  100.303;  -14.162;   -8.707
486.532;   68.139; -178.166; -325.701
486.817;  172.640;  381.839;  431.291
487.102;  145.365; -453.154; -514.722
487.387; 1023.991; -637.156; -652.718
487.672; 1895.838; -154.164;  -38.705
487.957; 1157.499; -394.160; -286.711
488.241;  323.830; -290.150; -314.729
488.526; 1134.862; -280.152; -148.726
488.811; 1915.394; -881.177; -818.680
489.096; 1336.343; -666.154; -702.723
489.381;  687.757;    3.847;  162.275
489.666;  605.421; -428.161; -510.710
489.950;  197.222;  558.846;  627.277
490.235;  -22.776; -480.151; -458.728
490.520;  -39.880; -756.161; -723.710
490.804;  -42.456; -827.156; -736.719
491.089;   16.299; -469.149; -299.732
491.374;   28.711; -132.164;  -75.704
491.658;   -5.112; -817.147; -717.735
491.943;  127.592; -657.152; -609.727
492.227;  215.510; -178.155;  -38.721
492.512;   26.886; -294.157; -341.717
492.797;  -40.133; -713.149; -716.731
493.081;  -52.658; -588.147; -598.735
493.366;  -22.903; -751.161; -635.711
493.650;  218.006;  831.859;  917.254
493.935;   69.138; -648.147; -447.734
494.219;  -25.460; -778.142; -687.743
494.503;  -37.139; -585.150; -487.730
494.788;   40.025;   46.842;   74.285
495.072;  126.457;  184.850;  434.271
495.356;  220.878; -463.148; -343.733
495.641;  533.275; -812.146; -736.736
495.925;  464.250; -976.156; -903.719
496.209;   24.274; -599.149; -451.732
496.494;  -39.209; -763.142; -544.744
496.778;   20.590; -364.154; -360.722
497.062;  -49.001; -819.156; -627.719
497.346;   14.576; -869.160; -640.711
497.631;  164.208;  580.852;  560.266
497.915;   81.387;  -64.145;  175.261
498.199;   41.514; -341.157; -277.718
498.483;   35.910; -562.152; -508.725
498.767;  232.908;  301.850;  300.271
499.051;  274.496; -126.149; -100.732
499.335;   58.719; -693.149; -739.731
499.619;  -38.447; -381.129; -423.767
499.903;    3.608; -272.155;  -65.721
500.187;   37.198; -588.153; -316.724
500.471;   21.641; -796.152; -595.727
500.755;   93.171;   62.839;  -96.710
501.039;  -10.341; -270.155; -357.721
501.323;   66.833;  -21.141;  264.254
501.607;   26.768; -447.163; -503.706
501.891;    0.441; -607.156; -512.718
502.174;  -33.224; -726.144; -585.741
502.458;   59.571;   89.849;  370.273
502.742;   51.012; -180.138; -191.751
503.026;  193.637; -412.147; -254.734
503.310;  296.712; -437.159; -375.713
503.593;  198.639; -464.147; -325.735
503.877;  143.685; -232.133; -156.760
504.161;  187.026;    2.847;  -50.724
504.444;  188.978; -841.158; -710.716
504.728;  745.735; -487.164; -522.704
505.012; 1058.480; -257.150;  -76.729
505.295;  764.622; -417.161; -212.711
505.579;  793.924; -256.156; -496.719
505.862; 1216.208; -555.145; -333.738
506.146; 1211.790; -681.159; -758.714
506.429;  558.065;  568.841;  461.286
506.713;  117.126; -732.151; -667.728
506.996;  488.214;   90.846;  295.278
507.280;  535.279; -633.165; -474.703
507.563;  350.356; -469.155; -261.721
507.847;  168.799; -423.153; -112.724
508.130;  183.273; -665.161; -456.711
508.413;  217.757; -758.167; -577.700
508.697;  368.782; -151.167;   12.300
508.980;  261.701; -422.153; -312.724
509.263;   34.777; -466.155; -450.720
509.547;   49.779; -124.150;   82.271
509.830;   45.450; -172.160;  140.289
510.113;   87.849;  128.844;  298.281
510.396;   54.408; -530.152; -300.725
510.680;   50.009; -818.145; -812.738
510.963;  259.970;  184.846;  180.277
511.246;  183.889; -493.150; -357.730
511.529;  299.165; -482.145;  -83.739
511.812;  605.531; -250.134;   10.241
512.095;  434.598; -740.151; -396.728
512.378;   94.344; -317.147; -245.736
512.661;   66.646; -703.137; -623.753
512.944;   78.968; -750.142; -637.744
513.227;   95.293; -170.137; -171.752
513.510;   54.201; -479.144; -671.741
513.793;   47.813; -485.140; -435.747
514.076;  145.778;  -43.127;  -39.771
514.359;  159.900; -294.149; -135.732
514.642;  134.621; -442.142; -567.744
514.925; 1092.111;  581.860;  561.253
515.208; 1576.977; -498.134; -443.758
515.491; 1011.769; -276.133; -182.761
515.773;  576.155; -410.143; -337.742
516.056; 3200.904;  249.864;  409.246
516.339; 4158.283; -754.136; -652.755
516.622; 2055.236; -518.150; -488.730
516.904;  641.489;  882.857;  975.257
517.187;  254.466; -730.138; -523.752
517.470;  413.837; -568.143; -510.743
517.752;  687.137; -624.136; -470.756
518.035;  565.826; -708.139; -725.749
518.318;  600.459; -799.136; -744.755
518.600; 3789.448; -300.132; -325.762
518.883; 5257.921;  310.858;   88.256
519.165; 2408.407; -585.138; -426.751
519.448;  450.072;  -61.132;  -19.762
519.730;  203.187; -573.126; -415.773
520.013;  244.989;  588.867;  664.240
520.295;  382.158;  -94.134;  -15.759
520.578;  798.338; -335.131; -305.764
520.860; 1032.323; -254.132;   56.238
521.143;  710.964; -763.135; -584.756
521.425;  588.803; -251.125; -279.775
521.707;  972.029; -622.127; -380.771
521.990; 2708.429; -199.127;  167.229
522.272; 3137.890; -116.140;   -4.748
522.554; 1164.531; -237.143; -157.742
522.836;  279.806;  -24.134;   99.241
523.119;  201.336; -496.148; -189.734
523.401;  179.447; -448.130; -314.766
523.683;  145.772; -865.137; -693.753
523.965;  399.439;  408.862;  260.248
524.247;  417.828;   54.878;  170.220
524.529;  313.908; -451.134; -367.759
524.812;  464.999;   -3.130;  191.234
525.094; 1349.088; -773.138; -631.751
525.376; 2102.614; -143.124;   78.223
525.658; 1284.905; -441.136; -339.754
525.940;   77.959; -805.131; -671.764
526.222;   25.559; -188.136;  -88.755
526.504;   53.607; -190.131;   32.237
526.786;   54.861; -960.133; -647.760
527.068;  144.520; -124.123;  -67.778
527.349;   29.651; -865.137; -774.754
527.631;  136.247; -137.132;   22.238
527.913;  229.878; -664.127; -450.771
528.195;  310.394; -761.125; -639.774
528.477;  365.152;  -93.134;  -30.758
528.759;  264.499; -648.130; -522.766
529.040;  130.119; -569.123; -293.778
529.322;   73.548; -235.125;  -10.774
529.604;  116.226;  -47.130;   93.233
529.886;   44.462; -546.126; -302.773
530.167;   90.291;  232.870;  192.235
530.449;   48.743;    1.853;   63.265
530.731;   64.227; -572.122; -459.779
531.012;  134.952; -513.120; -216.784
531.294;  121.375; -118.116;  -43.792
531.575;  191.078;  290.875;  538.225
531.857;  131.121; -548.135; -266.757
532.138;  105.856; -113.141;   40.254
532.420;  125.916;  294.865;  403.244
532.701;  101.189; -722.133; -751.760
532.983;  239.443;  232.867;  182.239
533.264;   53.384; -243.126;  175.228
533.546;  -47.666; -491.136; -508.755
533.827;   40.060;  173.867;   -1.759
534.109;   32.796; -352.135;  -80.757
534.390;  108.977; -725.132; -582.762
534.671;  301.466; -270.135;  -82.756
534.953;  209.697; -751.123; -611.779
535.234;   51.981; -426.117; -255.789
535.515;  -56.212; -891.119; -735.785
535.796;    1.598; -431.128; -193.770
536.078; -100.587;-1050.124; -904.777
536.359;    3.973;  -22.123;    3.221
536.640;  -24.929; -480.125; -197.774
536.921;  172.333;  225.871;  143.232
537.202;  521.884;  -87.138;  -16.751
537.483;  662.538;  251.869;  377.236
537.764;  254.791;   17.870;   98.235
538.045;  -37.774; -543.134; -371.758
538.326;  -21.165; -596.129; -447.768
538.607;   60.580; -686.127; -476.771
538.888;  254.117;   98.879;    5.218
539.169;  293.735; -704.122; -535.781
539.450;  403.806;  236.871;   16.233
539.731;  273.671; -361.121; -182.783
540.012;  149.002;  199.880;  412.216
540.293;   84.807;   82.876;  158.224
540.574;   -4.850; -895.113; -717.796
540.855;  511.419;  435.879;  377.218
541.136;  666.882;   47.878;  139.220
541.416;  373.949; -161.130; -220.766
541.697;  312.807; -274.131; -170.763
541.978; 1620.544; -270.135; -315.757
542.259; 2064.804; -211.127; -236.771
542.539;  952.517; -191.116; -186.790
542.820;  203.527;  461.875;  480.225
543.101;  134.661;  -52.145;  -77.738
543.381;   40.129; -638.127; -591.771
543.662;  373.051;  159.873; -254.771
543.942;  945.874; -751.127; -830.770
544.223; 1611.184;  193.878;  161.219
544.504; 1068.713; -275.124; -182.777
544.784;  860.787; -592.126; -408.773
545.065; 2471.122;  104.884; -254.791
545.345; 2912.288;  227.881;   14.215
545.626; 1923.699;  -14.113; -108.796
545.906; 1392.941;   77.869;   98.235
546.186;  591.317;   92.874;  -95.773
546.467;  288.366;   99.877;  -95.778
546.747;  493.817;  264.884;  327.210
547.027;  567.586;   91.876;  111.223
547.308;  554.298; -376.127; -530.770
547.588;  580.086;  299.871;  371.232
547.868;  257.067;  458.870;  588.235
548.149;  261.956;  609.885;  593.207
548.429;  246.277; -347.127; -299.771
548.709;  355.802; -645.120; -461.784
548.989;  737.224;   84.882;   88.213
549.269; 3210.971;   10.868;  139.239
549.550; 7539.021;  215.877;  117.222
549.830; 6728.945; -758.111; -556.799
550.110; 1303.754; -468.110; -320.801
550.390; 1299.928; -128.122;  -56.779
550.670; 1884.069; -868.114; -783.795
550.950; 1287.344; -509.121; -471.782
551.230;  254.390;  549.879;  460.218
551.510;   29.018; -381.121; -326.782
551.790;   61.464; -173.109; -127.803
552.070;  330.091;  940.877; 1181.223
552.350;  677.692; -492.119; -377.786
552.630;  921.312;   -2.121;   77.219
552.909;  546.047;  181.884;   73.209
553.189;  381.178;  -49.132;   33.237
553.469;  354.017; -703.119; -514.786
553.749;  358.231; -469.127; -357.772
554.029;  268.012;   33.883;  -24.790
554.308;  256.286; -154.115;  -37.794
554.588;  127.922; -196.128; -204.770
554.868;  137.320; -366.121;  -47.782
555.147;  258.032; -114.115;  -46.793
555.427;  916.050; -260.116; -250.792
555.707; 6009.030; -284.115; -200.793
555.986; 7453.749; -719.111; -538.800
556.266; 3786.165;   23.884;   72.210
556.546;  228.993; -888.121; -675.782
556.825;  418.591; -657.114; -556.794
557.105; 2782.119; -125.128;   17.230
557.384; 3310.721;  122.884;  187.209
557.664; 1311.574; -717.116; -508.792
557.943;  216.219; -557.121; -411.782
558.222;  308.403; -345.118; -344.788
558.502;  388.784; -116.115;  -76.793
558.781;  702.729;  194.885;  499.208
559.061;  654.328; -232.118; -227.788
559.340;  453.559;  302.883;  353.211
559.619; 1118.440;   93.884;  148.210
559.899; 1669.986; -239.117; -266.789
560.178; 1509.358; -778.115; -593.793
560.457; 4731.813; -623.117; -562.790
560.736; 6664.826; -472.111; -482.800
561.015; 4331.716; -500.128; -502.769
561.295;  527.413;  180.893;  215.193
561.574;  442.555;  119.885;  116.207
561.853;  689.544;  274.891;  303.197
562.132;  766.636;  -45.114;  182.206
562.411;  644.987;  396.879;  553.219
562.690;  269.778; -592.115; -458.792
562.969;  179.282;  472.888;  630.203
563.248;  554.810; 2966.878; 2487.219
563.527;  439.900; -290.111; -408.800
563.806;  648.377; -650.127; -521.771
564.085;  668.556; -297.105; -206.810
564.364;  422.190; -594.117; -405.790
564.643;  802.163; -276.121; -223.781
564.922; 2873.612;  221.890;  397.198
565.201; 2991.316; -640.109; -700.803
565.479; 1249.502; -297.115; -219.792
565.758;  559.219; -810.128; -712.770
566.037;  762.517; -155.109; -100.803
566.316;  383.546; -286.116;  -28.791
566.595;   82.580;  -17.115;  -12.793
566.873;  113.702; -166.111;  -79.801
567.152;  -18.168; -490.113; -590.797
567.431;   24.916; -113.116;    6.210
567.709;   51.263; -344.107; -212.807
567.988;  471.066; -810.114; -769.794
568.266;  856.005; -160.115;  -68.793
568.545;  636.138; -644.100; -514.819
568.824;  903.901;  160.885;  356.208
569.102;  933.415; -351.114; -235.794
569.381;  404.975; -492.116; -407.792
569.659;  -10.623; -553.113; -553.796
569.938;  101.932; -743.122; -465.780
570.216;  185.721; -225.109; -225.804
570.494;   13.969; -632.114; -572.795
570.773;   49.792;  202.879;  114.218
571.051;   46.620; -373.123; -357.778
571.330;   92.299; -221.113; -174.796
571.608;   81.959; -181.098; -173.823
571.886;  -36.782; -671.111; -581.799
572.164;  -22.405; -739.121; -621.782
572.443;   -5.314; -562.105; -512.811
572.721;  -22.637; -399.117; -289.790
572.999;  -13.645; -280.117; -168.788
573.277;   99.753;  379.894;  620.191
573.555;  424.030;   94.894;   37.190
573.834; 2170.855;  -86.117; -114.788
574.112; 2396.616;  880.893;  811.193
574.390;  750.726; -143.111;  -96.801
574.668;   32.858;  -91.112;  -61.797
574.946;   12.955; -165.106; -187.810
575.224;   21.841;   71.891;  -16.803
575.502;   -0.606; -200.116; -204.791
575.780;  -64.441; -767.112; -829.798
576.058;  238.850; 1589.889; 1004.200
576.336;  -14.843; -210.110; -129.801
576.614;  -38.165; -511.112; -340.798
576.891;  135.135; -711.115; -823.794
577.169;  812.830; -158.108; -285.805
577.447;  883.790;  169.893;  202.193
577.725;  365.165;  629.888;  854.201
578.003;   42.837;  -71.112; -371.798
578.280;  143.946; -208.104; -242.812
578.558;  110.284; -450.115; -422.793
578.836;  152.319; -210.114; -145.795
579.114;   86.283; -630.112; -670.797
579.391;   87.807;   -6.117;  -18.789
579.669;  -51.014; -595.114; -704.794
579.947;  271.136; -326.107; -127.806
580.224;  571.236; -692.107; -524.806
580.502;  480.941;  127.893;   76.193
580.779;   40.264;  -42.117;   75.210
581.057;  -56.304; -584.109; -470.804
581.334;  -83.486; -726.102; -695.815
581.612;   31.381;   54.895;  511.190
581.889;  -27.795;  -83.101; -129.818
582.167;  -21.803; -298.099; -190.821
582.444;  -84.526; -845.102; -814.817
582.721;  117.424;  657.899;  715.183
582.999;   95.469; -326.100; -167.821
583.276;  880.125; -812.123; -713.779
583.553; 1172.768; -364.102; -294.816
583.831;  422.317; -607.104; -631.812
584.108;   82.203;  349.892;  174.195
584.385;   50.064; -122.102;  -98.815
584.662;  -32.572; -651.111; -828.801
584.940;   27.552;  204.889;  204.199
585.217;    2.927;  -73.113; -303.796
585.494;   60.913;   71.890;  118.198
585.771;  332.172; -250.109; -354.804
586.048;  796.726; -196.113;  -76.796
586.325;  539.106; -721.110; -773.801
586.602;  130.197;  230.896;  213.188
586.879;   30.765; -499.100; -580.820
587.156;  101.032; -156.105; -331.810
587.433;    2.246; -701.102; -667.817
587.710;  105.285;  152.888;  234.202
587.987;  451.514; -264.105; -236.811
588.264; 1150.387;  315.888;  387.202
588.541; 1935.550;  -61.104;   26.187
588.818; 4015.850;   72.892;  171.196
589.095; 3423.019; -163.104; -174.812
589.371;  564.244; -459.109; -414.804
589.648;   52.216; -581.107; -437.807
589.925;   84.870; -517.114; -621.795
590.202;   78.235; -741.112; -607.798
590.478;  160.116; -166.105;  -73.811
590.755;  413.882; -241.108; -132.806
591.032; 3767.683; -741.110; -699.802
591.308; 5361.783; -732.094; -790.831
591.585; 2732.333; -573.110; -560.802
591.862;  303.073;-1056.102; -950.817
592.138;  139.879; -475.108; -474.805
592.415;  263.398; -486.104; -495.813
592.691; 2158.495;  460.896;  518.188
592.968; 2911.312; -208.098; -123.824
593.244; 1395.267; -695.116; -595.790
593.521;  124.349; -105.102;  -42.817
593.797;   41.879; -810.122; -720.780
594.074;  548.052; -611.096; -588.826
594.350;  944.865;  828.905;  729.172
594.626;  472.103; -303.111; -283.801
594.903;  249.474; -643.101; -645.817
595.179;  285.252;  243.896;  418.187
595.455;   35.142; -136.107; -150.807
595.731;   19.854;  -19.103;  -38.814
596.008;   -9.904; -464.111; -434.800
596.284;   81.168; -187.100; -242.820
596.560;  130.515; -501.093; -493.833
596.836;  328.985; -173.105;  -70.810
597.112;  588.755; -582.108; -437.805
597.388;  461.474;  -49.097;  -48.826
597.665;  141.655;  437.887;  530.203
597.941;  -35.049; -572.089; -658.839
598.217;   57.362; -323.110; -293.802
598.493;  394.249;   61.891; -204.804
598.769;  797.561; -175.100;  -50.819
599.045;  511.683; -490.108; -562.806
599.321;  119.517; -193.100; -261.820
599.597;  261.773; -355.109; -476.804
599.872;  727.400;  409.896;  429.187
600.148;  588.551;  -61.097; -172.826
600.424;  437.939;   91.893;  202.193
600.700;  382.417; -170.107; -280.807
600.976;  231.319; -442.097; -464.825
601.252;  401.619; -226.109; -272.803
601.527;  398.976; -833.104; -840.813
601.803;  268.441; -453.105; -404.812
602.079;  293.736; -124.100; -118.819
602.354;  898.777; -620.092; -531.835
602.630; 1261.527; -140.113; -482.796
602.906; 3370.555; -910.101; -863.818
603.181;10275.442; -627.119; -534.786
603.457; 8619.673;   98.903; -278.826
603.733; 1292.147; -605.120; -626.783
604.008; 1407.681; -245.106; -164.810
604.284; 4697.876; -636.101; -580.817
604.559; 4041.465;   -3.112;  -42.799
604.835;  750.485; -163.105; -225.810
605.110;  688.248; -732.099; -892.821
605.385; 1046.819;  224.907;  267.167
605.661; 1037.093; -625.095; -729.829
605.936; 1902.759; -664.108; -737.806
606.211; 1535.862;  -17.103; -170.815
606.487;  362.564; -329.114; -376.794
606.762;  107.792; -791.119; -745.786
607.037;   17.085; -501.105; -433.810
607.313;   -2.215; -589.096; -574.828
607.588;   21.631; -375.106; -137.810
607.863;   75.630;  -28.101; -143.818
608.138;  240.486;  513.890;  516.198
608.413;  114.228; -576.099; -592.822
608.688;  104.554; -203.108; -267.805
608.964;  351.649; -509.106; -218.809
609.239;  409.307; -107.105; -212.810
609.514;  371.316;  281.895;  240.188
609.789; 1046.221; -187.104; -716.812
610.064; 1377.534; -435.096; -609.827
610.339; 1393.969; -855.109; -799.804
610.614; 1872.767; -131.100; -315.820
610.889; 1028.966;  215.895;  107.188
611.163;  104.242; -407.104; -591.812
611.438;  144.765;   81.886; -167.794
611.713;   52.326; -467.101; -499.817
611.988;  109.203; -144.101; -328.818
612.263;   34.564; -771.102; -717.815
612.538;  304.101;  385.887;  251.204
612.812;  341.444; -832.100; -911.820
613.087;  242.634; -358.098; -338.823
613.362;  -10.158; -497.107; -557.807
613.637;   83.182;  261.897;  138.186
613.911;    9.678; -256.092; -345.835
614.186;  205.640; -249.107; -292.807
614.460; 1122.916; -842.081; -758.854
614.735; 1237.604;  -55.087;  -17.843
615.010;  270.942;   43.912;  -82.841
615.284;  337.628;  360.892;  246.195
615.559;  638.002; -792.092; -955.835
615.833;  461.675;  -76.099;  -87.822
616.108;   36.616; -225.090; -390.837
616.382;  204.506;  274.913;  402.156
616.656;  280.591; -241.090; -232.837
616.931;  814.151; -785.099; -700.822
617.205; 1688.576; -973.104; -979.813
617.480; 1496.550;  -91.125;    6.225
617.754;  286.697; -396.125; -128.774
618.028;   65.287; -369.129; -382.768
618.302;  105.077;   73.892;  -25.805
618.577;   -7.716; -371.103; -518.815
618.851;  -39.385; -399.109; -600.803
619.125;  -43.517; -335.134; -378.759
619.399;  -17.023; -244.104; -374.813
619.673;  -24.174; -330.115; -515.792
619.947;  -24.031; -333.114; -448.795
620.222;   14.854; -198.110; -204.801
620.496;   20.770;  -47.121;  -96.782
620.770;   39.560; -187.122;  -93.781
621.044;  283.682;  323.895;  346.190
621.318; 1147.598; -653.120; -614.783
621.592; 1059.070; -430.121; -409.783
621.866;  599.241; -476.112; -572.799
622.140;   78.368; -207.116; -356.791
622.413;   94.396;  138.889;  112.200
622.687;   -8.899; -746.101; -492.817
622.961;   51.602; -130.108; -143.805
623.235;  -33.778; -633.111; -661.800
623.509;  -71.259; -816.105; -848.811
623.783;   18.737;  -12.107;   48.193
624.056;    3.774; -254.120; -280.783
624.330;   75.108;   63.888;   -3.797
624.604;  108.940; -271.116; -355.790
624.877;  109.559;  180.890;   26.198
625.151;   99.237; -249.114; -238.794
625.425;  -18.346; -150.103; -283.814
625.698;  -45.664; -367.119; -374.785
625.972;  -74.788; -799.110; -765.802
626.245;   91.842;  685.884;  484.210
626.519;  -40.321; -426.120; -340.784
626.792;  -20.883; -192.107; -380.807
627.066;  -66.274; -485.122; -662.779
627.339;  -90.868; -736.110; -663.802
627.613;   46.428;  351.880;  148.216
627.886;   80.790;  187.891; -612.803
628.160;   -2.352;  312.880; -161.783
628.433;  -74.372; -695.125; -703.775
628.706;  -72.371; -517.120; -615.784
628.979;   44.311;  296.876;  117.223
629.253;  -55.234; -785.119; -833.786
629.526;  591.610; -334.126; -253.772
629.799;  610.170; -641.123; -479.778
630.072;  301.663; -497.128; -516.769
630.346;   -3.133;-1115.116;-1080.790
630.619;  728.793; -467.107; -545.808
630.892;  909.698;  709.889;  593.200
631.165;  469.927;  790.896;  679.187
631.438;  -34.613;-1092.112;-1055.798
631.711;   54.299;  453.877;  257.221
631.984;  -42.714; -523.117; -624.789
632.257;  -44.993; -636.117; -681.789
632.530;  -25.564; -412.119; -433.785
632.803;   42.685; -109.115;    7.207
633.076;  -53.959; -360.123; -422.777
633.349;   21.818;  173.872;  121.231
633.622;  -21.866; -187.119; -240.785
633.895; -102.626; -903.120; -823.783
634.167;  -50.763; -496.126; -525.773
634.440;    0.849;  -19.116; -137.792
634.713;    4.340;  -22.119; -120.786
634.986;   96.956;  593.871;  453.233
635.258;  -62.092; -507.115; -597.793
635.531;   96.477;  742.882; -343.788
635.804;  -33.440; -303.117; -318.789
636.077;  -78.705; -830.116; -852.791
636.349;   36.381; -586.115; -474.793
636.622;  448.084; 1695.874; 1392.228
636.894;  398.830; -474.120; -909.784
637.167;  291.252; -836.127; -789.771
637.439;   80.547; -278.128; -213.770
637.712;  -36.439; -312.126; -293.772
637.984;  -50.129; -635.116; -707.791
638.257;  520.441;  515.877;  488.222
638.529;  924.230; -881.125; -924.776
638.802;  407.138; -508.128; -449.769
639.074;  -91.841; -927.122; -952.781
639.346; -102.427; -942.135; -930.757
639.619;   12.044;  -79.142; -319.744
639.891;    6.026;  -83.122; -168.779
640.163;  -55.647; -689.122; -756.780
640.435;   63.406;  273.878;  103.220
640.708;   23.858;  -72.122; -132.780
640.980;    2.735; -366.122; -362.781
641.252;  238.512;  -25.121;  -71.781
641.524; 2501.664;  580.879;  573.219
641.796; 2701.392;-1094.121; -907.782
642.068;  491.644; -191.121; -300.782
642.340;  -36.954; -486.121; -566.783
642.613;   49.273;  294.880;  323.217
642.885;  -90.300; -787.120; -878.783
643.157;    5.803; -810.120; -658.784
643.428;   70.355;  170.880;  218.216
643.700;  -61.093; -498.120; -425.784
643.972;  -21.116;  -16.119; -133.785
644.244;  -95.039; -474.119; -559.785
644.516;  -38.611; -250.119; -114.786
644.788;   55.966;  662.881;  548.214
645.060;  -17.307;  -12.119; -124.786
645.332;  -96.380; -525.118; -535.787
645.603;   31.797;  479.882;  342.213
645.875;  -62.150; -334.118; -369.787
646.147;  150.052; 1487.882; 1242.212
646.418;  -16.721; -931.117; -918.788
646.690;  297.081; -714.117; -715.789
646.962;  123.608; -413.117; -451.789
647.233;  -20.289;   15.883;   11.211
647.505; -107.662; -595.117; -475.790
647.776;   35.215;  328.884;  229.210
648.048;   49.367; -248.116; -418.790
648.320;  -47.156; -752.116; -679.791
648.591; -119.378;-1055.116; -958.791
648.862;  -82.276; -505.116; -577.792
649.134;   13.251;  115.885;  198.208
649.405;  -15.997; -661.115; -618.792
649.677;  -26.395; -475.115; -598.793
649.948;   21.708; -181.115; -296.793
650.219;   10.010;  -37.115; -147.793
650.491;  -82.388; -431.114; -520.794
650.762; -114.961; -705.114; -731.794
651.033;  -78.083; -437.114; -424.795
651.304;  -76.806; -743.114; -728.795
651.576;  -44.279; -680.114; -645.795
651.847;  -39.127; -250.113; -140.796
652.118;  -26.975;  -32.113; -189.796
652.389;  -96.547; -639.113; -722.796
652.660;  -19.570; -147.113;  -89.797
652.931; -131.518; -897.112; -871.797
653.202;  -68.166; -382.112; -541.798
653.473;  -38.464; -633.112; -533.798
653.744;  277.964; -595.112; -590.798
654.015;  250.941; -356.112; -303.799
654.286;  -51.182; -642.111; -663.799
654.557;  -33.155; -586.111; -521.799
654.828; -137.128;-1114.111;-1088.800
655.099;  -68.800; -404.111; -291.800
655.370;  -94.948; -427.111; -543.801
655.641; -122.121; -656.110; -714.801
655.911; -113.469; -618.110; -638.801
656.182;   52.058;  437.890;  387.198
656.453;   96.636;  830.890;  746.198
656.724;  -70.412; -466.110; -426.802
656.994;  -67.610; -553.109; -568.803
657.265;  -91.308; -862.109; -873.803
657.536;  -88.881; -500.109; -377.804
657.806; -108.128; -561.109; -593.804
658.077; -121.826; -866.109; -950.804
658.347;  -67.999; -523.108; -598.805
658.618; -109.047; -646.108; -694.805
658.888;  -28.820;  -41.108;  112.195
659.159;  -69.667; -432.108; -548.806
659.429;   17.885; -292.108; -349.806
659.700;   63.437; -435.107; -390.807
659.970;   17.239; -370.107; -359.807
660.241;   72.791; -754.107; -921.807
660.511;  795.469; -147.107; -174.808
660.781;  215.246; -793.106; -748.808
661.052;  -21.477; -222.106; -381.808
661.322;  -13.875;   21.894;   -9.809
661.592;   11.103;  257.894;  148.191
661.862;  -73.545; -369.106; -382.810
662.133;  -79.143; -551.105; -502.810
662.403; -113.466; -770.105; -676.810
662.673;  -42.889; -256.105; -213.811
662.943;  -90.236; -612.105; -551.811
663.213;    4.866;  -85.105;  -81.811
663.483;  -68.082; -593.104; -568.812
663.753;  -42.505; -194.104; -152.812
664.023;  -26.378;   68.896;  -32.813
664.293;  -47.100; -319.104; -126.813
664.563; -100.923; -694.104; -648.813
664.833; -105.621; -743.103; -608.814
665.103; -110.819; -730.103; -793.814
665.373; -104.442; -766.103; -806.814
665.643;  -53.839; -863.103; -918.815
665.913;  113.838; -534.103; -714.815
666.182;  241.565; -685.102; -719.816
666.452;  448.067;  -22.102;  -89.816
666.722;   30.619; -724.102; -784.816
666.992; -114.728; -948.102; -921.817
667.261;  -67.076; -824.102; -808.817
667.531;  312.801;  134.899;   45.183
667.801;  873.053; -440.101; -412.818
668.070;  330.330;  714.899;  697.182
668.340;  -62.442; -883.101; -840.819
668.609;  103.610;  588.900;  301.181
668.879;  -70.313; -490.100; -558.819
669.149;  -62.861; -539.100; -516.820
669.418;  -95.809; -698.100; -726.820
669.688;   14.094; -482.100; -666.820
669.957;  181.396; -423.099; -546.821
670.226;   -2.952; -268.099; -331.821
670.496;  -65.675; -431.099; -635.822
670.765;  -71.722; -418.099; -501.822
671.034; -119.720; -872.099; -828.822
671.304;    9.757;   55.902; -111.823
671.573; -134.566;-1085.098; -957.823
671.842;  155.536; -380.098; -294.823
672.112;   86.464; -692.098; -586.824
672.381;   35.141; -239.098; -214.824
672.650; -122.907;-1005.097;-1021.825
672.919;  -74.055; -631.097; -507.825
673.188;  -84.278; -681.097; -878.825
673.457; -118.175;-1101.097;-1143.826
673.726;  -54.298; -579.096; -646.826
673.995;  -19.396; -533.096; -479.826
674.265;   18.381; -263.096; -333.827
674.534;   40.158; -183.096; -235.827
674.802;   43.786; -618.096; -703.828
675.071; 1409.088; -886.095; -801.828
675.340; 6010.665; -464.095; -339.828
675.609; 1987.467;  103.905;   82.171
675.878;  180.344; -949.095; -893.829
676.147;   80.572;  -26.095;   -8.829
676.416;  152.374; -210.094; -294.830
676.685; 1046.351; 1000.906; -622.830
676.953;  209.428; -603.094; -452.831
677.222;   -4.295; -193.094; -273.831
677.491;  -20.892;  -24.094; -127.831
677.759;   17.335;   11.907;  172.168
678.028;    3.612; -279.093; -222.832
678.297;    0.589;   71.907;  197.168
678.565; -131.284; -898.093; -944.833
678.834;  -38.931; -311.093; -268.833
679.102;  -74.404; -411.092; -391.834
679.371; -120.927; -898.092; -727.834
679.639; -126.475; -797.092; -786.834
679.908; -116.873; -794.092; -724.835
680.176; -145.770; -895.091; -941.835
680.445;  -49.093; -346.091; -352.835
680.713;  -20.691;  -58.091;  -23.836
680.982;  -86.489; -523.091; -525.836
681.250; -106.861; -578.091; -507.837
681.518;  -83.559; -534.090; -751.837
681.787;    5.693; -204.090; -167.837
682.055;  -60.430; -490.090; -422.838
682.323; -132.753; -993.090; -992.838
682.591;   66.675; -216.090; -538.838
682.859;  154.052;    9.911;  -35.839
683.128;   24.004;  232.911;  497.161
683.396; -145.394;-1102.089;-1122.840
683.664;  -35.867; -241.089;   21.160
683.932;   13.911;  144.911;  -76.840
684.200;  -71.587; -576.088; -320.841
684.468;  -19.260;  -73.088; -124.841
684.736;  -24.408; -214.088; -175.841
685.004;  -99.731;-1024.088; -982.842
685.272;    6.897; -880.088; -774.842
685.540;  -35.276; -499.087; -557.843
685.808;  -56.324; -651.087; -682.843
686.076;  -73.122; -894.087; -969.843
686.343;  -26.520; -601.087; -815.844
686.611;   73.258; -195.087; -224.844
686.879;  645.285; -530.086; -553.844
687.147; 4838.712; -483.086; -480.845
687.414; 1433.539;  -12.086; -169.845
687.682;   70.466; -658.086; -757.846
687.950;  467.494;  259.915;  263.154
688.217;   97.646; -792.085; -760.846
688.485;   39.198; -632.085; -636.847
688.753;  814.825;  -11.085; -102.847
689.020;  340.227; -820.085; -851.847
689.288;  -67.120; -853.084; -787.848
689.555;  -11.693; -195.084; -148.848
689.823;  -26.591; -241.084; -345.849
690.090;  -72.864; -546.084; -651.849
690.358; -133.737; -877.084; -897.849
690.625;    8.116;  120.917;   45.150
690.892;  -76.932; -403.083; -369.850
691.160;    1.695;   72.917;  -35.850
691.427;    4.147;  141.917;  130.149
691.694; -120.350; -855.083; -929.851
691.962; -120.798;-1177.082;-1060.852
692.229;   26.654;  127.918;   56.148
692.496;  139.456;  130.918;  -49.852
692.763;   35.308; -164.082; -201.853
693.031;  -44.389; -739.082; -716.853
693.298;   -8.612; -509.081; -368.853
693.565;  432.565; -155.081; -163.854
693.832; 1937.742;   -5.081;   -9.854
694.099;  280.244; -643.081; -642.855
694.366;  -14.753; -882.081; -896.855
694.633;  -13.626; -920.080; -633.855
694.900;  733.551; 4367.920; -114.856
695.167;  636.378; -214.080; -380.856
695.434;  196.005; -646.080; -623.856
695.701;  232.183;  121.921;  -61.857
695.968;  660.285; -365.079; -361.857
696.234; 1189.312; -415.079; -646.858
696.501;12262.439; -776.079; -614.858
696.768; 6741.391; -554.079; -617.858
697.035;  410.819; -632.078; -667.859
697.302;   76.296; -448.078; -552.859
697.568;   45.723; -458.078; -497.859
697.835;   -9.175; -683.078; -624.860
698.102;   -0.248; -498.078; -407.860
698.368;   78.130;  384.923;  396.139
698.635;   -4.943;  -47.077; -424.861
698.901;   -4.266; -240.077; -348.861
699.168;  133.486; -534.077; -456.862
699.435;  119.888;  -72.077;  -13.862
699.701;  -86.859; -868.076; -764.862
699.968;   11.443;  144.924; -441.863
700.234;  -77.605; -783.076; -822.863
700.500;  -47.978; -448.076; -539.864
700.767;    7.374;   -1.075;   26.136
701.033;  -92.173;-1015.075; -963.864
701.299;  -20.596; -450.075; -483.865
701.566;  118.381;  950.925;  763.135
701.832;   51.183;  -31.075;  -76.865
702.098;  -76.739;-1054.074;-1034.866
702.365;  -46.962;-1098.074;-1030.866
702.631;   42.615;-1038.074;-1063.867
702.897; 1820.292; -765.074; -676.867
703.163; 3300.069;  348.926;  254.133
703.429;  261.272; -256.073; -273.868
703.695;   10.024; -796.073; -792.868
703.961;   41.051; -214.073; -210.868
704.227;  -24.572; -630.073; -725.869
704.493;  150.130;  613.927;  510.131
704.759;   -3.492; -565.072; -540.870
705.025;   58.260; -203.072; -194.870
705.291;   18.562; -666.072; -562.870
705.557;  226.614;  719.928;   34.129
705.823;   66.641; -742.072; -694.871
706.089;  213.469; -307.071; -326.871
706.355;  431.621; -315.071; -244.872
706.620; 6420.598; -776.071; -729.872
706.886;10373.475; -309.071; -362.873
707.152; 1105.952; -818.070; -973.873
707.418;   48.105;-1153.070;-1186.873
707.683;   30.832; -550.070; -530.874
707.949;   -9.491; -547.070; -578.874
708.215;   15.486; -129.070; -207.874
708.480;   10.838; -520.069; -420.875
708.746;  152.316;   68.931;   28.125
709.011;  -32.007; -578.069; -612.876
709.277;  -50.055; -538.069; -543.876
709.542;  -18.053; -428.069; -387.876
709.808;   18.824;  -59.068;   89.123
710.073;  -55.073; -577.068; -695.877
710.339;   -2.646; -242.068; -228.877
710.604;  155.981; -780.068; -845.878
710.869;  508.183; -277.068; -366.878
711.135;  -47.690; -715.067; -628.879
711.400;  -69.187; -507.067; -608.879
711.665;  -56.635; -404.067; -479.879
711.931;  -75.983; -661.067; -677.880
712.196; -109.656; -876.067; -954.880
712.461;  199.622; -402.066; -490.880
712.726;  294.149; -727.066; -771.881
712.991;  -47.299; -647.066; -664.881
713.256;  -25.247; -350.066; -332.882
713.521;  -27.920; -417.065; -381.882
713.787;  -46.042; -454.065; -472.882
714.052;  -11.990; -214.065; -400.883
714.317;  -59.038;-1045.065; -981.883
714.581; 1345.039; -374.065; -268.883
714.846; 2178.766; -822.064; -888.884
715.111;  194.444;  261.936;  257.116
715.376;   -3.804;  -86.064; -223.885
715.641;   15.023; -365.064; -367.885
715.906;  466.600;   15.936; -551.885
716.171;  207.602;  221.937;  209.114
716.436;   78.980;  -78.063; -104.886
716.700;  -96.993; -818.063; -692.886
716.965; -117.266; -794.063; -807.887
717.230;  -46.514; -339.063; -392.887
717.494;   -9.687;  -40.062; -134.888
717.759;  -77.984; -784.062; -640.888
718.024;   23.868;  269.938;  250.112
718.288;   83.970;  685.938;  395.111
718.553; -131.778; -803.062; -977.889
718.817; -133.026; -883.061; -899.889
719.082;  -31.373; -115.061; -125.890
719.346; -113.896;-1000.061; -947.890
719.611;  -24.494; -300.061; -255.891
719.875;  -73.017; -568.060; -537.891
720.140;  -48.265; -453.060; -603.891
720.404;   71.713; -136.060; -249.892
720.668; 1253.065; -475.060; -411.892
720.933;  547.617;  146.940;  137.108
721.197;  -80.531; -667.059; -600.893
721.461; -103.153; -851.059; -826.893
721.725;   -3.976;  -21.059; -250.894
721.990;  -49.099; -284.059; -204.894
722.254;  -21.972;  -26.059; -108.894
722.518;  -69.445; -286.058; -442.895
722.782;  -84.342; -743.058; -594.895
723.046;  157.910;  614.942;  570.105
723.310;   26.637;  374.942;  210.104
723.574;  -85.761; -654.058; -614.896
723.838;  -90.234; -576.057; -642.897
724.102;  -47.331; -226.057; -239.897
724.366; -129.954;-1032.057; -978.897
724.630;  -70.877; -749.057; -571.898
724.894;  -63.100; -722.057; -514.898
725.158;   12.202;   38.944; -295.898
725.422;  -39.520; -394.056; -327.899
725.685;  -40.918; -441.056; -349.899
725.949;  -48.516; -566.056; -519.900
726.213;  -20.414; -732.056; -811.900
726.477;  313.188;-1020.055; -933.900
726.740;  266.866; -274.055; -104.901
727.004;  462.218; -384.055; -510.901
727.268; 4554.720; -442.055; -400.901
727.531; 1482.622; -961.055; -775.902
727.795;   10.274; -713.054; -673.902
728.059;  -34.648; -552.054; -557.903
728.322;  -38.871; -841.054; -669.903
728.586;   93.231; -692.054; -701.903
728.849;  -51.017; -695.053; -756.904
729.112;  -97.190; -812.053; -912.904
729.376;  -89.562; -959.053; -905.904
729.639;  -49.610; -536.053; -536.905
729.903;  -81.158; -733.053; -699.905
730.166;  -39.456; -437.052; -399.906
730.429;   -8.329; -317.052; -468.906
730.693;  -44.276; -355.052; -894.906
730.956;  246.326;  810.948;  651.093
731.219; 1064.503; -310.052; -103.907
731.482;  247.055;-1003.051; -894.907
731.745;  231.033; -794.051; -935.908
732.009;   37.785;  -30.051;   50.092
732.272;  -80.038; -904.051; -771.909
732.535;  -26.986; -300.051; -310.909
732.798; -122.209;-1083.050;-1166.909
733.061;  -53.181; -430.050; -456.910
733.324;   21.971;   31.950; -180.910
733.587;   84.398;  290.950;  365.090
733.850;  -36.200; -973.049;-1050.911
734.113;   47.902;   33.951;   32.089
734.376;   45.980; -328.049; -447.912
734.639;  259.532; 1188.951; 1011.088
734.901;  127.659; -180.049; -402.912
735.164;  731.511; -883.048; -837.913
735.427; 2033.838; -166.048; -355.913
735.690;  211.541; -205.048; -234.913
735.952;   37.593; -923.048; -925.914
736.215;   31.895;-1113.048;-1009.914
736.478;  112.872; -771.047; -774.915
736.740;  298.599;   33.953;  129.085
737.003;  864.477; -658.047; -672.915
737.266; 6053.354;  -94.047;   46.084
737.528;  719.306; -682.047; -660.916
737.791;  474.808; -316.046; -327.916
738.053; 1002.110;  465.954;  649.083
738.316;13511.463; -162.046; -136.917
738.578;11281.165; -770.046; -736.918
738.841;  676.942; -382.046; -446.918
739.103;  289.869; -875.045; -777.918
739.365;  759.046;   79.955;  -69.919
739.628;   57.149; -884.045; -805.919
739.890;   19.676; -758.045; -710.919
740.152;    2.053; -692.044; -754.920
740.414;   39.380; -408.044; -359.920
740.677;   -6.018; -785.044; -634.921
740.939;  -10.165; -587.044; -487.921
741.201;  413.987; -432.044; -572.921
741.463;  134.139; -689.043; -745.922
741.725;   34.166;  -21.043; -199.922
741.987;   84.419;  220.957;  116.078
742.249;   82.571; -751.043; -859.923
742.511;  373.173; -703.043; -794.923
742.773;   91.625; -546.042; -546.924
743.035;  161.052;  796.958;  533.076
743.297;    7.105; -963.042;-1013.924
743.559; 1071.257; -278.042; -262.925
743.821;  180.309; -735.042; -744.925
744.083;   41.986;  -44.041; -149.925
744.345;  -57.337; -869.041; -892.926
744.607;   63.066;   75.959;  122.074
744.868;  -27.282; -490.041; -554.927
745.130;  -77.430; -994.041;-1008.927
745.392;   75.772;   -1.040;  -44.927
745.653;   41.849; -411.040; -378.928
745.915;  180.777;  896.960;  631.072
746.177;  102.529;   35.960;  -43.928
746.438;   40.331; -428.040; -543.929
746.700;   27.783; -947.039; -988.929
746.961;   71.835; -659.039; -740.930
747.223;  230.863; -190.039;  -74.930
747.484;  172.165; -391.039; -471.930
747.746;  231.892;  -23.038; -106.931
748.007;  199.569; -647.038; -689.931
748.269;  466.721; -468.038; -440.931
748.530;  784.849; -852.038; -638.932
748.791;  432.051; -354.038; -420.932
749.053;  617.478;  286.963;  163.067
749.314;  693.955; -236.037; -169.933
749.575;  814.857; -945.037; -905.933
749.836; 1257.410; -217.037;   86.066
750.098; 3205.762;  -60.037;  -21.934
750.359;50332.239;  414.964;  555.066
750.620;15487.391; -121.036; -220.935
750.881; 1573.093; -585.036; -513.935
751.142; 1961.071; -950.036; -938.936
751.403;21449.273; -789.036; -705.936
751.664;11465.575;-1034.035; -999.936
751.925;  748.002; -175.035; -262.937
752.186;  429.805; -298.035; -278.937
752.447;  238.057; -590.035; -445.937
752.708;  115.734; -532.035; -648.938
752.969;   67.536; -566.034; -576.938
753.230;   40.513; -777.034; -672.939
753.491;   61.066; -650.034; -631.939
753.751;  113.043;  109.966;   19.061
754.012;  125.770;  258.967;  181.060
754.273;   99.897; -174.033;  -71.940
754.534;   77.749; -487.033; -580.940
754.794;  -39.898; -926.033; -911.941
755.055;  160.629; 1051.967;  881.059
755.316;  -13.894; -700.032; -566.942
755.576;    6.358; -606.032; -576.942
755.837;  -14.140; -527.032; -695.942
756.097;   -6.037; -530.032; -564.943
756.358;  -39.860; -725.032; -770.943
756.618;   -6.233; -705.031; -641.943
756.879;   56.044; -254.031; -349.944
757.139;  -94.829;-1098.031;-1116.944
757.400;  -26.651; -538.031; -553.945
757.660;   -3.224; -365.031; -401.945
757.920;   50.053; -266.030; -228.945
758.181;   21.730; -468.030; -351.946
758.441;  -62.893; -870.030; -809.946
758.701;   -3.465; -308.030; -215.946
758.961;   -6.563; -220.030; -278.947
759.222;  -31.861; -574.029; -502.947
759.482;  -51.059; -683.029; -723.948
759.742;  -50.432; -706.029; -547.948
760.002;   24.821;  -83.029; -143.948
760.262;   24.423;   50.972;  182.051
760.522;  -33.725; -498.028; -574.949
760.782;  -45.548; -738.028; -612.949
761.042;  -22.846; -618.028; -573.950
761.302;   70.832;   55.972;  -18.950
761.562;   47.984; -164.027; -154.951
761.822;  134.986; -710.027; -551.951
762.082;  -13.862;-1104.027;-1093.951
762.342;   67.041; -328.027; -403.952
762.601;   90.543; -567.027; -506.952
762.861;  446.220; -281.026; -207.952
763.121;  400.997; -406.026; -411.953
763.381; 6361.974; -499.026; -485.953
763.640; 8626.802; -139.026; -307.954
763.900;  384.179; -242.026; -203.954
764.160;  103.956; -458.025; -491.954
764.419;    5.033; -726.025; -782.955
764.679;  -62.965; -795.025; -726.955
764.939;  -14.062; -124.025; -210.955
765.198;  -73.560; -608.025; -563.956
765.458;  -70.908; -710.024; -612.956
765.717;  -72.831; -454.024; -590.957
765.976;  -53.454; -428.024; -411.957
766.236;  -63.501; -475.024; -610.957
766.495;   32.551;  260.977;   73.042
766.755;  -62.772;-1090.023; -987.958
767.014;   64.380; -594.023; -665.958
767.273;  -39.118; -373.023; -397.959
767.533;  -45.740; -228.023; -307.959
767.792;  -26.638; -151.022; -188.960
768.051;  -52.111; -228.022; -276.960
768.310;  -76.434; -546.022; -650.960
768.569;   11.568; -161.022;    4.039
768.828;  -30.079; -285.022; -363.961
769.088;  -82.427;-1050.021; -942.961
769.347;  -79.300; -755.021; -599.962
769.606;  -70.223; -876.021; -857.962
769.865;  -94.246;-1016.021;-1033.963
770.124;    0.582; -411.021; -336.963
770.383;  -36.416; -778.020; -910.963
770.641;   41.886; -398.020; -400.964
770.900;  -44.312; -953.020; -846.964
771.159;  -19.934; -851.020; -951.964
771.418;   25.768; -917.020; -779.965
771.677;  140.370; -224.019; -293.965
771.936;  192.847; -794.019; -865.966
772.194; 2066.099; -465.019; -437.966
772.453;13137.477; -213.019; -391.966
772.712; 1000.154;  416.982;  329.033
772.970;  140.431;   32.982;   63.033
773.229;  101.258;  -22.018;  102.033
773.488;  -73.215; -814.018; -770.968
773.746;   59.088;  296.982;  335.032
774.005;    8.465;  190.983;  -22.969
774.263;    7.242;  243.983;  177.031
774.522;  -40.906; -422.017; -548.969
774.780;  -67.504; -484.017; -417.970
775.039;  -85.501; -551.017; -531.970
775.297;  -20.049; -135.016; -351.970
775.555;  -93.247; -489.016; -612.971
775.814; -111.920; -618.016; -570.971
776.072; -113.518; -749.016; -740.971
776.330;  -98.615; -630.016; -520.972
776.589; -123.063; -703.015; -721.972
776.847; -113.161; -645.015; -624.973
777.105; -162.534;-1016.015;-1032.973
777.363;  -80.957; -459.015; -454.973
777.621; -137.979; -660.015; -717.974
777.879;  -23.302;  -42.014;   32.026
778.138;  -95.600; -554.014; -717.974
778.396;  -99.823; -585.014; -526.975
778.654; -171.721;-1015.014; -970.975
778.912;  -71.493; -269.014; -371.976
779.170; -127.866; -880.013; -803.976
779.427; -131.714; -922.013; -897.976
779.685; -125.537; -880.013; -832.977
779.943;  -57.110; -654.013; -593.977
780.201; -151.882; -964.012; -883.978
780.459; -112.430; -651.012; -610.978
780.717;  -84.678; -440.012; -390.978
780.974;  -93.301; -449.012; -490.979
781.232;  -70.473; -358.012; -338.979
781.490;  -53.721; -551.011; -472.979
781.747;  -94.044; -555.011; -476.980
782.005;   17.333;  462.989;  254.020
782.263; -150.365; -542.011;-1004.981
782.520;  -82.787; -326.011; -501.981
782.778; -150.535;-1013.010;-1051.981
783.035; -152.533; -962.010; -938.982
783.293;  -45.631; -248.010; -206.982
783.550;  -57.554; -134.010; -198.982
783.808; -130.101; -764.010; -776.983
784.065; -137.474; -745.009; -874.983
784.322;  -35.122;   25.991;  -86.984
784.580; -139.720; -915.009; -771.984
784.837;  -86.443; -392.009; -466.984
785.094; -124.365; -783.009; -762.985
785.352;  -44.488; -304.008; -404.985
785.609;  -70.911; -934.008; -839.985
785.866;  -77.759; -345.008; -401.986
786.123;  -32.207; -639.008; -583.986
786.380;  -83.454; -665.008; -604.987
786.637;  -41.277; -225.007; -380.987
786.895;   28.775; -456.007; -543.987
787.152;  -42.048; -135.007; -267.988
787.409;  -47.521; -123.007; -225.988
787.666;  -73.193; -299.006; -378.988
787.923;  -95.016; -616.006; -695.989
788.179;  -89.389; -551.006; -584.989
788.436;  -90.237; -585.006; -585.990
788.693;  -25.210;  -92.006;  -87.990
788.950;  190.043; -125.005; -112.990
789.207;  425.045; -381.005; -372.991
789.464;  -41.328; -161.005; -301.991
789.720;   -6.126;  150.995;  110.009
789.977; -158.974;-1003.005; -671.992
790.234;  -11.396;   44.996;  -66.992
790.490; -134.719; -884.004;-1031.993
790.747;  -10.667;  -85.004;   22.007
791.004;   -1.215; -426.004; -348.993
791.260;  -63.537; -430.004; -560.994
791.517;  -74.935; -843.003; -788.994
791.773;  -38.183; -379.003; -342.994
792.030;  -89.431; -596.003; -660.995
792.286;  -98.129; -686.003; -636.995
792.543;   -9.751;  -74.002; -159.995
792.799;  -55.099; -584.002; -382.996
793.055; -138.822;-1179.002;-1210.996
793.312;  -92.220; -827.002; -816.997
793.568;  -51.843; -746.002; -599.997
793.824;   11.435; -226.001; -284.997
794.081;   22.037; -447.001; -508.998
794.337;   75.114; -664.001; -561.998
794.593; 1050.666; -319.001; -271.999
794.849; 7082.493; -746.001; -772.999
795.105;  434.871; -270.000; -261.999
795.361;   35.498; -490.000; -457.000
795.617;  -38.275; -875.000; -945.000
795.873;  -41.650; -360.000; -407.000
796.129;  -40.550; -368.000; -306.000
796.385;   -0.225; -124.000; -156.000
796.641;   66.475;  412.000;  550.000
796.897;  -65.700; -666.000; -635.000
797.153;   70.325;  453.000;  357.000
797.409;  -74.950; -785.000; -868.000
797.665;  -66.200; -625.000; -732.000
797.921;  -54.475; -775.000; -762.000
798.176;  -30.075; -744.000; -747.000
798.432;  -21.800; -824.000; -596.000
798.688;  -53.250;-1174.000;-1078.000
798.943;  115.200; -165.000; -147.000
799.199;   60.000;-1005.000; -959.000
799.455;  281.325;  369.000;  316.000
799.710;  188.950; -813.000; -380.000
799.966;  409.575; -162.000; -160.000
800.221;  598.475; -638.000; -721.000
800.477;11799.975; -743.000; -710.000
800.732;13660.650; -773.000; -800.000
800.988;  826.050;  205.000;  -19.000
801.243; 1505.325; -454.000; -344.000
801.498; 8230.150; -814.000; -739.000
801.754;  551.950; -289.000; -163.000
802.009;  105.425; -257.000; -335.000
802.264;  -18.825; -967.000;-1033.000
802.520;   36.125;  222.000;   -3.000
802.775;  -32.600; -524.000; -359.000
803.030;   51.800;  395.000;  356.000
803.285;  -90.500; -840.000; -903.000
803.540;  -40.575; -686.000; -699.000
803.795;   -1.775; -648.000; -583.000
804.051;  -22.525; -279.000; -346.000
804.306;   24.225;  168.000;  128.000
804.561;  189.300;  451.000;  362.000
804.816;  150.100;  714.000;  861.000
805.071;   18.650; -185.000; -280.000
805.325;  337.000; -257.000; -427.000
805.580;  -76.700; -841.000; -877.000
805.835;   -0.900; -204.000; -297.000
806.090;  -57.450; -760.000; -676.000
806.345;   -8.275; -344.000; -264.000
806.600;   -5.150; -549.000; -632.000
806.854;  -10.750; -408.000; -538.000
807.109;    9.725; -493.000; -577.000
807.364;    6.100; -407.000; -328.000
807.618;   24.525; -415.000; -381.000
807.873;   70.625; -470.000; -494.000
808.128;  134.000; -257.000; -518.000
808.382;  151.275; -224.000; -332.000
808.637;  100.450; -440.000; -511.000
808.891;  224.775; -257.000; -180.000
809.146;  141.850; -902.000; -794.000
809.400;  330.675; -848.000; -923.000
809.654;  399.000; -779.000; -551.000
809.909;  556.600; -841.000; -927.000
810.163; 6662.300; -813.000; -651.000
810.418;22749.275; -940.000; -861.000
810.672; 1379.150; -685.000; -690.000
810.926;  745.350; -993.000; -973.000
811.180; 1284.825; -439.000; -372.000
811.434;27064.850;  240.000;  135.000
811.689;14624.475; -231.000; -365.000
811.943;  750.825; -936.000; -953.000
812.197;  331.325; -893.000; -671.000
812.451;  150.450; -379.000; -514.000
812.705;   -1.925; -809.000; -619.000
812.959;    4.800; -263.000; -388.000
813.213;    8.500; -283.000; -209.000
813.467;   72.350;  470.000;  253.000
813.721;  -72.325; -764.000; -792.000
813.975; -108.150; -826.000; -877.000
814.229;   45.000;  430.000;  353.000
814.482;  -61.625; -517.000; -566.000
814.736; -103.200; -766.000; -744.000
814.990; -116.925; -779.000; -872.000
815.244;  -36.450; -228.000; -285.000
815.497;  -89.400; -636.000; -601.000
815.751;   -2.350; -141.000;   82.000
816.005;  -82.475; -470.000; -586.000
816.258;  -51.725; -510.000; -363.000
816.512;  -98.500; -693.000; -610.000
816.766;   16.775;  121.000;  157.000
817.019;   22.400;  148.000;  149.000
817.273;  -86.850;-1000.000; -802.000
817.526;  -36.300; -206.000; -173.000
817.779;   -0.050;-1049.000; -960.000
818.033;  -33.675; -693.000; -807.000
818.286; -106.775; -725.000; -792.000
818.540;  -98.575; -403.000; -403.000
818.793;  -59.125; -402.000; -489.000
819.046; -104.575; -582.000; -520.000
819.299;  -39.000; -157.000; -166.000
819.553; -110.400; -552.000; -592.000
819.806; -152.525;-1016.000; -838.000
820.059;  -58.050; -334.000; -354.000
820.312;   31.675;  152.000;  185.000
820.565;  -20.625;  110.000;  -27.000
820.818;  -33.750;  -59.000; -173.000
821.071; -157.000;-1041.000; -957.000
821.324;  -86.650; -536.000; -540.000
821.577; -103.475; -457.000; -483.000
821.830;  -59.550; -270.000; -172.000
822.083; -125.200; -733.000; -288.000
822.336;  -52.725; -261.000; -167.000
822.589; -119.875; -805.000; -688.000
822.842; -128.925; -875.000; -770.000
823.094; -168.925;-1076.000;-1114.000
823.347; -120.075; -925.000; -729.000
823.600;    7.275;  402.000;  187.000
823.853;  -46.200; -311.000; -267.000
824.105;  -73.925; -331.000; -575.000
824.358;  -80.875; -617.000; -716.000
824.611;   41.850;  234.000;   40.000
824.863;  -21.450; -612.000; -591.000
825.116;   83.025;  -33.000;   27.000
825.368;  136.575; -366.000; -372.000
825.621;  250.950; -186.000; -240.000
825.873;  153.350; -704.000; -737.000
826.126;  688.200; -669.000; -641.000
826.378;14319.975; -389.000; -505.000
826.630; 4964.475; -890.000; -898.000
826.883;  137.700; -754.000; -693.000
827.135;   84.975; -279.000; -270.000
827.387;  -81.025; -893.000; -839.000
827.639;  -21.450;  -86.000;   32.000
827.892; -108.225; -742.000; -582.000
828.144; -134.525; -848.000; -804.000
828.396;  -35.800;  104.000;  -80.000
828.648;  -92.850; -440.000; -333.000
828.900; -129.075; -702.000; -795.000
829.152; -103.550; -684.000; -683.000
829.404;  -52.050; -215.000; -267.000
829.656;  -24.100;  321.000;  214.000
829.908;  -21.925;  393.000;  229.000
830.160; -161.050;-1064.000;-1047.000
830.412;  -94.350; -481.000; -430.000
830.664; -120.550; -557.000; -665.000
830.916;  -65.450; -268.000; -206.000
831.167; -167.100;-1073.000; -951.000
831.419; -110.100; -623.000; -566.000
831.671; -154.825; -764.000; -809.000
831.923;  -86.600; -311.000; -447.000
832.174;  -88.075; -273.000; -331.000
832.426; -111.275; -493.000; -582.000
832.678; -168.500;-1043.000;-1091.000
832.929; -144.675; -947.000; -935.000
833.181;  -41.900; -575.000; -677.000
833.432;  -55.875;  -59.000; -186.000
833.684;  -13.750;  112.000;  -27.000
833.935; -107.725; -610.000; -566.000
834.187; -120.075; -829.000; -823.000
834.438;  -40.575;  -58.000;  -25.000
834.689;  -64.400; -255.000; -123.000
834.941;  -49.275; -343.000; -244.000
835.192;  -84.325; -590.000; -533.000
835.443;  -92.450; -419.000; -506.000
835.695;  -18.100;  138.000;  -16.000
835.946;  -78.375; -608.000; -378.000
836.197;  -94.075; -599.000; -622.000
836.448;  -79.425; -528.000; -395.000
836.699;  -53.100; -253.000; -341.000
836.950;    0.925;   72.000;    7.000
837.201; -138.375;-1003.000; -987.000
837.452;  -32.125; -356.000; -170.000
837.703;  -97.725; -791.000; -737.000
837.954;  -27.875; -205.000; -365.000
838.205;  -45.750;-1029.000;-1008.000
838.456;  269.875; -196.000; -282.000
838.707;   49.175; -423.000; -519.000
838.958;   59.050; -634.000; -647.000
839.209;  401.025;   18.000;   40.000
839.460;  189.200; -439.000; -201.000
839.710;  231.500; -135.000; -297.000
839.961;  516.900;  730.000;  612.000
840.212;  449.275; -382.000; -497.000
840.462; 1288.925; -328.000; -277.000
840.713;20749.800; -571.000; -536.000
840.964;11276.175;  -62.000; -143.000
841.214;  710.925; -384.000; -624.000
841.465;  722.775; -214.000; -141.000
841.715;  667.175; -417.000; -380.000
841.966;  816.700; -746.000; -685.000
842.216; 8618.475; -330.000; -431.000
842.466;42797.725; -169.000; -313.000
842.717; 3322.350; -964.000; -952.000
842.967;  427.000; -635.000; -641.000
843.217;  363.900;   20.000;   28.000
843.468;  112.475; -104.000; -132.000
843.718;   -2.375; -718.000; -726.000
843.968;  -59.475; -837.000; -765.000
844.218;   35.300; -315.000; -262.000
844.469;  -13.075; -577.000; -561.000
844.719;  -91.800; -537.000; -682.000
844.969;  -78.650; -550.000; -580.000
845.219; -140.850; -814.000; -862.000
845.469;  -57.450; -392.000; -342.000
845.719; -131.525; -792.000; -884.000
845.969;   -6.400;  119.000;  174.000
846.219; -110.400; -738.000; -720.000
846.469;   31.575;  464.000;  432.000
846.718;  -46.650; -115.000;   31.000
846.968; -116.900; -827.000; -827.000
847.218;  -49.750; -224.000; -371.000
847.468;   13.400; -586.000; -555.000
847.718; -140.600; -827.000; -798.000
847.967; -112.525; -826.000; -915.000
848.217;  -70.800; -449.000; -569.000
848.467;  -49.050; -405.000; -376.000
848.716; -110.025; -708.000; -725.000
848.966;   46.700; -372.000; -358.000
849.215;  -34.675; -428.000; -419.000
849.465;  -72.050; -785.000; -615.000
849.714; -116.825;-1132.000;-1150.000
849.964;  -31.475; -551.000; -613.000
850.213;   -7.625; -393.000; -355.000
850.463;  105.275;  137.000;  340.000
850.712;   55.875; -542.000; -567.000
850.961;   77.925; -739.000; -678.000
851.211;  174.175; -513.000; -504.000
851.460;  277.775; -635.000; -650.000
851.709;  741.550;  -25.000;   18.000
851.958;11870.225; -912.000; -750.000
852.208;19536.150; -859.000; -879.000
852.457;  814.075; -181.000;  -13.000
852.706;  158.725; -791.000; -823.000
852.955;   97.225; -507.000; -528.000
853.204;  -43.550; -521.000; -461.000
853.453;  -54.850; -418.000; -458.000
853.702; -123.700; -660.000; -750.000
853.951;  -79.575; -532.000; -520.000
854.200; -111.800; -613.000; -562.000
854.449; -114.875; -695.000; -661.000
854.698;  -89.775; -340.000; -279.000
854.946;  -59.650; -181.000; -284.000
855.195; -146.775; -843.000; -868.000
855.444;  -68.575; -395.000; -420.000
855.693; -129.775; -345.000; -432.000
855.941; -109.125; -387.000; -516.000
856.190;  -38.200; -256.000; -382.000
856.439; -111.425; -652.000; -703.000
856.687;  -63.300;  -99.000;  -72.000
856.936; -108.025; -621.000; -323.000
857.184; -165.825;-1067.000;-1020.000
857.433; -103.525; -423.000; -512.000
857.681; -144.525; -989.000; -953.000
857.930;  -60.100; -282.000; -433.000
858.178; -151.350; -856.000; -929.000
858.427; -139.050; -802.000; -781.000
858.675; -119.125; -377.000; -544.000
858.923; -108.500; -527.000; -819.000
859.172; -164.325;-1094.000;-1070.000
859.420;  -77.600; -339.000; -239.000
859.668; -129.300; -624.000; -628.000
859.916;   -9.100;  109.000;  115.000
860.164; -109.100; -699.000; -603.000
860.413;  420.275; -878.000; -696.000
860.661;  491.450; -709.000; -577.000
860.909;  -75.925; -339.000; -325.000
861.157;  -76.675; -277.000; -444.000
861.405; -105.275; -534.000; -670.000
861.653;   30.075;  310.000;  310.000
861.901;  266.325; -543.000; -613.000
862.149;  104.825; -801.000; -824.000
862.396;  -77.000; -297.000; -187.000
862.644;  -88.750; -368.000; -347.000
862.892;  -43.250;   98.000;  138.000
863.140; -123.100; -549.000; -530.000
863.388; -163.500; -815.000; -759.000
863.635; -121.925; -642.000; -601.000
863.883;  -27.650;  231.000;  190.000
864.131;  -91.275; -288.000; -357.000
864.378; -125.625; -675.000; -540.000
864.626; -108.275; -347.000; -415.000
864.873; -102.550; -556.000; -505.000
865.121; -143.750; -714.000; -799.000
865.368;  -41.000; -173.000;   75.000
865.616;  -31.450;  -33.000;  -40.000
865.863;  -73.400; -462.000; -506.000
866.111;  -80.150; -795.000; -824.000
866.358;   48.700; -426.000; -420.000
866.605; 2387.200;  -64.000; -804.000
866.853; 3330.500; -621.000; -537.000
867.100;   25.400; -728.000; -775.000
867.347;  -86.025; -672.000; -611.000
867.594;  -53.550; -740.000; -714.000
867.841;  148.250;   97.000;   17.000
868.089; -135.325; -746.000; -698.000
868.336; -105.100; -477.000; -420.000
868.583; -137.150; -637.000; -741.000
868.830;  -65.975; -131.000; -170.000
869.077; -163.075; -859.000; -787.000
869.324; -129.225; -502.000; -458.000
869.571; -129.275; -398.000; -430.000
869.818; -127.425; -485.000; -439.000
870.065; -107.925; -439.000; -513.000
870.311;  -90.800; -456.000; -542.000
870.558; -111.675; -332.000; -311.000
870.805;  -81.500; -320.000; -384.000
871.052; -103.850; -494.000; -369.000
871.298;  -48.175; -204.000; -131.000
871.545;  -63.750; -151.000; -185.000
871.792;  -79.375; -173.000; -222.000
872.038;  -67.000;   43.000; -126.000
872.285; -129.325; -496.000; -387.000
872.532; -108.550; -357.000; -387.000
872.778;    4.250;  556.000;  403.000
873.025;  -91.250; -384.000; -359.000
873.271;    5.825;  501.000;  578.000
873.517;  -10.950; -133.000; -209.000
873.764;  -12.675; -193.000;  -80.000
874.010;  -64.200; -143.000; -230.000
874.257;  -47.275;  123.000;   90.000
874.503; -139.425; -579.000; -479.000
874.749;  -73.350;   31.000;  275.000
874.995;  -82.900;  -80.000;  -20.000
875.242; -108.775; -540.000; -478.000
875.488; -105.800; -414.000; -439.000
875.734;  -45.450; -106.000; -234.000
875.980;  290.900; -872.000;-1032.000
876.226;  688.850; -157.000; -255.000
876.472;    9.550;  343.000;  237.000
876.718;  -36.425;  184.000;  158.000
876.964;  -34.900;   56.000;   55.000
877.210; -144.950; -547.000; -677.000
877.456; -142.575; -630.000; -557.000
877.702; -173.500; -821.000; -832.000
877.948; -100.525; -377.000; -497.000
878.193;   18.225;  361.000;  255.000
878.439;  -69.125; -487.000; -472.000
878.685;  -87.050; -272.000; -343.000
878.931; -126.350; -618.000; -676.000
879.176;  -80.050; -201.000; -201.000
879.422; -167.575; -933.000; -820.000
879.668;   52.900;   10.000;   79.000
879.913;  233.200;   53.000;  137.000
880.159;  -40.325; -112.000;  -17.000
880.404;  -51.275; -152.000; -162.000
880.650;  -39.425;   91.000;  141.000
880.895; -154.950; -670.000; -710.000
881.141; -121.725; -454.000; -428.000
881.386; -138.725; -503.000; -658.000
881.631;  -88.375; -311.000; -166.000
881.877;  -19.900;  112.000;  -13.000
882.122; -121.850; -684.000; -600.000
882.367; -101.900; -136.000; -186.000
882.612;  -76.875;  -80.000; -176.000
882.858; -171.050; -877.000; -823.000
883.103; -100.225; -297.000; -267.000
883.348; -162.325; -759.000; -852.000
883.593; -137.875; -677.000; -602.000
883.838;  -73.475; -311.000;  -24.000
884.083;   51.950;  353.000;  288.000
884.328;  -98.575; -564.000; -545.000
884.573;  -40.400; -196.000; -143.000
884.818;  296.125; -694.000; -531.000
885.063;  380.175; -348.000; -315.000
885.308;  -95.550; -475.000; -398.000
885.553;  -23.125;  245.000;  325.000
885.797; -127.775; -545.000; -615.000
886.042;  -61.300;    8.000;   58.000
886.287;  -93.975; -253.000; -211.000
886.532;  -50.475;   26.000;  204.000
886.776; -100.300; -407.000; -525.000
887.021; -142.250; -621.000; -574.000
887.265; -155.825; -685.000; -689.000
887.510; -125.100; -557.000; -496.000
887.755;  -92.625; -194.000; -164.000
887.999; -136.900; -552.000; -575.000
888.244;  -75.300;  -58.000;  161.000
888.488;   -5.150;  371.000;  393.000
888.732; -137.950; -368.000; -520.000
888.977; -123.400; -622.000; -567.000
889.221; -156.950; -683.000; -659.000
889.465; -116.950; -422.000; -566.000
889.710;  -88.300;  -56.000; -299.000
889.954;   -2.250;  579.000;  467.000
890.198; -159.725; -584.000; -707.000
890.442; -143.775; -716.000; -712.000
890.687; -155.750; -800.000; -753.000
890.931; -100.975; -273.000; -210.000
891.175; -125.750; -502.000; -500.000
891.419;  -85.575; -105.000; -110.000
891.663;  -97.350; -239.000; -112.000
891.907; -169.225; -801.000; -545.000
892.151; -175.850; -920.000; -815.000
892.395; -111.050; -274.000; -387.000
892.638;  -43.650;  408.000;  291.000
892.882; -172.625; -780.000; -867.000
893.126;   11.675;  758.000;  558.000
893.370;  -87.300; -167.000; -168.000
893.614; -161.250; -714.000; -715.000
893.857; -101.850; -183.000; -197.000
894.101; -145.900; -527.000; -631.000
894.345;  -65.975;  300.000;  150.000
894.588;    8.900;  569.000;  380.000
894.832;  -90.825; -178.000;  -84.000
895.075;  -84.700;   15.000;  -92.000
895.319; -121.275; -552.000; -420.000
895.563; -129.825; -413.000; -353.000
895.806; -125.350; -628.000; -741.000
896.049;  -47.550; -576.000; -368.000
896.293;  133.475;  527.000;  405.000
896.536;  -51.475; -465.000; -468.000
896.779;  -57.650; -149.000;   -1.000
897.023; -123.875; -751.000; -714.000
897.266;  -26.400;  325.000;  269.000
897.509; -177.475; -900.000; -901.000
897.752;  -53.975;  149.000;  171.000
897.996; -193.225; -972.000; -864.000
898.239;  -53.650;  168.000;  102.000
898.482; -113.425; -431.000; -453.000
898.725;  -11.625;  101.000;   53.000
898.968; -142.775; -609.000; -744.000
899.211;  -94.100; -513.000; -361.000
899.454; -105.300; -633.000; -539.000
899.697;  -77.200;   90.000;  -43.000
899.940; -157.350; -761.000; -757.000
900.182; -106.100; -335.000; -405.000
900.425; -110.325; -150.000; -298.000
900.668;  -34.500;  491.000;  350.000
900.911; -106.150; -292.000; -345.000
901.154;  -54.475;  141.000;   -3.000
901.396; -138.975; -407.000; -412.000
901.639; -145.025; -430.000; -496.000
901.882; -171.875; -790.000; -809.000
902.124;  -82.325;  -29.000; -143.000
902.367; -112.350; -315.000; -361.000
902.609; -134.400; -476.000; -453.000
902.852;  -92.925; -108.000; -260.000
903.094; -135.375; -458.000; -337.000
903.337;  -60.525;  -26.000;   53.000
903.579; -108.150; -228.000; -441.000
903.821; -163.700; -597.000; -744.000
904.064;  -61.175;   85.000;  127.000
904.306;  -86.725; -126.000; -166.000
904.548; -103.450; -152.000; -366.000
904.790;  -98.825; -195.000; -340.000
905.033; -128.750; -625.000; -577.000
905.275; -121.100; -513.000; -524.000
905.517;   47.525;  468.000;  256.000
905.759;  -18.625; -667.000; -761.000
906.001;  -96.725; -322.000; -369.000
906.243;  -55.750; -162.000; -224.000
906.485;  190.225; -265.000; -207.000
906.727;  272.925; -499.000; -542.000
906.969;   10.600;  -30.000; -135.000
907.211;  192.750; -316.000; -382.000
907.453;  483.475; -188.000; -237.000
907.695;   82.325; -158.000; -385.000
907.936;   31.700;  818.000;  706.000
908.178;  -59.150;   92.000; -135.000
908.420;  -77.250; -111.000; -162.000
908.662; -137.425; -633.000; -682.000
908.903;  -79.850; -208.000; -123.000
909.145;  -56.725; -240.000; -305.000
909.386;  -17.675;  315.000;  280.000
909.628;   25.175;  363.000;  397.000
909.870;    7.025;   29.000;  264.000
910.111; -106.450; -809.000; -949.000
910.353;   21.550; -123.000; -161.000
910.594;   -5.450; -574.000; -606.000
910.835;   74.275; -265.000; -326.000
911.077;  160.675; -503.000; -604.000
911.318;  292.800; -505.000; -471.000
911.559;  462.575; -577.000; -880.000
911.801; 1214.725; -284.000; -280.000
912.042; 8686.500;  -50.000; -159.000
912.283;27417.875;  404.000;  371.000
912.524; 5583.675; -396.000; -457.000
912.765;  552.925; -193.000;   79.000
913.006;  253.775; -307.000; -338.000
913.247;   74.975; -270.000; -290.000
913.488;   -1.875;  -43.000;   30.000
913.729;  -58.850; -373.000; -373.000
913.970;  -62.325;  -96.000; -292.000
914.211;  -66.425; -160.000; -198.000
914.452;  -61.875; -118.000;  -11.000
914.693;   32.275;  510.000;  592.000
914.934;   13.275;  510.000;  440.000
915.175;  -60.075;   53.000;  -95.000
915.415;  -69.675; -137.000;   27.000
915.656;  -61.250;  -28.000;  192.000
915.897;  -83.325; -252.000;  -82.000
916.137;  -53.650;   74.000;   -9.000
916.378; -121.725; -573.000; -517.000
916.619;  -81.825; -159.000;  -63.000
916.859;  -35.850;  303.000;  330.000
917.100;  127.775; 1655.000; 1070.000
917.340;   55.350;  930.000;  728.000
917.581;   46.925;  965.000;  789.000
917.821;   -7.200; -171.000;  143.000
918.061;   59.000; -199.000;  -72.000
918.302;  -30.300; -152.000; -211.000
918.542;    7.125;  -22.000;    3.000
918.782;   67.150;  369.000;  377.000
919.023;  182.000;  360.000;  427.000
919.263; 1501.350; 8131.000;  202.000
919.503; 1796.975; -137.000;  -54.000
919.743;  924.775;  390.000;  266.000
919.983;  505.275; -134.000;  -26.000
920.223;  149.400;  135.000;   14.000
920.463;  195.075;  631.000;  554.000
920.703;  188.550;   84.000;   39.000
920.943;  265.550; -110.000;   90.000
921.183;  327.100; -414.000; -405.000
921.423;  646.800;  307.000;  546.000
921.663;  947.825; -174.000; -257.000
921.903; 1945.875;  237.000;  173.000
922.143; 9917.400;  372.000;  389.000
922.383;41613.825;  158.000;  115.000
922.622;18490.225; -120.000;  -15.000
922.862; 1906.350;  796.000;  785.000
923.102;  694.425;  -51.000;   33.000
923.341;  316.075;   59.000;   74.000
923.581;  142.225;  450.000;  360.000
923.821;   62.900;  301.000;  398.000
924.060;   30.150;  351.000;  193.000
924.300;  -28.875;  -16.000; -128.000
924.539;   -2.275;  584.000;  473.000
924.779;   14.700;  812.000;  597.000
925.018;  -40.825;  247.000;  353.000
925.257;   -2.050;  595.000;  666.000
925.497;  -20.025;  447.000;  412.000
925.736;  -53.075;  -35.000;  102.000
925.975;   -6.425;  687.000;  669.000
926.214;   22.825;  907.000;  850.000
926.454;   19.125;  706.000;  757.000
926.693;  -24.425;  419.000;  543.000
926.932;   45.375; 1021.000;  825.000
927.171;   71.400; 1107.000; 1044.000
927.410;   57.150; 1144.000;  967.000
927.649;   38.975;  924.000;  742.000
927.888;   -3.250;  590.000;  564.000
928.127;    0.075;  680.000;  678.000
928.366;   37.600;  842.000;  826.000
928.605;   45.075;  831.000;  737.000
928.844;  266.275; 1451.000; 1393.000
929.083;  853.500;  770.000;  613.000
929.321;  510.275; 1335.000; 1359.000
929.560;   96.975; 1158.000; 1122.000
929.799;  -15.175;  574.000;  475.000
930.038;   82.625; 1025.000; 1394.000
930.276;  -52.450;  334.000;  397.000
930.515;    3.100;  827.000;  681.000
930.753;  -24.125;  614.000;  589.000
930.992;  -22.825;  664.000;  717.000
931.230;   -3.225;  847.000;  847.000
931.469;  156.275; 2162.000;  892.000
931.707;   69.850;  840.000;  751.000
931.946;   76.275; 1278.000; 1344.000
932.184;   49.350; 1437.000; 1175.000
932.423;   54.550; 1265.000;  963.000
932.661;  103.475; 1296.000; 1428.000
932.899;   43.775;  987.000;  821.000
933.137;   17.900;  754.000;  564.000
933.376;  172.100; 1664.000; 1335.000
933.614;  188.525; 1759.000; 1196.000
933.852;   61.050; 1357.000; 1171.000
934.090;  123.300; 1722.000; 1747.000
934.328;  128.675; 1252.000; 1457.000
934.566;  116.400; 1431.000; 1110.000
934.804;  167.875; 1263.000; 1309.000
935.042;  544.625; 1861.000; 1850.000
935.280; 2224.125; 2088.000; 2063.000
935.518; 2548.625; 2113.000; 2007.000
935.756;  517.650; 2481.000; 2316.000
935.994;  193.000; 1808.000; 1751.000
936.231;  378.350; 2890.000; 2950.000
936.469;  198.475; 2367.000; 2378.000
936.707;  176.125; 2220.000; 2167.000
936.945;  227.425; 2825.000; 2882.000
937.182;  207.325; 2679.000; 2741.000
937.420;  326.925; 3602.000; 3031.000
937.657;  457.875; 3365.000; 3478.000
937.895;  404.300; 3331.000; 3488.000
938.133;  308.050; 3540.000; 3528.000
938.370;  336.100; 3896.000; 4191.000
938.607;  388.000; 4488.000; 4205.000
938.845;  531.500; 5587.000; 5549.000
939.082;  504.875; 5387.000; 5177.000
939.320;  520.900; 5799.000; 5728.000
939.557;  641.625; 6549.000; 6491.000
939.794;  703.650; 7285.000; 7097.000
940.031;  901.000; 8421.000; 8368.000
940.269; 1168.750; 9552.000; 9107.000
940.506; 1145.800;10901.000;10507.000

