
Integration time [ms]: 200.000
Averaging Nr. [scans]: 10
Smoothing Nr. [pixels]: 0
Data measured with spectrometer [name]: 2101013U2
Wave   ;Sample   ;Dark     ;Reference
[nm]   ;[counts] ;[counts] ;[counts] 

394.013;   91.965; -450.257; -315.536
394.305;  481.362; -461.258; -419.536
394.596; 1917.314; -676.269; -527.514
394.887; 4264.038; -796.268; -654.518
395.178; 1721.081;  145.736;   11.476
395.470;  173.397; -210.263; -356.526
395.761;  444.959;  305.734;  394.479
396.052;  799.034; -545.284; -306.489
396.343;  759.834; -557.276; -454.503
396.634;  223.989; -200.279; -290.497
396.926;  240.034; -618.268; -565.517
397.217;  276.141;   11.725;  -17.504
397.508;   95.864; -366.273; -154.507
397.799;   76.289; -555.279; -571.497
398.090;  -27.519; -973.280; -902.495
398.381;  277.926;   11.708;  -11.473
398.672;  -21.372; -585.292; -742.473
398.963;  108.698; -348.279; -373.498
399.254;  216.441;   54.709; -209.475
399.545;  -57.346;-1017.266; -883.520
399.836;  100.018; -407.277; -343.501
400.127;   95.992; -205.295; -209.468
400.418;   97.656; -423.274; -392.506
400.709;  154.763; -359.281; -333.493
401.000;  110.547; -268.291; -309.476
401.290;  219.901;  225.698;  115.545
401.581;  112.009; -166.286; -228.485
401.872;   57.152; -542.298; -486.462
402.163;   76.382; -313.296; -252.467
402.454;  167.842; -123.291; -163.475
402.744;  111.069; -844.297; -813.465
403.035;  777.614; -226.293;  -86.471
403.326; 1011.532; -366.292; -384.474
403.617;  650.244;  204.701;  165.539
403.907;  364.042; -593.283; -679.490
404.198; 3845.435; -545.307; -599.446
404.489; 9984.249; -618.283; -588.491
404.779; 3532.806; -618.302; -660.456
405.070;  450.876;  -67.304; -174.451
405.360;  588.817; -259.293; -238.472
405.651;  659.522;  125.699;   98.542
405.942;  375.002;  209.714;  127.516
406.232;  538.323; -432.285; -413.487
406.523;  999.006;  641.706;  758.530
406.813;  203.906; -579.286; -644.484
407.104;  674.025;  261.708;  144.527
407.394;  369.946; -604.299; -591.462
407.685;  322.522;  336.715;  222.513
407.975;  107.547; -400.283; -382.490
408.265;  184.163; -134.289; -190.478
408.556;  107.937; -472.291; -459.475
408.846;  325.108;  474.706;  429.530
409.137;  149.275;   -1.288; -216.480
409.427;  124.323; -193.285; -271.487
409.717;   44.268; -776.273; -692.508
410.007;  291.714;    4.715; -170.486
410.298;  145.996; -360.295; -342.469
410.588;  111.219; -495.285; -510.486
410.878;   23.591; -792.287; -873.482
411.168;  197.356; -481.298; -478.463
411.459;  176.040; -295.283; -242.489
411.749;  106.735; -609.292; -507.474
412.039;   58.072; -755.289; -386.480
412.329;  383.108;   40.722;  132.501
412.619;  357.206;  -62.286; -148.485
412.909;  695.867;  639.711;  594.521
413.199;  574.582; -130.280; -251.495
413.490;  776.053;  521.710;  352.523
413.780;  190.687;-1013.279; -913.496
414.070;  613.036;  -46.276;  235.497
414.360;  624.303; -729.278; -666.498
414.650;  666.785; -726.288; -688.482
414.940;  847.186; -538.280; -441.496
415.230; 1486.581;   50.712;   74.519
415.520;10112.113;  155.730;   66.486
415.809;38388.662; -305.281; -125.493
416.099;30285.222; -388.277; -229.501
416.389; 8104.452;  435.726;  236.494
416.679; 4831.103;   91.738;   85.473
416.969;  868.597; -527.287; -503.483
417.259; 1042.390;  341.721;  171.503
417.549; 1214.760;  522.718;  318.508
417.838; 2650.837; -205.268; -147.518
418.128; 8545.261;  650.710;  492.522
418.418; 7275.177; -491.272; -579.509
418.708; 5014.853;    9.726;  -48.506
418.997;17952.547; -474.275; -480.505
419.287;18893.662; -733.273; -790.507
419.577;17720.938; -160.283; -123.489
419.866;56830.919; -588.277; -498.501
420.156;59044.707; -242.270;  -55.513
420.446;11555.792; -112.263;  -26.526
420.735; 1500.298; -376.271; -446.512
421.025; 1599.202; 1830.722;  315.502
421.314; 1240.795; -203.271; -226.512
421.604; 2708.526;   89.732;  233.484
421.893; 1513.090; -705.271; -602.511
422.183;  433.092; -487.263; -461.526
422.472;  670.492;  -36.271; -107.511
422.762;  783.363; -416.266; -379.521
423.051;  419.536; -916.276; -916.503
423.341;  498.165; -491.273; -439.507
423.630;  694.871; -121.265;   15.477
423.919;  687.746;   58.725;   49.495
424.209;  643.900;  -31.263;   56.473
424.498;  836.733;   68.732;  161.483
424.787; 1684.742; -535.267; -601.518
425.077; 5330.869;   34.735;   29.478
425.366; 7579.808; -734.262; -744.528
425.655;15340.766;  639.727;  259.493
425.945;31478.093; -313.247; -268.554
426.234;18324.241;  117.741;  300.467
426.523; 8026.548;  -86.259; -350.534
426.812;11051.157;  107.734;  159.480
427.101;16121.321; -127.269; -323.515
427.390;20217.512;  -55.270;  -86.514
427.680; 4924.276; -624.257; -411.538
427.969;  916.292; -330.255; -301.540
428.258;  543.364; -385.257; -477.536
428.547;  959.683;  449.728;  397.490
428.836; 2153.815; -421.253; -398.543
429.125; 3151.251; -199.259;  -72.534
429.414; 1437.247; -330.251; -294.548
429.703; 4984.047; -231.251; -213.548
429.992;14444.953; -938.250; -828.549
430.281; 9759.782; -397.264; -331.524
430.570; 1077.034;  -21.252;   32.454
430.859; 1131.947;  279.741;  352.466
431.148;  894.387;  636.752;  631.446
431.437;  565.933;  391.748;  367.454
431.725;  240.166; -544.257; -481.536
432.014;  166.225; -845.253; -756.545
432.303;  657.796; -149.239; -105.569
432.592; 1060.591; -460.263; -178.525
432.881; 1648.489; -601.248; -437.554
433.169; 9516.993; -343.255;  -61.540
433.458;19065.044;  445.765;  540.424
433.747; 8412.916; -397.261; -289.529
434.036; 1523.161; -275.242; -280.564
434.324; 3397.370; -395.249; -379.551
434.613; 5693.252;   40.757;  159.437
434.902; 2072.281;  333.760;  439.433
435.190; 1118.094;   75.761;  295.431
435.479;  634.726;  -52.245;   83.441
435.767;  233.437; -411.244; -427.561
436.056;  391.655; -340.242; -294.563
436.345;  607.385; -372.240; -223.568
436.633;  706.264;   60.750;  383.450
436.922;  516.788;  208.760;  414.432
437.210; 1159.230; -194.236;    1.426
437.499; 3681.241; -583.235; -432.576
437.787; 4121.229; -339.236;  -10.574
438.075; 1050.602;   56.761;  162.430
438.364; 1372.406;  -44.238;  250.429
438.652;  841.056; -286.226; -138.592
438.941;  278.304;    3.770;  269.415
439.229;    6.230; -665.252; -466.545
439.517;  108.553; -160.234;  -85.577
439.806;    3.078; -501.225; -290.595
440.094;  352.364;  377.766;  650.421
440.382;  317.470; -653.233; -302.580
440.670;  358.841; -361.235; -285.576
440.959;   27.703; -347.223; -170.599
441.247;  192.120; -151.229; -109.587
441.535;  195.651; -266.235;   31.423
441.823;   67.660; -497.234; -305.578
442.111;  349.727;  173.771;  327.412
442.400;  920.225; -628.245; -335.559
442.688; 2578.864; -111.234; -620.579
442.976; 1915.329; -786.213; -450.617
443.264;  170.088; -324.224; -364.597
443.552;  221.257; -258.226;   51.408
443.840;  297.049;  602.765;  876.423
444.128;  230.969;  265.767;  269.420
444.416;   -7.070; -694.228; -312.588
444.704;   47.546; -465.219;  -92.605
444.992;  125.061;   -0.226;  240.407
445.280;   68.005; -517.230;  -94.585
445.568;   59.734; -694.212; -396.618
445.856;  666.123; -174.221;  357.398
446.143; 1366.540;  -54.220;   -7.604
446.431; 1172.736;  -25.228;  625.411
446.719;  470.973;  489.783;  675.391
447.007;  371.897;  481.769;  705.416
447.295;  366.799;  597.777;  871.402
447.583;  150.817; -464.229;  -34.587
447.870;  253.618; -434.221; -202.601
448.158;  754.503; -104.230;  129.415
448.446;  534.642; -800.219; -338.604
448.733;  314.790;   13.776;  269.403
449.021;  470.133;   60.788;  341.382
449.309;  342.055; -296.210;  208.379
449.596;  399.268;  128.783;   59.392
449.884;  239.009; -571.222; -325.600
450.172;  189.343; -756.227; -406.590
450.459;  728.805;  645.786;  780.387
450.747; 3424.566; -411.218; -147.608
451.034;11034.137;  493.772;  889.411
451.322; 9335.109; -413.214; -170.614
451.609;  836.592;  292.777;  508.403
451.897;  880.945; -550.203; -183.634
452.184; 2640.299; -622.223; -400.598
452.472; 2617.986;   97.792;  269.375
452.759;  611.343;  512.781;  864.395
453.047;  228.530; -407.212; -125.617
453.334;  145.254; -732.219; -216.606
453.621;  195.313; -438.214; -161.615
453.909;  264.534;   13.796;  384.368
454.196;  195.899; -299.199; -123.641
454.483;  409.964;  317.798;  540.364
454.771;  229.890; -215.208;  196.374
455.058;   94.695; -316.207;  102.374
455.345;  196.378;   71.807;  344.347
455.632;  164.599; -128.207;  235.373
455.919;   96.731;  -82.196;  182.354
456.207; -117.395; -774.198; -450.642
456.494;  -25.219; -475.200;  -66.639
456.781;   33.058; -399.202; -198.635
457.068;  123.709; -253.206;  -29.628
457.355;   -6.490; -698.206; -401.629
457.642;    9.118; -552.205; -290.630
457.929;  -21.635; -778.194; -417.651
458.216;  105.230; -575.212; -354.617
458.503;  375.572; -173.193;  -19.652
458.790;  291.787; -864.208; -630.625
459.077;  445.365;  -77.202;  110.364
459.364; 1215.455; -350.195; -210.649
459.651; 2550.506;  -46.206;  220.372
459.938; 1177.473; -864.209; -665.623
460.225;  277.069;  132.799;  276.363
460.512;  -99.873; -836.197; -688.645
460.799;  204.264;  -32.218;  320.392
461.086;  106.888; -370.200; -251.640
461.372;   70.106; -509.198; -279.642
461.659;  200.033; -165.196;  108.354
461.946;  104.570; -445.193;  -54.651
462.233;  449.584;  842.800;  888.361
462.519;  506.880; -814.201; -464.639
462.806; 1421.628; -768.197; -497.645
463.093; 1380.299; -445.191;  -66.656
463.380;  -79.742; -920.186; -824.664
463.666;  131.430; -259.197;  -18.646
463.953;  163.447; -406.195; -243.648
464.239;  275.147; -173.195;  -77.648
464.526;  652.363;  413.806;  743.350
464.813;  541.616; -565.190; -304.658
465.099;  628.771;  606.807;  607.348
465.386;  666.277;  903.807;  921.348
465.672;   53.828; -694.197; -522.645
465.959;   56.842; -598.188; -520.662
466.245;   60.377; -468.193; -359.652
466.532;  197.144; -109.195;   63.352
466.818;  172.558; -357.186; -216.664
467.104;   29.916; -488.182; -415.672
467.391;  -43.381; -628.189; -459.658
467.677;   91.763; -289.186;    9.335
467.964;    4.128; -682.189; -471.660
468.250;  128.367; -331.186; -160.665
468.536;  185.520;   90.811;  180.341
468.822;  -43.316; -821.184; -574.668
469.109;  344.331;  351.827;  471.311
469.395;  396.291;  729.808;  787.346
469.681;  353.825;   46.811;  156.341
469.967; 1915.131; -699.188; -382.660
470.254; 3999.043; -494.188; -306.662
470.540; 2641.231; -601.196; -476.646
470.826;  376.431; -488.181; -397.675
471.112;  516.889;  288.816;  113.331
471.398;  152.896; -253.183;  -58.670
471.684;   40.772; -626.177; -447.680
471.970;  -49.163; -918.180; -981.675
472.256;   37.889; -521.192; -441.654
472.542;   12.947; -499.171; -434.691
472.828;   36.510; -743.182; -607.672
473.114;   62.209; -380.166; -283.700
473.400;   48.296; -504.175; -293.684
473.686;   70.518; -452.166; -400.701
473.972;  126.317; -230.174; -131.687
474.258; -122.869; -925.173; -843.689
474.544;  343.960; -183.178;   -2.679
474.830;  481.598;  -65.175;   45.316
475.116;  695.018; -123.190; -196.658
475.401;  860.340; -558.180; -467.676
475.687;  231.639; -725.180; -718.676
475.973;    8.521; -673.181; -770.673
476.259;  489.301;  736.825;  764.315
476.544;  502.483; -539.176; -437.682
476.830; 1195.441; -398.172; -322.690
477.116; 1033.382; -430.177; -336.682
477.401;  270.039;  346.820;  358.324
477.687;  -21.104; -289.175; -405.684
477.973;  110.726;   21.819;   28.326
478.258;  -13.953; -448.163; -348.706
478.544;  124.675;   21.815;   61.334
478.829; -101.045; -818.171; -738.692
479.115;  -59.359; -749.172; -651.690
479.401;  -33.790; -444.174; -449.686
479.686;   59.638; -253.180;  -74.676
479.972;  -87.833; -886.178; -776.680
480.257;   83.411; -258.166;  -65.700
480.542;  -23.540; -614.170; -469.693
480.828;  534.893; 1288.824; 1392.317
481.113;  -54.710; -464.176; -426.683
481.399;   16.182; -236.161; -202.711
481.684; -100.890; -620.166; -462.700
481.969;   61.001; -158.159;  -73.713
482.255;  -34.324; -439.169; -285.695
482.540;  -38.432; -569.178; -441.680
482.825;   -4.149; -395.187; -404.663
483.110;  187.380;  -85.169; -105.696
483.396;  211.732; -840.157; -652.718
483.681;  766.317;  543.826;  730.313
483.966;  206.492; -696.160; -700.712
484.251;   39.515; -404.174; -310.687
484.536;   22.326; -356.165; -378.703
484.822;   48.020; -205.173; -218.687
485.107;  -30.214; -599.152; -502.726
485.392;  304.534;  662.836;  541.296
485.677;  145.494;  354.832;  163.302
485.962;  242.128;  160.843;  270.283
486.247;  194.559;  -14.162;   -8.707
486.532;   60.113; -178.166; -325.701
486.817;  329.473;  381.839;  431.291
487.102;  158.462; -453.154; -514.722
487.387;  905.834; -637.156; -652.718
487.672; 1701.841; -154.164;  -38.705
487.957; 1071.684; -394.160; -286.711
488.241;  301.310; -290.150; -314.729
488.526; 1043.888; -280.152; -148.726
488.811; 1637.871; -881.177; -818.680
489.096; 1235.466; -666.154; -702.723
489.381;  729.683;    3.847;  162.275
489.666;  503.281; -428.161; -510.710
489.950;  360.270;  558.846;  627.277
490.235;  -46.097; -480.151; -458.728
490.520;  -69.520; -756.161; -723.710
490.804; -117.263; -827.156; -736.719
491.089;    9.933; -469.149; -299.732
491.374;   63.739; -132.164;  -75.704
491.658;  -14.751; -817.147; -717.735
491.943;  249.694; -657.152; -609.727
492.227;  398.756; -178.155;  -38.721
492.512;  102.427; -294.157; -341.717
492.797; -130.776; -713.149; -716.731
493.081; -107.047; -588.147; -598.735
493.366;  -80.118; -751.161; -635.711
493.650;  377.429;  831.859;  917.254
493.935;   13.448; -648.147; -447.734
494.219; -107.489; -778.142; -687.743
494.503;  -73.583; -585.150; -487.730
494.788;   80.116;   46.842;   74.285
495.072;  202.412;  184.850;  434.271
495.356;  246.337; -463.148; -343.733
495.641;  689.463; -812.146; -736.736
495.925;  656.844; -976.156; -903.719
496.209;   94.032; -599.149; -451.732
496.494;  -51.988; -763.142; -544.744
496.778;   25.962; -364.154; -360.722
497.062; -119.856; -819.156; -627.719
497.346;  -72.914; -869.160; -640.711
497.631;  305.842;  580.852;  560.266
497.915;  152.078;  -64.145;  175.261
498.199;  113.432; -341.157; -277.718
498.483;   73.486; -562.152; -508.725
498.767;  358.614;  301.850;  300.271
499.051;  269.529; -126.149; -100.732
499.335;   22.026; -693.149; -739.731
499.619;  -50.626; -381.129; -423.767
499.903;   72.954; -272.155;  -65.721
500.187;   46.272; -588.153; -316.724
500.471;   -3.907; -796.152; -595.727
500.755;  198.380;   62.839;  -96.710
501.039;   50.055; -270.155; -357.721
501.323;  194.932;  -21.141;  264.254
501.607;   58.248; -447.163; -503.706
501.891;    7.534; -607.156; -512.718
502.174;  -66.506; -726.144; -585.741
502.458;  166.499;   89.849;  370.273
502.742;   63.566; -180.138; -191.751
503.026;  163.948; -412.147; -254.734
503.310;  210.799; -437.159; -375.713
503.593;  159.150; -464.147; -325.735
503.877;  197.924; -232.133; -156.760
504.161;  326.376;    2.847;  -50.724
504.444;  118.119; -841.158; -710.716
504.728;  637.338; -487.164; -522.704
505.012; 1024.509; -257.150;  -76.729
505.295;  804.682; -417.161; -212.711
505.579;  790.343; -256.156; -496.719
505.862; 1045.972; -555.145; -333.738
506.146;  948.903; -681.159; -758.714
506.429;  713.803;  568.841;  461.286
506.713;   74.505; -732.151; -667.728
506.996;  503.861;   90.846;  295.278
507.280;  438.531; -633.165; -474.703
507.563;  371.252; -469.155; -261.721
507.847;  122.773; -423.153; -112.724
508.130;   96.783; -665.161; -456.711
508.413;  110.305; -758.167; -577.700
508.697;  389.705; -151.167;   12.300
508.980;  256.275; -422.153; -312.724
509.263;  -43.153; -466.155; -450.720
509.547;   79.109; -124.150;   82.271
509.830;  112.986; -172.160;  140.289
510.113;  169.443;  128.844;  298.281
510.396;   49.484; -530.152; -300.725
510.680;  252.274; -818.145; -812.738
510.963; 1237.768;  184.846;  180.277
511.246; 1025.620; -493.150; -357.730
511.529;  457.681; -482.145;  -83.739
511.812;  562.619; -250.134;   10.241
512.095;  327.601; -740.151; -396.728
512.378;   94.156; -317.147; -245.736
512.661;   24.477; -703.137; -623.753
512.944;  -32.786; -750.142; -637.744
513.227;  111.273; -170.137; -171.752
513.510;   36.194; -479.144; -671.741
513.793;   12.138; -485.140; -435.747
514.076;  201.104;  -43.127;  -39.771
514.359;  212.033; -294.149; -135.732
514.642;  106.418; -442.142; -567.744
514.925; 1188.836;  581.860;  561.253
515.208; 1363.913; -498.134; -443.758
515.491;  922.633; -276.133; -182.761
515.773;  524.999; -410.143; -337.742
516.056; 2959.186;  249.864;  409.246
516.339; 3872.092; -754.136; -652.755
516.622; 3024.817; -518.150; -488.730
516.904; 2283.909;  882.857;  975.257
517.187; 1001.871; -730.138; -523.752
517.470;  621.907; -568.143; -510.743
517.752;  583.996; -624.136; -470.756
518.035;  416.853; -708.139; -725.749
518.318;  486.192; -799.136; -744.755
518.600; 3224.038; -300.132; -325.762
518.883; 4463.017;  310.858;   88.256
519.165; 2217.161; -585.138; -426.751
519.448;  586.638;  -61.132;  -19.762
519.730;  288.415; -573.126; -415.773
520.013;  633.128;  588.867;  664.240
520.295; 1510.821;  -94.134;  -15.759
520.578; 3180.556; -335.131; -305.764
520.860; 3540.638; -254.132;   56.238
521.143; 1818.899; -763.135; -584.756
521.425;  706.933; -251.125; -279.775
521.707;  969.804; -622.127; -380.771
521.990; 2501.005; -199.127;  167.229
522.272; 2813.640; -116.140;   -4.748
522.554; 1369.700; -237.143; -157.742
522.836;  655.718;  -24.134;   99.241
523.119;  363.546; -496.148; -189.734
523.401;  224.066; -448.130; -314.766
523.683;   96.877; -865.137; -693.753
523.965;  457.968;  408.862;  260.248
524.247;  373.663;   54.878;  170.220
524.529;  291.821; -451.134; -367.759
524.812;  536.369;   -3.130;  191.234
525.094; 1138.367; -773.138; -631.751
525.376; 1830.446; -143.124;   78.223
525.658; 1146.788; -441.136; -339.754
525.940;  -26.248; -805.131; -671.764
526.222;   41.693; -188.136;  -88.755
526.504;  217.349; -190.131;   32.237
526.786;  279.425; -960.133; -647.760
527.068;  498.154; -124.123;  -67.778
527.349;  219.283; -865.137; -774.754
527.631;  182.438; -137.132;   22.238
527.913;  150.003; -664.127; -450.771
528.195;  170.023; -761.125; -639.774
528.477;  372.714;  -93.134;  -30.758
528.759;  126.069; -648.130; -522.766
529.040;   82.552; -569.123; -293.778
529.322;   69.827; -235.125;  -10.774
529.604;  255.272;  -47.130;   93.233
529.886;  199.814; -546.126; -302.773
530.167;  220.760;  232.870;  192.235
530.449;   68.855;    1.853;   63.265
530.731;   34.262; -572.122; -459.779
531.012;   70.792; -513.120; -216.784
531.294;  131.148; -118.116;  -43.792
531.575;  276.133;  290.875;  538.225
531.857;   63.306; -548.135; -266.757
532.138;  143.730; -113.141;   40.254
532.420;  320.201;  294.865;  403.244
532.701;  317.628; -722.133; -751.760
532.983;  580.132;  232.867;  182.239
533.264;  211.311; -243.126;  175.228
533.546;  -68.008; -491.136; -508.755
533.827;   74.123;  173.867;   -1.759
534.109;   75.306; -352.135;  -80.757
534.390;  133.743; -725.132; -582.762
534.671;  386.501; -270.135;  -82.756
534.953;  155.356; -751.123; -611.779
535.234;   33.326; -426.117; -255.789
535.515; -154.696; -891.119; -735.785
535.796;  -18.503; -431.128; -193.770
536.078; -259.855;-1050.124; -904.777
536.359;   32.757;  -22.123;    3.221
536.640;  -53.175; -480.125; -197.774
536.921;  303.080;  225.871;  143.232
537.202;  495.963;  -87.138;  -16.751
537.483;  707.756;  251.869;  377.236
537.764;  278.860;   17.870;   98.235
538.045;  -63.688; -543.134; -371.758
538.326;  -62.918; -596.129; -447.768
538.607;  -14.294; -686.127; -476.771
538.888;  267.179;   98.879;    5.218
539.169;  226.471; -704.122; -535.781
539.450;  489.978;  236.871;   16.233
539.731;  341.385; -361.121; -182.783
540.012;  199.292;  199.880;  412.216
540.293;  159.638;   82.876;  158.224
540.574;  -62.123; -895.113; -717.796
540.855;  719.782;  435.879;  377.218
541.136;  788.967;   47.878;  139.220
541.416;  413.470; -161.130; -220.766
541.697;  269.549; -274.131; -170.763
541.978; 1436.404; -270.135; -315.757
542.259; 1762.905; -211.127; -236.771
542.539;  898.539; -191.116; -186.790
542.820;  329.932;  461.875;  480.225
543.101;  222.677;  -52.145;  -77.738
543.381;    6.005; -638.127; -591.771
543.662;  396.701;  159.873; -254.771
543.942;  754.999; -751.127; -830.770
544.223; 1506.470;  193.878;  161.219
544.504;  928.545; -275.124; -182.777
544.784;  856.714; -592.126; -408.773
545.065; 2296.844;  104.884; -254.791
545.345; 2718.704;  227.881;   14.215
545.626; 1751.076;  -14.113; -108.796
545.906; 1182.059;   77.869;   98.235
546.186;  499.621;   92.874;  -95.773
546.467;  333.149;   99.877;  -95.778
546.747;  483.339;  264.884;  327.210
547.027;  562.843;   91.876;  111.223
547.308;  427.698; -376.127; -530.770
547.588;  579.283;  299.871;  371.232
547.868;  327.261;  458.870;  588.235
548.149;  389.255;  609.885;  593.207
548.429;  174.603; -347.127; -299.771
548.709;  230.591; -645.120; -461.784
548.989;  624.518;   84.882;   88.213
549.269; 2869.036;   10.868;  139.239
549.550; 6333.455;  215.877;  117.222
549.830; 5726.902; -758.111; -556.799
550.110; 1213.513; -468.110; -320.801
550.390; 1137.962; -128.122;  -56.779
550.670; 1466.370; -868.114; -783.795
550.950; 1117.682; -509.121; -471.782
551.230;  329.377;  549.879;  460.218
551.510;    2.280; -381.121; -326.782
551.790;   30.624; -173.109; -127.803
552.070;  508.549;  940.877; 1181.223
552.350;  490.910; -492.119; -377.786
552.630;  806.973;   -2.121;   77.219
552.909;  506.845;  181.884;   73.209
553.189;  381.245;  -49.132;   33.237
553.469;  208.909; -703.119; -514.786
553.749;  241.607; -469.127; -357.772
554.029;  218.232;   33.883;  -24.790
554.308;  172.261; -154.115;  -37.794
554.588;   76.696; -196.128; -204.770
554.868;   75.783; -366.121;  -47.782
555.147;  205.657; -114.115;  -46.793
555.427;  843.148; -260.116; -250.792
555.707; 5243.254; -284.115; -200.793
555.986; 6079.207; -719.111; -538.800
556.266; 3359.337;   23.884;   72.210
556.546;   86.280; -888.121; -675.782
556.825;  292.467; -657.114; -556.794
557.105; 2391.593; -125.128;   17.230
557.384; 2790.943;  122.884;  187.209
557.664; 1039.047; -717.116; -508.792
557.943;  133.682; -557.121; -411.782
558.222;  189.622; -345.118; -344.788
558.502;  364.959; -116.115;  -76.793
558.781;  694.552;  194.885;  499.208
559.061;  541.322; -232.118; -227.788
559.340;  440.129;  302.883;  353.211
559.619; 1000.037;   93.884;  148.210
559.899; 1340.931; -239.117; -266.789
560.178; 1246.558; -778.115; -593.793
560.457; 4312.734; -623.117; -562.790
560.736; 5664.908; -472.111; -482.800
561.015; 3987.490; -500.128; -502.769
561.295;  539.052;  180.893;  215.193
561.574;  533.355;  119.885;  116.207
561.853;  705.630;  274.891;  303.197
562.132;  747.962;  -45.114;  182.206
562.411;  657.874;  396.879;  553.219
562.690;  174.352; -592.115; -458.792
562.969;  275.286;  472.888;  630.203
563.248;  982.571; 2966.878; 2487.219
563.527;  330.607; -290.111; -408.800
563.806;  466.903; -650.127; -521.771
564.085;  565.474; -297.105; -206.810
564.364;  309.136; -594.117; -405.790
564.643;  730.574; -276.121; -223.781
564.922; 2535.121;  221.890;  397.198
565.201; 2420.326; -640.109; -700.803
565.479; 1083.450; -297.115; -219.792
565.758;  365.693; -810.128; -712.770
566.037;  644.528; -155.109; -100.803
566.316;  301.344; -286.116;  -28.791
566.595;  106.154;  -17.115;  -12.793
566.873;  162.110; -166.111;  -79.801
567.152;  -81.414; -490.113; -590.797
567.431;   43.538; -113.116;    6.210
567.709;   19.253; -344.107; -212.807
567.988;  272.667; -810.114; -769.794
568.266;  710.254; -160.115;  -68.793
568.545;  498.541; -644.100; -514.819
568.824;  812.049;  160.885;  356.208
569.102;  654.466; -351.114; -235.794
569.381;  286.148; -492.116; -407.792
569.659; -106.820; -553.113; -553.796
569.938;    2.168; -743.122; -465.780
570.216;  160.932; -225.109; -225.804
570.494;  -62.929; -632.114; -572.795
570.773;   97.680;  202.879;  114.218
571.051;   15.653; -373.123; -357.778
571.330;   68.477; -221.113; -174.796
571.608;   76.267; -181.098; -173.823
571.886; -162.601; -671.111; -581.799
572.164; -181.817; -739.121; -621.782
572.443;  -68.021; -562.105; -512.811
572.721;  -78.866; -399.117; -289.790
572.999;  -53.875; -280.117; -168.788
573.277;  187.770;  379.894;  620.191
573.555;  423.473;   94.894;   37.190
573.834; 1787.724;  -86.117; -114.788
574.112; 2113.356;  880.893;  811.193
574.390;  669.209; -143.111;  -96.801
574.668;   33.787;  -91.112;  -61.797
574.946;   18.373; -165.106; -187.810
575.224;   42.026;   71.891;  -16.803
575.502;  -27.159; -200.116; -204.791
575.780; -174.511; -767.112; -829.798
576.058;  353.708; 1589.889; 1004.200
576.336;  -20.284; -210.110; -129.801
576.614;  -96.411; -511.112; -340.798
576.891;   32.660; -711.115; -823.794
577.169;  633.843; -158.108; -285.805
577.447;  790.655;  169.893;  202.193
577.725;  445.796;  629.888;  854.201
578.003;    8.793;  -71.112; -371.798
578.280;  148.592; -208.104; -242.812
578.558;   58.559; -450.115; -422.793
578.836;  190.471; -210.114; -145.795
579.114;   17.087; -630.112; -670.797
579.391;  142.027;   -6.117;  -18.789
579.669; -154.838; -595.114; -704.794
579.947;  236.151; -326.107; -127.806
580.224;  378.050; -692.107; -524.806
580.502;  424.356;  127.893;   76.193
580.779;   30.335;  -42.117;   75.210
581.057; -114.868; -584.109; -470.804
581.334; -191.287; -726.102; -695.815
581.612;  108.874;   54.895;  511.190
581.889;  -48.268;  -83.101; -129.818
582.167;  -52.247; -298.099; -190.821
582.444; -185.476; -845.102; -814.817
582.721;  299.125;  657.899;  715.183
582.999;   89.949; -326.100; -167.821
583.276;  656.459; -812.123; -713.779
583.553;  878.518; -364.102; -294.816
583.831;  292.887; -607.104; -631.812
584.108;  128.640;  349.892;  174.195
584.385;    7.512; -122.102;  -98.815
584.662; -139.789; -651.111; -828.801
584.940;  101.210;  204.889;  204.199
585.217;  -23.620;  -73.113; -303.796
585.494;   61.623;   71.890;  118.198
585.771;  273.733; -250.109; -354.804
586.048;  651.480; -196.113;  -76.796
586.325;  362.114; -721.110; -773.801
586.602;  178.893;  230.896;  213.188
586.879; -101.556; -499.100; -580.820
587.156;   42.876; -156.105; -331.810
587.433; -109.578; -701.102; -667.817
587.710;  134.290;  152.888;  234.202
587.987;  413.383; -264.105; -236.811
588.264; 1139.092;  315.888;  387.202
588.541; 1894.296;  -61.104;   26.187
588.818; 3654.337;   72.892;  171.196
589.095; 3127.490; -163.104; -174.812
589.371;  514.730; -459.109; -414.804
589.648;  -13.344; -581.107; -437.807
589.925;   16.072; -517.114; -621.795
590.202;  -19.611; -741.112; -607.798
590.478;  146.786; -166.105;  -73.811
590.755;  378.045; -241.108; -132.806
591.032; 3325.718; -741.110; -699.802
591.308; 4307.824; -732.094; -790.831
591.585; 2367.917; -573.110; -560.802
591.862;  102.624;-1056.102; -950.817
592.138;   58.242; -475.108; -474.805
592.415;  201.194; -486.104; -495.813
592.691; 2143.291;  460.896;  518.188
592.968; 2445.569; -208.098; -123.824
593.244; 1226.538; -695.116; -595.790
593.521;  123.024; -105.102;  -42.817
593.797;  -93.236; -810.122; -720.780
594.074;  405.887; -611.096; -588.826
594.350;  989.503;  828.905;  729.172
594.626;  423.311; -303.111; -283.801
594.903;  143.625; -643.101; -645.817
595.179;  307.399;  243.896;  418.187
595.455;   43.658; -136.107; -150.807
595.731;   66.001;  -19.103;  -38.814
596.008;  -54.597; -464.111; -434.800
596.284;   43.647; -187.100; -242.820
596.560;   79.633; -501.093; -493.833
596.836;  278.778; -173.105;  -70.810
597.112;  433.843; -582.108; -437.805
597.388;  374.284;  -49.097;  -48.826
597.665;  227.384;  437.887;  530.203
597.941; -117.725; -572.089; -658.839
598.217;   47.922; -323.110; -293.802
598.493;  342.636;   61.891; -204.804
598.769;  678.339; -175.100;  -50.819
599.045;  348.847; -490.108; -562.806
599.321;   72.546; -193.100; -261.820
599.597;  156.935; -355.109; -476.804
599.872;  686.696;  409.896;  429.187
600.148;  456.487;  -61.097; -172.826
600.424;  460.954;   91.893;  202.193
600.700;  321.457; -170.107; -280.807
600.976;  142.678; -442.097; -464.825
601.252;  352.430; -226.109; -272.803
601.527;  209.697; -833.104; -840.813
601.803;  142.286; -453.105; -404.812
602.079;  221.739; -124.100; -118.819
602.354;  738.747; -620.092; -531.835
602.630; 1082.380; -140.113; -482.796
602.906; 3197.632; -910.101; -863.818
603.181; 8629.709; -627.119; -534.786
603.457; 7498.883;   98.903; -278.826
603.733; 1077.886; -605.120; -626.783
604.008; 1362.074; -245.106; -164.810
604.284; 3915.227; -636.101; -580.817
604.559; 3607.995;   -3.112;  -42.799
604.835;  673.978; -163.105; -225.810
605.110;  497.053; -732.099; -892.821
605.385; 1028.737;  224.907;  267.167
605.661;  820.907; -625.095; -729.829
605.936; 1424.547; -664.108; -737.806
606.211; 1299.011;  -17.103; -170.815
606.487;  249.865; -329.114; -376.794
606.762;  -35.690; -791.119; -745.786
607.037;  -33.422; -501.105; -433.810
607.313; -110.702; -589.096; -574.828
607.588;   10.773; -375.106; -137.810
607.863;   60.432;  -28.101; -143.818
608.138;  347.120;  513.890;  516.198
608.413;   -6.541; -576.099; -592.822
608.688;   55.542; -203.108; -267.805
608.964;  263.165; -509.106; -218.809
609.239;  330.875; -107.105; -212.810
609.514;  414.586;  281.895;  240.188
609.789;  857.092; -187.104; -716.812
610.064; 1115.596; -435.096; -609.827
610.339; 1118.730; -855.109; -799.804
610.614; 1503.146; -131.100; -315.820
610.889;  916.686;  215.895;  107.188
611.163;   27.687; -407.104; -591.812
611.438;   89.966;   81.886; -167.794
611.713;  -10.873; -467.101; -499.817
611.988;   89.430; -144.101; -328.818
612.263; -115.487; -771.102; -717.815
612.538;  356.479;  385.887;  251.204
612.812;  153.248; -832.100; -911.820
613.087;  144.466; -358.098; -338.823
613.362; -113.143; -497.107; -557.807
613.637;  140.105;  261.897;  138.186
613.911;  -29.952; -256.092; -345.835
614.186;  176.955; -249.107; -292.807
614.460;  789.182; -842.081; -758.854
614.735; 1019.808;  -55.087;  -17.843
615.010;  206.094;   43.912;  -82.841
615.284;  418.041;  360.892;  246.195
615.559;  425.446; -792.092; -955.835
615.833;  427.956;  -76.099;  -87.822
616.108;  -21.337; -225.090; -390.837
616.382;  237.811;  274.913;  402.156
616.656;  223.264; -241.090; -232.837
616.931;  638.257; -785.099; -700.822
617.205; 1390.798; -973.104; -979.813
617.480; 1264.930;  -91.125;    6.225
617.754;  200.026; -396.125; -128.774
618.028;   17.384; -369.129; -382.768
618.302;  126.639;   73.892;  -25.805
618.577; -117.693; -371.103; -518.815
618.851; -139.174; -399.109; -600.803
619.125;  -58.679; -335.134; -378.759
619.399;  -50.202; -244.104; -374.813
619.673;  -48.650; -330.115; -515.792
619.947;  -94.730; -333.114; -448.795
620.222;  -12.388; -198.110; -204.801
620.496;   -2.917;  -47.121;  -96.782
620.770;   20.271; -187.122;  -93.781
621.044;  323.976;  323.895;  346.190
621.318;  953.987; -653.120; -614.783
621.592;  836.984; -430.121; -409.783
621.866;  426.497; -476.112; -572.799
622.140;   27.541; -207.116; -356.791
622.413;  144.803;  138.889;  112.200
622.687;  -86.873; -746.101; -492.817
622.961;   82.039; -130.108; -143.805
623.235; -143.196; -633.111; -661.800
623.509; -206.715; -816.105; -848.811
623.783;   -7.648;  -12.107;   48.193
624.056;  -32.112; -254.120; -280.783
624.330;   82.487;   63.888;   -3.797
624.604;  112.036; -271.116; -355.790
624.877;  125.019;  180.890;   26.198
625.151;   48.863; -249.114; -238.794
625.425;  -47.599; -150.103; -283.814
625.698; -100.798; -367.119; -374.785
625.972; -181.078; -799.110; -765.802
626.245;  168.739;  685.884;  484.210
626.519;  -58.106; -426.120; -340.784
626.792;  -55.143; -192.107; -380.807
627.066; -146.439; -485.122; -662.779
627.339; -174.184; -736.110; -663.802
627.613;   70.792;  351.880;  148.216
627.886;  145.725;  187.891; -612.803
628.160;  -23.614;  312.880; -161.783
628.433; -200.366; -695.125; -703.775
628.706; -150.406; -517.120; -615.784
628.979;   87.143;  296.876;  117.223
629.253; -224.892; -785.119; -833.786
629.526;  454.112; -334.126; -253.772
629.799;  381.553; -641.123; -479.778
630.072;  194.686; -497.128; -516.769
630.346; -196.361;-1115.116;-1080.790
630.619;  560.358; -467.107; -545.808
630.892;  887.805;  709.889;  593.200
631.165;  535.998;  790.896;  679.187
631.438; -207.608;-1092.112;-1055.798
631.711;  144.058;  453.877;  257.221
631.984;  -81.468; -523.117; -624.789
632.257; -121.073; -636.117; -681.789
632.530;  -90.598; -412.119; -433.785
632.803;   71.360; -109.115;    7.207
633.076;  -88.851; -360.123; -422.777
633.349;   69.492;  173.872;  121.231
633.622;  -72.000; -187.119; -240.785
633.895; -255.012; -903.120; -823.783
634.167; -133.685; -496.126; -525.773
634.440;   36.548;  -19.116; -137.792
634.713;    2.307;  -22.119; -120.786
634.986;  193.078;  593.871;  453.233
635.258; -142.843; -507.115; -597.793
635.531;  250.821;  742.882; -343.788
635.804;  -48.470; -303.117; -318.789
636.077; -175.258; -830.116; -852.791
636.349;  -50.045; -586.115; -474.793
636.622;  740.911; 1695.874; 1392.228
636.894;  230.794; -474.120; -909.784
637.167;  138.102; -836.127; -789.771
637.439;   34.897; -278.128; -213.770
637.712;  -49.087; -312.126; -293.772
637.984; -160.357; -635.116; -707.791
638.257;  652.349;  515.877;  488.222
638.529;  706.135; -881.125; -924.776
638.802;  332.486; -508.128; -449.769
639.074; -221.830; -927.122; -952.781
639.346; -212.591; -942.135; -930.757
639.619;   21.916;  -79.142; -319.744
639.891;   18.361;  -83.122; -168.779
640.163; -152.137; -689.122; -756.780
640.435;   71.066;  273.878;  103.220
640.708;   20.969;  -72.122; -132.780
640.980;  -42.229; -366.122; -362.781
641.252;  320.274;  -25.121;  -71.781
641.524; 2554.276;  580.879;  573.219
641.796; 2396.979;-1094.121; -907.782
642.068;  447.982; -191.121; -300.782
642.340;  -94.616; -486.121; -566.783
642.613;  130.887;  294.880;  323.217
642.885; -202.011; -787.120; -878.783
643.157;  -95.708; -810.120; -658.784
643.428;   93.095;  170.880;  218.216
643.700; -106.603; -498.120; -425.784
643.972;  -15.900;  -16.119; -133.785
644.244; -155.598; -474.119; -559.785
644.516;  -76.295; -250.119; -114.786
644.788;  198.408;  662.881;  548.214
645.060;   10.510;  -12.119; -124.786
645.332; -155.187; -525.118; -535.787
645.603;  132.316;  479.882;  342.213
645.875;  -99.182; -334.118; -369.787
646.147;  363.221; 1487.882; 1242.212
646.418; -144.677; -931.117; -918.788
646.690;  107.126; -714.117; -715.789
646.962;   -2.471; -413.117; -451.789
647.233;   15.731;   15.883;   11.211
647.505; -160.066; -595.117; -475.790
647.776;   73.536;  328.884;  229.210
648.048;    0.339; -248.116; -418.790
648.320; -155.958; -752.116; -679.791
648.591; -275.056;-1055.116; -958.791
648.862; -151.853; -505.116; -577.792
649.134;   69.350;  115.885;  198.208
649.405;  -93.648; -661.115; -618.792
649.677;  -71.945; -475.115; -598.793
649.948;    0.757; -181.115; -296.793
650.219;    8.760;  -37.115; -147.793
650.491; -126.337; -431.114; -520.794
650.762; -191.835; -705.114; -731.794
651.033; -150.732; -437.114; -424.795
651.304; -181.230; -743.114; -728.795
651.576; -138.127; -680.114; -645.795
651.847;  -40.224; -250.113; -140.796
652.118;  -13.622;  -32.113; -189.796
652.389; -178.719; -639.113; -722.796
652.660;  -31.516; -147.113;  -89.797
652.931; -240.414; -897.112; -871.797
653.202; -158.811; -382.112; -541.798
653.473; -113.309; -633.112; -533.798
653.744;  133.594; -595.112; -590.798
654.015;  176.297; -356.112; -303.799
654.286; -162.301; -642.111; -663.799
654.557;  -85.898; -586.111; -521.799
654.828; -318.196;-1114.111;-1088.800
655.099; -106.793; -404.111; -291.800
655.370; -129.990; -427.111; -543.801
655.641; -234.988; -656.110; -714.801
655.911; -185.385; -618.110; -638.801
656.182;  166.517;  437.890;  387.198
656.453;  227.020;  830.890;  746.198
656.724; -112.877; -466.110; -426.802
656.994; -190.475; -553.109; -568.803
657.265; -230.372; -862.109; -873.803
657.536; -140.669; -500.109; -377.804
657.806; -133.567; -561.109; -593.804
658.077; -209.364; -866.109; -950.804
658.347; -122.662; -523.108; -598.805
658.618; -244.059; -646.108; -694.805
658.888;   29.144;  -41.108;  112.195
659.159; -144.054; -432.108; -548.806
659.429;  -39.451; -292.108; -349.806
659.700;  -19.349; -435.107; -390.807
659.970;  -39.946; -370.107; -359.807
660.241;  -34.943; -754.107; -921.807
660.511;  707.059; -147.107; -174.808
660.781;   67.962; -793.106; -748.808
661.052;  -73.935; -222.106; -381.808
661.322;  -32.233;   21.894;   -9.809
661.592;   85.970;  257.894;  148.191
661.862; -104.328; -369.106; -382.810
662.133; -138.325; -551.105; -502.810
662.403; -220.322; -770.105; -676.810
662.673;  -50.520; -256.105; -213.811
662.943; -165.917; -612.105; -551.811
663.213;    7.585;  -85.105;  -81.811
663.483; -143.312; -593.104; -568.812
663.753;  -37.309; -194.104; -152.812
664.023;   15.493;   68.896;  -32.813
664.293;  -48.804; -319.104; -126.813
664.563; -187.001; -694.104; -648.813
664.833; -183.099; -743.103; -608.814
665.103; -219.096; -730.103; -793.814
665.373; -230.594; -766.103; -806.814
665.643; -208.591; -863.103; -918.815
665.913;   23.112; -534.103; -714.815
666.182;  150.214; -685.102; -719.816
666.452;  319.417;  -22.102;  -89.816
666.722;  -83.181; -724.102; -784.816
666.992; -229.178; -948.102; -921.817
667.261; -199.575; -824.102; -808.817
667.531;  334.627;  134.899;   45.183
667.801;  710.930; -440.101; -412.818
668.070;  446.332;  714.899;  697.182
668.340; -200.565; -883.101; -840.819
668.609;  219.038;  588.900;  301.181
668.879; -149.260; -490.100; -558.819
669.149; -145.257; -539.100; -516.820
669.418; -185.054; -698.100; -726.820
669.688;  -93.552; -482.100; -666.820
669.957;   60.451; -423.099; -546.821
670.226;  -12.047; -268.099; -331.821
670.496; -185.944; -431.099; -635.822
670.765; -120.141; -418.099; -501.822
671.034; -242.739; -872.099; -828.822
671.304;   25.064;   55.902; -111.823
671.573; -274.734;-1085.098; -957.823
671.842;   95.069; -380.098; -294.823
672.112;  -13.228; -692.098; -586.824
672.381;   10.074; -239.098; -214.824
672.650; -239.723;-1005.097;-1021.825
672.919; -155.320; -631.097; -507.825
673.188; -131.818; -681.097; -878.825
673.457; -280.515;-1101.097;-1143.826
673.726; -153.313; -579.096; -646.826
673.995;  -66.210; -533.096; -479.826
674.265;  -31.607; -263.096; -333.827
674.534;   35.995; -183.096; -235.827
674.802;  -39.802; -618.096; -703.828
675.071; 1365.000; -886.095; -801.828
675.340; 4741.103; -464.095; -339.828
675.609; 1665.006;  103.905;   82.171
675.878;    5.108; -949.095; -893.829
676.147;   63.111;  -26.095;   -8.829
676.416;  107.213; -210.094; -294.830
676.685; 1111.716; 1000.906; -622.830
676.953;  107.519; -603.094; -452.831
677.222;  -19.279; -193.094; -273.831
677.491;  -27.576;  -24.094; -127.831
677.759;    9.927;   11.907;  172.168
678.028;  -48.671; -279.093; -222.832
678.297;   23.932;   71.907;  197.168
678.565; -275.766; -898.093; -944.833
678.834;  -60.363; -311.093; -268.833
679.102; -152.060; -411.092; -391.834
679.371; -265.458; -898.092; -727.834
679.639; -247.755; -797.092; -786.834
679.908; -225.653; -794.092; -724.835
680.176; -289.250; -895.091; -941.835
680.445;  -74.747; -346.091; -352.835
680.713;  -14.745;  -58.091;  -23.836
680.982; -139.242; -523.091; -525.836
681.250; -190.239; -578.091; -507.837
681.518; -166.237; -534.090; -751.837
681.787;  -28.634; -204.090; -167.837
682.055; -117.232; -490.090; -422.838
682.323; -289.529; -993.090; -992.838
682.591;   76.574; -216.090; -538.838
682.859;  155.876;    9.911;  -35.839
683.128;   97.079;  232.911;  497.161
683.396; -305.419;-1102.089;-1122.840
683.664;  -32.216; -241.089;   21.160
683.932;   71.887;  144.911;  -76.840
684.200; -130.711; -576.088; -320.841
684.468;  -46.408;  -73.088; -124.841
684.736;   -9.905; -214.088; -175.841
685.004; -232.503;-1024.088; -982.842
685.272; -141.100; -880.088; -774.842
685.540; -102.498; -499.087; -557.843
685.808; -157.795; -651.087; -682.843
686.076; -222.892; -894.087; -969.843
686.343; -121.790; -601.087; -815.844
686.611;   70.413; -195.087; -224.844
686.879;  660.215; -530.086; -553.844
687.147; 4173.418; -483.086; -480.845
687.414; 1234.921;  -12.086; -169.845
687.682;  -34.877; -658.086; -757.846
687.950;  445.026;  259.915;  263.154
688.217;  -34.972; -792.085; -760.846
688.485;  -16.569; -632.085; -636.847
688.753;  667.634;  -11.085; -102.847
689.020;  120.036; -820.085; -851.847
689.288; -212.261; -853.084; -787.848
689.555;  -18.858; -195.084; -148.848
689.823;  -70.056; -241.084; -345.849
690.090; -143.853; -546.084; -651.849
690.358; -309.451; -877.084; -897.849
690.625;   59.052;  120.917;   45.150
690.892; -117.045; -403.083; -369.850
691.160;   18.157;   72.917;  -35.850
691.427;   66.360;  141.917;  130.149
691.694; -214.838; -855.083; -929.851
691.962; -284.235;-1177.082;-1060.852
692.229;   42.968;  127.918;   56.148
692.496;  162.570;  130.918;  -49.852
692.763;   36.773; -164.082; -201.853
693.031; -120.824; -739.082; -716.853
693.298;  -81.422; -509.081; -368.853
693.565;  436.481; -155.081; -163.854
693.832; 1615.883;   -5.081;   -9.854
694.099;  143.286; -643.081; -642.855
694.366; -135.011; -882.081; -896.855
694.633; -106.209; -920.080; -633.855
694.900; 1575.094; 4367.920; -114.856
695.167;  557.896; -214.080; -380.856
695.434;  125.999; -646.080; -623.856
695.701;  350.502;  121.921;  -61.857
695.968;  659.504; -365.079; -361.857
696.234; 1698.607; -415.079; -646.858
696.501;15935.610; -776.079; -614.858
696.768; 7522.212; -554.079; -617.858
697.035;  458.915; -632.078; -667.859
697.302;   53.517; -448.078; -552.859
697.568;   32.120; -458.078; -497.859
697.835;  -66.177; -683.078; -624.860
698.102;  -27.075; -498.078; -407.860
698.368;  165.228;  384.923;  396.139
698.635;  -51.270;  -47.077; -424.861
698.901;  -18.767; -240.077; -348.861
699.168;   79.936; -534.077; -456.862
699.435;  138.538;  -72.077;  -13.862
699.701; -218.159; -868.076; -764.862
699.968;  -65.457;  144.924; -441.863
700.234; -181.554; -783.076; -822.863
700.500; -125.651; -448.076; -539.864
700.767;   40.151;   -1.075;   26.136
701.033; -249.246;-1015.075; -963.864
701.299;  -65.843; -450.075; -483.865
701.566;  262.659;  950.925;  763.135
701.832;   80.162;  -31.075;  -76.865
702.098; -214.536;-1054.074;-1034.866
702.365; -162.133;-1098.074;-1030.866
702.631; -101.830;-1038.074;-1063.867
702.897; 1886.072; -765.074; -676.867
703.163; 2934.775;  348.926;  254.133
703.429;  247.077; -256.073; -273.868
703.695;  -82.020; -796.073; -792.868
703.961;   94.983; -214.073; -210.868
704.227;  -77.215; -630.073; -725.869
704.493;  289.688;  613.927;  510.131
704.759;  -26.409; -565.072; -540.870
705.025;   85.893; -203.072; -194.870
705.291;  -16.104; -666.072; -562.870
705.557;  391.198;  719.928;   34.129
705.823;   19.901; -742.072; -694.871
706.089;  238.304; -307.071; -326.871
706.355;  652.606; -315.071; -244.872
706.620; 9242.409; -776.071; -729.872
706.886;11445.211; -309.071; -362.873
707.152; 1024.414; -818.070; -973.873
707.418;  -72.383;-1153.070;-1186.873
707.683;   21.019; -550.070; -530.874
707.949;  -68.178; -547.070; -578.874
708.215;   54.424; -129.070; -207.874
708.480;  -31.073; -520.069; -420.875
708.746;  175.030;   68.931;   28.125
709.011; -116.968; -578.069; -612.876
709.277; -124.665; -538.069; -543.876
709.542;  -70.762; -428.069; -387.876
709.808;   23.840;  -59.068;   89.123
710.073; -143.357; -577.068; -695.877
710.339;   -7.255; -242.068; -228.877
710.604;   78.948; -780.068; -845.878
710.869;  414.351; -277.068; -366.878
711.135; -134.847; -715.067; -628.879
711.400; -141.944; -507.067; -608.879
711.665;  -72.042; -404.067; -479.879
711.931; -130.139; -661.067; -677.880
712.196; -232.036; -876.067; -954.880
712.461;  151.166; -402.066; -490.880
712.726;  144.269; -727.066; -771.881
712.991; -135.928; -647.066; -664.881
713.256;  -24.626; -350.066; -332.882
713.521;  -58.523; -417.065; -381.882
713.787;  -78.021; -454.065; -472.882
714.052;  -33.318; -214.065; -400.883
714.317; -206.715;-1045.065; -981.883
714.581; 1690.287; -374.065; -268.883
714.846; 1915.390; -822.064; -888.884
715.111;  280.292;  261.936;  257.116
715.376;  -42.205;  -86.064; -223.885
715.641;   29.498; -365.064; -367.885
715.906;  361.500;   15.936; -551.885
716.171;  233.603;  221.937;  209.114
716.436;   55.106;  -78.063; -104.886
716.700; -166.392; -818.063; -692.886
716.965; -208.589; -794.063; -807.887
717.230;  -86.787; -339.063; -392.887
717.494;  -28.184;  -40.062; -134.888
717.759; -154.981; -784.062; -640.888
718.024;   82.521;  269.938;  250.112
718.288;  205.524;  685.938;  395.111
718.553; -273.174; -803.062; -977.889
718.817; -226.971; -883.061; -899.889
719.082;  -35.368; -115.061; -125.890
719.346; -215.666;-1000.061; -947.890
719.611;  -33.063; -300.061; -255.891
719.875; -161.361; -568.060; -537.891
720.140; -113.958; -453.060; -603.891
720.404;   92.845; -136.060; -249.892
720.668; 1110.747; -475.060; -411.892
720.933;  467.550;  146.940;  137.108
721.197; -170.647; -667.059; -600.893
721.461; -230.345; -851.059; -826.893
721.725;   19.858;  -21.059; -250.894
721.990;   -4.240; -284.059; -204.894
722.254;  -27.337;  -26.059; -108.894
722.518;  -90.734; -286.058; -442.895
722.782; -164.332; -743.058; -594.895
723.046;  271.071;  614.942;  570.105
723.310;   89.473;  374.942;  210.104
723.574; -144.024; -654.058; -614.896
723.838; -182.221; -576.057; -642.897
724.102;  -12.719; -226.057; -239.897
724.366; -257.316;-1032.057; -978.897
724.630; -159.113; -749.057; -571.898
724.894; -121.011; -722.057; -514.898
725.158;   54.292;   38.944; -295.898
725.422;  -49.606; -394.056; -327.899
725.685;  -70.003; -441.056; -349.899
725.949; -138.200; -566.056; -519.900
726.213; -126.498; -732.056; -811.900
726.477;  184.805;-1020.055; -933.900
726.740;  210.107; -274.055; -104.901
727.004;  526.810; -384.055; -510.901
727.268; 4920.313; -442.055; -400.901
727.531; 1237.415; -961.055; -775.902
727.795;  -63.582; -713.054; -673.902
728.059; -110.679; -552.054; -557.903
728.322; -137.577; -841.054; -669.903
728.586;   16.826; -692.054; -701.903
728.849; -128.772; -695.053; -756.904
729.112; -183.669; -812.053; -912.904
729.376; -188.066; -959.053; -905.904
729.639; -108.564; -536.053; -536.905
729.903; -186.161; -733.053; -699.905
730.166;  -78.359; -437.052; -399.906
730.429;  -27.656; -317.052; -468.906
730.693;  -99.353; -355.052; -894.906
730.956;  412.849;  810.948;  651.093
731.219;  865.252; -310.052; -103.907
731.482;   98.054;-1003.051; -894.907
731.745;   10.857; -794.051; -935.908
732.009;   92.760;  -30.051;   50.092
732.272; -161.238; -904.051; -771.909
732.535;  -16.835; -300.051; -310.909
732.798; -321.932;-1083.050;-1166.909
733.061;  -72.630; -430.050; -456.910
733.324;   42.273;   31.950; -180.910
733.587;  162.675;  290.950;  365.090
733.850; -146.422; -973.049;-1050.911
734.113;  106.881;   33.951;   32.089
734.376;   23.583; -328.049; -447.912
734.639;  407.186; 1188.951; 1011.088
734.901;  132.888; -180.049; -402.912
735.164;  743.991; -883.048; -837.913
735.427; 1666.594; -166.048; -355.913
735.690;  253.196; -205.048; -234.913
735.952; -138.901; -923.048; -925.914
736.215;  -95.998;-1113.048;-1009.914
736.478;   -8.796; -771.047; -774.915
736.740;  379.107;   33.953;  129.085
737.003; 1039.709; -658.047; -672.915
737.266; 5328.912;  -94.047;   46.084
737.528;  568.215; -682.047; -660.916
737.791;  456.817; -316.046; -327.916
738.053; 1366.320;  465.954;  649.083
738.316;16812.222; -162.046; -136.917
738.578;10162.925; -770.046; -736.918
738.841;  668.128; -382.046; -446.918
739.103;  259.930; -875.045; -777.918
739.365;  738.133;   79.955;  -69.919
739.628;  -43.765; -884.045; -805.919
739.890;  -18.662; -758.045; -710.919
740.152; -108.459; -692.044; -754.920
740.414;  -24.257; -408.044; -359.920
740.677; -138.554; -785.044; -634.921
740.939;  -41.251; -587.044; -487.921
741.201;  377.851; -432.044; -572.921
741.463;   25.454; -689.043; -745.922
741.725;   25.956;  -21.043; -199.922
741.987;  136.759;  220.957;  116.078
742.249;  -64.338; -751.043; -859.923
742.511;  276.564; -703.043; -794.923
742.773;   32.167; -546.042; -546.924
743.035;  261.069;  796.958;  533.076
743.297;  -90.228; -963.042;-1013.924
743.559; 1047.275; -278.042; -262.925
743.821;   24.677; -735.042; -744.925
744.083;   84.380;  -44.041; -149.925
744.345; -151.217; -869.041; -892.926
744.607;  109.985;   75.959;  122.074
744.868;  -85.612; -490.041; -554.927
745.130; -194.010; -994.041;-1008.927
745.392;  120.593;   -1.040;  -44.927
745.653;   13.596; -411.040; -378.928
745.915;  359.898;  896.960;  631.072
746.177;  147.101;   35.960;  -43.928
746.438;  -18.197; -428.040; -543.929
746.700;  -58.194; -947.039; -988.929
746.961;  -14.191; -659.039; -740.930
747.223;  231.411; -190.039;  -74.930
747.484;  149.314; -391.039; -471.930
747.746;  250.117;  -23.038; -106.931
748.007;  164.319; -647.038; -689.931
748.269;  458.822; -468.038; -440.931
748.530;  604.324; -852.038; -638.932
748.791;  434.827; -354.038; -420.932
749.053;  677.330;  286.963;  163.067
749.314;  700.132; -236.037; -169.933
749.575;  666.135; -945.037; -905.933
749.836; 1211.237; -217.037;   86.066
750.098; 4012.840;  -60.037;  -21.934
750.359;50059.743;  414.964;  555.066
750.620;11435.345; -121.036; -220.935
750.881; 1514.248; -585.036; -513.935
751.142; 2026.750; -950.036; -938.936
751.403;25178.453; -789.036; -705.936
751.664; 9507.056;-1034.035; -999.936
751.925;  749.758; -175.035; -262.937
752.186;  417.161; -298.035; -278.937
752.447;  223.364; -590.035; -445.937
752.708;   82.466; -532.035; -648.938
752.969;    9.869; -566.034; -576.938
753.230;  -48.729; -777.034; -672.939
753.491;   -8.826; -650.034; -631.939
753.751;  133.877;  109.966;   19.061
754.012;  207.779;  258.967;  181.060
754.273;  131.382; -174.033;  -71.940
754.534;   -0.816; -487.033; -580.940
754.794; -153.913; -926.033; -911.941
755.055;  356.490; 1051.967;  881.059
755.316;  -90.308; -700.032; -566.942
755.576;  -19.205; -606.032; -576.942
755.837;  -60.102; -527.032; -695.942
756.097;  -22.900; -530.032; -564.943
756.358; -140.297; -725.032; -770.943
756.618;  -92.295; -705.031; -641.943
756.879;   38.408; -254.031; -349.944
757.139; -206.589;-1098.031;-1116.944
757.400;  -91.787; -538.031; -553.945
757.660;   24.716; -365.031; -401.945
757.920;   43.518; -266.030; -228.945
758.181;  -13.779; -468.030; -351.946
758.441; -160.476; -870.030; -809.946
758.701;  -10.174; -308.030; -215.946
758.961;  -37.071; -220.030; -278.947
759.222;  -21.768; -574.029; -502.947
759.482; -117.766; -683.029; -723.948
759.742; -117.363; -706.029; -547.948
760.002;   56.639;  -83.029; -143.948
760.262;   78.842;   50.972;  182.051
760.522;  -37.655; -498.028; -574.949
760.782;  -85.353; -738.028; -612.949
761.042;  -68.250; -618.028; -573.950
761.302;   98.852;   55.972;  -18.950
761.562;  140.855; -164.027; -154.951
761.822;  110.758; -710.027; -551.951
762.082;  -94.440;-1104.027;-1093.951
762.342;  118.963; -328.027; -403.952
762.601;  151.765; -567.027; -506.952
762.861;  607.468; -281.026; -207.952
763.121;  735.571; -406.026; -411.953
763.381;13194.273; -499.026; -485.953
763.640;12118.576; -139.026; -307.954
763.900;  627.179; -242.026; -203.954
764.160;  187.681; -458.025; -491.954
764.419;   -4.116; -726.025; -782.955
764.679; -134.014; -795.025; -726.955
764.939;    0.089; -124.025; -210.955
765.198; -113.108; -608.025; -563.956
765.458; -129.306; -710.024; -612.956
765.717; -137.903; -454.024; -590.957
765.976;  -46.001; -428.024; -411.957
766.236; -117.598; -475.024; -610.957
766.495;  102.205;  260.977;   73.042
766.755; -220.793;-1090.023; -987.958
767.014;   22.310; -594.023; -665.958
767.273;  -80.087; -373.023; -397.959
767.533;  -21.785; -228.023; -307.959
767.792;  -19.382; -151.022; -188.960
768.051;  -35.280; -228.022; -276.960
768.310; -156.877; -546.022; -650.960
768.569;   56.126; -161.022;    4.039
768.828;  -25.672; -285.022; -363.961
769.088; -200.469;-1050.021; -942.961
769.347; -156.367; -755.021; -599.962
769.606; -154.364; -876.021; -857.962
769.865; -189.461;-1016.021;-1033.963
770.124;   28.941; -411.021; -336.963
770.383; -117.456; -778.020; -910.963
770.641;   11.246; -398.020; -400.964
770.900; -126.051; -953.020; -846.964
771.159;  -57.048; -851.020; -951.964
771.418;  -14.446; -917.020; -779.965
771.677;  254.157; -224.019; -293.965
771.936;  180.260; -794.019; -865.966
772.194; 4225.762; -465.019; -437.966
772.453;16405.365; -213.019; -391.966
772.712; 1203.967;  416.982;  329.033
772.970;  223.270;   32.982;   63.033
773.229;  200.473;  -22.018;  102.033
773.488; -166.525; -814.018; -770.968
773.746;  142.078;  296.982;  335.032
774.005;   52.480;  190.983;  -22.969
774.263;   73.183;  243.983;  177.031
774.522; -131.814; -422.017; -548.969
774.780; -100.112; -484.017; -417.970
775.039; -124.109; -551.017; -531.970
775.297;   19.394; -135.016; -351.970
775.555; -197.004; -489.016; -612.971
775.814; -184.201; -618.016; -570.971
776.072; -186.499; -749.016; -740.971
776.330; -153.796; -630.016; -520.972
776.589; -209.593; -703.015; -721.972
776.847; -183.291; -645.015; -624.973
777.105; -285.888;-1016.015;-1032.973
777.363; -105.686; -459.015; -454.973
777.621; -246.683; -660.015; -717.974
777.879;   15.720;  -42.014;   32.026
778.138; -148.578; -554.014; -717.974
778.396; -147.175; -585.014; -526.975
778.654; -296.472;-1015.014; -970.975
778.912;  -92.570; -269.014; -371.976
779.170; -182.067; -880.013; -803.976
779.427; -238.665; -922.013; -897.976
779.685; -245.562; -880.013; -832.977
779.943; -138.759; -654.013; -593.977
780.201; -262.457; -964.012; -883.978
780.459; -191.854; -651.012; -610.978
780.717; -144.252; -440.012; -390.978
780.974; -121.249; -449.012; -490.979
781.232;  -92.046; -358.012; -338.979
781.490;  -95.544; -551.011; -472.979
781.747; -119.041; -555.011; -476.980
782.005;  140.561;  462.989;  254.020
782.263; -299.336; -542.011;-1004.981
782.520; -123.633; -326.011; -501.981
782.778; -284.831;-1013.010;-1051.981
783.035; -285.928; -962.010; -938.982
783.293;  -47.125; -248.010; -206.982
783.550;  -52.023; -134.010; -198.982
783.808; -232.020; -764.010; -776.983
784.065; -244.518; -745.009; -874.983
784.322;  -29.915;   25.991;  -86.984
784.580; -227.212; -915.009; -771.984
784.837; -131.010; -392.009; -466.984
785.094; -211.007; -783.009; -762.985
785.352; -105.105; -304.008; -404.985
785.609; -170.302; -934.008; -839.985
785.866; -117.699; -345.008; -401.986
786.123; -142.097; -639.008; -583.986
786.380; -169.794; -665.008; -604.987
786.637;  -17.391; -225.007; -380.987
786.895;  -51.689; -456.007; -543.987
787.152;  -28.286; -135.007; -267.988
787.409;  -32.684; -123.007; -225.988
787.666; -107.181; -299.006; -378.988
787.923; -201.278; -616.006; -695.989
788.179; -158.776; -551.006; -584.989
788.436; -161.473; -585.006; -585.990
788.693;   -4.371;  -92.006;  -87.990
788.950;  297.232; -125.005; -112.990
789.207;  239.235; -381.005; -372.991
789.464;  -56.163; -161.005; -301.991
789.720;   53.640;  150.995;  110.009
789.977; -288.757;-1003.005; -671.992
790.234;    9.845;   44.996;  -66.992
790.490; -270.152; -884.004;-1031.993
790.747;   32.350;  -85.004;   22.007
791.004;  -43.347; -426.004; -348.993
791.260; -123.644; -430.004; -560.994
791.517; -169.342; -843.003; -788.994
791.773;  -30.939; -379.003; -342.994
792.030; -172.737; -596.003; -660.995
792.286; -114.634; -686.003; -636.995
792.543;    4.969;  -74.002; -159.995
792.799;  -69.029; -584.002; -382.996
793.055; -297.726;-1179.002;-1210.996
793.312; -162.224; -827.002; -816.997
793.568; -117.821; -746.002; -599.997
793.824;   39.582; -226.001; -284.997
794.081;   50.484; -447.001; -508.998
794.337;  112.987; -664.001; -561.998
794.593; 2576.390; -319.001; -271.999
794.849; 9691.992; -746.001; -772.999
795.105;  489.395; -270.000; -261.999
795.361;   28.497; -490.000; -457.000
795.617; -118.800; -875.000; -945.000
795.873;  -60.900; -360.000; -407.000
796.129;  -26.800; -368.000; -306.000
796.385;   33.600; -124.000; -156.000
796.641;  211.000;  412.000;  550.000
796.897; -119.800; -666.000; -635.000
797.153;  202.300;  453.000;  357.000
797.409; -165.100; -785.000; -868.000
797.665; -123.100; -625.000; -732.000
797.921; -116.200; -775.000; -762.000
798.176; -109.500; -744.000; -747.000
798.432;  -77.000; -824.000; -596.000
798.688; -151.300;-1174.000;-1078.000
798.943;  174.500; -165.000; -147.000
799.199;   -7.400;-1005.000; -959.000
799.455;  460.600;  369.000;  316.000
799.710;  194.100; -813.000; -380.000
799.966;  458.100; -162.000; -160.000
800.221;  726.000; -638.000; -721.000
800.477;17505.400; -743.000; -710.000
800.732;12137.200; -773.000; -800.000
800.988; 1076.800;  205.000;  -19.000
801.243; 3818.200; -454.000; -344.000
801.498;12601.200; -814.000; -739.000
801.754;  700.700; -289.000; -163.000
802.009;  199.300; -257.000; -335.000
802.264;  -92.100; -967.000;-1033.000
802.520;  105.700;  222.000;   -3.000
802.775;  -79.300; -524.000; -359.000
803.030;  178.800;  395.000;  356.000
803.285; -189.700; -840.000; -903.000
803.540;  -70.600; -686.000; -699.000
803.795;  -63.600; -648.000; -583.000
804.051;  -36.800; -279.000; -346.000
804.306;   82.300;  168.000;  128.000
804.561;  289.300;  451.000;  362.000
804.816;  294.400;  714.000;  861.000
805.071;   35.800; -185.000; -280.000
805.325;  292.800; -257.000; -427.000
805.580; -166.400; -841.000; -877.000
805.835;   25.600; -204.000; -297.000
806.090; -127.800; -760.000; -676.000
806.345;   15.500; -344.000; -264.000
806.600;  -28.300; -549.000; -632.000
806.854;  -29.600; -408.000; -538.000
807.109;   29.500; -493.000; -577.000
807.364;   17.700; -407.000; -328.000
807.618;   21.400; -415.000; -381.000
807.873;   75.500; -470.000; -494.000
808.128;  199.500; -257.000; -518.000
808.382;  216.600; -224.000; -332.000
808.637;  118.000; -440.000; -511.000
808.891;  352.600; -257.000; -180.000
809.146;  166.400; -902.000; -794.000
809.400;  369.400; -848.000; -923.000
809.654;  466.400; -779.000; -551.000
809.909;  736.100; -841.000; -927.000
810.163;11621.400; -813.000; -651.000
810.418;23027.000; -940.000; -861.000
810.672; 1550.600; -685.000; -690.000
810.926; 1174.100; -993.000; -973.000
811.180; 2576.300; -439.000; -372.000
811.434;55116.400;  240.000;  135.000
811.689;17112.300; -231.000; -365.000
811.943;  924.900; -936.000; -953.000
812.197;  545.600; -893.000; -671.000
812.451;  227.800; -379.000; -514.000
812.705;   -3.700; -809.000; -619.000
812.959;  -58.200; -263.000; -388.000
813.213;   64.700; -283.000; -209.000
813.467;  179.000;  470.000;  253.000
813.721; -131.300; -764.000; -792.000
813.975; -216.800; -826.000; -877.000
814.229;  155.400;  430.000;  353.000
814.482;  -95.900; -517.000; -566.000
814.736; -193.500; -766.000; -744.000
814.990; -226.600; -779.000; -872.000
815.244;  -56.100; -228.000; -285.000
815.497; -124.900; -636.000; -601.000
815.751;   60.300; -141.000;   82.000
816.005; -112.600; -470.000; -586.000
816.258;  -57.200; -510.000; -363.000
816.512; -177.300; -693.000; -610.000
816.766;   52.600;  121.000;  157.000
817.019;   85.800;  148.000;  149.000
817.273; -186.300;-1000.000; -802.000
817.526;  -25.000; -206.000; -173.000
817.779;  -94.900;-1049.000; -960.000
818.033; -176.100; -693.000; -807.000
818.286; -186.500; -725.000; -792.000
818.540; -135.600; -403.000; -403.000
818.793;  -98.400; -402.000; -489.000
819.046; -147.700; -582.000; -520.000
819.299;    6.400; -157.000; -166.000
819.553; -155.700; -552.000; -592.000
819.806; -230.700;-1016.000; -838.000
820.059;  -73.400; -334.000; -354.000
820.312;   86.400;  152.000;  185.000
820.565;   11.000;  110.000;  -27.000
820.818;  -39.700;  -59.000; -173.000
821.071; -277.200;-1041.000; -957.000
821.324; -175.400; -536.000; -540.000
821.577; -136.500; -457.000; -483.000
821.830;  -82.200; -270.000; -172.000
822.083; -204.600; -733.000; -288.000
822.336;  -13.100; -261.000; -167.000
822.589; -225.600; -805.000; -688.000
822.842; -235.500; -875.000; -770.000
823.094; -318.000;-1076.000;-1114.000
823.347; -193.400; -925.000; -729.000
823.600;   65.400;  402.000;  187.000
823.853;  -42.000; -311.000; -267.000
824.105; -104.900; -331.000; -575.000
824.358; -151.400; -617.000; -716.000
824.611;   83.600;  234.000;   40.000
824.863;  -42.900; -612.000; -591.000
825.116;  116.100;  -33.000;   27.000
825.368;  130.700; -366.000; -372.000
825.621;  263.200; -186.000; -240.000
825.873;  116.600; -704.000; -737.000
826.126; 1082.300; -669.000; -641.000
826.378;18200.200; -389.000; -505.000
826.630; 3171.800; -890.000; -898.000
826.883;   30.900; -754.000; -693.000
827.135;   86.400; -279.000; -270.000
827.387; -177.700; -893.000; -839.000
827.639;  -26.600;  -86.000;   32.000
827.892; -192.100; -742.000; -582.000
828.144; -259.400; -848.000; -804.000
828.396;  -11.400;  104.000;  -80.000
828.648; -139.300; -440.000; -333.000
828.900; -213.100; -702.000; -795.000
829.152; -194.100; -684.000; -683.000
829.404;  -46.900; -215.000; -267.000
829.656;  -46.900;  321.000;  214.000
829.908;   58.100;  393.000;  229.000
830.160; -287.600;-1064.000;-1047.000
830.412; -116.700; -481.000; -430.000
830.664; -205.100; -557.000; -665.000
830.916;  -58.400; -268.000; -206.000
831.167; -307.700;-1073.000; -951.000
831.419; -141.200; -623.000; -566.000
831.671; -234.400; -764.000; -809.000
831.923; -103.500; -311.000; -447.000
832.174; -114.000; -273.000; -331.000
832.426; -157.500; -493.000; -582.000
832.678; -349.000;-1043.000;-1091.000
832.929; -295.000; -947.000; -935.000
833.181; -126.300; -575.000; -677.000
833.432;  -71.800;  -59.000; -186.000
833.684;  -27.700;  112.000;  -27.000
833.935; -182.300; -610.000; -566.000
834.187; -213.800; -829.000; -823.000
834.438;    3.600;  -58.000;  -25.000
834.689;  -31.700; -255.000; -123.000
834.941;  -32.700; -343.000; -244.000
835.192; -157.600; -590.000; -533.000
835.443; -129.100; -419.000; -506.000
835.695;   27.100;  138.000;  -16.000
835.946; -138.300; -608.000; -378.000
836.197; -183.200; -599.000; -622.000
836.448; -122.500; -528.000; -395.000
836.699;  -96.200; -253.000; -341.000
836.950;   48.200;   72.000;    7.000
837.201; -256.600;-1003.000; -987.000
837.452;  -30.100; -356.000; -170.000
837.703; -197.400; -791.000; -737.000
837.954;  -34.400; -205.000; -365.000
838.205; -156.500;-1029.000;-1008.000
838.456;  247.300; -196.000; -282.000
838.707;   21.600; -423.000; -519.000
838.958;   35.100; -634.000; -647.000
839.209;  403.300;   18.000;   40.000
839.460;  204.700; -439.000; -201.000
839.710;  271.800; -135.000; -297.000
839.961;  723.800;  730.000;  612.000
840.212;  489.200; -382.000; -497.000
840.462; 1963.600; -328.000; -277.000
840.713;29207.600; -571.000; -536.000
840.964; 8778.500;  -62.000; -143.000
841.214;  694.600; -384.000; -624.000
841.465;  944.000; -214.000; -141.000
841.715;  735.500; -417.000; -380.000
841.966; 1007.900; -746.000; -685.000
842.216;16355.300; -330.000; -431.000
842.466;47599.300; -169.000; -313.000
842.717; 1832.100; -964.000; -952.000
842.967;  527.200; -635.000; -641.000
843.217;  432.600;   20.000;   28.000
843.468;  144.700; -104.000; -132.000
843.718;  -82.800; -718.000; -726.000
843.968; -122.000; -837.000; -765.000
844.218;   51.800; -315.000; -262.000
844.469;  -74.700; -577.000; -561.000
844.719; -177.200; -537.000; -682.000
844.969; -135.600; -550.000; -580.000
845.219; -253.100; -814.000; -862.000
845.469;  -83.800; -392.000; -342.000
845.719; -232.900; -792.000; -884.000
845.969;   52.500;  119.000;  174.000
846.219; -177.600; -738.000; -720.000
846.469;  123.400;  464.000;  432.000
846.718;  -27.200; -115.000;   31.000
846.968; -186.700; -827.000; -827.000
847.218;  -62.200; -224.000; -371.000
847.468; -149.600; -586.000; -555.000
847.718; -240.700; -827.000; -798.000
847.967; -241.900; -826.000; -915.000
848.217; -156.200; -449.000; -569.000
848.467;  -65.000; -405.000; -376.000
848.716; -201.700; -708.000; -725.000
848.966;   22.700; -372.000; -358.000
849.215;  -94.000; -428.000; -419.000
849.465; -154.700; -785.000; -615.000
849.714; -243.100;-1132.000;-1150.000
849.964; -106.400; -551.000; -613.000
850.213;    2.600; -393.000; -355.000
850.463;  183.700;  137.000;  340.000
850.712;  -24.400; -542.000; -567.000
850.961;   18.900; -739.000; -678.000
851.211;  131.100; -513.000; -504.000
851.460;  250.500; -635.000; -650.000
851.709;  968.400;  -25.000;   18.000
851.958;17802.400; -912.000; -750.000
852.208;16409.500; -859.000; -879.000
852.457;  679.800; -181.000;  -13.000
852.706;   94.200; -791.000; -823.000
852.955;   16.700; -507.000; -528.000
853.204;  -98.200; -521.000; -461.000
853.453;  -86.000; -418.000; -458.000
853.702; -209.600; -660.000; -750.000
853.951; -143.800; -532.000; -520.000
854.200; -181.600; -613.000; -562.000
854.449; -193.000; -695.000; -661.000
854.698; -127.400; -340.000; -279.000
854.946;  -65.300; -181.000; -284.000
855.195; -234.000; -843.000; -868.000
855.444; -116.100; -395.000; -420.000
855.693; -177.900; -345.000; -432.000
855.941; -161.700; -387.000; -516.000
856.190;  -74.200; -256.000; -382.000
856.439; -212.800; -652.000; -703.000
856.687;  -63.400;  -99.000;  -72.000
856.936; -176.400; -621.000; -323.000
857.184; -302.300;-1067.000;-1020.000
857.433; -132.400; -423.000; -512.000
857.681; -285.600; -989.000; -953.000
857.930; -109.300; -282.000; -433.000
858.178; -286.800; -856.000; -929.000
858.427; -231.700; -802.000; -781.000
858.675; -174.200; -377.000; -544.000
858.923; -148.300; -527.000; -819.000
859.172; -327.500;-1094.000;-1070.000
859.420; -116.100; -339.000; -239.000
859.668; -229.200; -624.000; -628.000
859.916;   32.500;  109.000;  115.000
860.164; -177.800; -699.000; -603.000
860.413;  410.600; -878.000; -696.000
860.661;  145.400; -709.000; -577.000
860.909;  -77.200; -339.000; -325.000
861.157; -141.000; -277.000; -444.000
861.405; -188.200; -534.000; -670.000
861.653;   86.500;  310.000;  310.000
861.901;  249.400; -543.000; -613.000
862.149;  -94.900; -801.000; -824.000
862.396;  -96.100; -297.000; -187.000
862.644; -115.100; -368.000; -347.000
862.892;   -4.300;   98.000;  138.000
863.140; -184.800; -549.000; -530.000
863.388; -244.500; -815.000; -759.000
863.635; -177.000; -642.000; -601.000
863.883;   51.000;  231.000;  190.000
864.131; -134.900; -288.000; -357.000
864.378; -181.600; -675.000; -540.000
864.626; -164.800; -347.000; -415.000
864.873; -159.600; -556.000; -505.000
865.121; -210.500; -714.000; -799.000
865.368;  -39.900; -173.000;   75.000
865.616;    5.700;  -33.000;  -40.000
865.863;  -83.100; -462.000; -506.000
866.111; -190.100; -795.000; -824.000
866.358;  132.100; -426.000; -420.000
866.605; 4369.000;  -64.000; -804.000
866.853; 3312.900; -621.000; -537.000
867.100;  -82.500; -728.000; -775.000
867.347; -149.300; -672.000; -611.000
867.594; -132.700; -740.000; -714.000
867.841;  190.300;   97.000;   17.000
868.089; -274.700; -746.000; -698.000
868.336; -150.300; -477.000; -420.000
868.583; -245.900; -637.000; -741.000
868.830;  -22.300; -131.000; -170.000
869.077; -284.500; -859.000; -787.000
869.324; -176.300; -502.000; -458.000
869.571; -164.800; -398.000; -430.000
869.818; -170.300; -485.000; -439.000
870.065; -159.600; -439.000; -513.000
870.311; -152.600; -456.000; -542.000
870.558; -158.100; -332.000; -311.000
870.805; -111.800; -320.000; -384.000
871.052; -151.900; -494.000; -369.000
871.298;  -96.500; -204.000; -131.000
871.545;  -99.000; -151.000; -185.000
871.792; -107.900; -173.000; -222.000
872.038;  -65.100;   43.000; -126.000
872.285; -158.900; -496.000; -387.000
872.532; -144.200; -357.000; -387.000
872.778;  110.600;  556.000;  403.000
873.025; -144.800; -384.000; -359.000
873.271;  112.500;  501.000;  578.000
873.517;   -4.200; -133.000; -209.000
873.764;   19.700; -193.000;  -80.000
874.010;  -73.000; -143.000; -230.000
874.257;  -13.500;  123.000;   90.000
874.503; -221.800; -579.000; -479.000
874.749;  -66.700;   31.000;  275.000
874.995;  -80.300;  -80.000;  -20.000
875.242; -175.900; -540.000; -478.000
875.488; -185.700; -414.000; -439.000
875.734;  -60.100; -106.000; -234.000
875.980;  253.400; -872.000;-1032.000
876.226;  417.100; -157.000; -255.000
876.472;   33.300;  343.000;  237.000
876.718;   -7.100;  184.000;  158.000
876.964;  -49.000;   56.000;   55.000
877.210; -218.500; -547.000; -677.000
877.456; -206.200; -630.000; -557.000
877.702; -283.000; -821.000; -832.000
877.948; -150.100; -377.000; -497.000
878.193;   46.800;  361.000;  255.000
878.439; -128.500; -487.000; -472.000
878.685; -139.000; -272.000; -343.000
878.931; -215.400; -618.000; -676.000
879.176; -121.800; -201.000; -201.000
879.422; -293.100; -933.000; -820.000
879.668;  190.200;   10.000;   79.000
879.913;  203.500;   53.000;  137.000
880.159;  -67.000; -112.000;  -17.000
880.404;  -60.200; -152.000; -162.000
880.650;    2.400;   91.000;  141.000
880.895; -280.600; -670.000; -710.000
881.141; -173.900; -454.000; -428.000
881.386; -218.900; -503.000; -658.000
881.631; -119.100; -311.000; -166.000
881.877;   -2.800;  112.000;  -13.000
882.122; -222.200; -684.000; -600.000
882.367;  -86.500; -136.000; -186.000
882.612;  -78.900;  -80.000; -176.000
882.858; -301.300; -877.000; -823.000
883.103;  -88.100; -297.000; -267.000
883.348; -243.600; -759.000; -852.000
883.593; -216.500; -677.000; -602.000
883.838;  -71.700; -311.000;  -24.000
884.083;   66.800;  353.000;  288.000
884.328; -122.800; -564.000; -545.000
884.573;  -23.800; -196.000; -143.000
884.818;  307.500; -694.000; -531.000
885.063;  169.700; -348.000; -315.000
885.308; -129.300; -475.000; -398.000
885.553;   81.400;  245.000;  325.000
885.797; -200.800; -545.000; -615.000
886.042;  -27.200;    8.000;   58.000
886.287; -119.600; -253.000; -211.000
886.532;  -34.800;   26.000;  204.000
886.776; -123.900; -407.000; -525.000
887.021; -199.200; -621.000; -574.000
887.265; -275.700; -685.000; -689.000
887.510; -199.000; -557.000; -496.000
887.755; -129.200; -194.000; -164.000
887.999; -208.200; -552.000; -575.000
888.244;  -37.900;  -58.000;  161.000
888.488;   87.900;  371.000;  393.000
888.732; -187.300; -368.000; -520.000
888.977; -175.100; -622.000; -567.000
889.221; -263.000; -683.000; -659.000
889.465; -161.900; -422.000; -566.000
889.710;  -99.300;  -56.000; -299.000
889.954;  107.600;  579.000;  467.000
890.198; -218.100; -584.000; -707.000
890.442; -204.200; -716.000; -712.000
890.687; -257.100; -800.000; -753.000
890.931; -106.600; -273.000; -210.000
891.175; -202.500; -502.000; -500.000
891.419;  -57.000; -105.000; -110.000
891.663; -107.000; -239.000; -112.000
891.907; -243.100; -801.000; -545.000
892.151; -311.500; -920.000; -815.000
892.395; -171.500; -274.000; -387.000
892.638;   63.700;  408.000;  291.000
892.882; -291.600; -780.000; -867.000
893.126;  121.000;  758.000;  558.000
893.370; -102.800; -167.000; -168.000
893.614; -239.700; -714.000; -715.000
893.857; -109.200; -183.000; -197.000
894.101; -222.500; -527.000; -631.000
894.345;  -15.100;  300.000;  150.000
894.588;  106.100;  569.000;  380.000
894.832;  -63.900; -178.000;  -84.000
895.075; -103.200;   15.000;  -92.000
895.319; -175.900; -552.000; -420.000
895.563; -151.600; -413.000; -353.000
895.806; -228.000; -628.000; -741.000
896.049;  -87.500; -576.000; -368.000
896.293;  241.600;  527.000;  405.000
896.536; -121.100; -465.000; -468.000
896.779;  -61.600; -149.000;   -1.000
897.023; -240.400; -751.000; -714.000
897.266;   21.700;  325.000;  269.000
897.509; -290.500; -900.000; -901.000
897.752;   10.000;  149.000;  171.000
897.996; -326.200; -972.000; -864.000
898.239;  -11.400;  168.000;  102.000
898.482; -199.100; -431.000; -453.000
898.725;   10.200;  101.000;   53.000
898.968; -227.700; -609.000; -744.000
899.211; -131.900; -513.000; -361.000
899.454; -211.700; -633.000; -539.000
899.697;  -56.700;   90.000;  -43.000
899.940; -266.100; -761.000; -757.000
900.182; -143.100; -335.000; -405.000
900.425; -118.500; -150.000; -298.000
900.668;   45.100;  491.000;  350.000
900.911; -137.900; -292.000; -345.000
901.154;  -49.700;  141.000;   -3.000
901.396; -202.800; -407.000; -412.000
901.639; -189.300; -430.000; -496.000
901.882; -302.100; -790.000; -809.000
902.124;  -88.800;  -29.000; -143.000
902.367; -174.600; -315.000; -361.000
902.609; -182.300; -476.000; -453.000
902.852; -127.500; -108.000; -260.000
903.094; -157.500; -458.000; -337.000
903.337;  -23.500;  -26.000;   53.000
903.579; -123.600; -228.000; -441.000
903.821; -254.100; -597.000; -744.000
904.064;  -22.700;   85.000;  127.000
904.306;  -98.900; -126.000; -166.000
904.548; -121.900; -152.000; -366.000
904.790; -137.500; -195.000; -340.000
905.033; -183.300; -625.000; -577.000
905.275; -214.400; -513.000; -524.000
905.517;  163.500;  468.000;  256.000
905.759; -128.000; -667.000; -761.000
906.001; -136.900; -322.000; -369.000
906.243; -114.200; -162.000; -224.000
906.485;  201.900; -265.000; -207.000
906.727;   67.500; -499.000; -542.000
906.969;   -3.700;  -30.000; -135.000
907.211;  190.200; -316.000; -382.000
907.453;  409.300; -188.000; -237.000
907.695;  -37.100; -158.000; -385.000
907.936;  197.100;  818.000;  706.000
908.178;  -41.700;   92.000; -135.000
908.420;  -70.800; -111.000; -162.000
908.662; -206.400; -633.000; -682.000
908.903;  -97.600; -208.000; -123.000
909.145;  -85.000; -240.000; -305.000
909.386;  102.100;  315.000;  280.000
909.628;  113.500;  363.000;  397.000
909.870;   66.300;   29.000;  264.000
910.111; -181.400; -809.000; -949.000
910.353;   57.300; -123.000; -161.000
910.594;   -2.500; -574.000; -606.000
910.835;  146.300; -265.000; -326.000
911.077;  261.300; -503.000; -604.000
911.318;  538.600; -505.000; -471.000
911.559;  774.900; -577.000; -880.000
911.801; 2617.400; -284.000; -280.000
912.042;21903.800;  -50.000; -159.000
912.283;45945.200;  404.000;  371.000
912.524; 5441.700; -396.000; -457.000
912.765;  816.500; -193.000;   79.000
913.006;  438.200; -307.000; -338.000
913.247;  125.600; -270.000; -290.000
913.488;   26.400;  -43.000;   30.000
913.729;  -99.800; -373.000; -373.000
913.970;  -67.300;  -96.000; -292.000
914.211;  -53.600; -160.000; -198.000
914.452;  -45.800; -118.000;  -11.000
914.693;  111.000;  510.000;  592.000
914.934;   74.700;  510.000;  440.000
915.175;  -77.400;   53.000;  -95.000
915.415;  -71.100; -137.000;   27.000
915.656;  -52.500;  -28.000;  192.000
915.897; -146.800; -252.000;  -82.000
916.137;  -48.200;   74.000;   -9.000
916.378; -201.000; -573.000; -517.000
916.619; -106.000; -159.000;  -63.000
916.859;    7.600;  303.000;  330.000
917.100;  386.200; 1655.000; 1070.000
917.340;  164.000;  930.000;  728.000
917.581;  161.400;  965.000;  789.000
917.821;  -28.900; -171.000;  143.000
918.061;   -4.400; -199.000;  -72.000
918.302;  -27.000; -152.000; -211.000
918.542;   22.200;  -22.000;    3.000
918.782;   89.500;  369.000;  377.000
919.023;  264.900;  360.000;  427.000
919.263; 3521.300; 8131.000;  202.000
919.503; 1580.700; -137.000;  -54.000
919.743;  969.400;  390.000;  266.000
919.983;  340.800; -134.000;  -26.000
920.223;  153.300;  135.000;   14.000
920.463;  304.500;  631.000;  554.000
920.703;  250.900;   84.000;   39.000
920.943;  290.900; -110.000;   90.000
921.183;  388.800; -414.000; -405.000
921.423;  923.400;  307.000;  546.000
921.663; 1184.500; -174.000; -257.000
921.903; 2807.700;  237.000;  173.000
922.143;17078.400;  372.000;  389.000
922.383;57350.700;  158.000;  115.000
922.622;14567.800; -120.000;  -15.000
922.862; 1821.100;  796.000;  785.000
923.102;  766.900;  -51.000;   33.000
923.341;  290.900;   59.000;   74.000
923.581;  191.800;  450.000;  360.000
923.821;  118.600;  301.000;  398.000
924.060;   86.300;  351.000;  193.000
924.300;  -29.800;  -16.000; -128.000
924.539;   14.700;  584.000;  473.000
924.779;  142.900;  812.000;  597.000
925.018;  -67.700;  247.000;  353.000
925.257;   60.200;  595.000;  666.000
925.497;  -41.400;  447.000;  412.000
925.736;  -62.000;  -35.000;  102.000
925.975;   61.500;  687.000;  669.000
926.214;  157.500;  907.000;  850.000
926.454;  116.900;  706.000;  757.000
926.693;    3.600;  419.000;  543.000
926.932;  130.800; 1021.000;  825.000
927.171;  209.400; 1107.000; 1044.000
927.410;  206.400; 1144.000;  967.000
927.649;   97.500;  924.000;  742.000
927.888;   94.100;  590.000;  564.000
928.127;   63.800;  680.000;  678.000
928.366;  105.800;  842.000;  826.000
928.605;  155.800;  831.000;  737.000
928.844;  492.300; 1451.000; 1393.000
929.083; 1041.200;  770.000;  613.000
929.321;  560.200; 1335.000; 1359.000
929.560;  228.500; 1158.000; 1122.000
929.799;    5.700;  574.000;  475.000
930.038;  296.700; 1025.000; 1394.000
930.276;  -31.900;  334.000;  397.000
930.515;   67.800;  827.000;  681.000
930.753;   66.900;  614.000;  589.000
930.992;   44.000;  664.000;  717.000
931.230;  100.700;  847.000;  847.000
931.469;  459.200; 2162.000;  892.000
931.707;  228.500;  840.000;  751.000
931.946;  208.400; 1278.000; 1344.000
932.184;  240.500; 1437.000; 1175.000
932.423;  201.000; 1265.000;  963.000
932.661;  251.800; 1296.000; 1428.000
932.899;  132.600;  987.000;  821.000
933.137;   68.700;  754.000;  564.000
933.376;  359.300; 1664.000; 1335.000
933.614;  356.700; 1759.000; 1196.000
933.852;  173.000; 1357.000; 1171.000
934.090;  369.500; 1722.000; 1747.000
934.328;  283.100; 1252.000; 1457.000
934.566;  221.200; 1431.000; 1110.000
934.804;  316.700; 1263.000; 1309.000
935.042;  993.100; 1861.000; 1850.000
935.280; 3637.200; 2088.000; 2063.000
935.518; 2761.600; 2113.000; 2007.000
935.756;  708.200; 2481.000; 2316.000
935.994;  397.400; 1808.000; 1751.000
936.231;  674.400; 2890.000; 2950.000
936.469;  419.300; 2367.000; 2378.000
936.707;  407.200; 2220.000; 2167.000
936.945;  531.300; 2825.000; 2882.000
937.182;  541.600; 2679.000; 2741.000
937.420;  693.500; 3602.000; 3031.000
937.657;  898.000; 3365.000; 3478.000
937.895;  755.600; 3331.000; 3488.000
938.133;  740.400; 3540.000; 3528.000
938.370;  739.900; 3896.000; 4191.000
938.607;  919.400; 4488.000; 4205.000
938.845; 1210.500; 5587.000; 5549.000
939.082; 1094.000; 5387.000; 5177.000
939.320; 1212.200; 5799.000; 5728.000
939.557; 1391.100; 6549.000; 6491.000
939.794; 1521.400; 7285.000; 7097.000
940.031; 1889.700; 8421.000; 8368.000
940.269; 2290.400; 9552.000; 9107.000
940.506; 2375.300;10901.000;10507.000

