
Integration time [ms]: 100.000
Averaging Nr. [scans]: 40
Smoothing Nr. [pixels]: 0
Data measured with spectrometer [name]: 2101013U2
Wave   ;Sample   ;Dark     ;Reference
[nm]   ;[counts] ;[counts] ;[counts] 

394.013;   67.690; -450.257; -315.536
394.305;  269.713; -461.258; -419.536
394.596; 1131.508; -676.269; -527.514
394.887; 2629.825; -796.268; -654.518
395.178; 1023.556;  145.736;   11.476
395.470;   98.742; -210.263; -356.526
395.761;  227.340;  305.734;  394.479
396.052;  434.681; -545.284; -306.489
396.343;  436.802; -557.276; -454.503
396.634;  141.995; -200.279; -290.497
396.926;  149.872; -618.268; -565.517
397.217;  138.082;   11.725;  -17.504
397.508;   69.548; -366.273; -154.507
397.799;   67.420; -555.279; -571.497
398.090;   19.090; -973.280; -902.495
398.381;  139.355;   11.708;  -11.473
398.672;   16.032; -585.292; -742.473
398.963;   72.127; -348.279; -373.498
399.254;  126.416;   54.709; -209.475
399.545;   -9.263;-1017.266; -883.520
399.836;   77.891; -407.277; -343.501
400.127;   58.831; -205.295; -209.468
400.418;   72.342; -423.274; -392.506
400.709;   85.202; -359.281; -333.493
401.000;   67.945; -268.291; -309.476
401.290;  107.567;  225.698;  115.545
401.581;   81.589; -166.286; -228.485
401.872;   33.403; -542.298; -486.462
402.163;   56.499; -313.296; -252.467
402.454;   99.841; -123.291; -163.475
402.744;  101.765; -844.297; -813.465
403.035;  498.497; -226.293;  -86.471
403.326;  658.834; -366.292; -384.474
403.617;  413.797;  204.701;  165.539
403.907;  279.662; -593.283; -679.490
404.198; 2341.945; -545.307; -599.446
404.489; 6196.917; -618.283; -588.491
404.779; 2084.421; -618.302; -660.456
405.070;  231.299;  -67.304; -174.451
405.360;  353.448; -259.293; -238.472
405.651;  376.657;  125.699;   98.542
405.942;  200.009;  209.714;  127.516
406.232;  345.249; -432.285; -413.487
406.523;  538.366;  641.706;  758.530
406.813;  122.761; -579.286; -644.484
407.104;  413.129;  261.708;  144.527
407.394;  222.499; -604.299; -591.462
407.685;  167.723;  336.715;  222.513
407.975;   81.941; -400.283; -382.490
408.265;  124.681; -134.289; -190.478
408.556;   75.013; -472.291; -459.475
408.846;  173.217;  474.706;  429.530
409.137;   80.815;   -1.288; -216.480
409.427;   64.024; -193.285; -271.487
409.717;   48.501; -776.273; -692.508
410.007;  154.742;    4.715; -170.486
410.298;   90.634; -360.295; -342.469
410.588;   83.046; -495.285; -510.486
410.878;   52.601; -792.287; -873.482
411.168;  135.555; -481.298; -478.463
411.459;  127.435; -295.283; -242.489
411.749;   62.562; -609.292; -507.474
412.039;   71.838; -755.289; -386.480
412.329;  209.609;   40.722;  132.501
412.619;  214.912;  -62.286; -148.485
412.909;  372.409;  639.711;  594.521
413.199;  377.890; -130.280; -251.495
413.490;  440.199;  521.710;  352.523
413.780;  168.619;-1013.279; -913.496
414.070;  355.678;  -46.276;  235.497
414.360;  410.280; -729.278; -666.498
414.650;  449.972; -726.288; -688.482
414.940;  539.893; -538.280; -441.496
415.230;  929.794;   50.712;   74.519
415.520; 6041.807;  155.730;   66.486
415.809;24053.676; -305.281; -125.493
416.099;18030.468; -388.277; -229.501
416.389; 5051.190;  435.726;  236.494
416.679; 2916.196;   91.738;   85.473
416.969;  528.230; -527.287; -503.483
417.259;  464.821;  341.721;  171.503
417.549;  692.375;  522.718;  318.508
417.838; 1629.825; -205.268; -147.518
418.128; 5383.005;  650.710;  492.522
418.418; 4397.858; -491.272; -579.509
418.708; 3029.515;    9.726;  -48.506
418.997;11355.036; -474.275; -480.505
419.287;11559.722; -733.273; -790.507
419.577;10869.460; -160.283; -123.489
419.866;36583.941; -588.277; -498.501
420.156;37641.053; -242.270;  -55.513
420.446; 6647.388; -112.263;  -26.526
420.735;  935.497; -376.271; -446.512
421.025;  851.179; 1830.722;  315.502
421.314;  780.720; -203.271; -226.512
421.604; 1683.992;   89.732;  233.484
421.893;  990.592; -705.271; -602.511
422.183;  253.389; -487.263; -461.526
422.472;  385.043;  -36.271; -107.511
422.762;  493.093; -416.266; -379.521
423.051;  270.829; -916.276; -916.503
423.341;  345.449; -491.273; -439.507
423.630;  437.449; -121.265;   15.477
423.919;  397.135;   58.725;   49.495
424.209;  393.569;  -31.263;   56.473
424.498;  510.172;   68.732;  161.483
424.787; 1076.253; -535.267; -601.518
425.077; 3388.422;   34.735;   29.478
425.366; 4942.700; -734.262; -744.528
425.655; 9648.125;  639.727;  259.493
425.945;20279.956; -313.247; -268.554
426.234;11010.398;  117.741;  300.467
426.523; 5070.628;  -86.259; -350.534
426.812; 6818.614;  107.734;  159.480
427.101; 9994.089; -127.269; -323.515
427.390;12724.532;  -55.270;  -86.514
427.680; 3070.598; -624.257; -411.538
427.969;  541.784; -330.255; -301.540
428.258;  351.590; -385.257; -477.536
428.547;  565.312;  449.728;  397.490
428.836; 1416.650; -421.253; -398.543
429.125; 2063.930; -199.259;  -72.534
429.414;  886.048; -330.251; -294.548
429.703; 3100.573; -231.251; -213.548
429.992; 9210.452; -938.250; -828.549
430.281; 5868.031; -397.264; -331.524
430.570;  618.414;  -21.252;   32.454
430.859;  645.478;  279.741;  352.466
431.148;  489.926;  636.752;  631.446
431.437;  309.663;  391.748;  367.454
431.725;  171.766; -544.257; -481.536
432.014;  136.958; -845.253; -756.545
432.303;  405.678; -149.239; -105.569
432.592;  700.363; -460.263; -178.525
432.881; 1076.403; -601.248; -437.554
433.169; 5973.635; -343.255;  -61.540
433.458;12181.062;  445.765;  540.424
433.747; 5077.656; -397.261; -289.529
434.036;  967.629; -275.242; -280.564
434.324; 2093.890; -395.249; -379.551
434.613; 3557.022;   40.757;  159.437
434.902; 1230.543;  333.760;  439.433
435.190;  690.502;   75.761;  295.431
435.479;  379.704;  -52.245;   83.441
435.767;  139.462; -411.244; -427.561
436.056;  246.724; -340.242; -294.563
436.345;  403.245; -372.240; -223.568
436.633;  404.360;   60.750;  383.450
436.922;  308.998;  208.760;  414.432
437.210;  742.577; -194.236;    1.426
437.499; 2427.735; -583.235; -432.576
437.787; 2583.927; -339.236;  -10.574
438.075;  638.833;   56.761;  162.430
438.364;  888.935;  -44.238;  250.429
438.652;  554.816; -286.226; -138.592
438.941;  142.380;    3.770;  269.415
439.229;   25.486; -665.252; -466.545
439.517;   44.844; -160.234;  -85.577
439.806;    7.382; -501.225; -290.595
440.094;  205.477;  377.766;  650.421
440.382;  232.380; -653.233; -302.580
440.670;  264.785; -361.235; -285.576
440.959;   45.050; -347.223; -170.599
441.247;   84.841; -151.229; -109.587
441.535;  129.967; -266.235;   31.423
441.823;   50.099; -497.234; -305.578
442.111;  197.446;  173.771;  327.412
442.400;  621.303; -628.245; -335.559
442.688; 1729.651; -111.234; -620.579
442.976; 1252.138; -786.213; -450.617
443.264;  132.789; -324.224; -364.597
443.552;  120.017; -258.226;   51.408
443.840;  164.991;  602.765;  876.423
444.128;  113.705;  265.767;  269.420
444.416;   12.323; -694.228; -312.588
444.704;   37.655; -465.219;  -92.605
444.992;   88.570;   -0.226;  240.407
445.280;   69.705; -517.230;  -94.585
445.568;   63.167; -694.212; -396.618
445.856;  410.614; -174.221;  357.398
446.143;  924.376;  -54.220;   -7.604
446.431;  719.977;  -25.228;  625.411
446.719;  274.274;  489.783;  675.391
447.007;  205.175;  481.769;  705.416
447.295;  192.622;  597.777;  871.402
447.583;  110.214; -464.229;  -34.587
447.870;  183.185; -434.221; -202.601
448.158;  475.979; -104.230;  129.415
448.446;  358.427; -800.219; -338.604
448.733;  185.015;   13.776;  269.403
449.021;  276.092;   60.788;  341.382
449.309;  191.857; -296.210;  208.379
449.596;  232.195;  128.783;   59.392
449.884;  177.354; -571.222; -325.600
450.172;  153.857; -756.227; -406.590
450.459;  419.572;  645.786;  780.387
450.747; 2269.419; -411.218; -147.608
451.034; 7258.628;  493.772;  889.411
451.322; 5828.825; -413.214; -170.614
451.609;  496.492;  292.777;  508.403
451.897;  581.021; -550.203; -183.634
452.184; 1745.847; -622.223; -400.598
452.472; 1630.353;   97.792;  269.375
452.759;  359.728;  512.781;  864.395
453.047;  128.164; -407.212; -125.617
453.334;  110.035; -732.219; -216.606
453.621;  119.127; -438.214; -161.615
453.909;  129.662;   13.796;  384.368
454.196;  127.833; -299.199; -123.641
454.483;  225.009;  317.798;  540.364
454.771;  146.607; -215.208;  196.374
455.058;   57.335; -316.207;  102.374
455.345;  120.364;   71.807;  344.347
455.632;   80.438; -128.207;  235.373
455.919;   50.306;  -82.196;  182.354
456.207;  -52.937; -774.198; -450.642
456.494;   -3.204; -475.200;  -66.639
456.781;    8.829; -399.202; -198.635
457.068;   70.670; -253.206;  -29.628
457.355;    3.071; -698.206; -401.629
457.642;    6.251; -552.205; -290.630
457.929;   14.330; -778.194; -417.651
458.216;   63.265; -575.212; -354.617
458.503;  225.160; -173.193;  -19.652
458.790;  236.704; -864.208; -630.625
459.077;  274.384;  -77.202;  110.364
459.364;  796.273; -350.195; -210.649
459.651; 1636.968;  -46.206;  220.372
459.938;  739.020; -864.209; -665.623
460.225;  161.613;  132.799;  276.363
460.512;  -40.847; -836.197; -688.645
460.799;  133.468;  -32.218;  320.392
461.086;   90.476; -370.200; -251.640
461.372;   55.188; -509.198; -279.642
461.659;  122.507; -165.196;  108.354
461.946;   79.433; -445.193;  -54.651
462.233;  248.773;  842.800;  888.361
462.519;  344.795; -814.201; -464.639
462.806; 1026.179; -768.197; -497.645
463.093;  855.654; -445.191;  -66.656
463.380;  -19.604; -920.186; -824.664
463.666;   59.406; -259.197;  -18.646
463.953;  109.393; -406.195; -243.648
464.239;  208.143; -173.195;  -77.648
464.526;  398.804;  413.806;  743.350
464.813;  372.091; -565.190; -304.658
465.099;  368.010;  606.807;  607.348
465.386;  341.638;  903.807;  921.348
465.672;   57.154; -694.197; -522.645
465.959;   35.859; -598.188; -520.662
466.245;   22.264; -468.193; -359.652
466.532;  114.441; -109.195;   63.352
466.818;   88.421; -357.186; -216.664
467.104;   19.637; -488.182; -415.672
467.391;  -12.657; -628.189; -459.658
467.677;   50.575; -289.186;    9.335
467.964;    3.500; -682.189; -471.660
468.250;   85.927; -331.186; -160.665
468.536;   87.794;   90.811;  180.341
468.822;   -4.236; -821.184; -574.668
469.109;  148.718;  351.827;  471.311
469.395;  201.723;  729.808;  787.346
469.681;  202.772;   46.811;  156.341
469.967; 1211.977; -699.188; -382.660
470.254; 2632.485; -494.188; -306.662
470.540; 1672.006; -601.196; -476.646
470.826;  245.098; -488.181; -397.675
471.112;  296.393;  288.816;  113.331
471.398;   87.097; -253.183;  -58.670
471.684;   56.676; -626.177; -447.680
471.970;    0.102; -918.180; -981.675
472.256;   25.022; -521.192; -441.654
472.542;   27.679; -499.171; -434.691
472.828;   23.282; -743.182; -607.672
473.114;   48.698; -380.166; -283.700
473.400;   28.543; -504.175; -293.684
473.686;   49.955; -452.166; -400.701
473.972;   50.683; -230.174; -131.687
474.258;  -45.782; -925.173; -843.689
474.544;  182.993; -183.178;   -2.679
474.830;  283.470;  -65.175;   45.316
475.116;  439.618; -123.190; -196.658
475.401;  607.504; -558.180; -467.676
475.687;  193.478; -725.180; -718.676
475.973;   23.016; -673.181; -770.673
476.259;  260.422;  736.825;  764.315
476.544;  368.434; -539.176; -437.682
476.830;  770.050; -398.172; -322.690
477.116;  647.658; -430.177; -336.682
477.401;  136.853;  346.820;  358.324
477.687;   -3.307; -289.175; -405.684
477.973;   45.969;   21.819;   28.326
478.258;   -7.350; -448.163; -348.706
478.544;   49.633;   21.815;   61.334
478.829;  -46.040; -818.171; -738.692
479.115;  -39.850; -749.172; -651.690
479.401;  -13.272; -444.174; -449.686
479.686;   37.127; -253.180;  -74.676
479.972;  -24.677; -886.178; -776.680
480.257;   27.600; -258.166;  -65.700
480.542;    2.664; -614.170; -469.693
480.828;  208.966; 1288.824; 1392.317
481.113;  -43.236; -464.176; -426.683
481.399;   -0.851; -236.161; -202.711
481.684;  -45.226; -620.166; -462.700
481.969;   21.413; -158.159;  -73.713
482.255;   -6.650; -439.169; -285.695
482.540;   10.324; -569.178; -441.680
482.825;    1.941; -395.187; -404.663
483.110;   90.628;  -85.169; -105.696
483.396;  175.035; -840.157; -652.718
483.681;  448.483;  543.826;  730.313
483.966;  148.232; -696.160; -700.712
484.251;    2.832; -404.174; -310.687
484.536;   10.160; -356.165; -378.703
484.822;   10.260; -205.173; -218.687
485.107;  -13.577; -599.152; -502.726
485.392;  120.791;  662.836;  541.296
485.677;   73.888;  354.832;  163.302
485.962;  124.782;  160.843;  270.283
486.247;   93.358;  -14.162;   -8.707
486.532;   39.101; -178.166; -325.701
486.817;  159.394;  381.839;  431.291
487.102;  135.981; -453.154; -514.722
487.387;  644.987; -637.156; -652.718
487.672; 1087.871; -154.164;  -38.705
487.957;  677.276; -394.160; -286.711
488.241;  188.540; -290.150; -314.729
488.526;  669.400; -280.152; -148.726
488.811; 1138.050; -881.177; -818.680
489.096;  842.234; -666.154; -702.723
489.381;  471.196;    3.847;  162.275
489.666;  342.524; -428.161; -510.710
489.950;  162.287;  558.846;  627.277
490.235;  -31.640; -480.151; -458.728
490.520;  -35.602; -756.161; -723.710
490.804;  -54.511; -827.156; -736.719
491.089;   15.756; -469.149; -299.732
491.374;   32.620; -132.164;  -75.704
491.658;    7.393; -817.147; -717.735
491.943;  197.154; -657.152; -609.727
492.227;  293.002; -178.155;  -38.721
492.512;   51.232; -294.157; -341.717
492.797;  -63.400; -713.149; -716.731
493.081;  -38.579; -588.147; -598.735
493.366;  -47.000; -751.161; -635.711
493.650;  198.424;  831.859;  917.254
493.935;   28.517; -648.147; -447.734
494.219;  -38.989; -778.142; -687.743
494.503;  -42.605; -585.150; -487.730
494.788;   46.398;   46.842;   74.285
495.072;  105.017;  184.850;  434.271
495.356;  173.584; -463.148; -343.733
495.641;  488.577; -812.146; -736.736
495.925;  471.019; -976.156; -903.719
496.209;   54.956; -599.149; -451.732
496.494;  -40.938; -763.142; -544.744
496.778;   19.331; -364.154; -360.722
497.062;  -51.682; -819.156; -627.719
497.346;  -37.772; -869.160; -640.711
497.631;  136.113;  580.852;  560.266
497.915;   68.963;  -64.145;  175.261
498.199;   63.160; -341.157; -277.718
498.483;   73.623; -562.152; -508.725
498.767;  170.068;  301.850;  300.271
499.051;  180.628; -126.149; -100.732
499.335;   31.151; -693.149; -739.731
499.619;  -26.323; -381.129; -423.767
499.903;   34.201; -272.155;  -65.721
500.187;   44.863; -588.153; -316.724
500.471;   45.078; -796.152; -595.727
500.755;  116.548;   62.839;  -96.710
501.039;   27.526; -270.155; -357.721
501.323;  110.951;  -21.141;  264.254
501.607;   60.151; -447.163; -503.706
501.891;   16.861; -607.156; -512.718
502.174;  -17.701; -726.144; -585.741
502.458;   69.157;   89.849;  370.273
502.742;   35.550; -180.138; -191.751
503.026;   99.917; -412.147; -254.734
503.310;  161.487; -437.159; -375.713
503.593;  121.743; -464.147; -325.735
503.877;  141.816; -232.133; -156.760
504.161;  191.016;    2.847;  -50.724
504.444;  144.626; -841.158; -710.716
504.728;  426.019; -487.164; -522.704
505.012;  665.940; -257.150;  -76.729
505.295;  513.049; -417.161; -212.711
505.579;  488.693; -256.156; -496.719
505.862;  710.409; -555.145; -333.738
506.146;  689.739; -681.159; -758.714
506.429;  379.015;  568.841;  461.286
506.713;   56.187; -732.151; -667.728
506.996;  299.956;   90.846;  295.278
507.280;  321.639; -633.165; -474.703
507.563;  227.424; -469.155; -261.721
507.847;  101.339; -423.153; -112.724
508.130;   97.700; -665.161; -456.711
508.413;  105.720; -758.167; -577.700
508.697;  227.696; -151.167;   12.300
508.980;  137.891; -422.153; -312.724
509.263;  -10.754; -466.155; -450.720
509.547;   44.289; -124.150;   82.271
509.830;   54.627; -172.160;  140.289
510.113;  103.868;  128.844;  298.281
510.396;   44.246; -530.152; -300.725
510.680;  207.711; -818.145; -812.738
510.963;  765.985;  184.846;  180.277
511.246;  675.947; -493.150; -357.730
511.529;  279.591; -482.145;  -83.739
511.812;  358.787; -250.134;   10.241
512.095;  230.859; -740.151; -396.728
512.378;   68.898; -317.147; -245.736
512.661;   21.608; -703.137; -623.753
512.944;   30.788; -750.142; -637.744
513.227;   76.230; -170.137; -171.752
513.510;   32.424; -479.144; -671.741
513.793;   42.655; -485.140; -435.747
514.076;  133.573;  -43.127;  -39.771
514.359;  118.482; -294.149; -135.732
514.642;   86.166; -442.142; -567.744
514.925;  699.504;  581.860;  561.253
515.208;  927.309; -498.134; -443.758
515.491;  583.773; -276.133; -182.761
515.773;  350.103; -410.143; -337.742
516.056; 1914.064;  249.864;  409.246
516.339; 2694.243; -754.136; -652.755
516.622; 1966.570; -518.150; -488.730
516.904; 1458.910;  882.857;  975.257
517.187;  703.604; -730.138; -523.752
517.470;  423.134; -568.143; -510.743
517.752;  415.496; -624.136; -470.756
518.035;  337.466; -708.139; -725.749
518.318;  340.893; -799.136; -744.755
518.600; 2198.876; -300.132; -325.762
518.883; 3082.316;  310.858;   88.256
519.165; 1468.946; -585.138; -426.751
519.448;  401.701;  -61.132;  -19.762
519.730;  211.730; -573.126; -415.773
520.013;  323.444;  588.867;  664.240
520.295; 1015.839;  -94.134;  -15.759
520.578; 2270.114; -335.131; -305.764
520.860; 2479.026; -254.132;   56.238
521.143; 1276.973; -763.135; -584.756
521.425;  481.568; -251.125; -279.775
521.707;  633.373; -622.127; -380.771
521.990; 1674.973; -199.127;  167.229
522.272; 1905.357; -116.140;   -4.748
522.554;  924.004; -237.143; -157.742
522.836;  431.562;  -24.134;   99.241
523.119;  236.715; -496.148; -189.734
523.401;  175.196; -448.130; -314.766
523.683;   94.258; -865.137; -693.753
523.965;  265.727;  408.862;  260.248
524.247;  261.165;   54.878;  170.220
524.529;  203.539; -451.134; -367.759
524.812;  350.223;   -3.130;  191.234
525.094;  782.576; -773.138; -631.751
525.376; 1259.902; -143.124;   78.223
525.658;  748.441; -441.136; -339.754
525.940;   20.036; -805.131; -671.764
526.222;   51.219; -188.136;  -88.755
526.504;  136.109; -190.131;   32.237
526.786;  242.117; -960.133; -647.760
527.068;  388.658; -124.123;  -67.778
527.349;  165.962; -865.137; -774.754
527.631;  143.851; -137.132;   22.238
527.913;  114.347; -664.127; -450.771
528.195;  140.636; -761.125; -639.774
528.477;  222.559;  -93.134;  -30.758
528.759;  125.898; -648.130; -522.766
529.040;   51.532; -569.123; -293.778
529.322;   46.689; -235.125;  -10.774
529.604;  166.950;  -47.130;   93.233
529.886;  171.930; -546.126; -302.773
530.167;  125.342;  232.870;  192.235
530.449;   55.072;    1.853;   63.265
530.731;    8.539; -572.122; -459.779
531.012;   78.935; -513.120; -216.784
531.294;   72.699; -118.116;  -43.792
531.575;  135.743;  290.875;  538.225
531.857;   48.554; -548.135; -266.757
532.138;   95.875; -113.141;   40.254
532.420;  169.350;  294.865;  403.244
532.701;  262.369; -722.133; -751.760
532.983;  381.647;  232.867;  182.239
533.264;  146.728; -243.126;  175.228
533.546;  -31.881; -491.136; -508.755
533.827;   49.916;  173.867;   -1.759
534.109;   63.204; -352.135;  -80.757
534.390;   90.930; -725.132; -582.762
534.671;  241.500; -270.135;  -82.756
534.953;  141.559; -751.123; -611.779
535.234;   31.259; -426.117; -255.789
535.515;  -68.732; -891.119; -735.785
535.796;  -18.707; -431.128; -193.770
536.078; -105.348;-1050.124; -904.777
536.359;    4.935;  -22.123;    3.221
536.640;  -14.112; -480.125; -197.774
536.921;  154.256;  225.871;  143.232
537.202;  371.448;  -87.138;  -16.751
537.483;  432.114;  251.869;  377.236
537.764;  157.542;   17.870;   98.235
538.045;  -42.467; -543.134; -371.758
538.326;  -23.718; -596.129; -447.768
538.607;   21.399; -686.127; -476.771
538.888;  170.601;   98.879;    5.218
539.169;  178.345; -704.122; -535.781
539.450;  317.529;  236.871;   16.233
539.731;  238.330; -361.121; -182.783
540.012;  150.035;  199.880;  412.216
540.293;   73.622;   82.876;  158.224
540.574;   34.895; -895.113; -717.796
540.855;  460.603;  435.879;  377.218
541.136;  519.693;   47.878;  139.220
541.416;  269.124; -161.130; -220.766
541.697;  187.084; -274.131; -170.763
541.978;  968.502; -270.135; -315.757
542.259; 1235.299; -211.127; -236.771
542.539;  566.943; -191.116; -186.790
542.820;  176.743;  461.875;  480.225
543.101;  133.437;  -52.145;  -77.738
543.381;   46.198; -638.127; -591.771
543.662;  256.421;  159.873; -254.771
543.942;  532.544; -751.127; -830.770
544.223;  999.294;  193.878;  161.219
544.504;  624.027; -275.124; -182.777
544.784;  537.080; -592.126; -408.773
545.065; 1587.897;  104.884; -254.791
545.345; 1836.868;  227.881;   14.215
545.626; 1189.919;  -14.113; -108.796
545.906;  814.991;   77.869;   98.235
546.186;  324.034;   92.874;  -95.773
546.467;  185.179;   99.877;  -95.778
546.747;  318.343;  264.884;  327.210
547.027;  342.550;   91.876;  111.223
547.308;  303.493; -376.127; -530.770
547.588;  356.858;  299.871;  371.232
547.868;  196.742;  458.870;  588.235
548.149;  169.329;  609.885;  593.207
548.429;  114.747; -347.127; -299.771
548.709;  196.634; -645.120; -461.784
548.989;  439.428;   84.882;   88.213
549.269; 1908.449;   10.868;  139.239
549.550; 4491.734;  215.877;  117.222
549.830; 4018.488; -758.111; -556.799
550.110;  766.195; -468.110; -320.801
550.390;  757.789; -128.122;  -56.779
550.670; 1082.940; -868.114; -783.795
550.950;  760.928; -509.121; -471.782
551.230;  186.149;  549.879;  460.218
551.510;   -7.548; -381.121; -326.782
551.790;   33.878; -173.109; -127.803
552.070;  242.854;  940.877; 1181.223
552.350;  380.397; -492.119; -377.786
552.630;  558.297;   -2.121;   77.219
552.909;  323.122;  181.884;   73.209
553.189;  203.356;  -49.132;   33.237
553.469;  177.122; -703.119; -514.786
553.749;  172.675; -469.127; -357.772
554.029;  138.988;   33.883;  -24.790
554.308;  137.534; -154.115;  -37.794
554.588;   50.917; -196.128; -204.770
554.868;   44.804; -366.121;  -47.782
555.147;  133.181; -114.115;  -46.793
555.427;  524.300; -260.116; -250.792
555.707; 3566.079; -284.115; -200.793
555.986; 4339.891; -719.111; -538.800
556.266; 2227.692;   23.884;   72.210
556.546;  106.552; -888.121; -675.782
556.825;  217.338; -657.114; -556.794
557.105; 1649.115; -125.128;   17.230
557.384; 1945.696;  122.884;  187.209
557.664;  704.874; -717.116; -508.792
557.943;  104.453; -557.121; -411.782
558.222;  148.756; -345.118; -344.788
558.502;  258.332; -116.115;  -76.793
558.781;  464.728;  194.885;  499.208
559.061;  372.231; -232.118; -227.788
559.340;  262.111;  302.883;  353.211
559.619;  651.691;   93.884;  148.210
559.899;  923.338; -239.117; -266.789
560.178;  834.907; -778.115; -593.793
560.457; 2877.464; -623.117; -562.790
560.736; 4075.092; -472.111; -482.800
561.015; 2657.988; -500.128; -502.769
561.295;  366.323;  180.893;  215.193
561.574;  334.129;  119.885;  116.207
561.853;  476.932;  274.891;  303.197
562.132;  453.334;  -45.114;  182.206
562.411;  394.347;  396.879;  553.219
562.690;  121.327; -592.115; -458.792
562.969;  127.702;  472.888;  630.203
563.248;  470.970; 2966.878; 2487.219
563.527;  237.641; -290.111; -408.800
563.806;  353.447; -650.127; -521.771
564.085;  383.413; -297.105; -206.810
564.364;  207.566; -594.117; -405.790
564.643;  444.848; -276.121; -223.781
564.922; 1725.026;  221.890;  397.198
565.201; 1747.130; -640.109; -700.803
565.479;  725.001; -297.115; -219.792
565.758;  298.315; -810.128; -712.770
566.037;  444.956; -155.109; -100.803
566.316;  222.922; -286.116;  -28.791
566.595;   40.229;  -17.115;  -12.793
566.873;   78.443; -166.111;  -79.801
567.152;  -66.124; -490.113; -590.797
567.431;    9.367; -113.116;    6.210
567.709;   11.598; -344.107; -212.807
567.988;  229.188; -810.114; -769.794
568.266;  506.879; -160.115;  -68.793
568.545;  344.661; -644.100; -514.819
568.824;  530.850;  160.885;  356.208
569.102;  506.862; -351.114; -235.794
569.381;  196.025; -492.116; -407.792
569.659;  -38.803; -553.113; -553.796
569.938;   25.818; -743.122; -465.780
570.216;  108.009; -225.109; -225.804
570.494;  -22.559; -632.114; -572.795
570.773;   40.601;  202.879;  114.218
571.051;   13.332; -373.123; -357.778
571.330;   46.770; -221.113; -174.796
571.608;   30.504; -181.098; -173.823
571.886;  -68.164; -671.111; -581.799
572.164;  -63.471; -739.121; -621.782
572.443;  -46.533; -562.105; -512.811
572.721;  -41.210; -399.117; -289.790
572.999;  -28.767; -280.117; -168.788
573.277;   89.911;  379.894;  620.191
573.555;  242.438;   94.894;   37.190
573.834; 1221.958;  -86.117; -114.788
574.112; 1442.451;  880.893;  811.193
574.390;  428.493; -143.111;  -96.801
574.668;   -3.373;  -91.112;  -61.797
574.946;  -17.487; -165.106; -187.810
575.224;    4.030;   71.891;  -16.803
575.502;  -11.956; -200.116; -204.791
575.780;  -75.197; -767.112; -829.798
576.058;  202.717; 1589.889; 1004.200
576.336;  -35.678; -210.110; -129.801
576.614;  -54.621; -511.112; -340.798
576.891;   37.833; -711.115; -823.794
577.169;  428.667; -158.108; -285.805
577.447;  523.600;  169.893;  202.193
577.725;  244.033;  629.888;  854.201
578.003;   15.981;  -71.112; -371.798
578.280;   83.276; -208.104; -242.812
578.558;   66.082; -450.115; -422.793
578.836;  127.165; -210.114; -145.795
579.114;   55.252; -630.112; -670.797
579.391;   61.535;   -6.117;  -18.789
579.669;  -49.441; -595.114; -704.794
579.947;  138.247; -326.107; -127.806
580.224;  297.822; -692.107; -524.806
580.502;  292.926;  127.893;   76.193
580.779;   18.115;  -42.117;   75.210
581.057;  -68.241; -584.109; -470.804
581.334;  -83.409; -726.102; -695.815
581.612;   25.889;   54.895;  511.190
581.889;  -29.070;  -83.101; -129.818
582.167;  -44.356; -298.099; -190.821
582.444; -100.751; -845.102; -814.817
582.721;   88.850;  657.899;  715.183
582.999;   39.941; -326.100; -167.821
583.276;  462.762; -812.123; -713.779
583.553;  664.444; -364.102; -294.816
583.831;  201.173; -607.104; -631.812
584.108;   45.615;  349.892;  174.195
584.385;    6.316; -122.102;  -98.815
584.662;  -61.831; -651.111; -828.801
584.940;   38.343;  204.889;  204.199
585.217;  -34.328;  -73.113; -303.796
585.494;   27.927;   71.890;  118.198
585.771;  197.160; -250.109; -354.804
586.048;  470.572; -196.113;  -76.796
586.325;  280.846; -721.110; -773.801
586.602;   86.852;  230.896;  213.188
586.879;  -15.412; -499.100; -580.820
587.156;   32.540; -156.105; -331.810
587.433;  -39.453; -701.102; -667.817
587.710;   58.954;  152.888;  234.202
587.987;  275.245; -264.105; -236.811
588.264;  761.156;  315.888;  387.202
588.541; 1243.479;  -61.104;   26.187
588.818; 2557.387;   72.892;  171.196
589.095; 2184.150; -163.104; -174.812
589.371;  343.808; -459.109; -414.804
589.648;   10.976; -581.107; -437.807
589.925;   27.691; -517.114; -621.795
590.202;    4.854; -741.112; -607.798
590.478;   74.322; -166.105;  -73.811
590.755;  233.518; -241.108; -132.806
591.032; 2269.349; -741.110; -699.802
591.308; 3175.994; -732.094; -790.831
591.585; 1597.548; -573.110; -560.802
591.862;  125.224;-1056.102; -950.817
592.138;   59.316; -475.108; -474.805
592.415;  122.227; -486.104; -495.813
592.691; 1348.000;  460.896;  518.188
592.968; 1761.256; -208.098; -123.824
593.244;  817.893; -695.116; -595.790
593.521;   77.349; -105.102;  -42.817
593.797;  -20.535; -810.122; -720.780
594.074;  312.769; -611.096; -588.826
594.350;  639.080;  828.905;  729.172
594.626;  267.344; -303.111; -283.801
594.903;   83.499; -643.101; -645.817
595.179;  168.181;  243.896;  418.187
595.455;   23.902; -136.107; -150.807
595.731;   15.183;  -19.103;  -38.814
596.008;  -36.987; -464.111; -434.800
596.284;    6.315; -187.100; -242.820
596.560;   34.226; -501.093; -493.833
596.836;  176.967; -173.105;  -70.810
597.112;  318.691; -582.108; -437.805
597.388;  269.441;  -49.097;  -48.826
597.665;   96.275;  437.887;  530.203
597.941;  -67.170; -572.089; -658.839
598.217;    7.152; -323.110; -293.802
598.493;  227.286;   61.891; -204.804
598.769;  476.184; -175.100;  -50.819
599.045;  270.319; -490.108; -562.806
599.321;   40.214; -193.100; -261.820
599.597;  132.586; -355.109; -476.804
599.872;  428.279;  409.896;  429.187
600.148;  316.568;  -61.097; -172.826
600.424;  257.099;   91.893;  202.193
600.700;  213.201; -170.107; -280.807
600.976;   95.637; -442.097; -464.825
601.252;  209.732; -226.109; -272.803
601.527;  180.530; -833.104; -840.813
601.803;  126.797; -453.105; -404.812
602.079;  156.884; -124.100; -118.819
602.354;  507.011; -620.092; -531.835
602.630;  777.022; -140.113; -482.796
602.906; 2051.980; -910.101; -863.818
603.181; 6233.722; -627.119; -534.786
603.457; 5263.566;   98.903; -278.826
603.733;  754.381; -605.120; -626.783
604.008;  845.313; -245.106; -164.810
604.284; 2863.751; -636.101; -580.817
604.559; 2473.008;   -3.112;  -42.799
604.835;  430.041; -163.105; -225.810
605.110;  367.194; -732.099; -892.821
605.385;  665.604;  224.907;  267.167
605.661;  564.357; -625.095; -729.829
605.936; 1065.145; -664.108; -737.806
606.211;  902.839;  -17.103; -170.815
606.487;  184.561; -329.114; -376.794
606.762;   11.422; -791.119; -745.786
607.037;  -33.533; -501.105; -433.810
607.313;  -64.424; -589.096; -574.828
607.588;    2.638; -375.106; -137.810
607.863;   14.504;  -28.101; -143.818
608.138;  160.075;  513.890;  516.198
608.413;   10.773; -576.099; -592.822
608.688;   42.866; -203.108; -267.805
608.964;  180.082; -509.106; -218.809
609.239;  226.789; -107.105; -212.810
609.514;  205.297;  281.895;  240.188
609.789;  614.276; -187.104; -716.812
610.064;  802.150; -435.096; -609.827
610.339;  766.933; -855.109; -799.804
610.614; 1052.240; -131.100; -315.820
610.889;  601.472;  215.895;  107.188
611.163;   35.373; -407.104; -591.812
611.438;   67.037;   81.886; -167.794
611.713;  -17.899; -467.101; -499.817
611.988;   41.153; -144.101; -328.818
612.263;  -22.659; -771.102; -717.815
612.538;  184.096;  385.887;  251.204
612.812;  159.016; -832.100; -911.820
613.087;  117.304; -358.098; -338.823
613.362;  -54.673; -497.107; -557.807
613.637;   29.411;  261.897;  138.186
613.911;  -15.539; -256.092; -345.835
614.186;   94.950; -249.107; -292.807
614.460;  597.181; -842.081; -758.854
614.735;  711.329;  -55.087;  -17.843
615.010;  147.619;   43.912;  -82.841
615.284;  203.040;  360.892;  246.195
615.559;  341.960; -792.092; -955.835
615.833;  263.521;  -76.099;  -87.822
616.108;   -4.803; -225.090; -390.837
616.382;  118.731;  274.913;  402.156
616.656;  137.798; -241.090; -232.837
616.931;  445.547; -785.099; -700.822
617.205;  963.155; -973.104; -979.813
617.480;  885.791;  -91.125;    6.225
617.754;  139.664; -396.125; -128.774
618.028;    3.884; -369.129; -382.768
618.302;   49.964;   73.892;  -25.805
618.577;  -47.838; -371.103; -518.815
618.851;  -60.946; -399.109; -600.803
619.125;  -65.536; -335.134; -378.759
619.399;  -27.619; -244.104; -374.813
619.673;  -52.424; -330.115; -515.792
619.947;  -47.785; -333.114; -448.795
620.222;  -20.030; -198.110; -204.801
620.496;  -19.922;  -47.121;  -96.782
620.770;   10.920; -187.122;  -93.781
621.044;  198.990;  323.895;  346.190
621.318;  681.806; -653.120; -614.783
621.592;  592.429; -430.121; -409.783
621.866;  316.234; -476.112; -572.799
622.140;    9.494; -207.116; -356.791
622.413;   46.813;  138.889;  112.200
622.687;  -47.574; -746.101; -492.817
622.961;    9.989; -130.108; -143.805
623.235;  -79.736; -633.111; -661.800
623.509;  -98.654; -816.105; -848.811
623.783;    9.473;  -12.107;   48.193
624.056;  -29.043; -254.120; -280.783
624.330;   41.502;   63.888;   -3.797
624.604;   39.491; -271.116; -355.790
624.877;   67.799;  180.890;   26.198
625.151;   41.885; -249.114; -238.794
625.425;  -44.417; -150.103; -283.814
625.698;  -56.808; -367.119; -374.785
625.972; -106.023; -799.110; -765.802
626.245;   67.943;  685.884;  484.210
626.519;  -61.539; -426.120; -340.784
626.792;  -40.799; -192.107; -380.807
627.066;  -95.887; -485.122; -662.779
627.339;  -97.027; -736.110; -663.802
627.613;   28.510;  351.880;  148.216
627.886;   33.754;  187.891; -612.803
628.160;  -12.544;  312.880; -161.783
628.433;  -90.581; -695.125; -703.775
628.706;  -76.989; -517.120; -615.784
628.979;   18.050;  296.876;  117.223
629.253;  -95.378; -785.119; -833.786
629.526;  311.103; -334.126; -253.772
629.799;  295.908; -641.123; -479.778
630.072;  128.410; -497.128; -516.769
630.346;  -61.632;-1115.116;-1080.790
630.619;  398.827; -467.107; -545.808
630.892;  566.890;  709.889;  593.200
631.165;  299.656;  790.896;  679.187
631.438;  -74.694;-1092.112;-1055.798
631.711;   45.311;  453.877;  257.221
631.984;  -56.612; -523.117; -624.789
632.257;  -85.390; -636.117; -681.789
632.530;  -50.358; -412.119; -433.785
632.803;    5.908; -109.115;    7.207
633.076;  -79.096; -360.123; -422.777
633.349;    1.164;  173.872;  121.231
633.622;  -49.859; -187.119; -240.785
633.895; -122.568; -903.120; -823.783
634.167;  -65.870; -496.126; -525.773
634.440;  -16.551;  -19.116; -137.792
634.713;  -10.330;  -22.119; -120.786
634.986;   65.404;  593.871;  453.233
635.258;  -80.244; -507.115; -597.793
635.531;   80.930;  742.882; -343.788
635.804;  -28.613; -303.117; -318.789
636.077;  -92.080; -830.116; -852.791
636.349;  -16.171; -586.115; -474.793
636.622;  365.727; 1695.874; 1392.228
636.894;  211.887; -474.120; -909.784
637.167;  128.121; -836.127; -789.771
637.439;   16.968; -278.128; -213.770
637.712;  -61.321; -312.126; -293.772
637.984;  -87.804; -635.116; -707.791
638.257;  347.380;  515.877;  488.222
638.529;  537.870; -881.125; -924.776
638.802;  224.585; -508.128; -449.769
639.074; -114.706; -927.122; -952.781
639.346; -112.820; -942.135; -930.757
639.619;    7.740;  -79.142; -319.744
639.891;  -16.912;  -83.122; -168.779
640.163;  -80.210; -689.122; -756.780
640.435;   30.016;  273.878;  103.220
640.708;    6.668;  -72.122; -132.780
640.980;  -24.755; -366.122; -362.781
641.252;  161.247;  -25.121;  -71.781
641.524; 1684.999;  580.879;  573.219
641.796; 1739.126;-1094.121; -907.782
642.068;  300.378; -191.121; -300.782
642.340;  -56.271; -486.121; -566.783
642.613;   29.031;  294.880;  323.217
642.885; -110.792; -787.120; -878.783
643.157;  -59.740; -810.120; -658.784
643.428;   48.912;  170.880;  218.216
643.700;  -69.636; -498.120; -425.784
643.972;  -39.710;  -16.119; -133.785
644.244;  -77.108; -474.119; -559.785
644.516;  -58.256; -250.119; -114.786
644.788;   55.571;  662.881;  548.214
645.060;  -31.927;  -12.119; -124.786
645.332;  -92.675; -525.118; -535.787
645.603;   23.652;  479.882;  342.213
645.875;  -71.122; -334.118; -369.787
646.147;  141.330; 1487.882; 1242.212
646.418;  -91.918; -931.117; -918.788
646.690;  116.059; -714.117; -715.789
646.962;   21.936; -413.117; -451.789
647.233;  -14.537;   15.883;   11.211
647.505; -102.536; -595.117; -475.790
647.776;   12.916;  328.884;  229.210
648.048;  -17.182; -248.116; -418.790
648.320;  -72.280; -752.116; -679.791
648.591; -148.253;-1055.116; -958.791
648.862;  -90.426; -505.116; -577.792
649.134;   13.326;  115.885;  198.208
649.405;  -42.023; -661.115; -618.792
649.677;  -55.596; -475.115; -598.793
649.948;  -16.769; -181.115; -296.793
650.219;  -11.517;  -37.115; -147.793
650.491;  -88.715; -431.114; -520.794
650.762; -120.713; -705.114; -731.794
651.033;  -90.862; -437.114; -424.795
651.304; -113.560; -743.114; -728.795
651.576;  -82.808; -680.114; -645.795
651.847;  -44.831; -250.113; -140.796
652.118;  -24.579;  -32.113; -189.796
652.389;  -99.752; -639.113; -722.796
652.660;  -44.700; -147.113;  -89.797
652.931; -140.424; -897.112; -871.797
653.202;  -73.697; -382.112; -541.798
653.473;  -68.020; -633.112; -533.798
653.744;  150.507; -595.112; -590.798
654.015;  118.834; -356.112; -303.799
654.286;  -82.064; -642.111; -663.799
654.557;  -51.538; -586.111; -521.799
654.828; -155.111;-1114.111;-1088.800
655.099;  -76.559; -404.111; -291.800
655.370;  -93.682; -427.111; -543.801
655.641; -114.330; -656.110; -714.801
655.911;  -95.003; -618.110; -638.801
656.182;   44.749;  437.890;  387.198
656.453;   79.725;  830.890;  746.198
656.724;  -82.748; -466.110; -426.802
656.994;  -99.546; -553.109; -568.803
657.265; -105.444; -862.109; -873.803
657.536;  -80.792; -500.109; -377.804
657.806; -109.365; -561.109; -593.804
658.077; -132.714; -866.109; -950.804
658.347;  -88.937; -523.108; -598.805
658.618; -113.160; -646.108; -694.805
658.888;  -25.583;  -41.108;  112.195
659.159;  -86.731; -432.108; -548.806
659.429;  -26.454; -292.108; -349.806
659.700;    8.648; -435.107; -390.807
659.970;  -22.901; -370.107; -359.807
660.241;  -10.524; -754.107; -921.807
660.511;  452.778; -147.107; -174.808
660.781;   89.130; -793.106; -748.808
661.052;  -46.968; -222.106; -381.808
661.322;  -16.216;   21.894;   -9.809
661.592;    5.210;  257.894;  148.191
661.862;  -72.413; -369.106; -382.810
662.133;  -92.536; -551.105; -502.810
662.403; -116.909; -770.105; -676.810
662.673;  -60.407; -256.105; -213.811
662.943; -108.505; -612.105; -551.811
663.213;   -4.528;  -85.105;  -81.811
663.483;  -86.652; -593.104; -568.812
663.753;  -49.875; -194.104; -152.812
664.023;   -6.523;   68.896;  -32.813
664.293;  -69.596; -319.104; -126.813
664.563; -118.394; -694.104; -648.813
664.833; -120.117; -743.103; -608.814
665.103; -132.041; -730.103; -793.814
665.373; -119.239; -766.103; -806.814
665.643;  -89.112; -863.103; -918.815
665.913;   16.490; -534.103; -714.815
666.182;  127.492; -685.102; -719.816
666.452;  237.994;  -22.102;  -89.816
666.722;  -29.154; -724.102; -784.816
666.992; -124.328; -948.102; -921.817
667.261;  -93.376; -824.102; -808.817
667.531;  171.751;  134.899;   45.183
667.801;  549.928; -440.101; -412.818
668.070;  221.605;  714.899;  697.182
668.340; -101.693; -883.101; -840.819
668.609;   76.933;  588.900;  301.181
668.879;  -87.690; -490.100; -558.819
669.149;  -71.788; -539.100; -516.820
669.418;  -94.261; -698.100; -726.820
669.688;  -44.334; -482.100; -666.820
669.957;   65.543; -423.099; -546.821
670.226;  -25.905; -268.099; -331.821
670.496;  -96.179; -431.099; -635.822
670.765;  -93.302; -418.099; -501.822
671.034; -135.850; -872.099; -828.822
671.304;  -11.298;   55.902; -111.823
671.573; -161.946;-1085.098; -957.823
671.842;   61.881; -380.098; -294.823
672.112;   19.132; -692.098; -586.824
672.381;  -17.641; -239.098; -214.824
672.650; -145.739;-1005.097;-1021.825
672.919;  -90.662; -631.097; -507.825
673.188;  -90.610; -681.097; -878.825
673.457; -153.483;-1101.097;-1143.826
673.726;  -80.431; -579.096; -646.826
673.995;  -56.055; -533.096; -479.826
674.265;  -26.478; -263.096; -333.827
674.534;   -0.526; -183.096; -235.827
674.802;   -9.724; -618.096; -703.828
675.071;  833.128; -886.095; -801.828
675.340; 3609.730; -464.095; -339.828
675.609; 1201.931;  103.905;   82.171
675.878;   54.608; -949.095; -893.829
676.147;   21.835;  -26.095;   -8.829
676.416;   62.087; -210.094; -294.830
676.685;  679.239; 1000.906; -622.830
676.953;   92.241; -603.094; -452.831
677.222;  -40.982; -193.094; -273.831
677.491;  -31.306;  -24.094; -127.831
677.759;  -24.979;   11.907;  172.168
678.028;  -22.627; -279.093; -222.832
678.297;  -24.200;   71.907;  197.168
678.565; -150.473; -898.093; -944.833
678.834;  -71.796; -311.093; -268.833
679.102;  -85.720; -411.092; -391.834
679.371; -139.643; -898.092; -727.834
679.639; -140.566; -797.092; -786.834
679.908; -131.239; -794.092; -724.835
680.176; -161.737; -895.091; -941.835
680.445;  -80.435; -346.091; -352.835
680.713;  -37.958;  -58.091;  -23.836
680.982; -108.782; -523.091; -525.836
681.250; -107.080; -578.091; -507.837
681.518; -107.428; -534.090; -751.837
681.787;  -15.601; -204.090; -167.837
682.055;  -79.574; -490.090; -422.838
682.323; -140.622; -993.090; -992.838
682.591;   23.004; -216.090; -538.838
682.859;   70.481;    9.911;  -35.839
683.128;    8.108;  232.911;  497.161
683.396; -161.215;-1102.089;-1122.840
683.664;  -42.938; -241.089;   21.160
683.932;   -4.161;  144.911;  -76.840
684.200;  -89.559; -576.088; -320.841
684.468;  -23.658;  -73.088; -124.841
684.736;  -40.981; -214.088; -175.841
685.004; -125.329;-1024.088; -982.842
685.272;  -56.627; -880.088; -774.842
685.540;  -59.025; -499.087; -557.843
685.808;  -88.373; -651.087; -682.843
686.076; -111.547; -894.087; -969.843
686.343;  -69.370; -601.087; -815.844
686.611;   35.532; -195.087; -224.844
686.879;  372.509; -530.086; -553.844
687.147; 3017.361; -483.086; -480.845
687.414;  886.888;  -12.086; -169.845
687.682;   -8.710; -658.086; -757.846
687.950;  276.966;  259.915;  263.154
688.217;    0.168; -792.085; -760.846
688.485;  -17.330; -632.085; -636.847
688.753;  472.122;  -11.085; -102.847
689.020;  143.649; -820.085; -851.847
689.288; -110.499; -853.084; -787.848
689.555;  -34.698; -195.084; -148.848
689.823;  -41.946; -241.084; -345.849
690.090;  -90.169; -546.084; -651.849
690.358; -136.442; -877.084; -897.849
690.625;   -1.140;  120.917;   45.150
690.892;  -74.938; -403.083; -369.850
691.160;  -16.036;   72.917;  -35.850
691.427;    4.840;  141.917;  130.149
691.694; -130.408; -855.083; -929.851
691.962; -147.881;-1177.082;-1060.852
692.229;    7.996;  127.918;   56.148
692.496;   59.698;  130.918;  -49.852
692.763;    4.050; -164.082; -201.853
693.031;  -83.174; -739.082; -716.853
693.298;  -34.247; -509.081; -368.853
693.565;  239.480; -155.081; -163.854
693.832; 1171.507;   -5.081;   -9.854
694.099;  135.434; -643.081; -642.855
694.366;  -65.264; -882.081; -896.855
694.633;  -38.887; -920.080; -633.855
694.900;  693.939; 4367.920; -114.856
695.167;  408.041; -214.080; -380.856
695.434;   89.093; -646.080; -623.856
695.701;  196.370;  121.921;  -61.857
695.968;  440.347; -365.079; -361.857
696.234;  935.524; -415.079; -646.858
696.501;10497.825; -776.079; -614.858
696.768; 5606.552; -554.079; -617.858
697.035;  321.279; -632.078; -667.859
697.302;   33.256; -448.078; -552.859
697.568;    1.808; -458.078; -497.859
697.835;  -49.715; -683.078; -624.860
698.102;  -31.213; -498.078; -407.860
698.368;   56.538;  384.923;  396.139
698.635;  -30.985;  -47.077; -424.861
698.901;  -29.183; -240.077; -348.861
699.168;   52.244; -534.077; -456.862
699.435;   82.371;  -72.077;  -13.862
699.701; -114.727; -868.076; -764.862
699.968;    6.474;  144.924; -441.863
700.234; -102.999; -783.076; -822.863
700.500;  -59.247; -448.076; -539.864
700.767;   -1.895;   -1.075;   26.136
701.033; -136.143;-1015.075; -963.864
701.299;  -59.416; -450.075; -483.865
701.566;  124.535;  950.925;  763.135
701.832;   29.362;  -31.075;  -76.865
702.098; -101.461;-1054.074;-1034.866
702.365;  -79.984;-1098.074;-1030.866
702.631;  -29.082;-1038.074;-1063.867
702.897; 1239.170; -765.074; -676.867
703.163; 2221.497;  348.926;  254.133
703.429;  157.423; -256.073; -273.868
703.695;  -18.125; -796.073; -792.868
703.961;    9.502; -214.073; -210.868
704.227;  -52.996; -630.073; -725.869
704.493;  116.756;  613.927;  510.131
704.759;  -23.542; -565.072; -540.870
705.025;   25.734; -203.072; -194.870
705.291;   -0.664; -666.072; -562.870
705.557;  180.538;  719.928;   34.129
705.823;   31.365; -742.072; -694.871
706.089;  146.517; -307.071; -326.871
706.355;  354.569; -315.071; -244.872
706.620; 5613.371; -776.071; -729.872
706.886; 8370.547; -309.071; -362.873
707.152;  791.974; -818.070; -973.873
707.418;  -15.324;-1153.070;-1186.873
707.683;   19.403; -550.070; -530.874
707.949;  -44.695; -547.070; -578.874
708.215;   -0.618; -129.070; -207.874
708.480;  -38.292; -520.069; -420.875
708.746;   96.085;   68.931;   28.125
709.011;  -58.513; -578.069; -612.876
709.277;  -76.386; -538.069; -543.876
709.542;  -44.684; -428.069; -387.876
709.808;   -4.882;  -59.068;   89.123
710.073;  -87.255; -577.068; -695.877
710.339;  -29.854; -242.068; -228.877
710.604;   61.773; -780.068; -845.878
710.869;  297.850; -277.068; -366.878
711.135;  -71.948; -715.067; -628.879
711.400;  -84.996; -507.067; -608.879
711.665;  -77.994; -404.067; -479.879
711.931;  -96.743; -661.067; -677.880
712.196; -125.041; -876.067; -954.880
712.461;   75.786; -402.066; -490.880
712.726;  136.863; -727.066; -771.881
712.991;  -86.660; -647.066; -664.881
713.256;  -57.708; -350.066; -332.882
713.521;  -59.856; -417.065; -381.882
713.787;  -63.730; -454.065; -472.882
714.052;  -30.753; -214.065; -400.883
714.317;  -96.801;-1045.065; -981.883
714.581; 1024.626; -374.065; -268.883
714.846; 1577.603; -822.064; -888.884
715.111;  132.555;  261.936;  257.116
715.376;  -24.319;  -86.064; -223.885
715.641;  -26.017; -365.064; -367.885
715.906;  264.635;   15.936; -551.885
716.171;  113.487;  221.937;  209.114
716.436;   25.214;  -78.063; -104.886
716.700; -102.334; -818.063; -692.886
716.965; -115.232; -794.063; -807.887
717.230;  -84.706; -339.063; -392.887
717.494;  -39.329;  -40.062; -134.888
717.759; -107.427; -784.062; -640.888
718.024;   -8.675;  269.938;  250.112
718.288;   70.752;  685.938;  395.111
718.553; -147.671; -803.062; -977.889
718.817; -143.895; -883.061; -899.889
719.082;  -30.418; -115.061; -125.890
719.346; -131.691;-1000.061; -947.890
719.611;  -50.489; -300.061; -255.891
719.875;  -99.262; -568.060; -537.891
720.140;  -75.960; -453.060; -603.891
720.404;   22.142; -136.060; -249.892
720.668;  764.543; -475.060; -411.892
720.933;  317.895;  146.940;  137.108
721.197;  -98.053; -667.059; -600.893
721.461; -129.626; -851.059; -826.893
721.725;  -17.224;  -21.059; -250.894
721.990;  -64.897; -284.059; -204.894
722.254;  -28.471;  -26.059; -108.894
722.518;  -81.319; -286.058; -442.895
722.782; -107.717; -743.058; -594.895
723.046;  106.835;  614.942;  570.105
723.310;   19.762;  374.942;  210.104
723.574; -105.386; -654.058; -614.896
723.838; -110.159; -576.057; -642.897
724.102;  -43.108; -226.057; -239.897
724.366; -147.031;-1032.057; -978.897
724.630;  -95.054; -749.057; -571.898
724.894;  -92.402; -722.057; -514.898
725.158;  -17.950;   38.944; -295.898
725.422;  -60.373; -394.056; -327.899
725.685;  -64.272; -441.056; -349.899
725.949;  -74.295; -566.056; -519.900
726.213;  -78.193; -732.056; -811.900
726.477;  136.584;-1020.055; -933.900
726.740;  153.036; -274.055; -104.901
727.004;  295.138; -384.055; -510.901
727.268; 3359.515; -442.055; -400.901
727.531; 1057.416; -961.055; -775.902
727.795;  -23.757; -713.054; -673.902
728.059;  -52.305; -552.054; -557.903
728.322;  -80.803; -841.054; -669.903
728.586;   24.324; -692.054; -701.903
728.849;  -92.049; -695.053; -756.904
729.112; -106.673; -812.053; -912.904
729.376; -127.071; -959.053; -905.904
729.639;  -83.094; -536.053; -536.905
729.903; -114.217; -733.053; -699.905
730.166;  -72.690; -437.052; -399.906
730.429;  -39.788; -317.052; -468.906
730.693;  -90.086; -355.052; -894.906
730.956;  170.490;  810.948;  651.093
731.219;  677.392; -310.052; -103.907
731.482;   78.844;-1003.051; -894.907
731.745;   90.471; -794.051; -935.908
732.009;   15.398;  -30.051;   50.092
732.272;  -98.725; -904.051; -771.909
732.535;  -50.449; -300.051; -310.909
732.798; -154.147;-1083.050;-1166.909
733.061;  -70.795; -430.050; -456.910
733.324;   -4.443;   31.950; -180.910
733.587;   55.084;  290.950;  365.090
733.850;  -70.639; -973.049;-1050.911
734.113;   25.013;   33.951;   32.089
734.376;   -9.336; -328.049; -447.912
734.639;  205.141; 1188.951; 1011.088
734.901;   44.768; -180.049; -402.912
735.164;  426.795; -883.048; -837.913
735.427; 1261.147; -166.048; -355.913
735.690;  122.699; -205.048; -234.913
735.952;  -22.025; -923.048; -925.914
736.215;  -22.948;-1113.048;-1009.914
736.478;   40.129; -771.047; -774.915
736.740;  198.281;   33.953;  129.085
737.003;  548.533; -658.047; -672.915
737.266; 3824.185;  -94.047;   46.084
737.528;  443.087; -682.047; -660.916
737.791;  324.563; -316.046; -327.916
738.053;  742.740;  465.954;  649.083
738.316;10444.292; -162.046; -136.917
738.578; 8343.419; -770.046; -736.918
738.841;  469.396; -382.046; -446.918
739.103;  170.973; -875.045; -777.918
739.365;  489.699;   79.955;  -69.919
739.628;   10.226; -884.045; -805.919
739.890;  -24.722; -758.045; -710.919
740.152;  -37.045; -692.044; -754.920
740.414;  -13.193; -408.044; -359.920
740.677;  -53.016; -785.044; -634.921
740.939;  -53.189; -587.044; -487.921
741.201;  227.987; -432.044; -572.921
741.463;   30.364; -689.043; -745.922
741.725;   16.966;  -21.043; -199.922
741.987;   52.343;  220.957;  116.078
742.249;  -23.030; -751.043; -859.923
742.511;  181.497; -703.043; -794.923
742.773;   16.573; -546.042; -546.924
743.035;  121.800;  796.958;  533.076
743.297;  -57.498; -963.042;-1013.924
743.559;  696.529; -278.042; -262.925
743.821;   54.806; -735.042; -744.925
744.083;   -7.942;  -44.041; -149.925
744.345;  -95.390; -869.041; -892.926
744.607;   29.711;   75.959;  122.074
744.868;  -56.562; -490.041; -554.927
745.130; -107.860; -994.041;-1008.927
745.392;   38.892;   -1.040;  -44.927
745.653;  -16.981; -411.040; -378.928
745.915;  134.721;  896.960;  631.072
746.177;   43.497;   35.960;  -43.928
746.438;    8.124; -428.040; -543.929
746.700;  -52.574; -947.039; -988.929
746.961;    3.553; -659.039; -740.930
747.223;  131.905; -190.039;  -74.930
747.484;   65.832; -391.039; -471.930
747.746;  148.684;  -23.038; -106.931
748.007;  113.035; -647.038; -689.931
748.269;  279.662; -468.038; -440.931
748.530;  463.914; -852.038; -638.932
748.791;  242.566; -354.038; -420.932
749.053;  416.493;  286.963;  163.067
749.314;  441.945; -236.037; -169.933
749.575;  497.046; -945.037; -905.933
749.836;  801.298; -217.037;   86.066
750.098; 2177.425;  -60.037;  -21.934
750.359;34558.652;  414.964;  555.066
750.620;10041.729; -121.036; -220.935
750.881; 1006.531; -585.036; -513.935
751.142; 1263.383; -950.036; -938.936
751.403;15784.934; -789.036; -705.936
751.664; 8055.586;-1034.035; -999.936
751.925;  493.913; -175.035; -262.937
752.186;  273.115; -298.035; -278.937
752.447;  132.067; -590.035; -445.937
752.708;   60.719; -532.035; -648.938
752.969;    8.645; -566.034; -576.938
753.230;   -6.578; -777.034; -672.939
753.491;    7.649; -650.034; -631.939
753.751;   50.801;  109.966;   19.061
754.012;   77.253;  258.967;  181.060
754.273;   48.255; -174.033;  -71.940
754.534;   -9.843; -487.033; -580.940
754.794;  -82.192; -926.033; -911.941
755.055;  126.910; 1051.967;  881.059
755.316;  -57.838; -700.032; -566.942
755.576;  -37.911; -606.032; -576.942
755.837;  -47.684; -527.032; -695.942
756.097;  -38.557; -530.032; -564.943
756.358;  -77.581; -725.032; -770.943
756.618;  -58.154; -705.031; -641.943
756.879;    4.623; -254.031; -349.944
757.139; -116.800;-1098.031;-1116.944
757.400;  -61.398; -538.031; -553.945
757.660;  -19.871; -365.031; -401.945
757.920;   -3.219; -266.030; -228.945
758.181;  -31.568; -468.030; -351.946
758.441;  -94.991; -870.030; -809.946
758.701;  -33.564; -308.030; -215.946
758.961;  -25.137; -220.030; -278.947
759.222;  -42.410; -574.029; -502.947
759.482;  -88.583; -683.029; -723.948
759.742;  -84.257; -706.029; -547.948
760.002;    5.020;  -83.029; -143.948
760.262;   24.122;   50.972;  182.051
760.522;  -41.876; -498.028; -574.949
760.782;  -36.474; -738.028; -612.949
761.042;  -35.272; -618.028; -573.950
761.302;   41.905;   55.972;  -18.950
761.562;   44.881; -164.027; -154.951
761.822;   77.758; -710.027; -551.951
762.082;  -37.640;-1104.027;-1093.951
762.342;   71.862; -328.027; -403.952
762.601;   79.664; -567.027; -506.952
762.861;  352.816; -281.026; -207.952
763.121;  384.642; -406.026; -411.953
763.381; 7004.344; -499.026; -485.953
763.640; 9045.421; -139.026; -307.954
763.900;  390.973; -242.026; -203.954
764.160;   97.625; -458.025; -491.954
764.419;   -8.398; -726.025; -782.955
764.679;  -71.172; -795.025; -726.955
764.939;   -7.120; -124.025; -210.955
765.198;  -78.768; -608.025; -563.956
765.458;  -79.416; -710.024; -612.956
765.717;  -79.364; -454.024; -590.957
765.976;  -62.887; -428.024; -411.957
766.236;  -86.260; -475.024; -610.957
766.495;   13.116;  260.977;   73.042
766.755;  -96.032;-1090.023; -987.958
767.014;   -5.905; -594.023; -665.958
767.273;  -60.028; -373.023; -397.959
767.533;  -47.251; -228.023; -307.959
767.792;  -37.724; -151.022; -188.960
768.051;  -69.698; -228.022; -276.960
768.310;  -85.321; -546.022; -650.960
768.569;  -16.269; -161.022;    4.039
768.828;  -31.692; -285.022; -363.961
769.088; -108.590;-1050.021; -942.961
769.347;  -89.013; -755.021; -599.962
769.606;  -91.136; -876.021; -857.962
769.865; -123.585;-1016.021;-1033.963
770.124;    1.017; -411.021; -336.963
770.383;  -37.206; -778.020; -910.963
770.641;   -0.654; -398.020; -400.964
770.900;  -49.327; -953.020; -846.964
771.159;  -31.650; -851.020; -951.964
771.418;    4.951; -917.020; -779.965
771.677;  127.828; -224.019; -293.965
771.936;  143.405; -794.019; -865.966
772.194; 1975.482; -465.019; -437.966
772.453;11960.109; -213.019; -391.966
772.712;  882.161;  416.982;  329.033
772.970;  124.263;   32.982;   63.033
773.229;   81.239;  -22.018;  102.033
773.488;  -80.009; -814.018; -770.968
773.746;   49.443;  296.982;  335.032
774.005;   -4.105;  190.983;  -22.969
774.263;   -1.678;  243.983;  177.031
774.522;  -57.426; -422.017; -548.969
774.780;  -72.650; -484.017; -417.970
775.039;  -95.623; -551.017; -531.970
775.297;  -33.021; -135.016; -351.970
775.555; -109.169; -489.016; -612.971
775.814; -119.842; -618.016; -570.971
776.072; -122.290; -749.016; -740.971
776.330;  -99.688; -630.016; -520.972
776.589; -116.262; -703.015; -721.972
776.847; -134.160; -645.015; -624.973
777.105; -167.158;-1016.015;-1032.973
777.363;  -95.506; -459.015; -454.973
777.621; -144.704; -660.015; -717.974
777.879;  -21.527;  -42.014;   32.026
778.138; -105.276; -554.014; -717.974
778.396; -101.249; -585.014; -526.975
778.654; -173.522;-1015.014; -970.975
778.912;  -73.920; -269.014; -371.976
779.170; -135.918; -880.013; -803.976
779.427; -147.216; -922.013; -897.976
779.685; -126.489; -880.013; -832.977
779.943;  -89.513; -654.013; -593.977
780.201; -160.461; -964.012; -883.978
780.459; -122.734; -651.012; -610.978
780.717;  -84.482; -440.012; -390.978
780.974; -123.530; -449.012; -490.979
781.232;  -76.703; -358.012; -338.979
781.490;  -85.852; -551.011; -472.979
781.747; -108.250; -555.011; -476.980
782.005;    3.302;  462.989;  254.020
782.263; -161.096; -542.011;-1004.981
782.520;  -93.594; -326.011; -501.981
782.778; -163.892;-1013.010;-1051.981
783.035; -171.415; -962.010; -938.982
783.293;  -64.814; -248.010; -206.982
783.550;  -72.287; -134.010; -198.982
783.808; -141.235; -764.010; -776.983
784.065; -162.558; -745.009; -874.983
784.322;  -50.156;   25.991;  -86.984
784.580; -150.854; -915.009; -771.984
784.837;  -97.078; -392.009; -466.984
785.094; -141.001; -783.009; -762.985
785.352;  -84.824; -304.008; -404.985
785.609; -116.547; -934.008; -839.985
785.866;  -84.395; -345.008; -401.986
786.123;  -80.843; -639.008; -583.986
786.380; -102.616; -665.008; -604.987
786.637;  -54.265; -225.007; -380.987
786.895;  -16.013; -456.007; -543.987
787.152;  -64.561; -135.007; -267.988
787.409;  -56.909; -123.007; -225.988
787.666;  -87.082; -299.006; -378.988
787.923; -111.480; -616.006; -695.989
788.179; -107.879; -551.006; -584.989
788.436; -116.077; -585.006; -585.990
788.693;  -36.550;  -92.006;  -87.990
788.950;   88.852; -125.005; -112.990
789.207;  216.229; -381.005; -372.991
789.464;  -64.344; -161.005; -301.991
789.720;  -19.517;  150.995;  110.009
789.977; -163.741;-1003.005; -671.992
790.234;  -31.039;   44.996;  -66.992
790.490; -159.087; -884.004;-1031.993
790.747;  -33.310;  -85.004;   22.007
791.004;  -41.733; -426.004; -348.993
791.260;  -88.181; -430.004; -560.994
791.517;  -99.605; -843.003; -788.994
791.773;  -50.278; -379.003; -342.994
792.030; -120.076; -596.003; -660.995
792.286; -105.874; -686.003; -636.995
792.543;  -25.222;  -74.002; -159.995
792.799;  -53.145; -584.002; -382.996
793.055; -161.493;-1179.002;-1210.996
793.312; -101.817; -827.002; -816.997
793.568;  -62.615; -746.002; -599.997
793.824;    7.087; -226.001; -284.997
794.081;   19.514; -447.001; -508.998
794.337;   62.391; -664.001; -561.998
794.593; 1089.643; -319.001; -271.999
794.849; 6862.519; -746.001; -772.999
795.105;  390.371; -270.000; -261.999
795.361;   12.898; -490.000; -457.000
795.617;  -64.950; -875.000; -945.000
795.873;  -48.475; -360.000; -407.000
796.129;  -35.700; -368.000; -306.000
796.385;  -19.350; -124.000; -156.000
796.641;   42.775;  412.000;  550.000
796.897;  -77.275; -666.000; -635.000
797.153;   43.175;  453.000;  357.000
797.409; -104.075; -785.000; -868.000
797.665;  -64.225; -625.000; -732.000
797.921;  -88.650; -775.000; -762.000
798.176;  -53.525; -744.000; -747.000
798.432;  -61.050; -824.000; -596.000
798.688;  -71.300;-1174.000;-1078.000
798.943;   91.325; -165.000; -147.000
799.199;    6.200;-1005.000; -959.000
799.455;  214.650;  369.000;  316.000
799.710;  143.650; -813.000; -380.000
799.966;  324.525; -162.000; -160.000
800.221;  484.225; -638.000; -721.000
800.477; 9680.225; -743.000; -710.000
800.732;10542.400; -773.000; -800.000
800.988;  682.175;  205.000;  -19.000
801.243; 1685.950; -454.000; -344.000
801.498; 8938.975; -814.000; -739.000
801.754;  571.575; -289.000; -163.000
802.009;   96.075; -257.000; -335.000
802.264;  -35.275; -967.000;-1033.000
802.520;   26.450;  222.000;   -3.000
802.775;  -39.050; -524.000; -359.000
803.030;   36.175;  395.000;  356.000
803.285; -108.575; -840.000; -903.000
803.540;  -66.800; -686.000; -699.000
803.795;  -52.775; -648.000; -583.000
804.051;  -41.400; -279.000; -346.000
804.306;   20.375;  168.000;  128.000
804.561;  128.825;  451.000;  362.000
804.816;  112.425;  714.000;  861.000
805.071;   -6.675; -185.000; -280.000
805.325;  197.700; -257.000; -427.000
805.580; -101.000; -841.000; -877.000
805.835;  -16.950; -204.000; -297.000
806.090;  -78.650; -760.000; -676.000
806.345;  -28.150; -344.000; -264.000
806.600;  -33.075; -549.000; -632.000
806.854;  -28.350; -408.000; -538.000
807.109;  -16.750; -493.000; -577.000
807.364;    6.025; -407.000; -328.000
807.618;    8.400; -415.000; -381.000
807.873;   45.525; -470.000; -494.000
808.128;   93.550; -257.000; -518.000
808.382;   96.050; -224.000; -332.000
808.637;   74.825; -440.000; -511.000
808.891;  180.250; -257.000; -180.000
809.146;   99.125; -902.000; -794.000
809.400;  265.025; -848.000; -923.000
809.654;  331.200; -779.000; -551.000
809.909;  491.350; -841.000; -927.000
810.163; 5467.725; -813.000; -651.000
810.418;17533.350; -940.000; -861.000
810.672; 1147.325; -685.000; -690.000
810.926;  745.100; -993.000; -973.000
811.180; 1380.700; -439.000; -372.000
811.434;31339.000;  240.000;  135.000
811.689;15828.425; -231.000; -365.000
811.943;  741.025; -936.000; -953.000
812.197;  375.150; -893.000; -671.000
812.451;  143.175; -379.000; -514.000
812.705;   -0.775; -809.000; -619.000
812.959;   -5.275; -263.000; -388.000
813.213;    0.825; -283.000; -209.000
813.467;   66.350;  470.000;  253.000
813.721; -100.250; -764.000; -792.000
813.975; -116.975; -826.000; -877.000
814.229;   44.825;  430.000;  353.000
814.482;  -72.175; -517.000; -566.000
814.736; -117.200; -766.000; -744.000
814.990; -121.375; -779.000; -872.000
815.244;  -47.025; -228.000; -285.000
815.497;  -97.700; -636.000; -601.000
815.751;  -20.525; -141.000;   82.000
816.005; -105.475; -470.000; -586.000
816.258;  -78.600; -510.000; -363.000
816.512; -105.650; -693.000; -610.000
816.766;  -13.425;  121.000;  157.000
817.019;   13.950;  148.000;  149.000
817.273; -116.650;-1000.000; -802.000
817.526;  -45.850; -206.000; -173.000
817.779;  -59.175;-1049.000; -960.000
818.033;  -68.375; -693.000; -807.000
818.286; -129.975; -725.000; -792.000
818.540;  -82.300; -403.000; -403.000
818.793;  -87.975; -402.000; -489.000
819.046;  -96.100; -582.000; -520.000
819.299;  -48.800; -157.000; -166.000
819.553; -109.325; -552.000; -592.000
819.806; -166.650;-1016.000; -838.000
820.059;  -81.950; -334.000; -354.000
820.312;   -1.700;  152.000;  185.000
820.565;  -36.125;  110.000;  -27.000
820.818;  -49.975;  -59.000; -173.000
821.071; -160.175;-1041.000; -957.000
821.324; -103.725; -536.000; -540.000
821.577;  -91.525; -457.000; -483.000
821.830;  -74.775; -270.000; -172.000
822.083; -118.600; -733.000; -288.000
822.336;  -60.575; -261.000; -167.000
822.589; -144.275; -805.000; -688.000
822.842; -141.775; -875.000; -770.000
823.094; -182.700;-1076.000;-1114.000
823.347; -131.350; -925.000; -729.000
823.600;    4.050;  402.000;  187.000
823.853;  -57.350; -311.000; -267.000
824.105;  -80.500; -331.000; -575.000
824.358; -110.375; -617.000; -716.000
824.611;   17.600;  234.000;   40.000
824.863;  -52.475; -612.000; -591.000
825.116;   29.725;  -33.000;   27.000
825.368;   56.525; -366.000; -372.000
825.621;  154.075; -186.000; -240.000
825.873;   74.700; -704.000; -737.000
826.126;  497.550; -669.000; -641.000
826.378;11066.600; -389.000; -505.000
826.630; 3523.200; -890.000; -898.000
826.883;   58.575; -754.000; -693.000
827.135;   50.625; -279.000; -270.000
827.387; -107.575; -893.000; -839.000
827.639;  -27.250;  -86.000;   32.000
827.892; -133.525; -742.000; -582.000
828.144; -137.425; -848.000; -804.000
828.396;  -44.900;  104.000;  -80.000
828.648; -123.000; -440.000; -333.000
828.900; -135.500; -702.000; -795.000
829.152; -127.400; -684.000; -683.000
829.404;  -68.175; -215.000; -267.000
829.656;   -4.075;  321.000;  214.000
829.908;  -36.800;  393.000;  229.000
830.160; -157.175;-1064.000;-1047.000
830.412;  -93.650; -481.000; -430.000
830.664; -123.275; -557.000; -665.000
830.916;  -84.400; -268.000; -206.000
831.167; -175.225;-1073.000; -951.000
831.419; -123.050; -623.000; -566.000
831.671; -157.500; -764.000; -809.000
831.923;  -89.000; -311.000; -447.000
832.174;  -84.375; -273.000; -331.000
832.426; -127.650; -493.000; -582.000
832.678; -178.650;-1043.000;-1091.000
832.929; -170.400; -947.000; -935.000
833.181;  -64.600; -575.000; -677.000
833.432;  -52.075;  -59.000; -186.000
833.684;  -16.725;  112.000;  -27.000
833.935; -118.975; -610.000; -566.000
834.187; -142.300; -829.000; -823.000
834.438;  -46.950;  -58.000;  -25.000
834.689;  -69.675; -255.000; -123.000
834.941;  -59.400; -343.000; -244.000
835.192;  -93.150; -590.000; -533.000
835.443;  -95.875; -419.000; -506.000
835.695;  -11.375;  138.000;  -16.000
835.946;  -98.350; -608.000; -378.000
836.197; -121.200; -599.000; -622.000
836.448; -105.550; -528.000; -395.000
836.699;  -71.350; -253.000; -341.000
836.950;   -3.000;   72.000;    7.000
837.201; -153.925;-1003.000; -987.000
837.452;  -54.200; -356.000; -170.000
837.703; -119.450; -791.000; -737.000
837.954;  -33.425; -205.000; -365.000
838.205;  -89.925;-1029.000;-1008.000
838.456;  164.700; -196.000; -282.000
838.707;    1.775; -423.000; -519.000
838.958;   -1.550; -634.000; -647.000
839.209;  285.600;   18.000;   40.000
839.460;  107.100; -439.000; -201.000
839.710;  166.000; -135.000; -297.000
839.961;  398.150;  730.000;  612.000
840.212;  331.475; -382.000; -497.000
840.462; 1002.025; -328.000; -277.000
840.713;16784.975; -571.000; -536.000
840.964; 8524.675;  -62.000; -143.000
841.214;  536.600; -384.000; -624.000
841.465;  529.125; -214.000; -141.000
841.715;  499.150; -417.000; -380.000
841.966;  599.000; -746.000; -685.000
842.216; 7245.725; -330.000; -431.000
842.466;34108.775; -169.000; -313.000
842.717; 2431.350; -964.000; -952.000
842.967;  278.575; -635.000; -641.000
843.217;  281.125;   20.000;   28.000
843.468;   57.425; -104.000; -132.000
843.718;  -39.700; -718.000; -726.000
843.968;  -97.075; -837.000; -765.000
844.218;    3.825; -315.000; -262.000
844.469;  -45.300; -577.000; -561.000
844.719; -125.125; -537.000; -682.000
844.969;  -98.800; -550.000; -580.000
845.219; -138.625; -814.000; -862.000
845.469;  -79.575; -392.000; -342.000
845.719; -138.400; -792.000; -884.000
845.969;  -24.500;  119.000;  174.000
846.219; -121.750; -738.000; -720.000
846.469;   13.475;  464.000;  432.000
846.718;  -53.650; -115.000;   31.000
846.968; -144.175; -827.000; -827.000
847.218;  -53.700; -224.000; -371.000
847.468;   -8.875; -586.000; -555.000
847.718; -125.675; -827.000; -798.000
847.967; -140.700; -826.000; -915.000
848.217;  -93.875; -449.000; -569.000
848.467;  -75.625; -405.000; -376.000
848.716; -115.025; -708.000; -725.000
848.966;  -10.200; -372.000; -358.000
849.215;  -62.900; -428.000; -419.000
849.465;  -96.325; -785.000; -615.000
849.714; -141.425;-1132.000;-1150.000
849.964;  -67.875; -551.000; -613.000
850.213;  -27.575; -393.000; -355.000
850.463;   60.750;  137.000;  340.000
850.712;  -10.200; -542.000; -567.000
850.961;   19.025; -739.000; -678.000
851.211;   99.925; -513.000; -504.000
851.460;  154.900; -635.000; -650.000
851.709;  535.850;  -25.000;   18.000
851.958; 9288.800; -912.000; -750.000
852.208;14272.725; -859.000; -879.000
852.457;  562.600; -181.000;  -13.000
852.706;   75.450; -791.000; -823.000
852.955;   18.200; -507.000; -528.000
853.204;  -63.375; -521.000; -461.000
853.453;  -86.325; -418.000; -458.000
853.702; -125.275; -660.000; -750.000
853.951; -114.475; -532.000; -520.000
854.200; -121.650; -613.000; -562.000
854.449; -137.100; -695.000; -661.000
854.698; -108.100; -340.000; -279.000
854.946;  -70.975; -181.000; -284.000
855.195; -156.250; -843.000; -868.000
855.444;  -98.400; -395.000; -420.000
855.693; -123.975; -345.000; -432.000
855.941; -114.050; -387.000; -516.000
856.190;  -62.700; -256.000; -382.000
856.439; -126.775; -652.000; -703.000
856.687;  -66.100;  -99.000;  -72.000
856.936; -118.025; -621.000; -323.000
857.184; -193.400;-1067.000;-1020.000
857.433;  -96.450; -423.000; -512.000
857.681; -172.450; -989.000; -953.000
857.930;  -81.225; -282.000; -433.000
858.178; -172.525; -856.000; -929.000
858.427; -150.350; -802.000; -781.000
858.675; -117.750; -377.000; -544.000
858.923; -123.250; -527.000; -819.000
859.172; -186.550;-1094.000;-1070.000
859.420; -103.225; -339.000; -239.000
859.668; -130.400; -624.000; -628.000
859.916;  -36.000;  109.000;  115.000
860.164; -131.150; -699.000; -603.000
860.413;  205.600; -878.000; -696.000
860.661;  225.675; -709.000; -577.000
860.909;  -89.125; -339.000; -325.000
861.157;  -95.375; -277.000; -444.000
861.405; -130.575; -534.000; -670.000
861.653;    1.025;  310.000;  310.000
861.901;  133.675; -543.000; -613.000
862.149;   -8.325; -801.000; -824.000
862.396;  -86.450; -297.000; -187.000
862.644;  -95.050; -368.000; -347.000
862.892;  -36.375;   98.000;  138.000
863.140; -115.000; -549.000; -530.000
863.388; -169.200; -815.000; -759.000
863.635; -129.600; -642.000; -601.000
863.883;   -7.475;  231.000;  190.000
864.131;  -95.900; -288.000; -357.000
864.378; -128.800; -675.000; -540.000
864.626; -110.775; -347.000; -415.000
864.873; -121.650; -556.000; -505.000
865.121; -141.175; -714.000; -799.000
865.368;  -40.025; -173.000;   75.000
865.616;  -45.750;  -33.000;  -40.000
865.863;  -70.425; -462.000; -506.000
866.111;  -94.000; -795.000; -824.000
866.358;   34.250; -426.000; -420.000
866.605; 2171.550;  -64.000; -804.000
866.853; 2856.625; -621.000; -537.000
867.100;  -14.225; -728.000; -775.000
867.347; -104.675; -672.000; -611.000
867.594;  -82.375; -740.000; -714.000
867.841;   71.250;   97.000;   17.000
868.089; -147.650; -746.000; -698.000
868.336; -107.325; -477.000; -420.000
868.583; -148.025; -637.000; -741.000
868.830;  -56.975; -131.000; -170.000
869.077; -164.300; -859.000; -787.000
869.324; -131.750; -502.000; -458.000
869.571; -137.675; -398.000; -430.000
869.818; -120.225; -485.000; -439.000
870.065; -107.675; -439.000; -513.000
870.311; -119.825; -456.000; -542.000
870.558; -113.200; -332.000; -311.000
870.805;  -94.325; -320.000; -384.000
871.052; -104.525; -494.000; -369.000
871.298;  -66.375; -204.000; -131.000
871.545;  -72.600; -151.000; -185.000
871.792;  -90.475; -173.000; -222.000
872.038;  -72.850;   43.000; -126.000
872.285; -124.200; -496.000; -387.000
872.532; -111.250; -357.000; -387.000
872.778;  -19.650;  556.000;  403.000
873.025; -106.675; -384.000; -359.000
873.271;    0.400;  501.000;  578.000
873.517;  -36.950; -133.000; -209.000
873.764;  -47.875; -193.000;  -80.000
874.010;  -83.750; -143.000; -230.000
874.257;  -55.000;  123.000;   90.000
874.503; -134.150; -579.000; -479.000
874.749;  -73.850;   31.000;  275.000
874.995;  -70.775;  -80.000;  -20.000
875.242; -121.300; -540.000; -478.000
875.488; -122.500; -414.000; -439.000
875.734;  -59.075; -106.000; -234.000
875.980;  123.550; -872.000;-1032.000
876.226;  358.625; -157.000; -255.000
876.472;   -8.075;  343.000;  237.000
876.718;  -46.600;  184.000;  158.000
876.964;  -51.150;   56.000;   55.000
877.210; -154.425; -547.000; -677.000
877.456; -145.200; -630.000; -557.000
877.702; -189.275; -821.000; -832.000
877.948; -109.600; -377.000; -497.000
878.193;    3.475;  361.000;  255.000
878.439;  -97.700; -487.000; -472.000
878.685; -108.975; -272.000; -343.000
878.931; -119.775; -618.000; -676.000
879.176;  -85.975; -201.000; -201.000
879.422; -178.175; -933.000; -820.000
879.668;   43.625;   10.000;   79.000
879.913;  117.800;   53.000;  137.000
880.159;  -48.625; -112.000;  -17.000
880.404;  -72.100; -152.000; -162.000
880.650;  -37.075;   91.000;  141.000
880.895; -157.975; -670.000; -710.000
881.141; -132.925; -454.000; -428.000
881.386; -146.975; -503.000; -658.000
881.631;  -92.350; -311.000; -166.000
881.877;  -43.675;  112.000;  -13.000
882.122; -129.775; -684.000; -600.000
882.367;  -90.950; -136.000; -186.000
882.612;  -82.525;  -80.000; -176.000
882.858; -172.025; -877.000; -823.000
883.103; -112.500; -297.000; -267.000
883.348; -158.350; -759.000; -852.000
883.593; -160.700; -677.000; -602.000
883.838;  -56.700; -311.000;  -24.000
884.083;   11.800;  353.000;  288.000
884.328;  -87.925; -564.000; -545.000
884.573;  -63.850; -196.000; -143.000
884.818;  124.775; -694.000; -531.000
885.063;  194.225; -348.000; -315.000
885.308; -104.050; -475.000; -398.000
885.553;  -24.925;  245.000;  325.000
885.797; -128.150; -545.000; -615.000
886.042;  -70.150;    8.000;   58.000
886.287; -103.125; -253.000; -211.000
886.532;  -49.550;   26.000;  204.000
886.776; -101.425; -407.000; -525.000
887.021; -146.250; -621.000; -574.000
887.265; -161.975; -685.000; -689.000
887.510; -135.575; -557.000; -496.000
887.755; -102.275; -194.000; -164.000
887.999; -151.325; -552.000; -575.000
888.244;  -76.375;  -58.000;  161.000
888.488;   -9.825;  371.000;  393.000
888.732; -120.950; -368.000; -520.000
888.977; -132.600; -622.000; -567.000
889.221; -148.425; -683.000; -659.000
889.465; -133.075; -422.000; -566.000
889.710;  -90.700;  -56.000; -299.000
889.954;   -5.025;  579.000;  467.000
890.198; -143.150; -584.000; -707.000
890.442; -158.725; -716.000; -712.000
890.687; -185.875; -800.000; -753.000
890.931;  -93.175; -273.000; -210.000
891.175; -140.150; -502.000; -500.000
891.419;  -79.175; -105.000; -110.000
891.663;  -99.675; -239.000; -112.000
891.907; -180.075; -801.000; -545.000
892.151; -181.050; -920.000; -815.000
892.395; -108.850; -274.000; -387.000
892.638;  -39.450;  408.000;  291.000
892.882; -193.375; -780.000; -867.000
893.126;    1.650;  758.000;  558.000
893.370;  -95.875; -167.000; -168.000
893.614; -148.725; -714.000; -715.000
893.857; -106.275; -183.000; -197.000
894.101; -157.050; -527.000; -631.000
894.345;  -55.500;  300.000;  150.000
894.588;    5.375;  569.000;  380.000
894.832;  -78.600; -178.000;  -84.000
895.075;  -84.425;   15.000;  -92.000
895.319; -143.225; -552.000; -420.000
895.563; -131.150; -413.000; -353.000
895.806; -155.400; -628.000; -741.000
896.049;  -63.825; -576.000; -368.000
896.293;   68.850;  527.000;  405.000
896.536;  -66.200; -465.000; -468.000
896.779;  -72.475; -149.000;   -1.000
897.023; -151.575; -751.000; -714.000
897.266;  -32.350;  325.000;  269.000
897.509; -187.800; -900.000; -901.000
897.752;  -60.900;  149.000;  171.000
897.996; -174.050; -972.000; -864.000
898.239;  -48.200;  168.000;  102.000
898.482; -128.125; -431.000; -453.000
898.725;  -43.250;  101.000;   53.000
898.968; -159.075; -609.000; -744.000
899.211; -121.150; -513.000; -361.000
899.454; -129.000; -633.000; -539.000
899.697;  -75.800;   90.000;  -43.000
899.940; -171.225; -761.000; -757.000
900.182; -108.825; -335.000; -405.000
900.425;  -89.650; -150.000; -298.000
900.668;  -24.775;  491.000;  350.000
900.911; -111.175; -292.000; -345.000
901.154;  -58.750;  141.000;   -3.000
901.396; -133.275; -407.000; -412.000
901.639; -144.925; -430.000; -496.000
901.882; -178.575; -790.000; -809.000
902.124;  -82.375;  -29.000; -143.000
902.367; -126.000; -315.000; -361.000
902.609; -138.175; -476.000; -453.000
902.852;  -86.600; -108.000; -260.000
903.094; -132.550; -458.000; -337.000
903.337;  -67.325;  -26.000;   53.000
903.579; -127.425; -228.000; -441.000
903.821; -162.000; -597.000; -744.000
904.064;  -67.975;   85.000;  127.000
904.306;  -92.250; -126.000; -166.000
904.548; -109.350; -152.000; -366.000
904.790; -109.025; -195.000; -340.000
905.033; -131.000; -625.000; -577.000
905.275; -139.650; -513.000; -524.000
905.517;   21.350;  468.000;  256.000
905.759;  -62.175; -667.000; -761.000
906.001; -106.825; -322.000; -369.000
906.243;  -62.675; -162.000; -224.000
906.485;   78.475; -265.000; -207.000
906.727;  102.775; -499.000; -542.000
906.969;  -41.175;  -30.000; -135.000
907.211;   82.800; -316.000; -382.000
907.453;  250.475; -188.000; -237.000
907.695;   19.250; -158.000; -385.000
907.936;   31.575;  818.000;  706.000
908.178;  -73.200;   92.000; -135.000
908.420;  -80.125; -111.000; -162.000
908.662; -151.575; -633.000; -682.000
908.903;  -76.650; -208.000; -123.000
909.145;  -81.525; -240.000; -305.000
909.386;   -6.825;  315.000;  280.000
909.628;   24.300;  363.000;  397.000
909.870;   -2.525;   29.000;  264.000
910.111; -101.875; -809.000; -949.000
910.353;   23.025; -123.000; -161.000
910.594;    1.225; -574.000; -606.000
910.835;   72.200; -265.000; -326.000
911.077;  143.200; -503.000; -604.000
911.318;  289.850; -505.000; -471.000
911.559;  464.600; -577.000; -880.000
911.801; 1278.925; -284.000; -280.000
912.042; 9457.475;  -50.000; -159.000
912.283;28633.425;  404.000;  371.000
912.524; 5423.900; -396.000; -457.000
912.765;  555.975; -193.000;   79.000
913.006;  269.550; -307.000; -338.000
913.247;   65.900; -270.000; -290.000
913.488;   -6.300;  -43.000;   30.000
913.729;  -77.350; -373.000; -373.000
913.970;  -81.675;  -96.000; -292.000
914.211;  -85.075; -160.000; -198.000
914.452;  -64.625; -118.000;  -11.000
914.693;    4.175;  510.000;  592.000
914.934;   -0.875;  510.000;  440.000
915.175;  -75.325;   53.000;  -95.000
915.415;  -85.375; -137.000;   27.000
915.656;  -64.300;  -28.000;  192.000
915.897; -103.125; -252.000;  -82.000
916.137;  -92.300;   74.000;   -9.000
916.378; -131.200; -573.000; -517.000
916.619; -109.600; -159.000;  -63.000
916.859;  -50.025;  303.000;  330.000
917.100;  129.450; 1655.000; 1070.000
917.340;   38.850;  930.000;  728.000
917.581;   35.750;  965.000;  789.000
917.821;  -54.600; -171.000;  143.000
918.061;    5.975; -199.000;  -72.000
918.302;  -62.800; -152.000; -211.000
918.542;  -29.275;  -22.000;    3.000
918.782;   12.500;  369.000;  377.000
919.023;  110.775;  360.000;  427.000
919.263; 1233.350; 8131.000;  202.000
919.503; 1127.550; -137.000;  -54.000
919.743;  593.800;  390.000;  266.000
919.983;  291.225; -134.000;  -26.000
920.223;   69.875;  135.000;   14.000
920.463;  142.975;  631.000;  554.000
920.703;  134.825;   84.000;   39.000
920.943;  183.950; -110.000;   90.000
921.183;  253.625; -414.000; -405.000
921.423;  493.000;  307.000;  546.000
921.663;  751.175; -174.000; -257.000
921.903; 1562.000;  237.000;  173.000
922.143; 8206.900;  372.000;  389.000
922.383;34260.475;  158.000;  115.000
922.622;14254.825; -120.000;  -15.000
922.862; 1485.600;  796.000;  785.000
923.102;  533.825;  -51.000;   33.000
923.341;  227.150;   59.000;   74.000
923.581;   97.825;  450.000;  360.000
923.821;   29.100;  301.000;  398.000
924.060;    0.350;  351.000;  193.000
924.300;  -73.050;  -16.000; -128.000
924.539;  -12.300;  584.000;  473.000
924.779;   17.425;  812.000;  597.000
925.018;  -59.950;  247.000;  353.000
925.257;  -22.550;  595.000;  666.000
925.497;  -47.500;  447.000;  412.000
925.736;  -82.000;  -35.000;  102.000
925.975;    4.775;  687.000;  669.000
926.214;   20.450;  907.000;  850.000
926.454;    3.575;  706.000;  757.000
926.693;  -35.900;  419.000;  543.000
926.932;   34.950; 1021.000;  825.000
927.171;   63.100; 1107.000; 1044.000
927.410;   52.275; 1144.000;  967.000
927.649;   27.375;  924.000;  742.000
927.888;  -12.200;  590.000;  564.000
928.127;  -24.375;  680.000;  678.000
928.366;   23.175;  842.000;  826.000
928.605;   41.050;  831.000;  737.000
928.844;  223.650; 1451.000; 1393.000
929.083;  587.100;  770.000;  613.000
929.321;  346.475; 1335.000; 1359.000
929.560;   72.400; 1158.000; 1122.000
929.799;  -28.675;  574.000;  475.000
930.038;   61.200; 1025.000; 1394.000
930.276;  -47.075;  334.000;  397.000
930.515;   -5.575;  827.000;  681.000
930.753;  -23.700;  614.000;  589.000
930.992;  -24.825;  664.000;  717.000
931.230;   -2.550;  847.000;  847.000
931.469;  150.625; 2162.000;  892.000
931.707;   74.700;  840.000;  751.000
931.946;   49.950; 1278.000; 1344.000
932.184;   55.625; 1437.000; 1175.000
932.423;   45.950; 1265.000;  963.000
932.661;   81.100; 1296.000; 1428.000
932.899;   25.500;  987.000;  821.000
933.137;    8.575;  754.000;  564.000
933.376;  129.975; 1664.000; 1335.000
933.614;  159.325; 1759.000; 1196.000
933.852;   47.225; 1357.000; 1171.000
934.090;  127.150; 1722.000; 1747.000
934.328;  116.100; 1252.000; 1457.000
934.566;   97.000; 1431.000; 1110.000
934.804;  135.675; 1263.000; 1309.000
935.042;  481.550; 1861.000; 1850.000
935.280; 1882.950; 2088.000; 2063.000
935.518; 2073.550; 2113.000; 2007.000
935.756;  427.825; 2481.000; 2316.000
935.994;  173.775; 1808.000; 1751.000
936.231;  339.925; 2890.000; 2950.000
936.469;  203.450; 2367.000; 2378.000
936.707;  151.650; 2220.000; 2167.000
936.945;  218.300; 2825.000; 2882.000
937.182;  186.525; 2679.000; 2741.000
937.420;  292.325; 3602.000; 3031.000
937.657;  388.375; 3365.000; 3478.000
937.895;  353.675; 3331.000; 3488.000
938.133;  316.400; 3540.000; 3528.000
938.370;  332.650; 3896.000; 4191.000
938.607;  396.400; 4488.000; 4205.000
938.845;  526.000; 5587.000; 5549.000
939.082;  482.125; 5387.000; 5177.000
939.320;  552.050; 5799.000; 5728.000
939.557;  640.050; 6549.000; 6491.000
939.794;  703.050; 7285.000; 7097.000
940.031;  882.250; 8421.000; 8368.000
940.269; 1102.925; 9552.000; 9107.000
940.506; 1111.375;10901.000;10507.000

