
Integration time [ms]: 100.000
Averaging Nr. [scans]: 40
Smoothing Nr. [pixels]: 0
Data measured with spectrometer [name]: 2101013U2
Wave   ;Sample   ;Dark     ;Reference
[nm]   ;[counts] ;[counts] ;[counts] 

394.013;   65.588; -450.257; -315.536
394.305;  268.810; -461.258; -419.536
394.596; 1092.833; -676.269; -527.514
394.887; 2604.500; -796.268; -654.518
395.178;  978.130;  145.736;   11.476
395.470;   80.966; -210.263; -356.526
395.761;  215.314;  305.734;  394.479
396.052;  384.084; -545.284; -306.489
396.343;  384.228; -557.276; -454.503
396.634;  147.022; -200.279; -290.497
396.926;  164.072; -618.268; -565.517
397.217;  153.508;   11.725;  -17.504
397.508;   68.798; -366.273; -154.507
397.799;   73.047; -555.279; -571.497
398.090;    6.417; -973.280; -902.495
398.381;  144.234;   11.708;  -11.473
398.672;    2.061; -585.292; -742.473
398.963;   61.703; -348.279; -373.498
399.254;  135.645;   54.709; -209.475
399.545;   -8.139;-1017.266; -883.520
399.836;   73.092; -407.277; -343.501
400.127;   78.786; -205.295; -209.468
400.418;   62.743; -423.274; -392.506
400.709;   91.854; -359.281; -333.493
401.000;   55.474; -268.291; -309.476
401.290;  118.823;  225.698;  115.545
401.581;   58.542; -166.286; -228.485
401.872;   44.633; -542.298; -486.462
402.163;   64.378; -313.296; -252.467
402.454;   96.945; -123.291; -163.475
402.744;  101.295; -844.297; -813.465
403.035;  524.926; -226.293;  -86.471
403.326;  689.513; -366.292; -384.474
403.617;  434.828;  204.701;  165.539
403.907;  254.615; -593.283; -679.490
404.198; 2328.052; -545.307; -599.446
404.489; 6080.844; -618.283; -588.491
404.779; 2137.576; -618.302; -660.456
405.070;  252.980;  -67.304; -174.451
405.360;  338.028; -259.293; -238.472
405.651;  366.288;  125.699;   98.542
405.942;  221.437;  209.714;  127.516
406.232;  347.802; -432.285; -413.487
406.523;  564.421;  641.706;  758.530
406.813;  126.764; -579.286; -644.484
407.104;  427.558;  261.708;  144.527
407.394;  229.054; -604.299; -591.462
407.685;  165.451;  336.715;  222.513
407.975;   74.518; -400.283; -382.490
408.265;  136.860; -134.289; -190.478
408.556;   87.767; -472.291; -459.475
408.846;  182.497;  474.706;  429.530
409.137;   90.693;   -1.288; -216.480
409.427;   72.001; -193.285; -271.487
409.717;   33.202; -776.273; -692.508
410.007;  150.020;    4.715; -170.486
410.298;  107.889; -360.295; -342.469
410.588;   79.849; -495.285; -510.486
410.878;   42.179; -792.287; -873.482
411.168;  121.386; -481.298; -478.463
411.459;  121.238; -295.283; -242.489
411.749;   68.691; -609.292; -507.474
412.039;   63.341; -755.289; -386.480
412.329;  208.935;   40.722;  132.501
412.619;  220.315;  -62.286; -148.485
412.909;  391.862;  639.711;  594.521
413.199;  379.492; -130.280; -251.495
413.490;  457.153;  521.710;  352.523
413.780;  153.896;-1013.279; -913.496
414.070;  349.879;  -46.276;  235.497
414.360;  394.207; -729.278; -666.498
414.650;  424.325; -726.288; -688.482
414.940;  525.445; -538.280; -441.496
415.230;  938.122;   50.712;   74.519
415.520; 5950.682;  155.730;   66.486
415.809;23342.828; -305.281; -125.493
416.099;17934.520; -388.277; -229.501
416.389; 4969.366;  435.726;  236.494
416.679; 2933.445;   91.738;   85.473
416.969;  498.558; -527.287; -503.483
417.259;  474.198;  341.721;  171.503
417.549;  716.427;  522.718;  318.508
417.838; 1599.449; -205.268; -147.518
418.128; 5278.633;  650.710;  492.522
418.418; 4395.558; -491.272; -579.509
418.708; 2946.216;    9.726;  -48.506
418.997;11119.387; -474.275; -480.505
419.287;11517.948; -733.273; -790.507
419.577;10771.262; -160.283; -123.489
419.866;35947.668; -588.277; -498.501
420.156;37118.953; -242.270;  -55.513
420.446; 6697.062; -112.263;  -26.526
420.735;  974.647; -376.271; -446.512
421.025;  858.981; 1830.722;  315.502
421.314;  786.696; -203.271; -226.512
421.604; 1766.367;   89.732;  233.484
421.893; 1016.792; -705.271; -602.511
422.183;  256.462; -487.263; -461.526
422.472;  392.193;  -36.271; -107.511
422.762;  496.467; -416.266; -379.521
423.051;  288.255; -916.276; -916.503
423.341;  346.450; -491.273; -439.507
423.630;  433.023; -121.265;   15.477
423.919;  417.211;   58.725;   49.495
424.209;  401.843;  -31.263;   56.473
424.498;  501.147;   68.732;  161.483
424.787; 1079.128; -535.267; -601.518
425.077; 3396.771;   34.735;   29.478
425.366; 5075.648; -734.262; -744.528
425.655; 9749.075;  639.727;  259.493
425.945;20068.326; -313.247; -268.554
426.234;11092.796;  117.741;  300.467
426.523; 4939.676;  -86.259; -350.534
426.812; 6755.413;  107.734;  159.480
427.101; 9930.438; -127.269; -323.515
427.390;12747.957;  -55.270;  -86.514
427.680; 3204.971; -624.257; -411.538
427.969;  537.131; -330.255; -301.540
428.258;  336.112; -385.257; -477.536
428.547;  587.087;  449.728;  397.490
428.836; 1474.847; -421.253; -398.543
429.125; 2179.728; -199.259;  -72.534
429.414;  885.870; -330.251; -294.548
429.703; 3048.245; -231.251; -213.548
429.992; 8970.973; -938.250; -828.549
430.281; 5865.005; -397.264; -331.524
430.570;  620.560;  -21.252;   32.454
430.859;  646.101;  279.741;  352.466
431.148;  458.947;  636.752;  631.446
431.437;  323.710;  391.748;  367.454
431.725;  174.114; -544.257; -481.536
432.014;  143.205; -845.253; -756.545
432.303;  425.422; -149.239; -105.569
432.592;  697.937; -460.263; -178.525
432.881; 1077.123; -601.248; -437.554
433.169; 5900.432; -343.255;  -61.540
433.458;11957.231;  445.765;  540.424
433.747; 5104.104; -397.261; -289.529
434.036;  971.373; -275.242; -280.564
434.324; 2090.711; -395.249; -379.551
434.613; 3539.392;   40.757;  159.437
434.902; 1257.963;  333.760;  439.433
435.190;  716.571;   75.761;  295.431
435.479;  397.699;  -52.245;   83.441
435.767;  137.782; -411.244; -427.561
436.056;  264.919; -340.242; -294.563
436.345;  396.090; -372.240; -223.568
436.633;  411.781;   60.750;  383.450
436.922;  313.292;  208.760;  414.432
437.210;  768.046; -194.236;    1.426
437.499; 2538.654; -583.235; -432.576
437.787; 2754.645; -339.236;  -10.574
438.075;  654.827;   56.761;  162.430
438.364;  931.479;  -44.238;  250.429
438.652;  545.533; -286.226; -138.592
438.941;  156.822;    3.770;  269.415
439.229;   18.183; -665.252; -466.545
439.517;   63.262; -160.234;  -85.577
439.806;    6.999; -501.225; -290.595
440.094;  211.270;  377.766;  650.421
440.382;  240.649; -653.233; -302.580
440.670;  271.404; -361.235; -285.576
440.959;   47.891; -347.223; -170.599
441.247;   78.834; -151.229; -109.587
441.535;  130.286; -266.235;   31.423
441.823;   69.042; -497.234; -305.578
442.111;  197.113;  173.771;  327.412
442.400;  637.298; -628.245; -335.559
442.688; 1763.519; -111.234; -620.579
442.976; 1301.203; -786.213; -450.617
443.264;  132.255; -324.224; -364.597
443.552;  117.009; -258.226;   51.408
443.840;  178.609;  602.765;  876.423
444.128;  126.848;  265.767;  269.420
444.416;   15.065; -694.228; -312.588
444.704;   31.095; -465.219;  -92.605
444.992;   78.587;   -0.226;  240.407
445.280;   72.173; -517.230;  -94.585
445.568;   51.081; -694.212; -396.618
445.856;  411.879; -174.221;  357.398
446.143;  999.567;  -54.220;   -7.604
446.431;  779.844;  -25.228;  625.411
446.719;  275.239;  489.783;  675.391
447.007;  207.642;  481.769;  705.416
447.295;  186.638;  597.777;  871.402
447.583;   97.906; -464.229;  -34.587
447.870;  178.851; -434.221; -202.601
448.158;  496.097; -104.230;  129.415
448.446;  409.968; -800.219; -338.604
448.733;  205.407;   13.776;  269.403
449.021;  272.681;   60.788;  341.382
449.309;  190.771; -296.210;  208.379
449.596;  235.736;  128.783;   59.392
449.884;  157.345; -571.222; -325.600
450.172;  143.974; -756.227; -406.590
450.459;  437.311;  645.786;  780.387
450.747; 2257.434; -411.218; -147.608
451.034; 7187.770;  493.772;  889.411
451.322; 5856.864; -413.214; -170.614
451.609;  511.333;  292.777;  508.403
451.897;  559.708; -550.203; -183.634
452.184; 1709.863; -622.223; -400.598
452.472; 1624.492;   97.792;  269.375
452.759;  364.043;  512.781;  864.395
453.047;  132.529; -407.212; -125.617
453.334;   95.126; -732.219; -216.606
453.621;  106.992; -438.214; -161.615
453.909;  139.900;   13.796;  384.368
454.196;  111.745; -299.199; -123.641
454.483;  214.321;  317.798;  540.364
454.771;  138.370; -215.208;  196.374
455.058;   48.523; -316.207;  102.374
455.345;  118.900;   71.807;  344.347
455.632;   85.476; -128.207;  235.373
455.919;   43.518;  -82.196;  182.354
456.207;  -49.475; -774.198; -450.642
456.494;  -18.842; -475.200;  -66.639
456.781;   23.242; -399.202; -198.635
457.068;   60.708; -253.206;  -29.628
457.355;    8.859; -698.206; -401.629
457.642;   -2.835; -552.205; -290.630
457.929;   13.316; -778.194; -417.651
458.216;   83.829; -575.212; -354.617
458.503;  223.646; -173.193;  -19.652
458.790;  222.468; -864.208; -630.625
459.077;  259.122;  -77.202;  110.364
459.364;  761.134; -350.195; -210.649
459.651; 1608.331;  -46.206;  220.372
459.938;  753.133; -864.209; -665.623
460.225;  168.100;  132.799;  276.363
460.512;  -46.410; -836.197; -688.645
460.799;  110.333;  -32.218;  320.392
461.086;   74.813; -370.200; -251.640
461.372;   73.975; -509.198; -279.642
461.659;  121.444; -165.196;  108.354
461.946;   88.619; -445.193;  -54.651
462.233;  265.160;  842.800;  888.361
462.519;  354.532; -814.201; -464.639
462.806;  979.965; -768.197; -497.645
463.093;  873.715; -445.191;  -66.656
463.380;  -14.719; -920.186; -824.664
463.666;   61.692; -259.197;  -18.646
463.953;  110.654; -406.195; -243.648
464.239;  199.604; -173.195;  -77.648
464.526;  403.040;  413.806;  743.350
464.813;  373.226; -565.190; -304.658
465.099;  388.245;  606.807;  607.348
465.386;  351.974;  903.807;  921.348
465.672;   46.340; -694.197; -522.645
465.959;   53.069; -598.188; -520.662
466.245;   11.749; -468.193; -359.652
466.532;  107.027; -109.195;   63.352
466.818;   93.455; -357.186; -216.664
467.104;   16.745; -488.182; -415.672
467.391;  -17.497; -628.189; -459.658
467.677;   45.734; -289.186;    9.335
467.964;   11.385; -682.189; -471.660
468.250;   75.287; -331.186; -160.665
468.536;   84.104;   90.811;  180.341
468.822;   -6.977; -821.184; -574.668
469.109;  131.975;  351.827;  471.311
469.395;  187.509;  729.808;  787.346
469.681;  194.432;   46.811;  156.341
469.967; 1218.287; -699.188; -382.660
470.254; 2582.845; -494.188; -306.662
470.540; 1650.892; -601.196; -476.646
470.826;  241.806; -488.181; -397.675
471.112;  285.127;  288.816;  113.331
471.398;   99.931; -253.183;  -58.670
471.684;   75.984; -626.177; -447.680
471.970;   -1.590; -918.180; -981.675
472.256;   33.558; -521.192; -441.654
472.542;   19.386; -499.171; -434.691
472.828;   17.541; -743.182; -607.672
473.114;   46.329; -380.166; -283.700
473.400;   29.376; -504.175; -293.684
473.686;   40.385; -452.166; -400.701
473.972;   65.565; -230.174; -131.687
474.258;  -36.250; -925.173; -843.689
474.544;  177.451; -183.178;   -2.679
474.830;  273.927;  -65.175;   45.316
475.116;  435.203; -123.190; -196.658
475.401;  614.462; -558.180; -467.676
475.687;  186.261; -725.180; -718.676
475.973;   16.974; -673.181; -770.673
476.259;  261.679;  736.825;  764.315
476.544;  355.817; -539.176; -437.682
476.830;  771.532; -398.172; -322.690
477.116;  656.116; -430.177; -336.682
477.401;  138.537;  346.820;  358.324
477.687;  -14.149; -289.175; -405.684
477.973;   52.778;   21.819;   28.326
478.258;   -0.619; -448.163; -348.706
478.544;   55.592;   21.815;   61.334
478.829;  -42.134; -818.171; -738.692
479.115;  -36.143; -749.172; -651.690
479.401;  -28.864; -444.174; -449.686
479.686;   38.411; -253.180;  -74.676
479.972;  -39.844; -886.178; -776.680
480.257;   44.306; -258.166;  -65.700
480.542;  -12.880; -614.170; -469.693
480.828;  237.949; 1288.824; 1392.317
481.113;  -27.703; -464.176; -426.683
481.399;   -3.796; -236.161; -202.711
481.684;  -43.570; -620.166; -462.700
481.969;   18.692; -158.159;  -73.713
482.255;    0.331; -439.169; -285.695
482.540;    6.281; -569.178; -441.680
482.825;    9.851; -395.187; -404.663
483.110;   98.209;  -85.169; -105.696
483.396;  151.689; -840.157; -652.718
483.681;  456.390;  543.826;  730.313
483.966;  138.661; -696.160; -700.712
484.251;   22.589; -404.174; -310.687
484.536;   10.216; -356.165; -378.703
484.822;   16.167; -205.173; -218.687
485.107;  -20.973; -599.152; -502.726
485.392;  123.521;  662.836;  541.296
485.677;   72.944;  354.832;  163.302
485.962;  110.361;  160.843;  270.283
486.247;  103.088;  -14.162;   -8.707
486.532;   47.507; -178.166; -325.701
486.817;  172.074;  381.839;  431.291
487.102;  128.135; -453.154; -514.722
487.387;  636.166; -637.156; -652.718
487.672; 1065.126; -154.164;  -38.705
487.957;  661.706; -394.160; -286.711
488.241;  198.343; -290.150; -314.729
488.526;  684.728; -280.152; -148.726
488.811; 1114.058; -881.177; -818.680
489.096;  840.762; -666.154; -702.723
489.381;  483.149;    3.847;  162.275
489.666;  342.229; -428.161; -510.710
489.950;  167.590;  558.846;  627.277
490.235;  -23.337; -480.151; -458.728
490.520;  -33.147; -756.161; -723.710
490.804;  -67.807; -827.156; -736.719
491.089;    6.434; -469.149; -299.732
491.374;   32.525; -132.164;  -75.704
491.658;   11.470; -817.147; -717.735
491.943;  197.707; -657.152; -609.727
492.227;  290.531; -178.155;  -38.721
492.512;   66.586; -294.157; -341.717
492.797;  -66.497; -713.149; -716.731
493.081;  -53.877; -588.147; -598.735
493.366;  -42.121; -751.161; -635.711
493.650;  209.300;  831.859;  917.254
493.935;   36.694; -648.147; -447.734
494.219;  -27.962; -778.142; -687.743
494.503;  -34.927; -585.150; -487.730
494.788;   60.028;   46.842;   74.285
495.072;  108.544;  184.850;  434.271
495.356;  173.362; -463.148; -343.733
495.641;  473.554; -812.146; -736.736
495.925;  472.122; -976.156; -903.719
496.209;   50.183; -599.149; -451.732
496.494;  -36.837; -763.142; -544.744
496.778;   14.535; -364.154; -360.722
497.062;  -54.378; -819.156; -627.719
497.346;  -21.143; -869.160; -640.711
497.631;  137.265;  580.852;  560.266
497.915;   66.590;  -64.145;  175.261
498.199;   53.589; -341.157; -277.718
498.483;   52.151; -562.152; -508.725
498.767;  189.146;  301.850;  300.271
499.051;  187.281; -126.149; -100.732
499.335;   31.279; -693.149; -739.731
499.619;  -31.299; -381.129; -423.767
499.903;   31.679; -272.155;  -65.721
500.187;   41.042; -588.153; -316.724
500.471;   28.631; -796.152; -595.727
500.755;  115.103;   62.839;  -96.710
501.039;   41.880; -270.155; -357.721
501.323;  107.702;  -21.141;  264.254
501.607;   35.706; -447.163; -503.706
501.891;   22.715; -607.156; -512.718
502.174;  -28.774; -726.144; -585.741
502.458;   83.810;   89.849;  370.273
502.742;   27.126; -180.138; -191.751
503.026;   93.969; -412.147; -254.734
503.310;  158.816; -437.159; -375.713
503.593;  110.321; -464.147; -325.735
503.877;  117.716; -232.133; -156.760
504.161;  198.794;    2.847;  -50.724
504.444;  131.030; -841.158; -710.716
504.728;  417.549; -487.164; -522.704
505.012;  673.992; -257.150;  -76.729
505.295;  512.379; -417.161; -212.711
505.579;  480.347; -256.156; -496.719
505.862;  684.711; -555.145; -333.738
506.146;  671.569; -681.159; -758.714
506.429;  398.319;  568.841;  461.286
506.713;   59.115; -732.151; -667.728
506.996;  320.534;   90.846;  295.278
507.280;  317.569; -633.165; -474.703
507.563;  213.078; -469.155; -261.721
507.847;   94.893; -423.153; -112.724
508.130;   77.655; -665.161; -456.711
508.413;  100.951; -758.167; -577.700
508.697;  229.101; -151.167;   12.300
508.980;  130.969; -422.153; -312.724
509.263;   -6.226; -466.155; -450.720
509.547;   39.067; -124.150;   82.271
509.830;   66.632; -172.160;  140.289
510.113;   89.722;  128.844;  298.281
510.396;   43.550; -530.152; -300.725
510.680;  228.737; -818.145; -812.738
510.963;  832.114;  184.846;  180.277
511.246;  725.625; -493.150; -357.730
511.529;  289.617; -482.145;  -83.739
511.812;  348.362; -250.134;   10.241
512.095;  241.012; -740.151; -396.728
512.378;   67.250; -317.147; -245.736
512.661;   35.058; -703.137; -623.753
512.944;   24.865; -750.142; -637.744
513.227;   67.531; -170.137; -171.752
513.510;   23.801; -479.144; -671.741
513.793;   39.881; -485.140; -435.747
514.076;  131.996;  -43.127;  -39.771
514.359;  112.409; -294.149; -135.732
514.642;   85.843; -442.142; -567.744
514.925;  707.355;  581.860;  561.253
515.208;  917.334; -498.134; -443.758
515.491;  603.222; -276.133; -182.761
515.773;  353.479; -410.143; -337.742
516.056; 1955.890;  249.864;  409.246
516.339; 2648.619; -754.136; -652.755
516.622; 2061.398; -518.150; -488.730
516.904; 1544.936;  882.857;  975.257
517.187;  752.679; -730.138; -523.752
517.470;  408.610; -568.143; -510.743
517.752;  412.646; -624.136; -470.756
518.035;  319.917; -708.139; -725.749
518.318;  345.619; -799.136; -744.755
518.600; 2202.001; -300.132; -325.762
518.883; 3036.792;  310.858;   88.256
519.165; 1489.622; -585.138; -426.751
519.448;  427.600;  -61.132;  -19.762
519.730;  216.254; -573.126; -415.773
520.013;  348.743;  588.867;  664.240
520.295; 1059.964;  -94.134;  -15.759
520.578; 2384.163; -335.131; -305.764
520.860; 2629.126; -254.132;   56.238
521.143; 1342.348; -763.135; -584.756
521.425;  491.816; -251.125; -279.775
521.707;  678.797; -622.127; -380.771
521.990; 1648.297; -199.127;  167.229
522.272; 1892.458; -116.140;   -4.748
522.554;  922.580; -237.143; -157.742
522.836;  429.362;  -24.134;   99.241
523.119;  261.718; -496.148; -189.734
523.401;  175.595; -448.130; -314.766
523.683;   92.259; -865.137; -693.753
523.965;  261.602;  408.862;  260.248
524.247;  247.137;   54.878;  170.220
524.529;  188.089; -451.134; -367.759
524.812;  358.647;   -3.130;  191.234
525.094;  784.002; -773.138; -631.751
525.376; 1241.050; -143.124;   78.223
525.658;  766.466; -441.136; -339.754
525.940;   15.585; -805.131; -671.764
526.222;   53.694; -188.136;  -88.755
526.504;  151.083; -190.131;   32.237
526.786;  263.541; -960.133; -647.760
527.068;  401.656; -124.123;  -67.778
527.349;  196.662; -865.137; -774.754
527.631;  152.750; -137.132;   22.238
527.913;  127.621; -664.127; -450.771
528.195;  149.634; -761.125; -639.774
528.477;  235.759;  -93.134;  -30.758
528.759;  124.647; -648.130; -522.766
529.040;   43.255; -569.123; -293.778
529.322;   66.037; -235.125;  -10.774
529.604;  165.424;  -47.130;   93.233
529.886;  168.628; -546.126; -302.773
530.167;  150.116;  232.870;  192.235
530.449;   55.849;    1.853;   63.265
530.731;   29.086; -572.122; -459.779
531.012;   56.832; -513.120; -216.784
531.294;   77.146; -118.116;  -43.792
531.575;  139.841;  290.875;  538.225
531.857;   43.354; -548.135; -266.757
532.138;  111.151; -113.141;   40.254
532.420;  206.625;  294.865;  403.244
532.701;  280.069; -722.133; -751.760
532.983;  416.522;  232.867;  182.239
533.264;  140.151; -243.126;  175.228
533.546;  -26.606; -491.136; -508.755
533.827;   73.840;  173.867;   -1.759
534.109;   70.679; -352.135;  -80.757
534.390;  110.329; -725.132; -582.762
534.671;  256.000; -270.135;  -82.756
534.953;  158.582; -751.123; -611.779
535.234;   27.131; -426.117; -255.789
535.515;  -74.335; -891.119; -735.785
535.796;  -19.683; -431.128; -193.770
536.078; -112.425;-1050.124; -904.777
536.359;   16.708;  -22.123;    3.221
536.640;    2.986; -480.125; -197.774
536.921;  160.354;  225.871;  143.232
537.202;  356.923;  -87.138;  -16.751
537.483;  425.588;  251.869;  377.236
537.764;  167.891;   17.870;   98.235
538.045;  -38.817; -543.134; -371.758
538.326;  -28.194; -596.129; -447.768
538.607;   10.472; -686.127; -476.771
538.888;  175.898;   98.879;    5.218
539.169;  197.943; -704.122; -535.781
539.450;  326.478;  236.871;   16.233
539.731;  225.602; -361.121; -182.783
540.012;  132.282;  199.880;  412.216
540.293;   91.920;   82.876;  158.224
540.574;   40.716; -895.113; -717.796
540.855;  466.676;  435.879;  377.218
541.136;  527.640;   47.878;  139.220
541.416;  273.148; -161.130; -220.766
541.697;  178.784; -274.131; -170.763
541.978;  970.502; -270.135; -315.757
542.259; 1209.747; -211.127; -236.771
542.539;  616.615; -191.116; -186.790
542.820;  181.316;  461.875;  480.225
543.101;  139.464;  -52.145;  -77.738
543.381;   48.647; -638.127; -591.771
543.662;  247.945;  159.873; -254.771
543.942;  533.293; -751.127; -830.770
544.223;  977.367;  193.878;  161.219
544.504;  641.475; -275.124; -182.777
544.784;  547.553; -592.126; -408.773
545.065; 1545.993;  104.884; -254.791
545.345; 1824.440;  227.881;   14.215
545.626; 1175.440;  -14.113; -108.796
545.906;  819.615;   77.869;   98.235
546.186;  345.683;   92.874;  -95.773
546.467;  182.977;   99.877;  -95.778
546.747;  306.789;  264.884;  327.210
547.027;  347.323;   91.876;  111.223
547.308;  310.742; -376.127; -530.770
547.588;  377.957;  299.871;  371.232
547.868;  193.167;  458.870;  588.235
548.149;  200.526;  609.885;  593.207
548.429;  118.020; -347.127; -299.771
548.709;  166.107; -645.120; -461.784
548.989;  431.400;   84.882;   88.213
549.269; 1944.874;   10.868;  139.239
549.550; 4430.956;  215.877;  117.222
549.830; 3940.383; -758.111; -556.799
550.110;  769.916; -468.110; -320.801
550.390;  778.612; -128.122;  -56.779
550.670; 1049.211; -868.114; -783.795
550.950;  753.450; -509.121; -471.782
551.230;  171.121;  549.879;  460.218
551.510;  -10.526; -381.121; -326.782
551.790;   30.323; -173.109; -127.803
552.070;  255.627;  940.877; 1181.223
552.350;  348.019; -492.119; -377.786
552.630;  520.869;   -2.121;   77.219
552.909;  319.894;  181.884;   73.209
553.189;  204.980;  -49.132;   33.237
553.469;  166.469; -703.119; -514.786
553.749;  174.674; -469.127; -357.772
554.029;  152.835;   33.883;  -24.790
554.308;  131.480; -154.115;  -37.794
554.588;   48.841; -196.128; -204.770
554.868;   71.601; -366.121;  -47.782
555.147;  139.602; -114.115;  -46.793
555.427;  564.746; -260.116; -250.792
555.707; 3558.975; -284.115; -200.793
555.986; 4311.411; -719.111; -538.800
556.266; 2243.438;   23.884;   72.210
556.546;   97.099; -888.121; -675.782
556.825;  230.209; -657.114; -556.794
557.105; 1639.514; -125.128;   17.230
557.384; 1904.643;  122.884;  187.209
557.664;  722.870; -717.116; -508.792
557.943;   90.525; -557.121; -411.782
558.222;  170.753; -345.118; -344.788
558.502;  263.828; -116.115;  -76.793
558.781;  467.749;  194.885;  499.208
559.061;  374.278; -232.118; -227.788
559.340;  266.658;  302.883;  353.211
559.619;  636.913;   93.884;  148.210
559.899;  920.659; -239.117; -266.789
560.178;  843.028; -778.115; -593.793
560.457; 2869.861; -623.117; -562.790
560.736; 4030.613; -472.111; -482.800
561.015; 2671.987; -500.128; -502.769
561.295;  362.243;  180.893;  215.193
561.574;  333.250;  119.885;  116.207
561.853;  474.578;  274.891;  303.197
562.132;  457.930;  -45.114;  182.206
562.411;  412.195;  396.879;  553.219
562.690;  117.174; -592.115; -458.792
562.969;  142.547;  472.888;  630.203
563.248;  480.817; 2966.878; 2487.219
563.527;  235.587; -290.111; -408.800
563.806;  359.820; -650.127; -521.771
564.085;  379.533; -297.105; -206.810
564.364;  216.862; -594.117; -405.790
564.643;  458.895; -276.121; -223.781
564.922; 1703.622;  221.890;  397.198
565.201; 1704.325; -640.109; -700.803
565.479;  762.147; -297.115; -219.792
565.758;  299.764; -810.128; -712.770
566.037;  430.026; -155.109; -100.803
566.316;  226.643; -286.116;  -28.791
566.595;   35.250;  -17.115;  -12.793
566.873;   96.239; -166.111;  -79.801
567.152;  -48.553; -490.113; -590.797
567.431;   -2.111; -113.116;    6.210
567.709;   16.743; -344.107; -212.807
567.988;  225.434; -810.114; -769.794
568.266;  493.150; -160.115;  -68.793
568.545;  357.879; -644.100; -514.819
568.824;  531.997;  160.885;  356.208
569.102;  491.058; -351.114; -235.794
569.381;  187.171; -492.116; -407.792
569.659;  -51.557; -553.113; -553.796
569.938;   23.341; -743.122; -465.780
570.216;  101.679; -225.109; -225.804
570.494;  -25.363; -632.114; -572.795
570.773;   26.524;  202.879;  114.218
571.051;    7.655; -373.123; -357.778
571.330;   52.516; -221.113; -174.796
571.608;   30.847; -181.098; -173.823
571.886;  -74.269; -671.111; -581.799
572.164;  -54.299; -739.121; -621.782
572.443;  -52.313; -562.105; -512.811
572.721;  -41.439; -399.117; -289.790
572.999;  -20.545; -280.117; -168.788
573.277;   75.305;  379.894;  620.191
573.555;  249.232;   94.894;   37.190
573.834; 1232.704;  -86.117; -114.788
574.112; 1427.770;  880.893;  811.193
574.390;  426.088; -143.111;  -96.801
574.668;   -8.202;  -91.112;  -61.797
574.946;  -14.493; -165.106; -187.810
575.224;    6.250;   71.891;  -16.803
575.502;  -14.984; -200.116; -204.791
575.780;  -88.801; -767.112; -829.798
576.058;  235.087; 1589.889; 1004.200
576.336;  -12.757; -210.110; -129.801
576.614;  -46.026; -511.112; -340.798
576.891;   33.329; -711.115; -823.794
577.169;  433.812; -158.108; -285.805
577.447;  528.595;  169.893;  202.193
577.725;  254.304;  629.888;  854.201
578.003;   15.602;  -71.112; -371.798
578.280;   84.695; -208.104; -242.812
578.558;   59.953; -450.115; -422.793
578.836;  147.036; -210.114; -145.795
579.114;   47.398; -630.112; -670.797
579.391;   83.156;   -6.117;  -18.789
579.669;  -60.870; -595.114; -704.794
579.947;  152.517; -326.107; -127.806
580.224;  303.292; -692.107; -524.806
580.502;  298.871;  127.893;   76.193
580.779;   16.187;  -42.117;   75.210
581.057;  -64.821; -584.109; -470.804
581.334; -105.690; -726.102; -695.815
581.612;   33.633;   54.895;  511.190
581.889;  -22.677;  -83.101; -129.818
582.167;  -27.063; -298.099; -190.821
582.444; -107.607; -845.102; -814.817
582.721;  110.144;  657.899;  715.183
582.999;   51.060; -326.100; -167.821
583.276;  466.684; -812.123; -713.779
583.553;  631.488; -364.102; -294.816
583.831;  205.442; -607.104; -631.812
584.108;   52.785;  349.892;  174.195
584.385;    7.485; -122.102;  -98.815
584.662;  -71.836; -651.111; -828.801
584.940;   44.289;  204.889;  204.199
585.217;  -22.557;  -73.113; -303.796
585.494;   41.422;   71.890;  118.198
585.771;  175.155; -250.109; -354.804
586.048;  473.843; -196.113;  -76.796
586.325;  290.192; -721.110; -773.801
586.602;   96.421;  230.896;  213.188
586.879;  -23.219; -499.100; -580.820
587.156;   33.334; -156.105; -331.810
587.433;  -30.084; -701.102; -667.817
587.710;   70.825;  152.888;  234.202
587.987;  269.614; -264.105; -236.811
588.264;  736.977;  315.888;  387.202
588.541; 1263.573;  -61.104;   26.187
588.818; 2513.432;   72.892;  171.196
589.095; 2147.769; -163.104; -174.812
589.371;  347.728; -459.109; -414.804
589.648;    8.570; -581.107; -437.807
589.925;   19.087; -517.114; -621.795
590.202;   14.300; -741.112; -607.798
590.478;   85.341; -166.105;  -73.811
590.755;  232.038; -241.108; -132.806
591.032; 2286.419; -741.110; -699.802
591.308; 3119.337; -732.094; -790.831
591.585; 1618.994; -573.110; -560.802
591.862;  121.767;-1056.102; -950.817
592.138;   68.611; -475.108; -474.805
592.415;  118.172; -486.104; -495.813
592.691; 1384.669;  460.896;  518.188
592.968; 1725.624; -208.098; -123.824
593.244;  820.189; -695.116; -595.790
593.521;   68.543; -105.102;  -42.817
593.797;  -34.412; -810.122; -720.780
594.074;  301.736; -611.096; -588.826
594.350;  619.072;  828.905;  729.172
594.626;  273.365; -303.111; -283.801
594.903;  101.968; -643.101; -645.817
595.179;  167.225;  243.896;  418.187
595.455;    6.922; -136.107; -150.807
595.731;    5.327;  -19.103;  -38.814
596.008;  -29.566; -464.111; -434.800
596.284;   21.484; -187.100; -242.820
596.560;   47.843; -501.093; -493.833
596.836;  172.336; -173.105;  -70.810
597.112;  308.011; -582.108; -437.805
597.388;  252.509;  -49.097;  -48.826
597.665;  112.995;  437.887;  530.203
597.941;  -60.653; -572.089; -658.839
598.217;   12.547; -323.110; -293.802
598.493;  232.431;   61.891; -204.804
598.769;  478.903; -175.100;  -50.819
599.045;  273.889; -490.108; -562.806
599.321;   44.658; -193.100; -261.820
599.597;  123.256; -355.109; -476.804
599.872;  457.323;  409.896;  429.187
600.148;  321.286;  -61.097; -172.826
600.424;  268.744;   91.893;  202.193
600.700;  231.146; -170.107; -280.807
600.976;   86.980; -442.097; -464.825
601.252;  231.127; -226.109; -272.803
601.527;  182.824; -833.104; -840.813
601.803;  133.017; -453.105; -404.812
602.079;  169.953; -124.100; -118.819
602.354;  516.453; -620.092; -531.835
602.630;  754.343; -140.113; -482.796
602.906; 2104.323; -910.101; -863.818
603.181; 6115.919; -627.119; -534.786
603.457; 5172.859;   98.903; -278.826
603.733;  762.628; -605.120; -626.783
604.008;  898.558; -245.106; -164.810
604.284; 2825.470; -636.101; -580.817
604.559; 2438.829;   -3.112;  -42.799
604.835;  420.136; -163.105; -225.810
605.110;  363.113; -732.099; -892.821
605.385;  647.046;  224.907;  267.167
605.661;  576.300; -625.095; -729.829
605.936; 1059.265; -664.108; -737.806
606.211;  887.008;  -17.103; -170.815
606.487;  194.132; -329.114; -376.794
606.762;   -0.331; -791.119; -745.786
607.037;  -34.114; -501.105; -433.810
607.313;  -57.881; -589.096; -574.828
607.588;    1.333; -375.106; -137.810
607.863;   39.423;  -28.101; -143.818
608.138;  176.346;  513.890;  516.198
608.413;   12.967; -576.099; -592.822
608.688;   21.911; -203.108; -267.805
608.964;  178.102; -509.106; -218.809
609.239;  217.933; -107.105; -212.810
609.514;  215.766;  281.895;  240.188
609.789;  598.921; -187.104; -716.812
610.064;  810.292; -435.096; -609.827
610.339;  792.403; -855.109; -799.804
610.614; 1047.158; -131.100; -315.820
610.889;  589.866;  215.895;  107.188
611.163;   30.717; -407.104; -591.812
611.438;   79.509;   81.886; -167.794
611.713;  -14.155; -467.101; -499.817
611.988;   37.147; -144.101; -328.818
612.263;  -29.840; -771.102; -717.815
612.538;  212.567;  385.887;  251.204
612.812;  154.184; -832.100; -911.820
613.087;  106.247; -358.098; -338.823
613.362;  -54.253; -497.107; -557.807
613.637;   49.655;  261.897;  138.186
613.911;  -12.697; -256.092; -345.835
614.186;  125.470; -249.107; -292.807
614.460;  596.521; -842.081; -758.854
614.735;  710.995;  -55.087;  -17.843
615.010;  139.110;   43.912;  -82.841
615.284;  238.285;  360.892;  246.195
615.559;  326.677; -792.092; -955.835
615.833;  270.740;  -76.099;  -87.822
616.108;   -5.561; -225.090; -390.837
616.382;  138.322;  274.913;  402.156
616.656;  145.614; -241.090; -232.837
616.931;  455.890; -785.099; -700.822
617.205;  990.325; -973.104; -979.813
617.480;  871.739;  -91.125;    6.225
617.754;  140.512; -396.125; -128.774
618.028;    7.033; -369.129; -382.768
618.302;   46.709;   73.892;  -25.805
618.577;  -33.419; -371.103; -518.815
618.851;  -62.826; -399.109; -600.803
619.125;  -49.611; -335.134; -378.759
619.399;  -30.025; -244.104; -374.813
619.673;  -39.503; -330.115; -515.792
619.947;  -51.289; -333.114; -448.795
620.222;  -17.735; -198.110; -204.801
620.496;    2.326;  -47.121;  -96.782
620.770;   10.742; -187.122;  -93.781
621.044;  200.059;  323.895;  346.190
621.318;  690.653; -653.120; -614.783
621.592;  612.726; -430.121; -409.783
621.866;  318.005; -476.112; -572.799
622.140;   16.241; -207.116; -356.791
622.413;   60.634;  138.889;  112.200
622.687;  -32.230; -746.101; -492.817
622.961;   -3.866; -130.108; -143.805
623.235;  -65.965; -633.111; -661.800
623.509; -103.834; -816.105; -848.811
623.783;    6.918;  -12.107;   48.193
624.056;  -37.670; -254.120; -280.783
624.330;   33.998;   63.888;   -3.797
624.604;   57.062; -271.116; -355.790
624.877;   65.520;  180.890;   26.198
625.151;   41.106; -249.114; -238.794
625.425;  -43.598; -150.103; -283.814
625.698;  -59.061; -367.119; -374.785
625.972; -103.103; -799.110; -765.802
626.245;   72.989;  685.884;  484.210
626.519;  -64.816; -426.120; -340.784
626.792;  -27.529; -192.107; -380.807
627.066;  -89.015; -485.122; -662.779
627.339; -107.432; -736.110; -663.802
627.613;   35.882;  351.880;  148.216
627.886;   46.549;  187.891; -612.803
628.160;  -16.347;  312.880; -161.783
628.433;  -87.308; -695.125; -703.775
628.706;  -76.816; -517.120; -615.784
628.979;   19.298;  296.876;  117.223
629.253;  -79.381; -785.119; -833.786
629.526;  307.227; -334.126; -253.772
629.799;  300.405; -641.123; -479.778
630.072;  144.409; -497.128; -516.769
630.346;  -62.911;-1115.116;-1080.790
630.619;  394.847; -467.107; -545.808
630.892;  580.085;  709.889;  593.200
631.165;  315.275;  790.896;  679.187
631.438;  -90.648;-1092.112;-1055.798
631.711;   43.583;  453.877;  257.221
631.984;  -61.215; -523.117; -624.789
632.257;  -62.169; -636.117; -681.789
632.530;  -44.686; -412.119; -433.785
632.803;   26.954; -109.115;    7.207
633.076;  -66.473; -360.123; -422.777
633.349;    3.738;  173.872;  121.231
633.622;  -51.462; -187.119; -240.785
633.895; -120.396; -903.120; -823.783
634.167;  -74.421; -496.126; -525.773
634.440;   -6.904;  -19.116; -137.792
634.713;   -4.308;  -22.119; -120.786
634.986;   83.053;  593.871;  453.233
635.258;  -77.773; -507.115; -597.793
635.531;  100.677;  742.882; -343.788
635.804;  -28.367; -303.117; -318.789
636.077;  -79.783; -830.116; -852.791
636.349;  -10.924; -586.115; -474.793
636.622;  360.151; 1695.874; 1392.228
636.894;  214.234; -474.120; -909.784
637.167;  129.420; -836.127; -789.771
637.439;   33.891; -278.128; -213.770
637.712;  -60.047; -312.126; -293.772
637.984;  -83.833; -635.116; -707.791
638.257;  380.353;  515.877;  488.222
638.529;  516.218; -881.125; -924.776
638.802;  231.434; -508.128; -449.769
639.074; -114.758; -927.122; -952.781
639.346; -127.770; -942.135; -930.757
639.619;    5.741;  -79.142; -319.744
639.891;   -4.815;  -83.122; -168.779
640.163;  -87.238; -689.122; -756.780
640.435;   24.914;  273.878;  103.220
640.708;   -2.684;  -72.122; -132.780
640.980;  -36.307; -366.122; -362.781
641.252;  180.770;  -25.121;  -71.781
641.524; 1710.521;  580.879;  573.219
641.796; 1702.373;-1094.121; -907.782
642.068;  297.100; -191.121; -300.782
642.340;  -58.073; -486.121; -566.783
642.613;   23.754;  294.880;  323.217
642.885; -110.795; -787.120; -878.783
643.157;  -42.693; -810.120; -658.784
643.428;   52.559;  170.880;  218.216
643.700;  -65.164; -498.120; -425.784
643.972;  -27.887;  -16.119; -133.785
644.244;  -76.211; -474.119; -559.785
644.516;  -63.984; -250.119; -114.786
644.788;   69.593;  662.881;  548.214
645.060;  -22.355;  -12.119; -124.786
645.332;  -90.078; -525.118; -535.787
645.603;   32.398;  479.882;  342.213
645.875;  -69.775; -334.118; -369.787
646.147;  157.802; 1487.882; 1242.212
646.418;  -77.171; -931.117; -918.788
646.690;  101.256; -714.117; -715.789
646.962;   24.357; -413.117; -451.789
647.233;  -16.016;   15.883;   11.211
647.505; -107.064; -595.117; -475.790
647.776;   15.713;  328.884;  229.210
648.048;   -7.385; -248.116; -418.790
648.320;  -78.558; -752.116; -679.791
648.591; -156.232;-1055.116; -958.791
648.862;  -91.355; -505.116; -577.792
649.134;   12.922;  115.885;  198.208
649.405;  -50.251; -661.115; -618.792
649.677;  -48.024; -475.115; -598.793
649.948;   -6.798; -181.115; -296.793
650.219;    3.779;  -37.115; -147.793
650.491;  -82.519; -431.114; -520.794
650.762; -123.617; -705.114; -731.794
651.033;  -84.540; -437.114; -424.795
651.304;  -93.939; -743.114; -728.795
651.576;  -79.787; -680.114; -645.795
651.847;  -50.010; -250.113; -140.796
652.118;  -41.058;  -32.113; -189.796
652.389;  -97.106; -639.113; -722.796
652.660;  -39.405; -147.113;  -89.797
652.931; -137.078; -897.112; -871.797
653.202;  -84.976; -382.112; -541.798
653.473;  -65.399; -633.112; -533.798
653.744;  138.378; -595.112; -590.798
654.015;  130.804; -356.112; -303.799
654.286;  -71.869; -642.111; -663.799
654.557;  -73.867; -586.111; -521.799
654.828; -163.590;-1114.111;-1088.800
655.099;  -86.388; -404.111; -291.800
655.370;  -94.237; -427.111; -543.801
655.641; -117.135; -656.110; -714.801
655.911;  -90.183; -618.110; -638.801
656.182;   39.219;  437.890;  387.198
656.453;   94.796;  830.890;  746.198
656.724;  -77.877; -466.110; -426.802
656.994;  -79.676; -553.109; -568.803
657.265; -111.224; -862.109; -873.803
657.536;  -98.822; -500.109; -377.804
657.806; -103.170; -561.109; -593.804
658.077; -128.618; -866.109; -950.804
658.347;  -91.467; -523.108; -598.805
658.618; -106.840; -646.108; -694.805
658.888;  -18.013;  -41.108;  112.195
659.159;  -76.711; -432.108; -548.806
659.429;  -20.084; -292.108; -349.806
659.700;   -2.083; -435.107; -390.807
659.970;  -15.956; -370.107; -359.807
660.241;    9.946; -754.107; -921.807
660.511;  448.423; -147.107; -174.808
660.781;   86.675; -793.106; -748.808
661.052;  -62.549; -222.106; -381.808
661.322;  -27.697;   21.894;   -9.809
661.592;   21.130;  257.894;  148.191
661.862;  -74.468; -369.106; -382.810
662.133;  -98.666; -551.105; -502.810
662.403; -126.490; -770.105; -676.810
662.673;  -52.113; -256.105; -213.811
662.943; -104.261; -612.105; -551.811
663.213;  -10.234;  -85.105;  -81.811
663.483;  -75.657; -593.104; -568.812
663.753;  -47.555; -194.104; -152.812
664.023;  -22.404;   68.896;  -32.813
664.293;  -54.502; -319.104; -126.813
664.563; -119.775; -694.104; -648.813
664.833; -119.348; -743.103; -608.814
665.103; -121.296; -730.103; -793.814
665.373; -117.045; -766.103; -806.814
665.643;  -94.118; -863.103; -918.815
665.913;   21.109; -534.103; -714.815
666.182;  123.986; -685.102; -719.816
666.452;  247.613;  -22.102;  -89.816
666.722;  -31.111; -724.102; -784.816
666.992; -143.634; -948.102; -921.817
667.261;  -94.857; -824.102; -808.817
667.531;  202.170;  134.899;   45.183
667.801;  538.647; -440.101; -412.818
668.070;  237.798;  714.899;  697.182
668.340; -112.550; -883.101; -840.819
668.609;   78.627;  588.900;  301.181
668.879;  -68.771; -490.100; -558.819
669.149;  -80.069; -539.100; -516.820
669.418; -101.468; -698.100; -726.820
669.688;  -37.116; -482.100; -666.820
669.957;   61.011; -423.099; -546.821
670.226;  -19.312; -268.099; -331.821
670.496; -105.685; -431.099; -635.822
670.765;  -84.008; -418.099; -501.822
671.034; -140.707; -872.099; -828.822
671.304;   -5.230;   55.902; -111.823
671.573; -148.978;-1085.098; -957.823
671.842;   63.099; -380.098; -294.823
672.112;    6.876; -692.098; -586.824
672.381;  -19.273; -239.098; -214.824
672.650; -140.921;-1005.097;-1021.825
672.919;  -94.669; -631.097; -507.825
673.188;  -95.667; -681.097; -878.825
673.457; -141.265;-1101.097;-1143.826
673.726;  -88.314; -579.096; -646.826
673.995;  -31.537; -533.096; -479.826
674.265;  -27.610; -263.096; -333.827
674.534;    5.342; -183.096; -235.827
674.802;   -9.106; -618.096; -703.828
675.071;  912.545; -886.095; -801.828
675.340; 3583.472; -464.095; -339.828
675.609; 1185.274;  103.905;   82.171
675.878;   56.851; -949.095; -893.829
676.147;   38.128;  -26.095;   -8.829
676.416;   71.704; -210.094; -294.830
676.685;  675.606; 1000.906; -622.830
676.953;   85.983; -603.094; -452.831
677.222;  -39.215; -193.094; -273.831
677.491;  -26.688;  -24.094; -127.831
677.759;  -13.061;   11.907;  172.168
678.028;  -26.060; -279.093; -222.832
678.297;   -8.208;   71.907;  197.168
678.565; -141.931; -898.093; -944.833
678.834;  -62.554; -311.093; -268.833
679.102;  -87.152; -411.092; -391.834
679.371; -130.001; -898.092; -727.834
679.639; -132.849; -797.092; -786.834
679.908; -119.672; -794.092; -724.835
680.176; -159.945; -895.091; -941.835
680.445;  -72.543; -346.091; -352.835
680.713;  -26.767;  -58.091;  -23.836
680.982;  -96.190; -523.091; -525.836
681.250;  -98.563; -578.091; -507.837
681.518;  -97.961; -534.090; -751.837
681.787;  -19.334; -204.090; -167.837
682.055;  -64.633; -490.090; -422.838
682.323; -139.806; -993.090; -992.838
682.591;   24.371; -216.090; -538.838
682.859;   64.823;    9.911;  -35.839
683.128;   16.650;  232.911;  497.161
683.396; -163.624;-1102.089;-1122.840
683.664;  -37.722; -241.089;   21.160
683.932;    3.680;  144.911;  -76.840
684.200;  -65.343; -576.088; -320.841
684.468;  -30.891;  -73.088; -124.841
684.736;  -40.215; -214.088; -175.841
685.004; -135.863;-1024.088; -982.842
685.272;  -57.736; -880.088; -774.842
685.540;  -67.759; -499.087; -557.843
685.808;  -71.332; -651.087; -682.843
686.076; -103.205; -894.087; -969.843
686.343;  -52.704; -601.087; -815.844
686.611;   27.098; -195.087; -224.844
686.879;  411.750; -530.086; -553.844
687.147; 3035.877; -483.086; -480.845
687.414;  860.654;  -12.086; -169.845
687.682;  -13.245; -658.086; -757.846
687.950;  295.782;  259.915;  263.154
688.217;   -0.541; -792.085; -760.846
688.485;  -17.439; -632.085; -636.847
688.753;  488.463;  -11.085; -102.847
689.020;  118.314; -820.085; -851.847
689.288;  -96.384; -853.084; -787.848
689.555;  -20.582; -195.084; -148.848
689.823;  -66.405; -241.084; -345.849
690.090;  -86.503; -546.084; -651.849
690.358; -146.602; -877.084; -897.849
690.625;   -0.125;  120.917;   45.150
690.892;  -83.348; -403.083; -369.850
691.160;  -10.921;   72.917;  -35.850
691.427;   -9.819;  141.917;  130.149
691.694; -136.093; -855.083; -929.851
691.962; -146.691;-1177.082;-1060.852
692.229;   29.486;  127.918;   56.148
692.496;   51.463;  130.918;  -49.852
692.763;    4.540; -164.082; -201.853
693.031;  -76.083; -739.082; -716.853
693.298;  -37.107; -509.081; -368.853
693.565;  280.095; -155.081; -163.854
693.832; 1159.097;   -5.081;   -9.854
694.099;  128.149; -643.081; -642.855
694.366;  -66.249; -882.081; -896.855
694.633;  -59.273; -920.080; -633.855
694.900;  727.754; 4367.920; -114.856
695.167;  380.256; -214.080; -380.856
695.434;   99.908; -646.080; -623.856
695.701;  178.485;  121.921;  -61.857
695.968;  429.486; -365.079; -361.857
696.234;  961.038; -415.079; -646.858
696.501;10293.640; -776.079; -614.858
696.768; 5279.467; -554.079; -617.858
697.035;  320.194; -632.078; -667.859
697.302;   31.670; -448.078; -552.859
697.568;   20.372; -458.078; -497.859
697.835;  -34.901; -683.078; -624.860
698.102;  -21.574; -498.078; -407.860
698.368;   66.928;  384.923;  396.139
698.635;  -28.546;  -47.077; -424.861
698.901;  -45.644; -240.077; -348.861
699.168;   47.908; -534.077; -456.862
699.435;   60.535;  -72.077;  -13.862
699.701; -115.638; -868.076; -764.862
699.968;    1.389;  144.924; -441.863
700.234;  -96.110; -783.076; -822.863
700.500;  -51.283; -448.076; -539.864
700.767;   -6.256;   -1.075;   26.136
701.033; -144.004;-1015.075; -963.864
701.299;  -55.927; -450.075; -483.865
701.566;   99.624;  950.925;  763.135
701.832;   25.626;  -31.075;  -76.865
702.098; -101.172;-1054.074;-1034.866
702.365;  -83.745;-1098.074;-1030.866
702.631;  -33.268;-1038.074;-1063.867
702.897; 1304.458; -765.074; -676.867
703.163; 2151.385;  348.926;  254.133
703.429;  154.212; -256.073; -273.868
703.695;  -43.886; -796.073; -792.868
703.961;   18.366; -214.073; -210.868
704.227;  -61.083; -630.073; -725.869
704.493;  126.469;  613.927;  510.131
704.759;  -29.254; -565.072; -540.870
705.025;   21.698; -203.072; -194.870
705.291;   -4.100; -666.072; -562.870
705.557;  191.076;  719.928;   34.129
705.823;   33.853; -742.072; -694.871
706.089;  146.830; -307.071; -326.871
706.355;  366.082; -315.071; -244.872
706.620; 5695.034; -776.071; -729.872
706.886; 7883.036; -309.071; -362.873
707.152;  723.537; -818.070; -973.873
707.418;  -17.386;-1153.070;-1186.873
707.683;    7.716; -550.070; -530.874
707.949;  -31.757; -547.070; -578.874
708.215;    7.120; -129.070; -207.874
708.480;  -21.704; -520.069; -420.875
708.746;   79.073;   68.931;   28.125
709.011;  -51.575; -578.069; -612.876
709.277;  -69.873; -538.069; -543.876
709.542;  -55.346; -428.069; -387.876
709.808;  -12.770;  -59.068;   89.123
710.073;  -91.193; -577.068; -695.877
710.339;  -24.541; -242.068; -228.877
710.604;   63.936; -780.068; -845.878
710.869;  310.238; -277.068; -366.878
711.135;  -71.161; -715.067; -628.879
711.400;  -86.859; -507.067; -608.879
711.665;  -70.832; -404.067; -479.879
711.931;  -97.755; -661.067; -677.880
712.196; -114.528; -876.067; -954.880
712.461;   92.148; -402.066; -490.880
712.726;  136.625; -727.066; -771.881
712.991;  -91.923; -647.066; -664.881
713.256;  -46.246; -350.066; -332.882
713.521;  -48.994; -417.065; -381.882
713.787;  -62.868; -454.065; -472.882
714.052;  -35.716; -214.065; -400.883
714.317;  -84.289;-1045.065; -981.883
714.581; 1040.513; -374.065; -268.883
714.846; 1459.590; -822.064; -888.884
715.111;  135.717;  261.936;  257.116
715.376;  -29.432;  -86.064; -223.885
715.641;   -1.555; -365.064; -367.885
715.906;  272.772;   15.936; -551.885
716.171;  129.699;  221.937;  209.114
716.436;   18.901;  -78.063; -104.886
716.700; -108.873; -818.063; -692.886
716.965; -134.571; -794.063; -807.887
717.230;  -70.494; -339.063; -392.887
717.494;  -32.367;  -40.062; -134.888
717.759;  -90.190; -784.062; -640.888
718.024;    5.086;  269.938;  250.112
718.288;   81.588;  685.938;  395.111
718.553; -132.810; -803.062; -977.889
718.817; -142.433; -883.061; -899.889
719.082;  -29.381; -115.061; -125.890
719.346; -140.905;-1000.061; -947.890
719.611;  -55.178; -300.061; -255.891
719.875; -104.851; -568.060; -537.891
720.140;  -64.924; -453.060; -603.891
720.404;   29.903; -136.060; -249.892
720.668;  766.229; -475.060; -411.892
720.933;  301.831;  146.940;  137.108
721.197;  -98.567; -667.059; -600.893
721.461; -125.265; -851.059; -826.893
721.725;   -6.563;  -21.059; -250.894
721.990;  -60.736; -284.059; -204.894
722.254;  -31.910;  -26.059; -108.894
722.518;  -75.158; -286.058; -442.895
722.782;  -97.131; -743.058; -594.895
723.046;  135.246;  614.942;  570.105
723.310;   11.048;  374.942;  210.104
723.574;  -96.276; -654.058; -614.896
723.838; -104.274; -576.057; -642.897
724.102;  -40.847; -226.057; -239.897
724.366; -143.470;-1032.057; -978.897
724.630; -104.568; -749.057; -571.898
724.894;  -87.967; -722.057; -514.898
725.158;   -6.190;   38.944; -295.898
725.422;  -61.938; -394.056; -327.899
725.685;  -63.411; -441.056; -349.899
725.949;  -72.309; -566.056; -519.900
726.213;  -79.558; -732.056; -811.900
726.477;  144.844;-1020.055; -933.900
726.740;  140.921; -274.055; -104.901
727.004;  332.048; -384.055; -510.901
727.268; 3361.775; -442.055; -400.901
727.531;  931.126; -961.055; -775.902
727.795;  -47.197; -713.054; -673.902
728.059;  -65.620; -552.054; -557.903
728.322;  -72.018; -841.054; -669.903
728.586;    5.934; -692.054; -701.903
728.849;  -81.214; -695.053; -756.904
729.112; -110.613; -812.053; -912.904
729.376; -115.761; -959.053; -905.904
729.639;  -68.134; -536.053; -536.905
729.903; -111.457; -733.053; -699.905
730.166;  -44.005; -437.052; -399.906
730.429;  -27.004; -317.052; -468.906
730.693;  -61.977; -355.052; -894.906
730.956;  195.325;  810.948;  651.093
731.219;  665.827; -310.052; -103.907
731.482;   95.054;-1003.051; -894.907
731.745;   77.730; -794.051; -935.908
732.009;   19.582;  -30.051;   50.092
732.272; -105.341; -904.051; -771.909
732.535;  -52.764; -300.051; -310.909
732.798; -156.887;-1083.050;-1166.909
733.061;  -59.861; -430.050; -456.910
733.324;    3.766;   31.950; -180.910
733.587;   68.168;  290.950;  365.090
733.850;  -76.930; -973.049;-1050.911
734.113;   33.472;   33.951;   32.089
734.376;    3.898; -328.049; -447.912
734.639;  203.975; 1188.951; 1011.088
734.901;   51.827; -180.049; -402.912
735.164;  487.979; -883.048; -837.913
735.427; 1222.156; -166.048; -355.913
735.690;  109.383; -205.048; -234.913
735.952;  -49.166; -923.048; -925.914
736.215;  -26.489;-1113.048;-1009.914
736.478;   43.013; -771.047; -774.915
736.740;  204.765;   33.953;  129.085
737.003;  631.717; -658.047; -672.915
737.266; 3770.268;  -94.047;   46.084
737.528;  419.495; -682.047; -660.916
737.791;  305.697; -316.046; -327.916
738.053;  797.349;  465.954;  649.083
738.316;10707.951; -162.046; -136.917
738.578; 7670.227; -770.046; -736.918
738.841;  429.729; -382.046; -446.918
739.103;  169.181; -875.045; -777.918
739.365;  493.008;   79.955;  -69.919
739.628;  -15.865; -884.045; -805.919
739.890;  -20.489; -758.045; -710.919
740.152;  -49.162; -692.044; -754.920
740.414;  -18.285; -408.044; -359.920
740.677;  -40.383; -785.044; -634.921
740.939;  -39.906; -587.044; -487.921
741.201;  234.145; -432.044; -572.921
741.463;   39.872; -689.043; -745.922
741.725;    8.474;  -21.043; -199.922
741.987;   58.426;  220.957;  116.078
742.249;  -17.497; -751.043; -859.923
742.511;  198.054; -703.043; -794.923
742.773;    5.531; -546.042; -546.924
743.035;  130.683;  796.958;  533.076
743.297;  -41.840; -963.042;-1013.924
743.559;  701.212; -278.042; -262.925
743.821;   42.514; -735.042; -744.925
744.083;   17.890;  -44.041; -149.925
744.345;  -94.583; -869.041; -892.926
744.607;   19.319;   75.959;  122.074
744.868;  -56.079; -490.041; -554.927
745.130; -102.527; -994.041;-1008.927
745.392;   23.399;   -1.040;  -44.927
745.653;  -15.174; -411.040; -378.928
745.915;  148.128;  896.960;  631.072
746.177;   53.230;   35.960;  -43.928
746.438;   -8.993; -428.040; -543.929
746.700;  -44.942; -947.039; -988.929
746.961;  -13.215; -659.039; -740.930
747.223;  126.862; -190.039;  -74.930
747.484;   95.589; -391.039; -471.930
747.746;  134.891;  -23.038; -106.931
748.007;   97.142; -647.038; -689.931
748.269;  298.894; -468.038; -440.931
748.530;  438.371; -852.038; -638.932
748.791;  247.698; -354.038; -420.932
749.053;  407.625;  286.963;  163.067
749.314;  430.301; -236.037; -169.933
749.575;  486.303; -945.037; -905.933
749.836;  803.005; -217.037;   86.066
750.098; 2321.332;  -60.037;  -21.934
750.359;35226.784;  414.964;  555.066
750.620; 9131.011; -121.036; -220.935
750.881; 1005.837; -585.036; -513.935
751.142; 1319.314; -950.036; -938.936
751.403;16430.891; -789.036; -705.936
751.664; 7345.743;-1034.035; -999.936
751.925;  460.170; -175.035; -262.937
752.186;  273.421; -298.035; -278.937
752.447;  126.523; -590.035; -445.937
752.708;   25.350; -532.035; -648.938
752.969;    7.602; -566.034; -576.938
753.230;   -6.821; -777.034; -672.939
753.491;   -7.595; -650.034; -631.939
753.751;   56.282;  109.966;   19.061
754.012;   82.159;  258.967;  181.060
754.273;   51.186; -174.033;  -71.940
754.534;    4.113; -487.033; -580.940
754.794;  -82.711; -926.033; -911.941
755.055;  147.841; 1051.967;  881.059
755.316;  -54.982; -700.032; -566.942
755.576;  -18.555; -606.032; -576.942
755.837;  -58.803; -527.032; -695.942
756.097;  -41.952; -530.032; -564.943
756.358;  -81.975; -725.032; -770.943
756.618;  -43.923; -705.031; -641.943
756.879;    3.304; -254.031; -349.944
757.139; -124.094;-1098.031;-1116.944
757.400;  -60.167; -538.031; -553.945
757.660;  -21.866; -365.031; -401.945
757.920;   14.561; -266.030; -228.945
758.181;   -2.537; -468.030; -351.946
758.441;  -99.635; -870.030; -809.946
758.701;  -32.583; -308.030; -215.946
758.961;  -28.557; -220.030; -278.947
759.222;  -58.755; -574.029; -502.947
759.482;  -90.878; -683.029; -723.948
759.742;  -91.176; -706.029; -547.948
760.002;    1.676;  -83.029; -143.948
760.262;    9.877;   50.972;  182.051
760.522;  -46.571; -498.028; -574.949
760.782;  -53.944; -738.028; -612.949
761.042;  -38.142; -618.028; -573.950
761.302;   59.860;   55.972;  -18.950
761.562;   51.261; -164.027; -154.951
761.822;   65.938; -710.027; -551.951
762.082;  -49.810;-1104.027;-1093.951
762.342;   52.042; -328.027; -403.952
762.601;   79.869; -567.027; -506.952
762.861;  343.845; -281.026; -207.952
763.121;  393.072; -406.026; -411.953
763.381; 7270.999; -499.026; -485.953
763.640; 8125.576; -139.026; -307.954
763.900;  340.403; -242.026; -203.954
764.160;   74.105; -458.025; -491.954
764.419;   -1.369; -726.025; -782.955
764.679;  -87.892; -795.025; -726.955
764.939;   -5.540; -124.025; -210.955
765.198;  -75.813; -608.025; -563.956
765.458;  -80.586; -710.024; -612.956
765.717;  -92.135; -454.024; -590.957
765.976;  -44.858; -428.024; -411.957
766.236;  -74.756; -475.024; -610.957
766.495;   14.771;  260.977;   73.042
766.755;  -95.027;-1090.023; -987.958
767.014;    4.424; -594.023; -665.958
767.273;  -46.599; -373.023; -397.959
767.533;  -39.422; -228.023; -307.959
767.792;  -25.820; -151.022; -188.960
768.051;  -50.768; -228.022; -276.960
768.310;  -97.667; -546.022; -650.960
768.569;   -7.790; -161.022;    4.039
768.828;  -37.013; -285.022; -363.961
769.088; -127.411;-1050.021; -942.961
769.347;  -91.059; -755.021; -599.962
769.606;  -98.908; -876.021; -857.962
769.865; -120.631;-1016.021;-1033.963
770.124;    0.071; -411.021; -336.963
770.383;  -65.477; -778.020; -910.963
770.641;    0.225; -398.020; -400.964
770.900;  -62.474; -953.020; -846.964
771.159;  -39.722; -851.020; -951.964
771.418;  -12.020; -917.020; -779.965
771.677;  130.482; -224.019; -293.965
771.936;  146.359; -794.019; -865.966
772.194; 2231.236; -465.019; -437.966
772.453;11237.962; -213.019; -391.966
772.712;  779.114;  416.982;  329.033
772.970;  116.666;   32.982;   63.033
773.229;   87.293;  -22.018;  102.033
773.488;  -80.105; -814.018; -770.968
773.746;   58.271;  296.982;  335.032
774.005;   -2.702;  190.983;  -22.969
774.263;    8.475;  243.983;  177.031
774.522;  -45.348; -422.017; -548.969
774.780;  -71.146; -484.017; -417.970
775.039;  -89.620; -551.017; -531.970
775.297;  -24.693; -135.016; -351.970
775.555; -104.016; -489.016; -612.971
775.814; -127.764; -618.016; -570.971
776.072; -134.312; -749.016; -740.971
776.330; -104.586; -630.016; -520.972
776.589; -126.784; -703.015; -721.972
776.847; -127.832; -645.015; -624.973
777.105; -161.780;-1016.015;-1032.973
777.363;  -94.828; -459.015; -454.973
777.621; -154.102; -660.015; -717.974
777.879;  -14.125;  -42.014;   32.026
778.138; -105.948; -554.014; -717.974
778.396; -116.621; -585.014; -526.975
778.654; -168.444;-1015.014; -970.975
778.912;  -70.692; -269.014; -371.976
779.170; -134.591; -880.013; -803.976
779.427; -146.414; -922.013; -897.976
779.685; -138.062; -880.013; -832.977
779.943;  -81.235; -654.013; -593.977
780.201; -159.333; -964.012; -883.978
780.459; -125.857; -651.012; -610.978
780.717;  -82.905; -440.012; -390.978
780.974; -112.303; -449.012; -490.979
781.232;  -88.026; -358.012; -338.979
781.490;  -73.399; -551.011; -472.979
781.747; -100.473; -555.011; -476.980
782.005;   21.079;  462.989;  254.020
782.263; -176.919; -542.011;-1004.981
782.520;  -94.767; -326.011; -501.981
782.778; -165.940;-1013.010;-1051.981
783.035; -167.839; -962.010; -938.982
783.293;  -72.062; -248.010; -206.982
783.550;  -66.635; -134.010; -198.982
783.808; -127.058; -764.010; -776.983
784.065; -160.306; -745.009; -874.983
784.322;  -38.355;   25.991;  -86.984
784.580; -146.278; -915.009; -771.984
784.837; -105.301; -392.009; -466.984
785.094; -130.549; -783.009; -762.985
785.352;  -84.047; -304.008; -404.985
785.609; -103.670; -934.008; -839.985
785.866;  -93.794; -345.008; -401.986
786.123;  -75.917; -639.008; -583.986
786.380;  -99.140; -665.008; -604.987
786.637;  -44.938; -225.007; -380.987
786.895;  -30.086; -456.007; -543.987
787.152;  -48.960; -135.007; -267.988
787.409;  -40.433; -123.007; -225.988
787.666;  -91.706; -299.006; -378.988
787.923; -119.629; -616.006; -695.989
788.179;  -95.552; -551.006; -584.989
788.436; -118.576; -585.006; -585.990
788.693;  -41.474;  -92.006;  -87.990
788.950;  112.103; -125.005; -112.990
789.207;  187.155; -381.005; -372.991
789.464;  -63.468; -161.005; -301.991
789.720;  -14.342;  150.995;  110.009
789.977; -172.365;-1003.005; -671.992
790.234;  -35.013;   44.996;  -66.992
790.490; -146.486; -884.004;-1031.993
790.747;  -28.084;  -85.004;   22.007
791.004;  -39.058; -426.004; -348.993
791.260;  -89.906; -430.004; -560.994
791.517; -108.479; -843.003; -788.994
791.773;  -41.052; -379.003; -342.994
792.030; -114.950; -596.003; -660.995
792.286;  -97.723; -686.003; -636.995
792.543;  -21.347;  -74.002; -159.995
792.799;  -48.245; -584.002; -382.996
793.055; -163.318;-1179.002;-1210.996
793.312;  -91.491; -827.002; -816.997
793.568;  -72.439; -746.002; -599.997
793.824;   21.712; -226.001; -284.997
794.081;   16.414; -447.001; -508.998
794.337;   68.241; -664.001; -561.998
794.593; 1251.443; -319.001; -271.999
794.849; 6435.870; -746.001; -772.999
795.105;  319.446; -270.000; -261.999
795.361;   28.448; -490.000; -457.000
795.617;  -86.375; -875.000; -945.000
795.873;  -49.000; -360.000; -407.000
796.129;  -37.500; -368.000; -306.000
796.385;  -24.325; -124.000; -156.000
796.641;   57.850;  412.000;  550.000
796.897; -102.025; -666.000; -635.000
797.153;   67.800;  453.000;  357.000
797.409; -108.800; -785.000; -868.000
797.665;  -84.350; -625.000; -732.000
797.921;  -61.450; -775.000; -762.000
798.176;  -65.300; -744.000; -747.000
798.432;  -44.450; -824.000; -596.000
798.688;  -71.600;-1174.000;-1078.000
798.943;   87.100; -165.000; -147.000
799.199;   -6.400;-1005.000; -959.000
799.455;  232.875;  369.000;  316.000
799.710;  109.350; -813.000; -380.000
799.966;  283.275; -162.000; -160.000
800.221;  462.975; -638.000; -721.000
800.477;10374.750; -743.000; -710.000
800.732; 9403.700; -773.000; -800.000
800.988;  642.150;  205.000;  -19.000
801.243; 1850.150; -454.000; -344.000
801.498; 8278.700; -814.000; -739.000
801.754;  475.800; -289.000; -163.000
802.009;  110.600; -257.000; -335.000
802.264;  -53.300; -967.000;-1033.000
802.520;   15.875;  222.000;   -3.000
802.775;  -48.825; -524.000; -359.000
803.030;   45.850;  395.000;  356.000
803.285; -118.575; -840.000; -903.000
803.540;  -53.850; -686.000; -699.000
803.795;  -41.400; -648.000; -583.000
804.051;  -22.400; -279.000; -346.000
804.306;   14.500;  168.000;  128.000
804.561;  146.800;  451.000;  362.000
804.816;  119.750;  714.000;  861.000
805.071;   10.175; -185.000; -280.000
805.325;  180.900; -257.000; -427.000
805.580; -107.975; -841.000; -877.000
805.835;  -17.250; -204.000; -297.000
806.090;  -68.250; -760.000; -676.000
806.345;  -39.375; -344.000; -264.000
806.600;  -33.725; -549.000; -632.000
806.854;  -48.000; -408.000; -538.000
807.109;  -26.200; -493.000; -577.000
807.364;   -1.950; -407.000; -328.000
807.618;   -9.750; -415.000; -381.000
807.873;   33.000; -470.000; -494.000
808.128;   86.825; -257.000; -518.000
808.382;  109.575; -224.000; -332.000
808.637;   78.600; -440.000; -511.000
808.891;  174.400; -257.000; -180.000
809.146;   85.575; -902.000; -794.000
809.400;  249.150; -848.000; -923.000
809.654;  313.875; -779.000; -551.000
809.909;  479.700; -841.000; -927.000
810.163; 6197.550; -813.000; -651.000
810.418;16456.350; -940.000; -861.000
810.672; 1001.625; -685.000; -690.000
810.926;  725.050; -993.000; -973.000
811.180; 1368.725; -439.000; -372.000
811.434;31577.125;  240.000;  135.000
811.689;13147.250; -231.000; -365.000
811.943;  650.200; -936.000; -953.000
812.197;  340.675; -893.000; -671.000
812.451;  124.650; -379.000; -514.000
812.705;  -24.075; -809.000; -619.000
812.959;   -9.125; -263.000; -388.000
813.213;   -7.750; -283.000; -209.000
813.467;   57.600;  470.000;  253.000
813.721;  -91.525; -764.000; -792.000
813.975; -117.575; -826.000; -877.000
814.229;   53.350;  430.000;  353.000
814.482;  -72.425; -517.000; -566.000
814.736; -117.600; -766.000; -744.000
814.990; -132.600; -779.000; -872.000
815.244;  -40.325; -228.000; -285.000
815.497; -114.475; -636.000; -601.000
815.751;  -31.950; -141.000;   82.000
816.005;  -91.775; -470.000; -586.000
816.258;  -81.975; -510.000; -363.000
816.512; -117.500; -693.000; -610.000
816.766;   16.825;  121.000;  157.000
817.019;   27.550;  148.000;  149.000
817.273; -106.050;-1000.000; -802.000
817.526;  -35.625; -206.000; -173.000
817.779;  -52.500;-1049.000; -960.000
818.033;  -69.200; -693.000; -807.000
818.286; -123.875; -725.000; -792.000
818.540; -100.450; -403.000; -403.000
818.793;  -85.400; -402.000; -489.000
819.046;  -99.575; -582.000; -520.000
819.299;  -45.600; -157.000; -166.000
819.553; -119.675; -552.000; -592.000
819.806; -163.500;-1016.000; -838.000
820.059;  -62.800; -334.000; -354.000
820.312;    0.725;  152.000;  185.000
820.565;  -15.050;  110.000;  -27.000
820.818;  -38.100;  -59.000; -173.000
821.071; -175.625;-1041.000; -957.000
821.324; -103.950; -536.000; -540.000
821.577;  -92.300; -457.000; -483.000
821.830;  -74.550; -270.000; -172.000
822.083; -128.550; -733.000; -288.000
822.336;  -46.500; -261.000; -167.000
822.589; -133.875; -805.000; -688.000
822.842; -152.300; -875.000; -770.000
823.094; -177.950;-1076.000;-1114.000
823.347; -131.250; -925.000; -729.000
823.600;    0.900;  402.000;  187.000
823.853;  -66.850; -311.000; -267.000
824.105;  -80.200; -331.000; -575.000
824.358; -107.100; -617.000; -716.000
824.611;   28.750;  234.000;   40.000
824.863;  -45.150; -612.000; -591.000
825.116;   49.425;  -33.000;   27.000
825.368;   43.875; -366.000; -372.000
825.621;  155.450; -186.000; -240.000
825.873;   86.900; -704.000; -737.000
826.126;  554.150; -669.000; -641.000
826.378;11387.950; -389.000; -505.000
826.630; 2898.150; -890.000; -898.000
826.883;   35.600; -754.000; -693.000
827.135;   40.600; -279.000; -270.000
827.387; -127.675; -893.000; -839.000
827.639;  -36.750;  -86.000;   32.000
827.892; -126.700; -742.000; -582.000
828.144; -146.975; -848.000; -804.000
828.396;  -32.800;  104.000;  -80.000
828.648; -110.600; -440.000; -333.000
828.900; -150.525; -702.000; -795.000
829.152; -130.500; -684.000; -683.000
829.404;  -68.800; -215.000; -267.000
829.656;  -51.400;  321.000;  214.000
829.908;  -26.150;  393.000;  229.000
830.160; -175.400;-1064.000;-1047.000
830.412;  -98.950; -481.000; -430.000
830.664; -125.075; -557.000; -665.000
830.916;  -76.175; -268.000; -206.000
831.167; -180.750;-1073.000; -951.000
831.419; -119.025; -623.000; -566.000
831.671; -155.225; -764.000; -809.000
831.923;  -88.000; -311.000; -447.000
832.174;  -78.150; -273.000; -331.000
832.426; -118.150; -493.000; -582.000
832.678; -191.650;-1043.000;-1091.000
832.929; -156.875; -947.000; -935.000
833.181;  -82.550; -575.000; -677.000
833.432;  -47.700;  -59.000; -186.000
833.684;  -27.450;  112.000;  -27.000
833.935; -113.650; -610.000; -566.000
834.187; -133.400; -829.000; -823.000
834.438;  -48.650;  -58.000;  -25.000
834.689;  -56.600; -255.000; -123.000
834.941;  -59.400; -343.000; -244.000
835.192; -106.725; -590.000; -533.000
835.443; -110.050; -419.000; -506.000
835.695;  -32.200;  138.000;  -16.000
835.946;  -86.100; -608.000; -378.000
836.197; -110.175; -599.000; -622.000
836.448;  -89.075; -528.000; -395.000
836.699;  -59.950; -253.000; -341.000
836.950;    1.250;   72.000;    7.000
837.201; -152.200;-1003.000; -987.000
837.452;  -41.450; -356.000; -170.000
837.703; -111.775; -791.000; -737.000
837.954;  -51.525; -205.000; -365.000
838.205; -108.400;-1029.000;-1008.000
838.456;  153.275; -196.000; -282.000
838.707;  -16.150; -423.000; -519.000
838.958;    3.300; -634.000; -647.000
839.209;  246.975;   18.000;   40.000
839.460;  120.700; -439.000; -201.000
839.710;  159.000; -135.000; -297.000
839.961;  400.900;  730.000;  612.000
840.212;  316.550; -382.000; -497.000
840.462; 1107.200; -328.000; -277.000
840.713;17542.925; -571.000; -536.000
840.964; 7336.750;  -62.000; -143.000
841.214;  490.500; -384.000; -624.000
841.465;  527.925; -214.000; -141.000
841.715;  480.375; -417.000; -380.000
841.966;  633.275; -746.000; -685.000
842.216; 8340.100; -330.000; -431.000
842.466;32900.525; -169.000; -313.000
842.717; 1887.875; -964.000; -952.000
842.967;  287.800; -635.000; -641.000
843.217;  254.325;   20.000;   28.000
843.468;   64.475; -104.000; -132.000
843.718;  -57.550; -718.000; -726.000
843.968;  -92.800; -837.000; -765.000
844.218;    5.725; -315.000; -262.000
844.469;  -59.800; -577.000; -561.000
844.719; -114.450; -537.000; -682.000
844.969; -108.900; -550.000; -580.000
845.219; -149.600; -814.000; -862.000
845.469;  -80.525; -392.000; -342.000
845.719; -138.650; -792.000; -884.000
845.969;  -16.600;  119.000;  174.000
846.219; -123.775; -738.000; -720.000
846.469;   14.550;  464.000;  432.000
846.718;  -65.100; -115.000;   31.000
846.968; -143.550; -827.000; -827.000
847.218;  -56.625; -224.000; -371.000
847.468;   -7.825; -586.000; -555.000
847.718; -157.675; -827.000; -798.000
847.967; -141.700; -826.000; -915.000
848.217;  -92.050; -449.000; -569.000
848.467;  -59.400; -405.000; -376.000
848.716; -112.150; -708.000; -725.000
848.966;  -10.850; -372.000; -358.000
849.215;  -65.000; -428.000; -419.000
849.465; -109.075; -785.000; -615.000
849.714; -150.550;-1132.000;-1150.000
849.964;  -66.750; -551.000; -613.000
850.213;  -21.750; -393.000; -355.000
850.463;   61.375;  137.000;  340.000
850.712;    3.800; -542.000; -567.000
850.961;   15.275; -739.000; -678.000
851.211;  102.250; -513.000; -504.000
851.460;  170.450; -635.000; -650.000
851.709;  560.150;  -25.000;   18.000
851.958;10110.350; -912.000; -750.000
852.208;12847.800; -859.000; -879.000
852.457;  481.425; -181.000;  -13.000
852.706;   71.375; -791.000; -823.000
852.955;   15.075; -507.000; -528.000
853.204;  -76.925; -521.000; -461.000
853.453;  -84.675; -418.000; -458.000
853.702; -133.125; -660.000; -750.000
853.951; -111.125; -532.000; -520.000
854.200; -126.350; -613.000; -562.000
854.449; -138.600; -695.000; -661.000
854.698;  -99.150; -340.000; -279.000
854.946;  -73.375; -181.000; -284.000
855.195; -145.700; -843.000; -868.000
855.444; -112.050; -395.000; -420.000
855.693; -122.125; -345.000; -432.000
855.941; -112.425; -387.000; -516.000
856.190;  -51.400; -256.000; -382.000
856.439; -140.675; -652.000; -703.000
856.687;  -67.475;  -99.000;  -72.000
856.936; -120.250; -621.000; -323.000
857.184; -188.375;-1067.000;-1020.000
857.433; -102.950; -423.000; -512.000
857.681; -172.400; -989.000; -953.000
857.930;  -75.275; -282.000; -433.000
858.178; -175.725; -856.000; -929.000
858.427; -158.775; -802.000; -781.000
858.675; -120.350; -377.000; -544.000
858.923; -128.950; -527.000; -819.000
859.172; -196.050;-1094.000;-1070.000
859.420;  -93.750; -339.000; -239.000
859.668; -134.325; -624.000; -628.000
859.916;  -22.625;  109.000;  115.000
860.164; -124.825; -699.000; -603.000
860.413;  234.925; -878.000; -696.000
860.661;  175.900; -709.000; -577.000
860.909;  -70.650; -339.000; -325.000
861.157;  -87.850; -277.000; -444.000
861.405; -128.325; -534.000; -670.000
861.653;    0.950;  310.000;  310.000
861.901;  133.900; -543.000; -613.000
862.149;  -17.250; -801.000; -824.000
862.396;  -75.050; -297.000; -187.000
862.644;  -87.600; -368.000; -347.000
862.892;  -35.175;   98.000;  138.000
863.140; -121.050; -549.000; -530.000
863.388; -157.200; -815.000; -759.000
863.635; -129.475; -642.000; -601.000
863.883;  -22.875;  231.000;  190.000
864.131; -105.425; -288.000; -357.000
864.378; -149.375; -675.000; -540.000
864.626; -108.725; -347.000; -415.000
864.873; -123.850; -556.000; -505.000
865.121; -152.175; -714.000; -799.000
865.368;  -46.725; -173.000;   75.000
865.616;  -38.825;  -33.000;  -40.000
865.863;  -80.950; -462.000; -506.000
866.111; -103.125; -795.000; -824.000
866.358;   50.475; -426.000; -420.000
866.605; 2348.275;  -64.000; -804.000
866.853; 2524.275; -621.000; -537.000
867.100;  -40.500; -728.000; -775.000
867.347;  -94.050; -672.000; -611.000
867.594;  -97.825; -740.000; -714.000
867.841;   74.250;   97.000;   17.000
868.089; -151.700; -746.000; -698.000
868.336; -100.725; -477.000; -420.000
868.583; -149.950; -637.000; -741.000
868.830;  -50.050; -131.000; -170.000
869.077; -163.900; -859.000; -787.000
869.324; -137.075; -502.000; -458.000
869.571; -137.475; -398.000; -430.000
869.818; -136.450; -485.000; -439.000
870.065; -103.600; -439.000; -513.000
870.311; -129.425; -456.000; -542.000
870.558; -103.450; -332.000; -311.000
870.805;  -86.750; -320.000; -384.000
871.052; -116.875; -494.000; -369.000
871.298;  -63.425; -204.000; -131.000
871.545;  -63.700; -151.000; -185.000
871.792; -100.900; -173.000; -222.000
872.038;  -80.575;   43.000; -126.000
872.285; -128.650; -496.000; -387.000
872.532; -117.925; -357.000; -387.000
872.778;   -5.075;  556.000;  403.000
873.025; -100.650; -384.000; -359.000
873.271;   16.450;  501.000;  578.000
873.517;  -28.500; -133.000; -209.000
873.764;  -40.150; -193.000;  -80.000
874.010;  -69.250; -143.000; -230.000
874.257;  -44.450;  123.000;   90.000
874.503; -135.425; -579.000; -479.000
874.749;  -72.675;   31.000;  275.000
874.995;  -63.875;  -80.000;  -20.000
875.242; -134.000; -540.000; -478.000
875.488; -116.975; -414.000; -439.000
875.734;  -66.850; -106.000; -234.000
875.980;  139.100; -872.000;-1032.000
876.226;  347.300; -157.000; -255.000
876.472;    0.100;  343.000;  237.000
876.718;  -61.375;  184.000;  158.000
876.964;  -45.900;   56.000;   55.000
877.210; -155.175; -547.000; -677.000
877.456; -140.400; -630.000; -557.000
877.702; -180.650; -821.000; -832.000
877.948; -125.625; -377.000; -497.000
878.193;   10.100;  361.000;  255.000
878.439; -111.050; -487.000; -472.000
878.685; -112.425; -272.000; -343.000
878.931; -137.825; -618.000; -676.000
879.176;  -91.300; -201.000; -201.000
879.422; -177.300; -933.000; -820.000
879.668;   24.700;   10.000;   79.000
879.913;  121.825;   53.000;  137.000
880.159;  -62.425; -112.000;  -17.000
880.404;  -79.925; -152.000; -162.000
880.650;  -26.325;   91.000;  141.000
880.895; -167.150; -670.000; -710.000
881.141; -124.975; -454.000; -428.000
881.386; -153.250; -503.000; -658.000
881.631; -100.325; -311.000; -166.000
881.877;  -44.600;  112.000;  -13.000
882.122; -132.725; -684.000; -600.000
882.367;  -85.300; -136.000; -186.000
882.612;  -83.375;  -80.000; -176.000
882.858; -198.675; -877.000; -823.000
883.103;  -99.650; -297.000; -267.000
883.348; -151.000; -759.000; -852.000
883.593; -148.150; -677.000; -602.000
883.838;  -74.600; -311.000;  -24.000
884.083;   25.700;  353.000;  288.000
884.328;  -95.125; -564.000; -545.000
884.573;  -43.850; -196.000; -143.000
884.818;  145.025; -694.000; -531.000
885.063;  169.325; -348.000; -315.000
885.308; -104.225; -475.000; -398.000
885.553;  -15.475;  245.000;  325.000
885.797; -132.575; -545.000; -615.000
886.042;  -61.300;    8.000;   58.000
886.287;  -79.325; -253.000; -211.000
886.532;  -65.850;   26.000;  204.000
886.776; -109.775; -407.000; -525.000
887.021; -148.125; -621.000; -574.000
887.265; -154.225; -685.000; -689.000
887.510; -133.475; -557.000; -496.000
887.755;  -99.025; -194.000; -164.000
887.999; -132.475; -552.000; -575.000
888.244;  -51.050;  -58.000;  161.000
888.488;   -5.000;  371.000;  393.000
888.732; -127.325; -368.000; -520.000
888.977; -136.125; -622.000; -567.000
889.221; -176.450; -683.000; -659.000
889.465; -121.950; -422.000; -566.000
889.710;  -85.075;  -56.000; -299.000
889.954;   -3.200;  579.000;  467.000
890.198; -157.225; -584.000; -707.000
890.442; -149.450; -716.000; -712.000
890.687; -169.475; -800.000; -753.000
890.931;  -92.250; -273.000; -210.000
891.175; -142.150; -502.000; -500.000
891.419;  -93.425; -105.000; -110.000
891.663;  -96.200; -239.000; -112.000
891.907; -172.375; -801.000; -545.000
892.151; -192.025; -920.000; -815.000
892.395; -108.700; -274.000; -387.000
892.638;  -31.425;  408.000;  291.000
892.882; -184.950; -780.000; -867.000
893.126;   -3.150;  758.000;  558.000
893.370;  -84.400; -167.000; -168.000
893.614; -145.925; -714.000; -715.000
893.857; -105.425; -183.000; -197.000
894.101; -150.700; -527.000; -631.000
894.345;  -59.375;  300.000;  150.000
894.588;   14.050;  569.000;  380.000
894.832;  -85.625; -178.000;  -84.000
895.075;  -85.100;   15.000;  -92.000
895.319; -133.500; -552.000; -420.000
895.563; -124.175; -413.000; -353.000
895.806; -149.375; -628.000; -741.000
896.049;  -86.375; -576.000; -368.000
896.293;   76.725;  527.000;  405.000
896.536;  -98.850; -465.000; -468.000
896.779;  -61.750; -149.000;   -1.000
897.023; -149.450; -751.000; -714.000
897.266;  -31.775;  325.000;  269.000
897.509; -176.500; -900.000; -901.000
897.752;  -44.250;  149.000;  171.000
897.996; -203.300; -972.000; -864.000
898.239;  -46.475;  168.000;  102.000
898.482; -131.550; -431.000; -453.000
898.725;  -46.325;  101.000;   53.000
898.968; -163.025; -609.000; -744.000
899.211; -109.125; -513.000; -361.000
899.454; -132.850; -633.000; -539.000
899.697;  -75.700;   90.000;  -43.000
899.940; -170.975; -761.000; -757.000
900.182; -100.875; -335.000; -405.000
900.425; -104.875; -150.000; -298.000
900.668;  -17.550;  491.000;  350.000
900.911; -103.150; -292.000; -345.000
901.154;  -46.675;  141.000;   -3.000
901.396; -137.575; -407.000; -412.000
901.639; -141.750; -430.000; -496.000
901.882; -172.525; -790.000; -809.000
902.124;  -89.775;  -29.000; -143.000
902.367; -132.525; -315.000; -361.000
902.609; -137.075; -476.000; -453.000
902.852; -105.250; -108.000; -260.000
903.094; -123.200; -458.000; -337.000
903.337;  -66.475;  -26.000;   53.000
903.579; -116.975; -228.000; -441.000
903.821; -156.400; -597.000; -744.000
904.064;  -55.725;   85.000;  127.000
904.306; -104.000; -126.000; -166.000
904.548; -100.775; -152.000; -366.000
904.790; -114.225; -195.000; -340.000
905.033; -136.175; -625.000; -577.000
905.275; -135.350; -513.000; -524.000
905.517;   21.575;  468.000;  256.000
905.759;  -78.275; -667.000; -761.000
906.001; -119.275; -322.000; -369.000
906.243;  -74.525; -162.000; -224.000
906.485;   86.150; -265.000; -207.000
906.727;   78.825; -499.000; -542.000
906.969;  -40.700;  -30.000; -135.000
907.211;   79.600; -316.000; -382.000
907.453;  244.000; -188.000; -237.000
907.695;  -11.675; -158.000; -385.000
907.936;   41.750;  818.000;  706.000
908.178;  -61.925;   92.000; -135.000
908.420;  -75.175; -111.000; -162.000
908.662; -131.900; -633.000; -682.000
908.903;  -89.275; -208.000; -123.000
909.145;  -69.100; -240.000; -305.000
909.386;    9.100;  315.000;  280.000
909.628;   14.925;  363.000;  397.000
909.870;    2.275;   29.000;  264.000
910.111;  -95.750; -809.000; -949.000
910.353;    0.025; -123.000; -161.000
910.594;   -0.275; -574.000; -606.000
910.835;   65.350; -265.000; -326.000
911.077;  134.300; -503.000; -604.000
911.318;  282.625; -505.000; -471.000
911.559;  453.650; -577.000; -880.000
911.801; 1312.575; -284.000; -280.000
912.042;10111.900;  -50.000; -159.000
912.283;26785.975;  404.000;  371.000
912.524; 4240.550; -396.000; -457.000
912.765;  473.775; -193.000;   79.000
913.006;  227.775; -307.000; -338.000
913.247;   36.800; -270.000; -290.000
913.488;  -22.375;  -43.000;   30.000
913.729;  -98.300; -373.000; -373.000
913.970;  -76.900;  -96.000; -292.000
914.211;  -75.200; -160.000; -198.000
914.452;  -60.125; -118.000;  -11.000
914.693;   17.650;  510.000;  592.000
914.934;   -9.200;  510.000;  440.000
915.175;  -65.525;   53.000;  -95.000
915.415;  -83.650; -137.000;   27.000
915.656;  -73.300;  -28.000;  192.000
915.897; -101.150; -252.000;  -82.000
916.137;  -75.500;   74.000;   -9.000
916.378; -127.425; -573.000; -517.000
916.619;  -92.400; -159.000;  -63.000
916.859;  -27.950;  303.000;  330.000
917.100;  134.375; 1655.000; 1070.000
917.340;   43.725;  930.000;  728.000
917.581;   46.375;  965.000;  789.000
917.821;  -37.875; -171.000;  143.000
918.061;   -4.925; -199.000;  -72.000
918.302;  -61.500; -152.000; -211.000
918.542;  -38.350;  -22.000;    3.000
918.782;   31.000;  369.000;  377.000
919.023;  122.275;  360.000;  427.000
919.263; 1677.250; 8131.000;  202.000
919.503; 1097.075; -137.000;  -54.000
919.743;  579.375;  390.000;  266.000
919.983;  240.400; -134.000;  -26.000
920.223;   73.150;  135.000;   14.000
920.463;  145.550;  631.000;  554.000
920.703;  137.600;   84.000;   39.000
920.943;  160.950; -110.000;   90.000
921.183;  226.725; -414.000; -405.000
921.423;  512.150;  307.000;  546.000
921.663;  731.375; -174.000; -257.000
921.903; 1585.850;  237.000;  173.000
922.143; 8707.750;  372.000;  389.000
922.383;34027.250;  158.000;  115.000
922.622;11853.925; -120.000;  -15.000
922.862; 1233.525;  796.000;  785.000
923.102;  479.550;  -51.000;   33.000
923.341;  188.900;   59.000;   74.000
923.581;   90.475;  450.000;  360.000
923.821;    8.625;  301.000;  398.000
924.060;   -2.825;  351.000;  193.000
924.300;  -58.425;  -16.000; -128.000
924.539;  -19.550;  584.000;  473.000
924.779;   17.275;  812.000;  597.000
925.018;  -54.500;  247.000;  353.000
925.257;   -3.550;  595.000;  666.000
925.497;  -36.925;  447.000;  412.000
925.736;  -78.675;  -35.000;  102.000
925.975;    3.400;  687.000;  669.000
926.214;   37.550;  907.000;  850.000
926.454;   10.575;  706.000;  757.000
926.693;  -35.650;  419.000;  543.000
926.932;   42.625; 1021.000;  825.000
927.171;   79.525; 1107.000; 1044.000
927.410;   46.850; 1144.000;  967.000
927.649;   24.925;  924.000;  742.000
927.888;  -17.375;  590.000;  564.000
928.127;  -17.525;  680.000;  678.000
928.366;   19.200;  842.000;  826.000
928.605;   39.475;  831.000;  737.000
928.844;  229.300; 1451.000; 1393.000
929.083;  579.625;  770.000;  613.000
929.321;  315.275; 1335.000; 1359.000
929.560;   78.900; 1158.000; 1122.000
929.799;  -36.325;  574.000;  475.000
930.038;   75.950; 1025.000; 1394.000
930.276;  -51.075;  334.000;  397.000
930.515;    2.800;  827.000;  681.000
930.753;  -31.400;  614.000;  589.000
930.992;  -10.375;  664.000;  717.000
931.230;   -5.000;  847.000;  847.000
931.469;  166.525; 2162.000;  892.000
931.707;   70.150;  840.000;  751.000
931.946;   72.950; 1278.000; 1344.000
932.184;   66.625; 1437.000; 1175.000
932.423;   54.000; 1265.000;  963.000
932.661;   74.950; 1296.000; 1428.000
932.899;   27.650;  987.000;  821.000
933.137;    6.750;  754.000;  564.000
933.376;  138.175; 1664.000; 1335.000
933.614;  156.225; 1759.000; 1196.000
933.852;   49.400; 1357.000; 1171.000
934.090;  145.775; 1722.000; 1747.000
934.328;  106.425; 1252.000; 1457.000
934.566;   85.300; 1431.000; 1110.000
934.804;  143.100; 1263.000; 1309.000
935.042;  471.100; 1861.000; 1850.000
935.280; 1924.825; 2088.000; 2063.000
935.518; 1823.175; 2113.000; 2007.000
935.756;  389.975; 2481.000; 2316.000
935.994;  157.100; 1808.000; 1751.000
936.231;  340.300; 2890.000; 2950.000
936.469;  195.850; 2367.000; 2378.000
936.707;  177.925; 2220.000; 2167.000
936.945;  233.425; 2825.000; 2882.000
937.182;  204.500; 2679.000; 2741.000
937.420;  294.750; 3602.000; 3031.000
937.657;  393.200; 3365.000; 3478.000
937.895;  357.200; 3331.000; 3488.000
938.133;  310.725; 3540.000; 3528.000
938.370;  342.350; 3896.000; 4191.000
938.607;  405.425; 4488.000; 4205.000
938.845;  551.675; 5587.000; 5549.000
939.082;  480.750; 5387.000; 5177.000
939.320;  523.800; 5799.000; 5728.000
939.557;  633.900; 6549.000; 6491.000
939.794;  727.400; 7285.000; 7097.000
940.031;  904.375; 8421.000; 8368.000
940.269; 1073.725; 9552.000; 9107.000
940.506; 1124.475;10901.000;10507.000

