
Integration time [ms]: 200.000
Averaging Nr. [scans]: 10
Smoothing Nr. [pixels]: 0
Data measured with spectrometer [name]: 2101013U2
Wave   ;Sample   ;Dark     ;Reference
[nm]   ;[counts] ;[counts] ;[counts] 

394.013;   97.520; -450.257; -315.536
394.305;  402.417; -461.258; -419.536
394.596; 1970.167; -676.269; -527.514
394.887; 4496.291; -796.268; -654.518
395.178; 1751.436;  145.736;   11.476
395.470;  162.552; -210.263; -356.526
395.761;  415.713;  305.734;  394.479
396.052;  717.285; -545.284; -306.489
396.343;  676.787; -557.276; -454.503
396.634;  194.041; -200.279; -290.497
396.926;  183.387; -618.268; -565.517
397.217;  174.593;   11.725;  -17.504
397.508;   73.216; -366.273; -154.507
397.799;   57.941; -555.279; -571.497
398.090;  -21.567; -973.280; -902.495
398.381;  221.876;   11.708;  -11.473
398.672;  -28.422; -585.292; -742.473
398.963;   56.450; -348.279; -373.498
399.254;  163.391;   54.709; -209.475
399.545;  -79.992;-1017.266; -883.520
399.836;  117.171; -407.277; -343.501
400.127;   61.541; -205.295; -209.468
400.418;  113.108; -423.274; -392.506
400.709;  101.814; -359.281; -333.493
401.000;   87.196; -268.291; -309.476
401.290;  228.049;  225.698;  115.545
401.581;  126.860; -166.286; -228.485
401.872;   26.701; -542.298; -486.462
402.163;   86.030; -313.296; -252.467
402.454;  143.392; -123.291; -163.475
402.744;  120.618; -844.297; -813.465
403.035;  709.363; -226.293;  -86.471
403.326;  979.582; -366.292; -384.474
403.617;  645.992;  204.701;  165.539
403.907;  369.293; -593.283; -679.490
404.198; 4069.782; -545.307; -599.446
404.489;10206.500; -618.283; -588.491
404.779; 3568.054; -618.302; -660.456
405.070;  402.123;  -67.304; -174.451
405.360;  546.466; -259.293; -238.472
405.651;  584.670;  125.699;   98.542
405.942;  329.853;  209.714;  127.516
406.232;  482.674; -432.285; -413.487
406.523;  951.656;  641.706;  758.530
406.813;  175.956; -579.286; -644.484
407.104;  662.574;  261.708;  144.527
407.394;  285.194; -604.299; -591.462
407.685;  283.873;  336.715;  222.513
407.975;   98.498; -400.283; -382.490
408.265;  227.113; -134.289; -190.478
408.556;  108.587; -472.291; -459.475
408.846;  328.057;  474.706;  429.530
409.137;  171.025;   -1.288; -216.480
409.427;   84.674; -193.285; -271.487
409.717;   12.921; -776.273; -692.508
410.007;  224.764;    4.715; -170.486
410.298;  171.845; -360.295; -342.469
410.588;  146.570; -495.285; -510.486
410.878;   62.841; -792.287; -873.482
411.168;  203.004; -481.298; -478.463
411.459;  210.091; -295.283; -242.489
411.749;   92.185; -609.292; -507.474
412.039;   88.522; -755.289; -386.480
412.329;  350.560;   40.722;  132.501
412.619;  338.657;  -62.286; -148.485
412.909;  657.417;  639.711;  594.521
413.199;  561.133; -130.280; -251.495
413.490;  756.503;  521.710;  352.523
413.780;  214.639;-1013.279; -913.496
414.070;  547.388;  -46.276;  235.497
414.360;  626.855; -729.278; -666.498
414.650;  658.135; -726.288; -688.482
414.940;  883.638; -538.280; -441.496
415.230; 1482.831;   50.712;   74.519
415.520;10361.066;  155.730;   66.486
415.809;39477.813; -305.281; -125.493
416.099;31403.874; -388.277; -229.501
416.389; 8420.805;  435.726;  236.494
416.679; 5198.357;   91.738;   85.473
416.969;  901.348; -527.287; -503.483
417.259; 1072.542;  341.721;  171.503
417.549; 1211.812;  522.718;  318.508
417.838; 2772.491; -205.268; -147.518
418.128; 8892.911;  650.710;  492.522
418.418; 7530.130; -491.272; -579.509
418.708; 5148.105;    9.726;  -48.506
418.997;18781.499; -474.275; -480.505
419.287;19849.415; -733.273; -790.507
419.577;18742.389; -160.283; -123.489
419.866;59040.971; -588.277; -498.501
420.156;61049.260; -242.270;  -55.513
420.446;11981.646; -112.263;  -26.526
420.735; 1412.351; -376.271; -446.512
421.025; 1525.854; 1830.722;  315.502
421.314; 1167.649; -203.271; -226.512
421.604; 2406.080;   89.732;  233.484
421.893; 1432.243; -705.271; -602.511
422.183;  356.047; -487.263; -461.526
422.472;  660.245;  -36.271; -107.511
422.762;  736.617; -416.266; -379.521
423.051;  381.189; -916.276; -916.503
423.341;  478.518; -491.273; -439.507
423.630;  693.825; -121.265;   15.477
423.919;  632.798;   58.725;   49.495
424.209;  638.355;  -31.263;   56.473
424.498;  798.487;   68.732;  161.483
424.787; 1777.196; -535.267; -601.518
425.077; 5349.923;   34.735;   29.478
425.366; 7565.863; -734.262; -744.528
425.655;15917.219;  639.727;  259.493
425.945;33477.450; -313.247; -268.554
426.234;19451.996;  117.741;  300.467
426.523; 8243.903;  -86.259; -350.534
426.812;11449.211;  107.734;  159.480
427.101;16660.475; -127.269; -323.515
427.390;20905.866;  -55.270;  -86.514
427.680; 4862.432; -624.257; -411.538
427.969;  799.648; -330.255; -301.540
428.258;  544.820; -385.257; -477.536
428.547;  930.436;  449.728;  397.490
428.836; 2008.971; -421.253; -398.543
429.125; 2829.806; -199.259;  -72.534
429.414; 1356.704; -330.251; -294.548
429.703; 5202.504; -231.251; -213.548
429.992;15048.609; -938.250; -828.549
430.281;10093.636; -397.264; -331.524
430.570; 1057.690;  -21.252;   32.454
430.859; 1004.403;  279.741;  352.466
431.148;  869.144;  636.752;  631.446
431.437;  561.190;  391.748;  367.454
431.725;  239.222; -544.257; -481.536
432.014;  130.282; -845.253; -756.545
432.303;  612.454; -149.239; -105.569
432.592; 1035.146; -460.263; -178.525
432.881; 1703.346; -601.248; -437.554
433.169; 9829.949; -343.255;  -61.540
433.458;19955.003;  445.765;  540.424
433.747; 8615.371; -397.261; -289.529
434.036; 1564.419; -275.242; -280.564
434.324; 3376.227; -395.249; -379.551
434.613; 5815.510;   40.757;  159.437
434.902; 2109.140;  333.760;  439.433
435.190;  997.053;   75.761;  295.431
435.479;  575.483;  -52.245;   83.441
435.767;  182.095; -411.244; -427.561
436.056;  371.413; -340.242; -294.563
436.345;  619.043; -372.240; -223.568
436.633;  677.320;   60.750;  383.450
436.922;  520.747;  208.760;  414.432
437.210;  981.489; -194.236;    1.426
437.499; 3128.301; -583.235; -432.576
437.787; 3530.888; -339.236;  -10.574
438.075;  920.761;   56.761;  162.430
438.364; 1246.164;  -44.238;  250.429
438.652;  750.017; -286.226; -138.592
438.941;  244.264;    3.770;  269.415
439.229;  -14.614; -665.252; -466.545
439.517;   43.313; -160.234;  -85.577
439.806;  -11.361; -501.225; -290.595
440.094;  380.224;  377.766;  650.421
440.382;  298.330; -653.233; -302.580
440.670;  351.000; -361.235; -285.576
440.959;   30.265; -347.223; -170.599
441.247;  133.181; -151.229; -109.587
441.535;  158.910; -266.235;   31.423
441.823;   45.220; -497.234; -305.578
442.111;  337.287;  173.771;  327.412
442.400;  826.682; -628.245; -335.559
442.688; 2253.123; -111.234; -620.579
442.976; 1675.392; -786.213; -450.617
443.264;  152.049; -324.224; -364.597
443.552;  189.518; -258.226;   51.408
443.840;  374.008;  602.765;  876.423
444.128;  244.928;  265.767;  269.420
444.416;   -9.609; -694.228; -312.588
444.704;   39.908; -465.219;  -92.605
444.992;  148.922;   -0.226;  240.407
445.280;   95.865; -517.230;  -94.585
445.568;   42.697; -694.212; -396.618
445.856;  580.185; -174.221;  357.398
446.143; 1228.502;  -54.220;   -7.604
446.431; 1105.096;  -25.228;  625.411
446.719;  498.036;  489.783;  675.391
447.007;  379.157;  481.769;  705.416
447.295;  341.460;  597.777;  871.402
447.583;  143.677; -464.229;  -34.587
447.870;  264.280; -434.221; -202.601
448.158;  657.163; -104.230;  129.415
448.446;  501.904; -800.219; -338.604
448.733;  305.851;   13.776;  269.403
449.021;  429.197;   60.788;  341.382
449.309;  259.219; -296.210;  208.379
449.596;  398.730;  128.783;   59.392
449.884;  206.071; -571.222; -325.600
450.172;  207.604; -756.227; -406.590
450.459;  702.068;  645.786;  780.387
450.747; 3641.128; -411.218; -147.608
451.034;11732.398;  493.772;  889.411
451.322; 9826.572; -413.214; -170.614
451.609;  887.653;  292.777;  508.403
451.897;  924.110; -550.203; -183.634
452.184; 2776.161; -622.223; -400.598
452.472; 2726.050;   97.792;  269.375
452.759;  616.005;  512.781;  864.395
453.047;  191.293; -407.212; -125.617
453.334;  108.616; -732.219; -216.606
453.621;  183.376; -438.214; -161.615
453.909;  278.998;   13.796;  384.368
454.196;  158.664; -299.199; -123.641
454.483;  377.429;  317.798;  540.364
454.771;  241.854; -215.208;  196.374
455.058;   87.759; -316.207;  102.374
455.345;  213.544;   71.807;  344.347
455.632;  142.164; -128.207;  235.373
455.919;  107.297;  -82.196;  182.354
456.207; -136.929; -774.198; -450.642
456.494;  -23.354; -475.200;  -66.639
456.781;   14.723; -399.202; -198.635
457.068;  107.973; -253.206;  -29.628
457.355;  -29.025; -698.206; -401.629
457.642;   13.283; -552.205; -290.630
457.929;   -6.069; -778.194; -417.651
458.216;   64.294; -575.212; -354.617
458.503;  368.438; -173.193;  -19.652
458.790;  320.751; -864.208; -630.625
459.077;  428.330;  -77.202;  110.364
459.364; 1200.721; -350.195; -210.649
459.651; 2609.270;  -46.206;  220.372
459.938; 1281.037; -864.209; -665.623
460.225;  266.034;  132.799;  276.363
460.512;  -87.907; -836.197; -688.645
460.799;  173.726;  -32.218;  320.392
461.086;  105.953; -370.200; -251.640
461.372;   63.471; -509.198; -279.642
461.659;  228.299; -165.196;  108.354
461.946;   95.836; -445.193;  -54.651
462.233;  490.050;  842.800;  888.361
462.519;  515.645; -814.201; -464.639
462.806; 1532.894; -768.197; -497.645
463.093; 1398.666; -445.191;  -66.656
463.380;  -55.974; -920.186; -824.664
463.666;  115.296; -259.197;  -18.646
463.953;  190.514; -406.195; -243.648
464.239;  239.714; -173.195;  -77.648
464.526;  678.929;  413.806;  743.350
464.813;  489.783; -565.190; -304.658
465.099;  676.738;  606.807;  607.348
465.386;  610.643;  903.807;  921.348
465.672;   22.594; -694.197; -522.645
465.959;   14.709; -598.188; -520.662
466.245;   27.544; -468.193; -359.652
466.532;  171.311; -109.195;   63.352
466.818;  130.326; -357.186; -216.664
467.104;  -27.516; -488.182; -415.672
467.391;  -27.514; -628.189; -459.658
467.677;   68.231; -289.186;    9.335
467.964;   25.695; -682.189; -471.660
468.250;  114.635; -331.186; -160.665
468.536;  171.988;   90.811;  180.341
468.822;  -94.948; -821.184; -574.668
469.109;  296.901;  351.827;  471.311
469.395;  381.258;  729.808;  787.346
469.681;  333.192;   46.811;  156.341
469.967; 1949.399; -699.188; -382.660
470.254; 4119.910; -494.188; -306.662
470.540; 2757.897; -601.196; -476.646
470.826;  362.500; -488.181; -397.675
471.112;  506.657;  288.816;  113.331
471.398;  169.864; -253.183;  -58.670
471.684;   63.441; -626.177; -447.680
471.970;  -14.794; -918.180; -981.675
472.256;    1.656; -521.192; -441.654
472.542;   39.317; -499.171; -434.691
472.828;  -28.422; -743.182; -607.672
473.114;   65.280; -380.166; -283.700
473.400;   20.765; -504.175; -293.684
473.686;   39.590; -452.166; -400.701
473.972;   91.486; -230.174; -131.687
474.258;  -76.899; -925.173; -843.689
474.544;  290.029; -183.178;   -2.679
474.830;  513.568;  -65.175;   45.316
475.116;  740.685; -123.190; -196.658
475.401;  970.409; -558.180; -467.676
475.687;  272.808; -725.180; -718.676
475.973;    0.490; -673.181; -770.673
476.259;  467.471;  736.825;  764.315
476.544;  554.953; -539.176; -437.682
476.830; 1185.411; -398.172; -322.690
477.116; 1084.951; -430.177; -336.682
477.401;  307.608;  346.820;  358.324
477.687;  -15.835; -289.175; -405.684
477.973;   67.395;   21.819;   28.326
478.258;   -9.781; -448.163; -348.706
478.544;  102.743;   21.815;   61.334
478.829; -133.575; -818.171; -738.692
479.115;  -93.389; -749.172; -651.690
479.401;  -31.720; -444.174; -449.686
479.686;   40.607; -253.180;  -74.676
479.972; -109.863; -886.178; -776.680
480.257;   87.583; -258.166;  -65.700
480.542;   -0.069; -614.170; -469.693
480.828;  467.963; 1288.824; 1392.317
481.113;  -52.740; -464.176; -426.683
481.399;   -6.846; -236.161; -202.711
481.684;  -66.518; -620.166; -462.700
481.969;   38.273; -158.159;  -73.713
482.255;   19.946; -439.169; -285.695
482.540;   -0.463; -569.178; -441.680
482.825;    1.719; -395.187; -404.663
483.110;  159.851;  -85.169; -105.696
483.396;  249.105; -840.157; -652.718
483.681;  785.887;  543.826;  730.313
483.966;  245.765; -696.160; -700.712
484.251;    2.085; -404.174; -310.687
484.536;   25.897; -356.165; -378.703
484.822;   21.890; -205.173; -218.687
485.107;  -62.440; -599.152; -502.726
485.392;  261.205;  662.836;  541.296
485.677;  150.865;  354.832;  163.302
485.962;  192.101;  160.843;  270.283
486.247;  171.531;  -14.162;   -8.707
486.532;   68.884; -178.166; -325.701
486.817;  292.346;  381.839;  431.291
487.102;  150.635; -453.154; -514.722
487.387;  992.207; -637.156; -652.718
487.672; 1682.013; -154.164;  -38.705
487.957; 1130.956; -394.160; -286.711
488.241;  312.084; -290.150; -314.729
488.526; 1135.362; -280.152; -148.726
488.811; 1695.740; -881.177; -818.680
489.096; 1334.439; -666.154; -702.723
489.381;  763.957;    3.847;  162.275
489.666;  543.253; -428.161; -510.710
489.950;  338.044;  558.846;  627.277
490.235;  -87.123; -480.151; -458.728
490.520;  -88.248; -756.161; -723.710
490.804; -108.490; -827.156; -736.719
491.089;    4.807; -469.149; -299.732
491.374;   64.311; -132.164;  -75.704
491.658;  -64.976; -817.147; -717.735
491.943;  230.968; -657.152; -609.727
492.227;  380.629; -178.155;  -38.721
492.512;  120.100; -294.157; -341.717
492.797; -135.702; -713.149; -716.731
493.081; -115.172; -588.147; -598.735
493.366; -117.246; -751.161; -635.711
493.650;  439.005;  831.859;  917.254
493.935;   27.223; -648.147; -447.734
494.219;  -73.014; -778.142; -687.743
494.503; -117.309; -585.150; -487.730
494.788;   86.388;   46.842;   74.285
495.072;  216.086;  184.850;  434.271
495.356;  240.512; -463.148; -343.733
495.641;  650.737; -812.146; -736.736
495.925;  595.317; -976.156; -903.719
496.209;   33.306; -599.149; -451.732
496.494;  -58.313; -763.142; -544.744
496.778;    2.735; -364.154; -360.722
497.062; -114.683; -819.156; -627.719
497.346; -114.341; -869.160; -640.711
497.631;  291.117;  580.852;  560.266
497.915;  142.553;  -64.145;  175.261
498.199;  119.205; -341.157; -277.718
498.483;   30.660; -562.152; -508.725
498.767;  321.088;  301.850;  300.271
499.051;  267.803; -126.149; -100.732
499.335;   -0.400; -693.149; -739.731
499.619;  -51.348; -381.129; -423.767
499.903;   61.227; -272.155;  -65.721
500.187;   13.046; -588.153; -316.724
500.471;   16.867; -796.152; -595.727
500.755;  185.352;   62.839;  -96.710
501.039;   54.528; -270.155; -357.721
501.323;  152.407;  -21.141;  264.254
501.607;   78.320; -447.163; -503.706
501.891;   -9.393; -607.156; -512.718
502.174;  -60.531; -726.144; -585.741
502.458;  163.073;   89.849;  370.273
502.742;   55.342; -180.138; -191.751
503.026;  164.122; -412.147; -254.734
503.310;  237.472; -437.159; -375.713
503.593;  148.725; -464.147; -325.735
503.877;  206.001; -232.133; -156.760
504.161;  249.349;    2.847;  -50.724
504.444;  200.492; -841.158; -710.716
504.728;  634.710; -487.164; -522.704
505.012; 1084.483; -257.150;  -76.729
505.295;  817.454; -417.161; -212.711
505.579;  824.716; -256.156; -496.719
505.862; 1060.047; -555.145; -333.738
506.146; 1049.275; -681.159; -758.714
506.429;  706.476;  568.841;  461.286
506.713;   81.779; -732.151; -667.728
506.996;  509.235;   90.846;  295.278
507.280;  497.803; -633.165; -474.703
507.563;  332.625; -469.155; -261.721
507.847;  138.847; -423.153; -112.724
508.130;  115.055; -665.161; -456.711
508.413;  161.576; -758.167; -577.700
508.697;  361.476; -151.167;   12.300
508.980;  266.149; -422.153; -312.724
509.263;  -29.680; -466.155; -450.720
509.547;   79.783; -124.150;   82.271
509.830;   80.858; -172.160;  140.289
510.113;  179.916;  128.844;  298.281
510.396;    7.457; -530.152; -300.725
510.680;  255.649; -818.145; -812.738
510.963; 1025.541;  184.846;  180.277
511.246;  804.994; -493.150; -357.730
511.529;  432.156; -482.145;  -83.739
511.812;  557.995; -250.134;   10.241
512.095;  336.575; -740.151; -396.728
512.378;  121.731; -317.147; -245.736
512.661;   10.253; -703.137; -623.753
512.944;    7.389; -750.142; -637.744
513.227;   98.549; -170.137; -171.752
513.510;   60.369; -479.144; -671.741
513.793;   16.514; -485.140; -435.747
514.076;  187.582;  -43.127;  -39.771
514.359;  166.108; -294.149; -135.732
514.642;  131.094; -442.142; -567.744
514.925; 1172.611;  581.860;  561.253
515.208; 1441.690; -498.134; -443.758
515.491;  963.510; -276.133; -182.761
515.773;  555.674; -410.143; -337.742
516.056; 3132.062;  249.864;  409.246
516.339; 4087.068; -754.136; -652.755
516.622; 3011.791; -518.150; -488.730
516.904; 2042.584;  882.857;  975.257
517.187;  881.247; -730.138; -523.752
517.470;  590.683; -568.143; -510.743
517.752;  587.972; -624.136; -470.756
518.035;  462.029; -708.139; -725.749
518.318;  477.268; -799.136; -744.755
518.600; 3529.315; -300.132; -325.762
518.883; 4843.893;  310.858;   88.256
519.165; 2310.537; -585.138; -426.751
519.448;  580.015;  -61.132;  -19.762
519.730;  265.393; -573.126; -415.773
520.013;  564.205;  588.867;  664.240
520.295; 1363.598;  -94.134;  -15.759
520.578; 2884.534; -335.131; -305.764
520.860; 3325.115; -254.132;   56.238
521.143; 1661.475; -763.135; -584.756
521.425;  736.611; -251.125; -279.775
521.707;  944.482; -622.127; -380.771
521.990; 2572.083; -199.127;  167.229
522.272; 2915.816; -116.140;   -4.748
522.554; 1385.975; -237.143; -157.742
522.836;  611.495;  -24.134;   99.241
523.119;  338.720; -496.148; -189.734
523.401;  178.744; -448.130; -314.766
523.683;   45.854; -865.137; -693.753
523.965;  439.544;  408.862;  260.248
524.247;  424.242;   54.878;  170.220
524.529;  312.998; -451.134; -367.759
524.812;  548.047;   -3.130;  191.234
525.094; 1222.743; -773.138; -631.751
525.376; 1991.325; -143.124;   78.223
525.658; 1217.364; -441.136; -339.754
525.940;  -14.171; -805.131; -671.764
526.222;   52.669; -188.136;  -88.755
526.504;  187.926; -190.131;   32.237
526.786;  223.501; -960.133; -647.760
527.068;  472.733; -124.123;  -67.778
527.349;  161.559; -865.137; -774.754
527.631;  221.515; -137.132;   22.238
527.913;  162.281; -664.127; -450.771
528.195;  190.501; -761.125; -639.774
528.477;  399.890;  -93.134;  -30.758
528.759;  165.646; -648.130; -522.766
529.040;   24.531; -569.123; -293.778
529.322;   87.205; -235.125;  -10.774
529.604;  226.950;  -47.130;   93.233
529.886;  201.992; -546.126; -302.773
530.167;  198.638;  232.870;  192.235
530.449;  106.730;    1.853;   63.265
530.731;   14.341; -572.122; -459.779
531.012;   81.871; -513.120; -216.784
531.294;  104.628; -118.116;  -43.792
531.575;  294.611;  290.875;  538.225
531.857;   34.083; -548.135; -266.757
532.138;  165.805; -113.141;   40.254
532.420;  274.578;  294.865;  403.244
532.701;  283.205; -722.133; -751.760
532.983;  577.809;  232.867;  182.239
533.264;  213.689; -243.126;  175.228
533.546;  -80.631; -491.136; -508.755
533.827;  113.500;  173.867;   -1.759
534.109;   56.083; -352.135;  -80.757
534.390;  109.121; -725.132; -582.762
534.671;  386.677; -270.135;  -82.756
534.953;  194.835; -751.123; -611.779
535.234;   10.106; -426.117; -255.789
535.515; -157.517; -891.119; -735.785
535.796;  -61.525; -431.128; -193.770
536.078; -248.476;-1050.124; -904.777
536.359;   21.136;  -22.123;    3.221
536.640;  -27.997; -480.125; -197.774
536.921;  257.857;  225.871;  143.232
537.202;  568.539;  -87.138;  -16.751
537.483;  698.833;  251.869;  377.236
537.764;  259.638;   17.870;   98.235
538.045;  -93.711; -543.134; -371.758
538.326;  -82.340; -596.129; -447.768
538.607;  -20.316; -686.127; -476.771
538.888;  266.558;   98.879;    5.218
539.169;  239.150; -704.122; -535.781
539.450;  504.156;  236.871;   16.233
539.731;  283.264; -361.121; -182.783
540.012;  210.371;  199.880;  412.216
540.293;  135.316;   82.876;  158.224
540.574;  -30.942; -895.113; -717.796
540.855;  718.662;  435.879;  377.218
541.136;  847.846;   47.878;  139.220
541.416;  417.947; -161.130; -220.766
541.697;  297.527; -274.131; -170.763
541.978; 1486.981; -270.135; -315.757
542.259; 1926.483; -211.127; -236.771
542.539;  918.819; -191.116; -186.790
542.820;  343.111;  461.875;  480.225
543.101;  192.752;  -52.145;  -77.738
543.381;   29.383; -638.127; -591.771
543.662;  440.080;  159.873; -254.771
543.942;  758.577; -751.127; -830.770
544.223; 1530.749;  193.878;  161.219
544.504; 1023.624; -275.124; -182.777
544.784;  841.192; -592.126; -408.773
545.065; 2420.424;  104.884; -254.791
545.345; 2834.283;  227.881;   14.215
545.626; 1902.257;  -14.113; -108.796
545.906; 1261.437;   77.869;   98.235
546.186;  530.199;   92.874;  -95.773
546.467;  333.727;   99.877;  -95.778
546.747;  519.419;  264.884;  327.210
547.027;  550.922;   91.876;  111.223
547.308;  423.276; -376.127; -530.770
547.588;  638.861;  299.871;  371.232
547.868;  356.139;  458.870;  588.235
548.149;  362.035;  609.885;  593.207
548.429;  232.281; -347.127; -299.771
548.709;  228.371; -645.120; -461.784
548.989;  729.697;   84.882;   88.213
549.269; 3122.413;   10.868;  139.239
549.550; 6784.933;  215.877;  117.222
549.830; 6223.983; -758.111; -556.799
550.110; 1266.994; -468.110; -320.801
550.390; 1238.541; -128.122;  -56.779
550.670; 1584.051; -868.114; -783.795
550.950; 1156.861; -509.121; -471.782
551.230;  366.256;  549.879;  460.218
551.510;  -19.741; -381.121; -326.782
551.790;   90.305; -173.109; -127.803
552.070;  536.427;  940.877; 1181.223
552.350;  583.089; -492.119; -377.786
552.630;  849.452;   -2.121;   77.219
552.909;  568.125;  181.884;   73.209
553.189;  369.422;  -49.132;   33.237
553.469;  239.289; -703.119; -514.786
553.749;  216.185; -469.127; -357.772
554.029;  262.012;   33.883;  -24.790
554.308;  186.941; -154.115;  -37.794
554.588;   98.374; -196.128; -204.770
554.868;   96.962; -366.121;  -47.782
555.147;  186.437; -114.115;  -46.793
555.427;  901.328; -260.116; -250.792
555.707; 5595.334; -284.115; -200.793
555.986; 6490.188; -719.111; -538.800
556.266; 3683.817;   23.884;   72.210
556.546;  132.259; -888.121; -675.782
556.825;  340.047; -657.114; -556.794
557.105; 2596.971; -125.128;   17.230
557.384; 2954.223;  122.884;  187.209
557.664; 1111.027; -717.116; -508.792
557.943;  138.361; -557.121; -411.782
558.222;  252.302; -345.118; -344.788
558.502;  423.139; -116.115;  -76.793
558.781;  750.633;  194.885;  499.208
559.061;  606.101; -232.118; -227.788
559.340;  515.209;  302.883;  353.211
559.619; 1047.917;   93.884;  148.210
559.899; 1387.911; -239.117; -266.789
560.178; 1339.338; -778.115; -593.793
560.457; 4587.114; -623.117; -562.790
560.736; 6091.189; -472.111; -482.800
561.015; 4245.568; -500.128; -502.769
561.295;  613.134;  180.893;  215.193
561.574;  512.935;  119.885;  116.207
561.853;  715.711;  274.891;  303.197
562.132;  698.842;  -45.114;  182.206
562.411;  703.153;  396.879;  553.219
562.690;  144.932; -592.115; -458.792
562.969;  288.267;  472.888;  630.203
563.248;  981.950; 2966.878; 2487.219
563.527;  432.288; -290.111; -408.800
563.806;  506.581; -650.127; -521.771
564.085;  592.756; -297.105; -206.810
564.364;  328.416; -594.117; -405.790
564.643;  754.353; -276.121; -223.781
564.922; 2726.202;  221.890;  397.198
565.201; 2568.208; -640.109; -700.803
565.479; 1183.830; -297.115; -219.792
565.758;  430.271; -810.128; -712.770
566.037;  700.009; -155.109; -100.803
566.316;  342.024; -286.116;  -28.791
566.595;   74.934;  -17.115;  -12.793
566.873;  216.191; -166.111;  -79.801
567.152;  -93.834; -490.113; -590.797
567.431;   39.418; -113.116;    6.210
567.709;   15.034; -344.107; -212.807
567.988;  306.647; -810.114; -769.794
568.266;  735.734; -160.115;  -68.793
568.545;  544.224; -644.100; -514.819
568.824;  867.429;  160.885;  356.208
569.102;  751.346; -351.114; -235.794
569.381;  286.128; -492.116; -407.792
569.659; -100.139; -553.113; -553.796
569.938;    0.947; -743.122; -465.780
570.216;  145.813; -225.109; -225.804
570.494;  -58.249; -632.114; -572.795
570.773;  112.359;  202.879;  114.218
571.051;    5.732; -373.123; -357.778
571.330;  101.258; -221.113; -174.796
571.608;   66.150; -181.098; -173.823
571.886; -137.920; -671.111; -581.799
572.164; -165.938; -739.121; -621.782
572.443;  -77.939; -562.105; -512.811
572.721;  -61.786; -399.117; -289.790
572.999;  -24.495; -280.117; -168.788
573.277;  165.552;  379.894;  620.191
573.555;  444.555;   94.894;   37.190
573.834; 1821.704;  -86.117; -114.788
574.112; 2260.737;  880.893;  811.193
574.390;  689.890; -143.111;  -96.801
574.668;   -5.332;  -91.112;  -61.797
574.946;  -45.745; -165.106; -187.810
575.224;   11.807;   71.891;  -16.803
575.502;    0.221; -200.116; -204.791
575.780; -161.630; -767.112; -829.798
576.058;  303.289; 1589.889; 1004.200
576.336;  -47.203; -210.110; -129.801
576.614; -129.930; -511.112; -340.798
576.891;   38.941; -711.115; -823.794
577.169;  640.125; -158.108; -285.805
577.447;  861.537;  169.893;  202.193
577.725;  451.476;  629.888;  854.201
578.003;   23.573;  -71.112; -371.798
578.280;  111.374; -208.104; -242.812
578.558;   60.739; -450.115; -422.793
578.836;  188.351; -210.114; -145.795
579.114;    7.367; -630.112; -670.797
579.391;  130.007;   -6.117;  -18.789
579.669; -140.458; -595.114; -704.794
579.947;  269.432; -326.107; -127.806
580.224;  406.632; -692.107; -524.806
580.502;  496.038;  127.893;   76.193
580.779;   46.615;  -42.117;   75.210
581.057; -138.886; -584.109; -470.804
581.334; -187.404; -726.102; -695.815
581.612;   99.856;   54.895;  511.190
581.889;  -22.885;  -83.101; -129.818
582.167;  -34.565; -298.099; -190.821
582.444; -183.593; -845.102; -814.817
582.721;  252.408;  657.899;  715.183
582.999;   87.232; -326.100; -167.821
583.276;  676.938; -812.123; -713.779
583.553;  972.900; -364.102; -294.816
583.831;  300.169; -607.104; -631.812
584.108;  149.722;  349.892;  174.195
584.385;   -3.905; -122.102;  -98.815
584.662; -173.108; -651.111; -828.801
584.940;   58.391;  204.889;  204.199
585.217;   -1.940;  -73.113; -303.796
585.494;   73.304;   71.890;  118.198
585.771;  298.015; -250.109; -354.804
586.048;  702.160; -196.113;  -76.796
586.325;  417.295; -721.110; -773.801
586.602;  171.675;  230.896;  213.188
586.879;  -26.173; -499.100; -580.820
587.156;  100.757; -156.105; -331.810
587.433;  -80.396; -701.102; -667.817
587.710;  123.471;  152.888;  234.202
587.987;  440.765; -264.105; -236.811
588.264; 1105.573;  315.888;  387.202
588.541; 1995.378;  -61.104;   26.187
588.818; 3756.518;   72.892;  171.196
589.095; 3287.872; -163.104; -174.812
589.371;  498.212; -459.109; -414.804
589.648;   26.337; -581.107; -437.807
589.925;    8.152; -517.114; -621.795
590.202;  -32.430; -741.112; -607.798
590.478;  127.467; -166.105;  -73.811
590.755;  414.627; -241.108; -132.806
591.032; 3523.099; -741.110; -699.802
591.308; 4718.908; -732.094; -790.831
591.585; 2515.998; -573.110; -560.802
591.862;  137.106;-1056.102; -950.817
592.138;   57.923; -475.108; -474.805
592.415;  203.276; -486.104; -495.813
592.691; 2252.673;  460.896;  518.188
592.968; 2613.652; -208.098; -123.824
593.244; 1271.518; -695.116; -595.790
593.521;   98.007; -105.102;  -42.817
593.797;  -96.357; -810.122; -720.780
594.074;  440.771; -611.096; -588.826
594.350; 1040.287;  828.905;  729.172
594.626;  439.992; -303.111; -283.801
594.903;  122.907; -643.101; -645.817
595.179;  266.881;  243.896;  418.187
595.455;   30.139; -136.107; -150.807
595.731;   54.083;  -19.103;  -38.814
596.008;  -78.216; -464.111; -434.800
596.284;   42.730; -187.100; -242.820
596.560;   35.517; -501.093; -493.833
596.836;  260.460; -173.105;  -70.810
597.112;  470.324; -582.108; -437.805
597.388;  386.668;  -49.097;  -48.826
597.665;  229.364;  437.887;  530.203
597.941; -155.840; -572.089; -658.839
598.217;    0.803; -323.110; -293.802
598.493;  403.017;   61.891; -204.804
598.769;  707.122; -175.100;  -50.819
599.045;  421.428; -490.108; -562.806
599.321;   55.928; -193.100; -261.820
599.597;  174.716; -355.109; -476.804
599.872;  721.378;  409.896;  429.187
600.148;  554.170;  -61.097; -172.826
600.424;  449.835;   91.893;  202.193
600.700;  333.039; -170.107; -280.807
600.976;  142.562; -442.097; -464.825
601.252;  347.711; -226.109; -272.803
601.527;  200.379; -833.104; -840.813
601.803;  210.668; -453.105; -404.812
602.079;  259.522; -124.100; -118.819
602.354;  794.531; -620.092; -531.835
602.630; 1144.460; -140.113; -482.796
602.906; 3438.115; -910.101; -863.818
603.181; 9172.989; -627.119; -534.786
603.457; 7991.167;   98.903; -278.826
603.733; 1149.865; -605.120; -626.783
604.008; 1454.656; -245.106; -164.810
604.284; 4150.409; -636.101; -580.817
604.559; 3812.576;   -3.112;  -42.799
604.835;  753.160; -163.105; -225.810
605.110;  561.936; -732.099; -892.821
605.385; 1000.821;  224.907;  267.167
605.661;  908.291; -625.095; -729.829
605.936; 1501.329; -664.108; -737.806
606.211; 1396.893;  -17.103; -170.815
606.487;  267.045; -329.114; -376.794
606.762;  -47.411; -791.119; -745.786
607.037;  -58.140; -501.105; -433.810
607.313;  -92.919; -589.096; -574.828
607.588;  -19.645; -375.106; -137.810
607.863;   69.314;  -28.101; -143.818
608.138;  307.101;  513.890;  516.198
608.413;   35.342; -576.099; -592.822
608.688;   28.523; -203.108; -267.805
608.964;  263.847; -509.106; -218.809
609.239;  322.456; -107.105; -212.810
609.514;  415.368;  281.895;  240.188
609.789;  922.674; -187.104; -716.812
610.064; 1169.079; -435.096; -609.827
610.339; 1189.512; -855.109; -799.804
610.614; 1557.529; -131.100; -315.820
610.889;  965.768;  215.895;  107.188
611.163;   47.369; -407.104; -591.812
611.438;  113.147;   81.886; -167.794
611.713;  -15.090; -467.101; -499.817
611.988;   65.813; -144.101; -328.818
612.263;  -61.904; -771.102; -717.815
612.538;  350.559;  385.887;  251.204
612.812;  173.331; -832.100; -911.820
613.087;  166.749; -358.098; -338.823
613.362; -108.161; -497.107; -557.807
613.637;  104.687;  261.897;  138.186
613.911;    7.432; -256.092; -345.835
614.186;  176.636; -249.107; -292.807
614.460;  872.668; -842.081; -758.854
614.735; 1076.793;  -55.087;  -17.843
615.010;  267.379;   43.912;  -82.841
615.284;  426.623;  360.892;  246.195
615.559;  448.231; -792.092; -955.835
615.833;  450.339;  -76.099;  -87.822
616.108;   -5.052; -225.090; -390.837
616.382;  257.896;  274.913;  402.156
616.656;  241.848; -241.090; -232.837
616.931;  650.540; -785.099; -700.822
617.205; 1462.880; -973.104; -979.813
617.480; 1319.208;  -91.125;    6.225
617.754;  221.705; -396.125; -128.774
618.028;  -13.438; -369.129; -382.768
618.302;  101.021;   73.892;  -25.805
618.577;  -97.911; -371.103; -518.815
618.851;  -90.293; -399.109; -600.803
619.125; -103.502; -335.134; -378.759
619.399;  -32.119; -244.104; -374.813
619.673;  -92.070; -330.115; -515.792
619.947;  -61.449; -333.114; -448.795
620.222;  -21.807; -198.110; -204.801
620.496;   36.962;  -47.121;  -96.782
620.770;   18.950; -187.122;  -93.781
621.044;  347.757;  323.895;  346.190
621.318;  979.166; -653.120; -614.783
621.592;  933.763; -430.121; -409.783
621.866;  469.877; -476.112; -572.799
622.140;   66.220; -207.116; -356.791
622.413;  111.983;  138.889;  112.200
622.687;  -88.090; -746.101; -492.817
622.961;   33.721; -130.108; -143.805
623.235;  -86.015; -633.111; -661.800
623.509; -208.933; -816.105; -848.811
623.783;   33.133;  -12.107;   48.193
624.056;  -47.333; -254.120; -280.783
624.330;  107.568;   63.888;   -3.797
624.604;   50.016; -271.116; -355.790
624.877;  150.100;  180.890;   26.198
625.151;   72.743; -249.114; -238.794
625.425;   -4.917; -150.103; -283.814
625.698; -124.819; -367.119; -374.785
625.972; -155.997; -799.110; -765.802
626.245;  156.718;  685.884;  484.210
626.519;  -56.627; -426.120; -340.784
626.792;  -57.462; -192.107; -380.807
627.066; -131.661; -485.122; -662.779
627.339; -198.203; -736.110; -663.802
627.613;  104.871;  351.880;  148.216
627.886;   90.606;  187.891; -612.803
628.160;  -44.335;  312.880; -161.783
628.433; -161.488; -695.125; -703.775
628.706; -135.827; -517.120; -615.784
628.979;   89.222;  296.876;  117.223
629.253; -149.512; -785.119; -833.786
629.526;  505.990; -334.126; -253.772
629.799;  462.632; -641.123; -479.778
630.072;  175.764; -497.128; -516.769
630.346; -151.281;-1115.116;-1080.790
630.619;  583.040; -467.107; -545.808
630.892;  957.286;  709.889;  593.200
631.165;  529.880;  790.896;  679.187
631.438; -160.527;-1092.112;-1055.798
631.711;  132.837;  453.877;  257.221
631.984;  -97.888; -523.117; -624.789
632.257; -129.093; -636.117; -681.789
632.530;  -66.119; -412.119; -433.785
632.803;   69.440; -109.115;    7.207
633.076; -133.873; -360.123; -422.777
633.349;   51.270;  173.872;  121.231
633.622;  -72.820; -187.119; -240.785
633.895; -245.033; -903.120; -823.783
634.167; -120.807; -496.126; -525.773
634.440;  -14.972;  -19.116; -137.792
634.713;   32.586;  -22.119; -120.786
634.986;  219.155;  593.871;  453.233
635.258; -124.762; -507.115; -597.793
635.531;  206.801;  742.882; -343.788
635.804;  -45.490; -303.117; -318.789
636.077; -202.278; -830.116; -852.791
636.349;  -24.265; -586.115; -474.793
636.622;  757.589; 1695.874; 1392.228
636.894;  329.374; -474.120; -909.784
637.167;  145.580; -836.127; -789.771
637.439;   82.675; -278.128; -213.770
637.712;  -56.309; -312.126; -293.772
637.984; -159.877; -635.116; -707.791
638.257;  627.328;  515.877;  488.222
638.529;  693.014; -881.125; -924.776
638.802;  352.264; -508.128; -449.769
639.074; -243.652; -927.122; -952.781
639.346; -214.015; -942.135; -930.757
639.619;   -3.209;  -79.142; -319.744
639.891;   40.440;  -83.122; -168.779
640.163; -128.058; -689.122; -756.780
640.435;   59.045;  273.878;  103.220
640.708;   40.847;  -72.122; -132.780
640.980;  -61.350; -366.122; -362.781
641.252;  330.853;  -25.121;  -71.781
641.524; 2630.655;  580.879;  573.219
641.796; 2535.858;-1094.121; -907.782
642.068;  496.561; -191.121; -300.782
642.340;  -97.037; -486.121; -566.783
642.613;  107.066;  294.880;  323.217
642.885; -209.031; -787.120; -878.783
643.157; -134.329; -810.120; -658.784
643.428;  131.974;  170.880;  218.216
643.700; -123.923; -498.120; -425.784
643.972;  -29.721;  -16.119; -133.785
644.244; -150.718; -474.119; -559.785
644.516;  -91.615; -250.119; -114.786
644.788;  146.987;  662.881;  548.214
645.060;   12.290;  -12.119; -124.786
645.332; -183.007; -525.118; -535.787
645.603;  119.595;  479.882;  342.213
645.875; -125.802; -334.118; -369.787
646.147;  368.500; 1487.882; 1242.212
646.418; -179.897; -931.117; -918.788
646.690;   87.506; -714.117; -715.789
646.962;   35.408; -413.117; -451.789
647.233;   31.111;   15.883;   11.211
647.505; -197.286; -595.117; -475.790
647.776;  118.116;  328.884;  229.210
648.048;    1.219; -248.116; -418.790
648.320; -154.778; -752.116; -679.791
648.591; -292.476;-1055.116; -958.791
648.862; -107.073; -505.116; -577.792
649.134;   47.630;  115.885;  198.208
649.405;  -94.968; -661.115; -618.792
649.677; -103.965; -475.115; -598.793
649.948;   -4.662; -181.115; -296.793
650.219;   -1.560;  -37.115; -147.793
650.491; -135.357; -431.114; -520.794
650.762; -205.155; -705.114; -731.794
651.033; -125.252; -437.114; -424.795
651.304; -201.849; -743.114; -728.795
651.576; -126.247; -680.114; -645.795
651.847;  -51.944; -250.113; -140.796
652.118;  -17.341;  -32.113; -189.796
652.389; -205.139; -639.113; -722.796
652.660;  -18.536; -147.113;  -89.797
652.931; -282.533; -897.112; -871.797
653.202; -115.431; -382.112; -541.798
653.473; -112.828; -633.112; -533.798
653.744;  222.475; -595.112; -590.798
654.015;  151.277; -356.112; -303.799
654.286;  -94.920; -642.111; -663.799
654.557; -163.417; -586.111; -521.799
654.828; -285.915;-1114.111;-1088.800
655.099; -120.012; -404.111; -291.800
655.370; -150.709; -427.111; -543.801
655.641; -211.907; -656.110; -714.801
655.911; -173.304; -618.110; -638.801
656.182;  147.998;  437.890;  387.198
656.453;  265.201;  830.890;  746.198
656.724; -135.896; -466.110; -426.802
656.994; -170.294; -553.109; -568.803
657.265; -192.891; -862.109; -873.803
657.536; -128.288; -500.109; -377.804
657.806; -174.486; -561.109; -593.804
658.077; -244.683; -866.109; -950.804
658.347; -147.080; -523.108; -598.805
658.618; -208.578; -646.108; -694.805
658.888;  -29.575;  -41.108;  112.195
659.159; -131.472; -432.108; -548.806
659.429;  -55.070; -292.108; -349.806
659.700;   59.033; -435.107; -390.807
659.970;   -3.864; -370.107; -359.807
660.241;   -1.462; -754.107; -921.807
660.511;  679.341; -147.107; -174.808
660.781;  106.044; -793.106; -748.808
661.052;  -68.854; -222.106; -381.808
661.322;  -23.451;   21.894;   -9.809
661.592;   90.051;  257.894;  148.191
661.862; -126.646; -369.106; -382.810
662.133; -156.443; -551.105; -502.810
662.403; -198.641; -770.105; -676.810
662.673;  -98.738; -256.105; -213.811
662.943; -181.635; -612.105; -551.811
663.213;    2.567;  -85.105;  -81.811
663.483; -160.530; -593.104; -568.812
663.753;  -61.127; -194.104; -152.812
664.023;   42.275;   68.896;  -32.813
664.293;  -88.522; -319.104; -126.813
664.563; -187.419; -694.104; -648.813
664.833; -230.217; -743.103; -608.814
665.103; -224.114; -730.103; -793.814
665.373; -209.811; -766.103; -806.814
665.643; -177.309; -863.103; -918.815
665.913;   -8.706; -534.103; -714.815
666.182;  158.897; -685.102; -719.816
666.452;  359.199;  -22.102;  -89.816
666.722;  -71.398; -724.102; -784.816
666.992; -267.296; -948.102; -921.817
667.261; -198.493; -824.102; -808.817
667.531;  329.310;  134.899;   45.183
667.801;  761.912; -440.101; -412.818
668.070;  443.115;  714.899;  697.182
668.340; -198.182; -883.101; -840.819
668.609;  195.820;  588.900;  301.181
668.879; -111.877; -490.100; -558.819
669.149; -140.674; -539.100; -516.820
669.418; -190.472; -698.100; -726.820
669.688;  -42.769; -482.100; -666.820
669.957;   78.834; -423.099; -546.821
670.226;  -43.864; -268.099; -331.821
670.496; -155.561; -431.099; -635.822
670.765; -122.758; -418.099; -501.822
671.034; -248.256; -872.099; -828.822
671.304;    3.547;   55.902; -111.823
671.573; -290.551;-1085.098; -957.823
671.842;  105.952; -380.098; -294.823
672.112;   19.255; -692.098; -586.824
672.381;    6.057; -239.098; -214.824
672.650; -275.740;-1005.097;-1021.825
672.919; -129.037; -631.097; -507.825
673.188; -184.935; -681.097; -878.825
673.457; -282.932;-1101.097;-1143.826
673.726; -153.829; -579.096; -646.826
673.995;  -79.027; -533.096; -479.826
674.265;  -35.124; -263.096; -333.827
674.534;    5.479; -183.096; -235.827
674.802;  -11.419; -618.096; -703.828
675.071; 1419.284; -886.095; -801.828
675.340; 5181.687; -464.095; -339.828
675.609; 1791.289;  103.905;   82.171
675.878;   33.492; -949.095; -893.829
676.147;   75.195;  -26.095;   -8.829
676.416;  138.997; -210.094; -294.830
676.685; 1097.400; 1000.906; -622.830
676.953;  111.602; -603.094; -452.831
677.222;  -15.495; -193.094; -273.831
677.491;  -23.192;  -24.094; -127.831
677.759;    4.210;   11.907;  172.168
678.028;  -14.887; -279.093; -222.832
678.297;   11.816;   71.907;  197.168
678.565; -241.882; -898.093; -944.833
678.834;  -66.479; -311.093; -268.833
679.102; -114.776; -411.092; -391.834
679.371; -250.174; -898.092; -727.834
679.639; -230.771; -797.092; -786.834
679.908; -209.068; -794.092; -724.835
680.176; -279.966; -895.091; -941.835
680.445;  -90.463; -346.091; -352.835
680.713;  -29.960;  -58.091;  -23.836
680.982; -149.758; -523.091; -525.836
681.250; -171.355; -578.091; -507.837
681.518; -204.252; -534.090; -751.837
681.787;  -58.950; -204.090; -167.837
682.055; -114.447; -490.090; -422.838
682.323; -231.645; -993.090; -992.838
682.591;   77.958; -216.090; -538.838
682.859;  133.261;    9.911;  -35.839
683.128;   50.963;  232.911;  497.161
683.396; -299.934;-1102.089;-1122.840
683.664;  -56.731; -241.089;   21.160
683.932;   26.071;  144.911;  -76.840
684.200; -119.926; -576.088; -320.841
684.468;  -14.623;  -73.088; -124.841
684.736;  -15.321; -214.088; -175.841
685.004; -227.918;-1024.088; -982.842
685.272; -127.415; -880.088; -774.842
685.540; -134.613; -499.087; -557.843
685.808; -155.810; -651.087; -682.843
686.076; -196.507; -894.087; -969.843
686.343; -135.605; -601.087; -815.844
686.611;   64.998; -195.087; -224.844
686.879;  688.101; -530.086; -553.844
687.147; 4412.403; -483.086; -480.845
687.414; 1268.406;  -12.086; -169.845
687.682;  -31.892; -658.086; -757.846
687.950;  445.011;  259.915;  263.154
688.217;    1.714; -792.085; -760.846
688.485;  -16.984; -632.085; -636.847
688.753;  745.019;  -11.085; -102.847
689.020;  164.922; -820.085; -851.847
689.288; -191.776; -853.084; -787.848
689.555;  -18.673; -195.084; -148.848
689.823;  -40.770; -241.084; -345.849
690.090; -153.068; -546.084; -651.849
690.358; -304.165; -877.084; -897.849
690.625;   29.738;  120.917;   45.150
690.892; -118.860; -403.083; -369.850
691.160;   20.943;   72.917;  -35.850
691.427;   43.446;  141.917;  130.149
691.694; -287.152; -855.083; -929.851
691.962; -261.949;-1177.082;-1060.852
692.229;   21.353;  127.918;   56.148
692.496;  128.756;  130.918;  -49.852
692.763;   14.359; -164.082; -201.853
693.031;  -96.239; -739.082; -716.853
693.298;  -69.836; -509.081; -368.853
693.565;  475.567; -155.081; -163.854
693.832; 1678.169;   -5.081;   -9.854
694.099;  165.072; -643.081; -642.855
694.366; -140.125; -882.081; -896.855
694.633;  -90.023; -920.080; -633.855
694.900; 1558.380; 4367.920; -114.856
695.167;  653.383; -214.080; -380.856
695.434;   65.885; -646.080; -623.856
695.701;  330.688;  121.921;  -61.857
695.968;  702.891; -365.079; -361.857
696.234; 1769.293; -415.079; -646.858
696.501;16163.696; -776.079; -614.858
696.768; 7655.199; -554.079; -617.858
697.035;  508.901; -632.078; -667.859
697.302;   20.704; -448.078; -552.859
697.568;   24.306; -458.078; -497.859
697.835;  -45.291; -683.078; -624.860
698.102;  -29.488; -498.078; -407.860
698.368;  166.514;  384.923;  396.139
698.635;  -57.883;  -47.077; -424.861
698.901;  -27.180; -240.077; -348.861
699.168;   91.622; -534.077; -456.862
699.435;  102.025;  -72.077;  -13.862
699.701; -229.572; -868.076; -764.862
699.968;  -47.270;  144.924; -441.863
700.234; -177.067; -783.076; -822.863
700.500;  -65.364; -448.076; -539.864
700.767;   13.738;   -1.075;   26.136
701.033; -228.459;-1015.075; -963.864
701.299;  -75.456; -450.075; -483.865
701.566;  301.146;  950.925;  763.135
701.832;   73.749;  -31.075;  -76.865
702.098; -173.748;-1054.074;-1034.866
702.365; -209.346;-1098.074;-1030.866
702.631;  -52.043;-1038.074;-1063.867
702.897; 1986.659; -765.074; -676.867
703.163; 3050.262;  348.926;  254.133
703.429;  227.365; -256.073; -273.868
703.695;  -76.533; -796.073; -792.868
703.961;   51.670; -214.073; -210.868
704.227;  -83.527; -630.073; -725.869
704.493;  273.275;  613.927;  510.131
704.759;  -15.222; -565.072; -540.870
705.025;   65.181; -203.072; -194.870
705.291;   -3.617; -666.072; -562.870
705.557;  391.286;  719.928;   34.129
705.823;   40.389; -742.072; -694.871
706.089;  244.591; -307.071; -326.871
706.355;  642.894; -315.071; -244.872
706.620; 9148.897; -776.071; -729.872
706.886;11461.699; -309.071; -362.873
707.152; 1010.802; -818.070; -973.873
707.418;  -39.695;-1153.070;-1186.873
707.683;   24.307; -550.070; -530.874
707.949;  -57.590; -547.070; -578.874
708.215;    1.812; -129.070; -207.874
708.480;   -0.885; -520.069; -420.875
708.746;  171.318;   68.931;   28.125
709.011;  -91.280; -578.069; -612.876
709.277; -118.077; -538.069; -543.876
709.542;  -24.674; -428.069; -387.876
709.808;   31.528;  -59.068;   89.123
710.073; -103.969; -577.068; -695.877
710.339;   -9.266; -242.068; -228.877
710.604;   93.436; -780.068; -845.878
710.869;  426.839; -277.068; -366.878
711.135; -127.358; -715.067; -628.879
711.400; -129.356; -507.067; -608.879
711.665;  -68.453; -404.067; -479.879
711.931; -147.850; -661.067; -677.880
712.196; -217.248; -876.067; -954.880
712.461;  119.655; -402.066; -490.880
712.726;  140.657; -727.066; -771.881
712.991; -142.340; -647.066; -664.881
713.256;  -34.837; -350.066; -332.882
713.521;  -84.235; -417.065; -381.882
713.787;  -85.432; -454.065; -472.882
714.052;  -21.529; -214.065; -400.883
714.317; -177.227;-1045.065; -981.883
714.581; 1691.876; -374.065; -268.883
714.846; 1987.279; -822.064; -888.884
715.111;  241.181;  261.936;  257.116
715.376;   16.984;  -86.064; -223.885
715.641;  -30.213; -365.064; -367.885
715.906;  399.689;   15.936; -551.885
716.171;  248.592;  221.937;  209.114
716.436;   80.695;  -78.063; -104.886
716.700; -197.003; -818.063; -692.886
716.965; -188.500; -794.063; -807.887
717.230; -109.197; -339.063; -392.887
717.494;  -18.895;  -40.062; -134.888
717.759; -178.292; -784.062; -640.888
718.024;   78.710;  269.938;  250.112
718.288;  181.113;  685.938;  395.111
718.553; -253.284; -803.062; -977.889
718.817; -248.482; -883.061; -899.889
719.082;   -3.879; -115.061; -125.890
719.346; -245.476;-1000.061; -947.890
719.611;  -43.474; -300.061; -255.891
719.875; -167.471; -568.060; -537.891
720.140; -100.368; -453.060; -603.891
720.404;   76.934; -136.060; -249.892
720.668; 1178.437; -475.060; -411.892
720.933;  432.840;  146.940;  137.108
721.197; -172.858; -667.059; -600.893
721.461; -251.655; -851.059; -826.893
721.725;   39.148;  -21.059; -250.894
721.990;  -69.950; -284.059; -204.894
722.254;   -7.847;  -26.059; -108.894
722.518;  -75.844; -286.058; -442.895
722.782; -135.842; -743.058; -594.895
723.046;  217.361;  614.942;  570.105
723.310;  127.363;  374.942;  210.104
723.574; -184.334; -654.058; -614.896
723.838; -152.431; -576.057; -642.897
724.102;  -34.129; -226.057; -239.897
724.366; -247.926;-1032.057; -978.897
724.630; -160.123; -749.057; -571.898
724.894; -137.521; -722.057; -514.898
725.158;   15.082;   38.944; -295.898
725.422;  -77.115; -394.056; -327.899
725.685; -119.113; -441.056; -349.899
725.949; -129.010; -566.056; -519.900
726.213; -141.107; -732.056; -811.900
726.477;  171.995;-1020.055; -933.900
726.740;  258.898; -274.055; -104.901
727.004;  554.501; -384.055; -510.901
727.268; 4964.603; -442.055; -400.901
727.531; 1178.406; -961.055; -775.902
727.795;  -85.991; -713.054; -673.902
728.059;  -78.089; -552.054; -557.903
728.322; -116.286; -841.054; -669.903
728.586;   20.216; -692.054; -701.903
728.849; -128.481; -695.053; -756.904
729.112; -212.478; -812.053; -912.904
729.376; -201.576; -959.053; -905.904
729.639;  -96.473; -536.053; -536.905
729.903; -195.770; -733.053; -699.905
730.166;  -37.268; -437.052; -399.906
730.429;    9.035; -317.052; -468.906
730.693;  -97.662; -355.052; -894.906
730.956;  406.540;  810.948;  651.093
731.219;  946.943; -310.052; -103.907
731.482;  101.946;-1003.051; -894.907
731.745;   97.848; -794.051; -935.908
732.009;   56.151;  -30.051;   50.092
732.272; -157.346; -904.051; -771.909
732.535;  -25.344; -300.051; -310.909
732.798; -281.041;-1083.050;-1166.909
733.061;  -65.439; -430.050; -456.910
733.324;   54.064;   31.950; -180.910
733.587;  170.667;  290.950;  365.090
733.850;  -79.731; -973.049;-1050.911
734.113;   65.872;   33.951;   32.089
734.376;   18.375; -328.049; -447.912
734.639;  422.577; 1188.951; 1011.088
734.901;  115.180; -180.049; -402.912
735.164;  750.383; -883.048; -837.913
735.427; 1747.985; -166.048; -355.913
735.690;  194.488; -205.048; -234.913
735.952;  -98.309; -923.048; -925.914
736.215;  -88.107;-1113.048;-1009.914
736.478;   34.096; -771.047; -774.915
736.740;  351.199;   33.953;  129.085
737.003; 1111.301; -658.047; -672.915
737.266; 5445.204;  -94.047;   46.084
737.528;  627.507; -682.047; -660.916
737.791;  479.809; -316.046; -327.916
738.053; 1389.512;  465.954;  649.083
738.316;17021.414; -162.046; -136.917
738.578;10339.417; -770.046; -736.918
738.841;  662.320; -382.046; -446.918
739.103;  282.022; -875.045; -777.918
739.365;  758.125;   79.955;  -69.919
739.628;  -32.272; -884.045; -805.919
739.890;  -49.170; -758.045; -710.919
740.152;  -59.867; -692.044; -754.920
740.414;   29.936; -408.044; -359.920
740.677;  -86.862; -785.044; -634.921
740.939;  -97.359; -587.044; -487.921
741.201;  376.044; -432.044; -572.921
741.463;   -0.254; -689.043; -745.922
741.725;   54.349;  -21.043; -199.922
741.987;  124.352;  220.957;  116.078
742.249;  -13.146; -751.043; -859.923
742.511;  219.957; -703.043; -794.923
742.773;    9.260; -546.042; -546.924
743.035;  250.562;  796.958;  533.076
743.297;  -79.835; -963.042;-1013.924
743.559; 1034.767; -278.042; -262.925
743.821;   18.770; -735.042; -744.925
744.083;   42.373;  -44.041; -149.925
744.345; -171.525; -869.041; -892.926
744.607;  104.678;   75.959;  122.074
744.868;  -70.919; -490.041; -554.927
745.130; -186.817; -994.041;-1008.927
745.392;  131.086;   -1.040;  -44.927
745.653;   -8.711; -411.040; -378.928
745.915;  355.291;  896.960;  631.072
746.177;  110.494;   35.960;  -43.928
746.438;  -15.803; -428.040; -543.929
746.700;  -95.201; -947.039; -988.929
746.961;  -13.398; -659.039; -740.930
747.223;  213.705; -190.039;  -74.930
747.484;  147.807; -391.039; -471.930
747.746;  265.010;  -23.038; -106.931
748.007;  156.813; -647.038; -689.931
748.269;  462.515; -468.038; -440.931
748.530;  645.418; -852.038; -638.932
748.791;  379.020; -354.038; -420.932
749.053;  672.723;  286.963;  163.067
749.314;  696.226; -236.037; -169.933
749.575;  695.328; -945.037; -905.933
749.836; 1259.931; -217.037;   86.066
750.098; 4182.234;  -60.037;  -21.934
750.359;51639.836;  414.964;  555.066
750.620;11699.839; -121.036; -220.935
750.881; 1477.042; -585.036; -513.935
751.142; 2098.944; -950.036; -938.936
751.403;25723.147; -789.036; -705.936
751.664; 9663.450;-1034.035; -999.936
751.925;  772.352; -175.035; -262.937
752.186;  456.055; -298.035; -278.937
752.447;  234.858; -590.035; -445.937
752.708;   58.060; -532.035; -648.938
752.969;    4.063; -566.034; -576.938
753.230;  -18.634; -777.034; -672.939
753.491;  -16.032; -650.034; -631.939
753.751;  166.071;  109.966;   19.061
754.012;  196.273;  258.967;  181.060
754.273;  124.176; -174.033;  -71.940
754.534;    4.379; -487.033; -580.940
754.794; -137.819; -926.033; -911.941
755.055;  296.584; 1051.967;  881.059
755.316;  -39.113; -700.032; -566.942
755.576;  -39.611; -606.032; -576.942
755.837;  -38.208; -527.032; -695.942
756.097;  -64.905; -530.032; -564.943
756.358; -122.103; -725.032; -770.943
756.618;  -97.600; -705.031; -641.943
756.879;   34.903; -254.031; -349.944
757.139; -235.895;-1098.031;-1116.944
757.400;  -88.792; -538.031; -553.945
757.660;  -16.389; -365.031; -401.945
757.920;   63.713; -266.030; -228.945
758.181;   -8.984; -468.030; -351.946
758.441; -142.482; -870.030; -809.946
758.701;  -52.979; -308.030; -215.946
758.961;   32.324; -220.030; -278.947
759.222;  -62.874; -574.029; -502.947
759.482; -148.971; -683.029; -723.948
759.742; -152.868; -706.029; -547.948
760.002;   57.634;  -83.029; -143.948
760.262;  137.337;   50.972;  182.051
760.522;  -51.460; -498.028; -574.949
760.782;  -78.558; -738.028; -612.949
761.042;  -15.855; -618.028; -573.950
761.302;  132.248;   55.972;  -18.950
761.562;  148.050; -164.027; -154.951
761.822;  109.453; -710.027; -551.951
762.082;  -73.644;-1104.027;-1093.951
762.342;  148.858; -328.027; -403.952
762.601;  165.661; -567.027; -506.952
762.861;  582.064; -281.026; -207.952
763.121;  761.266; -406.026; -411.953
763.381;13655.369; -499.026; -485.953
763.640;12526.871; -139.026; -307.954
763.900;  647.074; -242.026; -203.954
764.160;  205.977; -458.025; -491.954
764.419;    1.579; -726.025; -782.955
764.679; -118.218; -795.025; -726.955
764.939;   19.485; -124.025; -210.955
765.198; -123.713; -608.025; -563.956
765.458; -118.110; -710.024; -612.956
765.717; -121.007; -454.024; -590.957
765.976;  -47.005; -428.024; -411.957
766.236; -106.902; -475.024; -610.957
766.495;  106.101;  260.977;   73.042
766.755; -181.097;-1090.023; -987.958
767.014;  -24.194; -594.023; -665.958
767.273;  -46.691; -373.023; -397.959
767.533;  -69.789; -228.023; -307.959
767.792;   -4.586; -151.022; -188.960
768.051;  -62.083; -228.022; -276.960
768.310; -106.081; -546.022; -650.960
768.569;   37.022; -161.022;    4.039
768.828;  -10.076; -285.022; -363.961
769.088; -207.973;-1050.021; -942.961
769.347; -148.870; -755.021; -599.962
769.606; -159.668; -876.021; -857.962
769.865; -211.065;-1016.021;-1033.963
770.124;   22.838; -411.021; -336.963
770.383;  -81.560; -778.020; -910.963
770.641;   13.643; -398.020; -400.964
770.900; -135.154; -953.020; -846.964
771.159;  -98.152; -851.020; -951.964
771.418;  -30.349; -917.020; -779.965
771.677;  208.654; -224.019; -293.965
771.936;  227.956; -794.019; -865.966
772.194; 4226.059; -465.019; -437.966
772.453;16476.662; -213.019; -391.966
772.712; 1231.864;  416.982;  329.033
772.970;  282.567;   32.982;   63.033
773.229;  181.070;  -22.018;  102.033
773.488; -121.028; -814.018; -770.968
773.746;  145.375;  296.982;  335.032
774.005;   72.477;  190.983;  -22.969
774.263;   57.780;  243.983;  177.031
774.522; -132.217; -422.017; -548.969
774.780; -116.115; -484.017; -417.970
775.039; -143.312; -551.017; -531.970
775.297;  -20.209; -135.016; -351.970
775.555; -142.107; -489.016; -612.971
775.814; -204.104; -618.016; -570.971
776.072; -199.701; -749.016; -740.971
776.330; -150.299; -630.016; -520.972
776.589; -188.596; -703.015; -721.972
776.847; -202.593; -645.015; -624.973
777.105; -271.991;-1016.015;-1032.973
777.363;  -91.188; -459.015; -454.973
777.621; -218.685; -660.015; -717.974
777.879;    5.417;  -42.014;   32.026
778.138; -147.980; -554.014; -717.974
778.396; -153.478; -585.014; -526.975
778.654; -282.075;-1015.014; -970.975
778.912; -105.572; -269.014; -371.976
779.170; -215.070; -880.013; -803.976
779.427; -268.767; -922.013; -897.976
779.685; -224.564; -880.013; -832.977
779.943; -130.362; -654.013; -593.977
780.201; -262.959; -964.012; -883.978
780.459; -194.356; -651.012; -610.978
780.717; -110.854; -440.012; -390.978
780.974; -147.951; -449.012; -490.979
781.232;  -96.548; -358.012; -338.979
781.490; -104.546; -551.011; -472.979
781.747; -156.643; -555.011; -476.980
782.005;  105.660;  462.989;  254.020
782.263; -285.038; -542.011;-1004.981
782.520; -125.235; -326.011; -501.981
782.778; -281.032;-1013.010;-1051.981
783.035; -294.730; -962.010; -938.982
783.293;  -79.227; -248.010; -206.982
783.550;  -49.725; -134.010; -198.982
783.808; -230.322; -764.010; -776.983
784.065; -287.119; -745.009; -874.983
784.322;  -36.617;   25.991;  -86.984
784.580; -237.114; -915.009; -771.984
784.837; -131.111; -392.009; -466.984
785.094; -218.609; -783.009; -762.985
785.352;  -85.506; -304.008; -404.985
785.609; -237.403; -934.008; -839.985
785.866; -134.301; -345.008; -401.986
786.123; -133.498; -639.008; -583.986
786.380; -195.795; -665.008; -604.987
786.637;  -71.493; -225.007; -380.987
786.895;  -24.090; -456.007; -543.987
787.152;  -40.987; -135.007; -267.988
787.409;   12.615; -123.007; -225.988
787.666; -117.482; -299.006; -378.988
787.923; -165.579; -616.006; -695.989
788.179; -166.877; -551.006; -584.989
788.436; -181.574; -585.006; -585.990
788.693;  -19.172;  -92.006;  -87.990
788.950;  245.331; -125.005; -112.990
789.207;  262.434; -381.005; -372.991
789.464;  -51.464; -161.005; -301.991
789.720;   46.839;  150.995;  110.009
789.977; -302.558;-1003.005; -671.992
790.234;  -34.056;   44.996;  -66.992
790.490; -270.853; -884.004;-1031.993
790.747;   -6.050;  -85.004;   22.007
791.004;   -4.848; -426.004; -348.993
791.260;  -90.945; -430.004; -560.994
791.517; -144.142; -843.003; -788.994
791.773;  -62.240; -379.003; -342.994
792.030; -135.837; -596.003; -660.995
792.286; -185.234; -686.003; -636.995
792.543;   29.168;  -74.002; -159.995
792.799;  -90.229; -584.002; -382.996
793.055; -276.526;-1179.002;-1210.996
793.312; -163.424; -827.002; -816.997
793.568;  -83.621; -746.002; -599.997
793.824;   37.081; -226.001; -284.997
794.081;   72.884; -447.001; -508.998
794.337;  101.387; -664.001; -561.998
794.593; 2721.989; -319.001; -271.999
794.849;10013.992; -746.001; -772.999
795.105;  484.695; -270.000; -261.999
795.361;   64.697; -490.000; -457.000
795.617; -117.000; -875.000; -945.000
795.873;  -47.200; -360.000; -407.000
796.129;  -27.900; -368.000; -306.000
796.385;   13.300; -124.000; -156.000
796.641;  226.000;  412.000;  550.000
796.897; -124.100; -666.000; -635.000
797.153;  195.100;  453.000;  357.000
797.409; -159.800; -785.000; -868.000
797.665; -103.500; -625.000; -732.000
797.921; -136.500; -775.000; -762.000
798.176;  -88.400; -744.000; -747.000
798.432; -103.400; -824.000; -596.000
798.688; -124.100;-1174.000;-1078.000
798.943;  183.600; -165.000; -147.000
799.199;   -3.800;-1005.000; -959.000
799.455;  427.600;  369.000;  316.000
799.710;  159.500; -813.000; -380.000
799.966;  464.000; -162.000; -160.000
800.221;  781.900; -638.000; -721.000
800.477;17583.900; -743.000; -710.000
800.732;12180.700; -773.000; -800.000
800.988; 1002.100;  205.000;  -19.000
801.243; 3729.800; -454.000; -344.000
801.498;12148.300; -814.000; -739.000
801.754;  709.000; -289.000; -163.000
802.009;  193.900; -257.000; -335.000
802.264;  -88.600; -967.000;-1033.000
802.520;   85.600;  222.000;   -3.000
802.775;  -32.200; -524.000; -359.000
803.030;  178.400;  395.000;  356.000
803.285; -207.000; -840.000; -903.000
803.540;  -77.000; -686.000; -699.000
803.795;  -76.400; -648.000; -583.000
804.051;  -30.900; -279.000; -346.000
804.306;   75.200;  168.000;  128.000
804.561;  268.200;  451.000;  362.000
804.816;  309.000;  714.000;  861.000
805.071;   46.900; -185.000; -280.000
805.325;  287.700; -257.000; -427.000
805.580; -170.000; -841.000; -877.000
805.835;   14.700; -204.000; -297.000
806.090; -128.800; -760.000; -676.000
806.345;   -7.100; -344.000; -264.000
806.600;  -65.000; -549.000; -632.000
806.854;    6.500; -408.000; -538.000
807.109;   29.400; -493.000; -577.000
807.364;   64.500; -407.000; -328.000
807.618;   27.100; -415.000; -381.000
807.873;   69.300; -470.000; -494.000
808.128;  182.200; -257.000; -518.000
808.382;  231.300; -224.000; -332.000
808.637;  130.600; -440.000; -511.000
808.891;  341.800; -257.000; -180.000
809.146;  128.000; -902.000; -794.000
809.400;  435.200; -848.000; -923.000
809.654;  535.700; -779.000; -551.000
809.909;  735.800; -841.000; -927.000
810.163;12091.600; -813.000; -651.000
810.418;24162.700; -940.000; -861.000
810.672; 1529.100; -685.000; -690.000
810.926; 1184.500; -993.000; -973.000
811.180; 2672.400; -439.000; -372.000
811.434;55426.400;  240.000;  135.000
811.689;17182.100; -231.000; -365.000
811.943;  979.100; -936.000; -953.000
812.197;  521.500; -893.000; -671.000
812.451;  252.900; -379.000; -514.000
812.705;  -36.100; -809.000; -619.000
812.959;  -65.900; -263.000; -388.000
813.213;   28.400; -283.000; -209.000
813.467;  226.700;  470.000;  253.000
813.721; -181.700; -764.000; -792.000
813.975; -171.600; -826.000; -877.000
814.229;  120.500;  430.000;  353.000
814.482;  -83.800; -517.000; -566.000
814.736; -214.700; -766.000; -744.000
814.990; -227.600; -779.000; -872.000
815.244;  -57.100; -228.000; -285.000
815.497; -107.800; -636.000; -601.000
815.751;   31.800; -141.000;   82.000
816.005;  -92.400; -470.000; -586.000
816.258;  -67.300; -510.000; -363.000
816.512; -183.700; -693.000; -610.000
816.766;   52.500;  121.000;  157.000
817.019;  104.500;  148.000;  149.000
817.273; -212.600;-1000.000; -802.000
817.526;   16.500; -206.000; -173.000
817.779;  -84.300;-1049.000; -960.000
818.033; -148.400; -693.000; -807.000
818.286; -183.200; -725.000; -792.000
818.540; -162.600; -403.000; -403.000
818.793; -111.900; -402.000; -489.000
819.046; -144.800; -582.000; -520.000
819.299;  -22.600; -157.000; -166.000
819.553; -153.200; -552.000; -592.000
819.806; -285.000;-1016.000; -838.000
820.059;  -61.300; -334.000; -354.000
820.312;   50.500;  152.000;  185.000
820.565;   39.700;  110.000;  -27.000
820.818;  -91.700;  -59.000; -173.000
821.071; -252.700;-1041.000; -957.000
821.324; -167.800; -536.000; -540.000
821.577; -134.300; -457.000; -483.000
821.830;  -69.700; -270.000; -172.000
822.083; -206.900; -733.000; -288.000
822.336;  -54.700; -261.000; -167.000
822.589; -230.600; -805.000; -688.000
822.842; -243.500; -875.000; -770.000
823.094; -300.200;-1076.000;-1114.000
823.347; -222.600; -925.000; -729.000
823.600;   80.800;  402.000;  187.000
823.853;  -46.500; -311.000; -267.000
824.105; -101.900; -331.000; -575.000
824.358; -208.700; -617.000; -716.000
824.611;   95.600;  234.000;   40.000
824.863;  -99.400; -612.000; -591.000
825.116;  148.900;  -33.000;   27.000
825.368;  108.800; -366.000; -372.000
825.621;  239.700; -186.000; -240.000
825.873;   74.100; -704.000; -737.000
826.126; 1061.700; -669.000; -641.000
826.378;18436.000; -389.000; -505.000
826.630; 3203.200; -890.000; -898.000
826.883;   -8.300; -754.000; -693.000
827.135;   90.600; -279.000; -270.000
827.387; -167.800; -893.000; -839.000
827.639;   16.300;  -86.000;   32.000
827.892; -212.000; -742.000; -582.000
828.144; -226.900; -848.000; -804.000
828.396;  -24.200;  104.000;  -80.000
828.648; -138.500; -440.000; -333.000
828.900; -248.800; -702.000; -795.000
829.152; -163.300; -684.000; -683.000
829.404; -100.300; -215.000; -267.000
829.656;  -18.900;  321.000;  214.000
829.908;   46.500;  393.000;  229.000
830.160; -280.900;-1064.000;-1047.000
830.412; -151.100; -481.000; -430.000
830.664; -203.600; -557.000; -665.000
830.916;  -85.200; -268.000; -206.000
831.167; -304.700;-1073.000; -951.000
831.419; -196.400; -623.000; -566.000
831.671; -234.100; -764.000; -809.000
831.923;  -96.900; -311.000; -447.000
832.174;  -85.700; -273.000; -331.000
832.426; -201.800; -493.000; -582.000
832.678; -328.800;-1043.000;-1091.000
832.929; -245.800; -947.000; -935.000
833.181; -115.000; -575.000; -677.000
833.432;  -49.600;  -59.000; -186.000
833.684;   45.300;  112.000;  -27.000
833.935; -167.500; -610.000; -566.000
834.187; -180.300; -829.000; -823.000
834.438;  -12.700;  -58.000;  -25.000
834.689;  -50.900; -255.000; -123.000
834.941;  -48.200; -343.000; -244.000
835.192; -142.100; -590.000; -533.000
835.443; -138.200; -419.000; -506.000
835.695;   56.400;  138.000;  -16.000
835.946; -114.200; -608.000; -378.000
836.197; -157.500; -599.000; -622.000
836.448; -134.500; -528.000; -395.000
836.699;  -66.200; -253.000; -341.000
836.950;   52.800;   72.000;    7.000
837.201; -259.900;-1003.000; -987.000
837.452;  -71.800; -356.000; -170.000
837.703; -184.100; -791.000; -737.000
837.954;  -39.700; -205.000; -365.000
838.205; -145.300;-1029.000;-1008.000
838.456;  242.700; -196.000; -282.000
838.707;   43.200; -423.000; -519.000
838.958;   12.000; -634.000; -647.000
839.209;  481.900;   18.000;   40.000
839.460;  195.300; -439.000; -201.000
839.710;  282.900; -135.000; -297.000
839.961;  721.200;  730.000;  612.000
840.212;  536.200; -382.000; -497.000
840.462; 1960.100; -328.000; -277.000
840.713;29548.800; -571.000; -536.000
840.964; 9005.500;  -62.000; -143.000
841.214;  752.800; -384.000; -624.000
841.465;  898.300; -214.000; -141.000
841.715;  793.900; -417.000; -380.000
841.966; 1024.300; -746.000; -685.000
842.216;17364.400; -330.000; -431.000
842.466;49897.900; -169.000; -313.000
842.717; 1916.000; -964.000; -952.000
842.967;  520.200; -635.000; -641.000
843.217;  435.700;   20.000;   28.000
843.468;  149.400; -104.000; -132.000
843.718;  -39.100; -718.000; -726.000
843.968; -164.600; -837.000; -765.000
844.218;   48.900; -315.000; -262.000
844.469;  -97.700; -577.000; -561.000
844.719; -130.200; -537.000; -682.000
844.969; -163.900; -550.000; -580.000
845.219; -250.300; -814.000; -862.000
845.469; -110.500; -392.000; -342.000
845.719; -212.700; -792.000; -884.000
845.969;   34.400;  119.000;  174.000
846.219; -174.200; -738.000; -720.000
846.469;  114.900;  464.000;  432.000
846.718;  -33.500; -115.000;   31.000
846.968; -217.500; -827.000; -827.000
847.218;  -16.200; -224.000; -371.000
847.468; -156.100; -586.000; -555.000
847.718; -206.900; -827.000; -798.000
847.967; -234.400; -826.000; -915.000
848.217; -115.700; -449.000; -569.000
848.467;  -61.200; -405.000; -376.000
848.716; -176.800; -708.000; -725.000
848.966;  -10.200; -372.000; -358.000
849.215;  -77.900; -428.000; -419.000
849.465; -142.700; -785.000; -615.000
849.714; -262.700;-1132.000;-1150.000
849.964; -142.200; -551.000; -613.000
850.213;   -4.200; -393.000; -355.000
850.463;  155.200;  137.000;  340.000
850.712;    0.400; -542.000; -567.000
850.961;   23.500; -739.000; -678.000
851.211;  172.200; -513.000; -504.000
851.460;  231.900; -635.000; -650.000
851.709; 1005.700;  -25.000;   18.000
851.958;18029.200; -912.000; -750.000
852.208;16559.700; -859.000; -879.000
852.457;  648.700; -181.000;  -13.000
852.706;  126.300; -791.000; -823.000
852.955;   38.000; -507.000; -528.000
853.204;  -88.600; -521.000; -461.000
853.453;  -93.800; -418.000; -458.000
853.702; -200.800; -660.000; -750.000
853.951; -171.500; -532.000; -520.000
854.200; -159.600; -613.000; -562.000
854.449; -239.100; -695.000; -661.000
854.698; -118.900; -340.000; -279.000
854.946;  -90.900; -181.000; -284.000
855.195; -243.500; -843.000; -868.000
855.444; -137.900; -395.000; -420.000
855.693; -163.700; -345.000; -432.000
855.941; -147.900; -387.000; -516.000
856.190;  -52.400; -256.000; -382.000
856.439; -222.500; -652.000; -703.000
856.687;  -68.800;  -99.000;  -72.000
856.936; -168.700; -621.000; -323.000
857.184; -297.400;-1067.000;-1020.000
857.433; -159.000; -423.000; -512.000
857.681; -282.200; -989.000; -953.000
857.930;  -97.800; -282.000; -433.000
858.178; -266.300; -856.000; -929.000
858.427; -256.700; -802.000; -781.000
858.675; -163.700; -377.000; -544.000
858.923; -172.300; -527.000; -819.000
859.172; -309.800;-1094.000;-1070.000
859.420; -116.700; -339.000; -239.000
859.668; -187.600; -624.000; -628.000
859.916;    7.300;  109.000;  115.000
860.164; -165.400; -699.000; -603.000
860.413;  430.300; -878.000; -696.000
860.661;  224.200; -709.000; -577.000
860.909; -117.200; -339.000; -325.000
861.157;  -98.000; -277.000; -444.000
861.405; -219.600; -534.000; -670.000
861.653;  101.900;  310.000;  310.000
861.901;  258.000; -543.000; -613.000
862.149;  -62.100; -801.000; -824.000
862.396; -108.900; -297.000; -187.000
862.644; -114.300; -368.000; -347.000
862.892;  -47.600;   98.000;  138.000
863.140; -177.500; -549.000; -530.000
863.388; -279.400; -815.000; -759.000
863.635; -212.700; -642.000; -601.000
863.883;   39.900;  231.000;  190.000
864.131; -106.500; -288.000; -357.000
864.378; -218.600; -675.000; -540.000
864.626; -132.500; -347.000; -415.000
864.873; -186.600; -556.000; -505.000
865.121; -203.700; -714.000; -799.000
865.368;  -20.500; -173.000;   75.000
865.616;  -36.900;  -33.000;  -40.000
865.863; -113.700; -462.000; -506.000
866.111; -182.300; -795.000; -824.000
866.358;   55.400; -426.000; -420.000
866.605; 4175.900;  -64.000; -804.000
866.853; 3194.800; -621.000; -537.000
867.100; -114.100; -728.000; -775.000
867.347; -172.600; -672.000; -611.000
867.594; -123.900; -740.000; -714.000
867.841;  147.800;   97.000;   17.000
868.089; -240.900; -746.000; -698.000
868.336; -169.100; -477.000; -420.000
868.583; -220.000; -637.000; -741.000
868.830;  -57.900; -131.000; -170.000
869.077; -260.500; -859.000; -787.000
869.324; -176.000; -502.000; -458.000
869.571; -183.700; -398.000; -430.000
869.818; -166.300; -485.000; -439.000
870.065; -144.600; -439.000; -513.000
870.311; -165.900; -456.000; -542.000
870.558; -112.900; -332.000; -311.000
870.805; -134.200; -320.000; -384.000
871.052; -165.900; -494.000; -369.000
871.298;  -86.200; -204.000; -131.000
871.545;  -59.600; -151.000; -185.000
871.792;  -80.500; -173.000; -222.000
872.038;  -79.600;   43.000; -126.000
872.285; -194.300; -496.000; -387.000
872.532; -117.300; -357.000; -387.000
872.778;   52.700;  556.000;  403.000
873.025;  -93.100; -384.000; -359.000
873.271;  134.500;  501.000;  578.000
873.517;  -27.100; -133.000; -209.000
873.764;  -39.000; -193.000;  -80.000
874.010;  -62.600; -143.000; -230.000
874.257;   12.600;  123.000;   90.000
874.503; -168.200; -579.000; -479.000
874.749;  -60.800;   31.000;  275.000
874.995;  -77.800;  -80.000;  -20.000
875.242; -199.000; -540.000; -478.000
875.488; -151.200; -414.000; -439.000
875.734;  -57.200; -106.000; -234.000
875.980;  311.400; -872.000;-1032.000
876.226;  456.000; -157.000; -255.000
876.472;   40.400;  343.000;  237.000
876.718;  -52.700;  184.000;  158.000
876.964;   -5.600;   56.000;   55.000
877.210; -215.800; -547.000; -677.000
877.456; -215.000; -630.000; -557.000
877.702; -285.100; -821.000; -832.000
877.948; -140.800; -377.000; -497.000
878.193;  116.100;  361.000;  255.000
878.439; -140.400; -487.000; -472.000
878.685; -112.800; -272.000; -343.000
878.931; -186.400; -618.000; -676.000
879.176; -120.100; -201.000; -201.000
879.422; -306.900; -933.000; -820.000
879.668;  180.900;   10.000;   79.000
879.913;  210.000;   53.000;  137.000
880.159;  -68.000; -112.000;  -17.000
880.404;  -23.000; -152.000; -162.000
880.650;  -14.000;   91.000;  141.000
880.895; -264.000; -670.000; -710.000
881.141; -170.200; -454.000; -428.000
881.386; -216.800; -503.000; -658.000
881.631; -145.000; -311.000; -166.000
881.877;    5.600;  112.000;  -13.000
882.122; -218.700; -684.000; -600.000
882.367; -114.000; -136.000; -186.000
882.612;  -68.400;  -80.000; -176.000
882.858; -288.700; -877.000; -823.000
883.103; -136.500; -297.000; -267.000
883.348; -242.800; -759.000; -852.000
883.593; -236.700; -677.000; -602.000
883.838;  -47.700; -311.000;  -24.000
884.083;  122.600;  353.000;  288.000
884.328; -132.700; -564.000; -545.000
884.573;  -77.100; -196.000; -143.000
884.818;  360.700; -694.000; -531.000
885.063;  230.700; -348.000; -315.000
885.308; -110.300; -475.000; -398.000
885.553;   51.900;  245.000;  325.000
885.797; -187.300; -545.000; -615.000
886.042;  -37.000;    8.000;   58.000
886.287; -109.800; -253.000; -211.000
886.532;  -37.200;   26.000;  204.000
886.776; -127.200; -407.000; -525.000
887.021; -242.200; -621.000; -574.000
887.265; -234.200; -685.000; -689.000
887.510; -201.300; -557.000; -496.000
887.755; -104.400; -194.000; -164.000
887.999; -224.400; -552.000; -575.000
888.244;  -38.800;  -58.000;  161.000
888.488;   76.700;  371.000;  393.000
888.732; -191.200; -368.000; -520.000
888.977; -205.800; -622.000; -567.000
889.221; -263.000; -683.000; -659.000
889.465; -200.000; -422.000; -566.000
889.710;  -69.800;  -56.000; -299.000
889.954;   79.800;  579.000;  467.000
890.198; -209.900; -584.000; -707.000
890.442; -272.200; -716.000; -712.000
890.687; -281.400; -800.000; -753.000
890.931; -129.200; -273.000; -210.000
891.175; -203.000; -502.000; -500.000
891.419; -102.100; -105.000; -110.000
891.663; -102.300; -239.000; -112.000
891.907; -283.700; -801.000; -545.000
892.151; -293.200; -920.000; -815.000
892.395; -174.600; -274.000; -387.000
892.638;   33.400;  408.000;  291.000
892.882; -300.700; -780.000; -867.000
893.126;  104.200;  758.000;  558.000
893.370; -102.800; -167.000; -168.000
893.614; -211.500; -714.000; -715.000
893.857; -103.100; -183.000; -197.000
894.101; -205.200; -527.000; -631.000
894.345;  -29.800;  300.000;  150.000
894.588;  112.700;  569.000;  380.000
894.832; -108.800; -178.000;  -84.000
895.075; -105.000;   15.000;  -92.000
895.319; -190.200; -552.000; -420.000
895.563; -160.100; -413.000; -353.000
895.806; -247.200; -628.000; -741.000
896.049;  -98.000; -576.000; -368.000
896.293;  187.300;  527.000;  405.000
896.536; -130.800; -465.000; -468.000
896.779;  -91.700; -149.000;   -1.000
897.023; -242.500; -751.000; -714.000
897.266;  -12.300;  325.000;  269.000
897.509; -301.900; -900.000; -901.000
897.752;   -2.300;  149.000;  171.000
897.996; -290.500; -972.000; -864.000
898.239;  -28.500;  168.000;  102.000
898.482; -141.600; -431.000; -453.000
898.725;  -14.800;  101.000;   53.000
898.968; -245.000; -609.000; -744.000
899.211; -198.700; -513.000; -361.000
899.454; -206.800; -633.000; -539.000
899.697;  -72.700;   90.000;  -43.000
899.940; -220.200; -761.000; -757.000
900.182; -169.400; -335.000; -405.000
900.425; -116.400; -150.000; -298.000
900.668;   35.100;  491.000;  350.000
900.911; -112.900; -292.000; -345.000
901.154;  -34.800;  141.000;   -3.000
901.396; -207.800; -407.000; -412.000
901.639; -216.600; -430.000; -496.000
901.882; -278.600; -790.000; -809.000
902.124; -102.900;  -29.000; -143.000
902.367; -165.800; -315.000; -361.000
902.609; -185.100; -476.000; -453.000
902.852;  -80.600; -108.000; -260.000
903.094; -202.000; -458.000; -337.000
903.337;   -8.800;  -26.000;   53.000
903.579; -140.200; -228.000; -441.000
903.821; -260.500; -597.000; -744.000
904.064;  -53.700;   85.000;  127.000
904.306; -105.500; -126.000; -166.000
904.548; -161.700; -152.000; -366.000
904.790; -120.800; -195.000; -340.000
905.033; -206.500; -625.000; -577.000
905.275; -180.100; -513.000; -524.000
905.517;  132.400;  468.000;  256.000
905.759; -154.100; -667.000; -761.000
906.001; -158.300; -322.000; -369.000
906.243;  -48.700; -162.000; -224.000
906.485;  232.400; -265.000; -207.000
906.727;  111.100; -499.000; -542.000
906.969;   -4.500;  -30.000; -135.000
907.211;  231.400; -316.000; -382.000
907.453;  397.100; -188.000; -237.000
907.695;   -6.800; -158.000; -385.000
907.936;  145.700;  818.000;  706.000
908.178;  -60.700;   92.000; -135.000
908.420;  -73.400; -111.000; -162.000
908.662; -202.100; -633.000; -682.000
908.903; -112.400; -208.000; -123.000
909.145;  -51.700; -240.000; -305.000
909.386;   39.900;  315.000;  280.000
909.628;  153.500;  363.000;  397.000
909.870;   41.800;   29.000;  264.000
910.111; -158.300; -809.000; -949.000
910.353;   73.200; -123.000; -161.000
910.594;   34.800; -574.000; -606.000
910.835;  220.200; -265.000; -326.000
911.077;  264.600; -503.000; -604.000
911.318;  524.600; -505.000; -471.000
911.559;  804.100; -577.000; -880.000
911.801; 2620.100; -284.000; -280.000
912.042;22764.000;  -50.000; -159.000
912.283;47135.600;  404.000;  371.000
912.524; 5651.200; -396.000; -457.000
912.765;  875.400; -193.000;   79.000
913.006;  498.500; -307.000; -338.000
913.247;  135.700; -270.000; -290.000
913.488;   25.200;  -43.000;   30.000
913.729; -116.800; -373.000; -373.000
913.970;  -72.000;  -96.000; -292.000
914.211;  -91.700; -160.000; -198.000
914.452;  -43.500; -118.000;  -11.000
914.693;  106.200;  510.000;  592.000
914.934;   84.500;  510.000;  440.000
915.175;  -50.300;   53.000;  -95.000
915.415;  -91.600; -137.000;   27.000
915.656;  -87.300;  -28.000;  192.000
915.897; -111.600; -252.000;  -82.000
916.137;  -86.700;   74.000;   -9.000
916.378; -198.000; -573.000; -517.000
916.619; -130.600; -159.000;  -63.000
916.859;    4.900;  303.000;  330.000
917.100;  346.500; 1655.000; 1070.000
917.340;  194.800;  930.000;  728.000
917.581;  168.900;  965.000;  789.000
917.821;   21.500; -171.000;  143.000
918.061;   -2.000; -199.000;  -72.000
918.302;  -56.500; -152.000; -211.000
918.542;    2.700;  -22.000;    3.000
918.782;  138.800;  369.000;  377.000
919.023;  257.100;  360.000;  427.000
919.263; 3578.300; 8131.000;  202.000
919.503; 1643.500; -137.000;  -54.000
919.743; 1016.900;  390.000;  266.000
919.983;  350.200; -134.000;  -26.000
920.223;  174.000;  135.000;   14.000
920.463;  300.400;  631.000;  554.000
920.703;  235.400;   84.000;   39.000
920.943;  281.800; -110.000;   90.000
921.183;  403.300; -414.000; -405.000
921.423;  908.100;  307.000;  546.000
921.663; 1216.300; -174.000; -257.000
921.903; 2828.600;  237.000;  173.000
922.143;17021.400;  372.000;  389.000
922.383;56818.100;  158.000;  115.000
922.622;14715.000; -120.000;  -15.000
922.862; 1856.000;  796.000;  785.000
923.102;  738.000;  -51.000;   33.000
923.341;  319.000;   59.000;   74.000
923.581;  170.200;  450.000;  360.000
923.821;   88.000;  301.000;  398.000
924.060;   85.200;  351.000;  193.000
924.300;  -76.400;  -16.000; -128.000
924.539;   67.600;  584.000;  473.000
924.779;   87.900;  812.000;  597.000
925.018;  -36.400;  247.000;  353.000
925.257;   33.300;  595.000;  666.000
925.497;   -1.700;  447.000;  412.000
925.736;  -89.100;  -35.000;  102.000
925.975;   85.400;  687.000;  669.000
926.214;  150.600;  907.000;  850.000
926.454;  111.300;  706.000;  757.000
926.693;   -7.900;  419.000;  543.000
926.932;  173.300; 1021.000;  825.000
927.171;  214.700; 1107.000; 1044.000
927.410;  223.300; 1144.000;  967.000
927.649;  145.800;  924.000;  742.000
927.888;   83.000;  590.000;  564.000
928.127;   63.800;  680.000;  678.000
928.366;  129.300;  842.000;  826.000
928.605;  159.400;  831.000;  737.000
928.844;  523.200; 1451.000; 1393.000
929.083; 1025.200;  770.000;  613.000
929.321;  515.200; 1335.000; 1359.000
929.560;  218.200; 1158.000; 1122.000
929.799;   13.400;  574.000;  475.000
930.038;  273.900; 1025.000; 1394.000
930.276;  -30.400;  334.000;  397.000
930.515;   51.100;  827.000;  681.000
930.753;   29.800;  614.000;  589.000
930.992;   -0.500;  664.000;  717.000
931.230;   87.900;  847.000;  847.000
931.469;  437.100; 2162.000;  892.000
931.707;  242.000;  840.000;  751.000
931.946;  183.500; 1278.000; 1344.000
932.184;  210.300; 1437.000; 1175.000
932.423;  209.800; 1265.000;  963.000
932.661;  250.600; 1296.000; 1428.000
932.899;   94.500;  987.000;  821.000
933.137;   71.300;  754.000;  564.000
933.376;  350.100; 1664.000; 1335.000
933.614;  395.500; 1759.000; 1196.000
933.852;  160.800; 1357.000; 1171.000
934.090;  362.400; 1722.000; 1747.000
934.328;  248.300; 1252.000; 1457.000
934.566;  233.200; 1431.000; 1110.000
934.804;  305.000; 1263.000; 1309.000
935.042;  926.400; 1861.000; 1850.000
935.280; 3461.300; 2088.000; 2063.000
935.518; 2592.000; 2113.000; 2007.000
935.756;  666.100; 2481.000; 2316.000
935.994;  405.100; 1808.000; 1751.000
936.231;  740.100; 2890.000; 2950.000
936.469;  472.400; 2367.000; 2378.000
936.707;  426.700; 2220.000; 2167.000
936.945;  567.900; 2825.000; 2882.000
937.182;  495.200; 2679.000; 2741.000
937.420;  718.200; 3602.000; 3031.000
937.657;  883.400; 3365.000; 3478.000
937.895;  780.700; 3331.000; 3488.000
938.133;  685.600; 3540.000; 3528.000
938.370;  715.900; 3896.000; 4191.000
938.607;  909.500; 4488.000; 4205.000
938.845; 1202.200; 5587.000; 5549.000
939.082; 1089.300; 5387.000; 5177.000
939.320; 1256.300; 5799.000; 5728.000
939.557; 1382.800; 6549.000; 6491.000
939.794; 1551.600; 7285.000; 7097.000
940.031; 1871.800; 8421.000; 8368.000
940.269; 2207.700; 9552.000; 9107.000
940.506; 2349.500;10901.000;10507.000

