
Integration time [ms]: 200.000
Averaging Nr. [scans]: 10
Smoothing Nr. [pixels]: 0
Data measured with spectrometer [name]: 2101013U2
Wave   ;Sample   ;Dark     ;Reference
[nm]   ;[counts] ;[counts] ;[counts] 

394.013;   48.323; -450.257; -315.536
394.305;  357.720; -461.258; -419.536
394.596; 2120.570; -676.269; -527.514
394.887; 5238.895; -796.268; -654.518
395.178; 2059.439;  145.736;   11.476
395.470;  137.255; -210.263; -356.526
395.761;  377.716;  305.734;  394.479
396.052;  575.588; -545.284; -306.489
396.343;  536.590; -557.276; -454.503
396.634;  145.845; -200.279; -290.497
396.926;  114.291; -618.268; -565.517
397.217;  167.397;   11.725;  -17.504
397.508;   20.120; -366.273; -154.507
397.799;   36.845; -555.279; -571.497
398.090;  -44.664; -973.280; -902.495
398.381;  153.079;   11.708;  -11.473
398.672;  -82.919; -585.292; -742.473
398.963;   63.053; -348.279; -373.498
399.254;  192.194;   54.709; -209.475
399.545;  -97.089;-1017.266; -883.520
399.836;   55.574; -407.277; -343.501
400.127;   85.245; -205.295; -209.468
400.418;   33.912; -423.274; -392.506
400.709;   78.518; -359.281; -333.493
401.000;   67.300; -268.291; -309.476
401.290;  198.453;  225.698;  115.545
401.581;   85.863; -166.286; -228.485
401.872;   14.404; -542.298; -486.462
402.163;   89.334; -313.296; -252.467
402.454;  186.895; -123.291; -163.475
402.744;   58.221; -844.297; -813.465
403.035;  647.167; -226.293;  -86.471
403.326;  757.285; -366.292; -384.474
403.617;  614.996;  204.701;  165.539
403.907;  441.897; -593.283; -679.490
404.198; 4592.186; -545.307; -599.446
404.489;11729.504; -618.283; -588.491
404.779; 3856.158; -618.302; -660.456
405.070;  398.227;  -67.304; -174.451
405.360;  633.770; -259.293; -238.472
405.651;  682.774;  125.699;   98.542
405.942;  354.056;  209.714;  127.516
406.232;  346.778; -432.285; -413.487
406.523;  761.759;  641.706;  758.530
406.813;   86.560; -579.286; -644.484
407.104;  526.078;  261.708;  144.527
407.394;  230.898; -604.299; -591.462
407.685;  267.476;  336.715;  222.513
407.975;   99.302; -400.283; -382.490
408.265;  192.116; -134.289; -190.478
408.556;   92.991; -472.291; -459.475
408.846;  347.760;  474.706;  429.530
409.137;  161.028;   -1.288; -216.480
409.427;   64.377; -193.285; -271.487
409.717;   10.024; -776.273; -692.508
410.007;  216.168;    4.715; -170.486
410.298;  152.749; -360.295; -342.469
410.588;  114.273; -495.285; -510.486
410.878;    7.345; -792.287; -873.482
411.168;  168.308; -481.298; -478.463
411.459;  172.894; -295.283; -242.489
411.749;   92.489; -609.292; -507.474
412.039;   85.626; -755.289; -386.480
412.329;  389.064;   40.722;  132.501
412.619;  309.760;  -62.286; -148.485
412.909;  690.620;  639.711;  594.521
413.199;  532.037; -130.280; -251.495
413.490;  710.506;  521.710;  352.523
413.780;  166.343;-1013.279; -913.496
414.070;  594.791;  -46.276;  235.497
414.360;  548.258; -729.278; -666.498
414.650;  677.039; -726.288; -688.482
414.940;  889.742; -538.280; -441.496
415.230; 1595.134;   50.712;   74.519
415.520;11061.769;  155.730;   66.486
415.809;43928.917; -305.281; -125.493
416.099;34560.977; -388.277; -229.501
416.389; 9638.408;  435.726;  236.494
416.679; 5762.461;   91.738;   85.473
416.969;  957.951; -527.287; -503.483
417.259; 1100.145;  341.721;  171.503
417.549; 1224.615;  522.718;  318.508
417.838; 3024.294; -205.268; -147.518
418.128;10195.114;  650.710;  492.522
418.418; 8602.833; -491.272; -579.509
418.708; 5613.409;    9.726;  -48.506
418.997;21202.002; -474.275; -480.505
419.287;22755.318; -733.273; -790.507
419.577;21316.893; -160.283; -123.489
419.866;64332.774; -588.277; -498.501
420.156;64285.363; -242.270;  -55.513
420.446;13034.750; -112.263;  -26.526
420.735; 1430.655; -376.271; -446.512
421.025; 1604.657; 1830.722;  315.502
421.314; 1059.052; -203.271; -226.512
421.604; 1923.983;   89.732;  233.484
421.893; 1080.347; -705.271; -602.511
422.183;  398.250; -487.263; -461.526
422.472;  683.549;  -36.271; -107.511
422.762;  766.520; -416.266; -379.521
423.051;  384.092; -916.276; -916.503
423.341;  474.021; -491.273; -439.507
423.630;  686.529; -121.265;   15.477
423.919;  650.501;   58.725;   49.495
424.209;  644.458;  -31.263;   56.473
424.498;  905.690;   68.732;  161.483
424.787; 1838.399; -535.267; -601.518
425.077; 5806.226;   34.735;   29.478
425.366; 7314.066; -734.262; -744.528
425.655;17453.622;  639.727;  259.493
425.945;40057.553; -313.247; -268.554
426.234;22886.199;  117.741;  300.467
426.523; 9033.906;  -86.259; -350.534
426.812;12635.814;  107.734;  159.480
427.101;18348.778; -127.269; -323.515
427.390;23153.869;  -55.270;  -86.514
427.680; 4591.835; -624.257; -411.538
427.969;  773.651; -330.255; -301.540
428.258;  469.023; -385.257; -477.536
428.547;  854.439;  449.728;  397.490
428.836; 1679.274; -421.253; -398.543
429.125; 2383.209; -199.259;  -72.534
429.414; 1311.507; -330.251; -294.548
429.703; 5514.907; -231.251; -213.548
429.992;16839.512; -938.250; -828.549
430.281;11380.439; -397.264; -331.524
430.570; 1032.393;  -21.252;   32.454
430.859;  893.306;  279.741;  352.466
431.148;  816.347;  636.752;  631.446
431.437;  523.193;  391.748;  367.454
431.725;  253.125; -544.257; -481.536
432.014;  201.285; -845.253; -756.545
432.303;  590.357; -149.239; -105.569
432.592;  955.549; -460.263; -178.525
432.881; 1770.449; -601.248; -437.554
433.169;11173.652; -343.255;  -61.540
433.458;22716.806;  445.765;  540.424
433.747; 9657.974; -397.261; -289.529
434.036; 1427.322; -275.242; -280.564
434.324; 3635.330; -395.249; -379.551
434.613; 6507.213;   40.757;  159.437
434.902; 2147.743;  333.760;  439.433
435.190;  781.455;   75.761;  295.431
435.479;  458.286;  -52.245;   83.441
435.767;  141.798; -411.244; -427.561
436.056;  331.516; -340.242; -294.563
436.345;  601.846; -372.240; -223.568
436.633;  685.924;   60.750;  383.450
436.922;  452.350;  208.760;  414.432
437.210;  729.292; -194.236;    1.426
437.499; 2082.204; -583.235; -432.576
437.787; 2437.991; -339.236;  -10.574
438.075;  707.464;   56.761;  162.430
438.364;  937.567;  -44.238;  250.429
438.652;  582.619; -286.226; -138.592
438.941;  247.767;    3.770;  269.415
439.229;  -50.011; -665.252; -466.545
439.517;   40.916; -160.234;  -85.577
439.806;  -16.058; -501.225; -290.595
440.094;  325.527;  377.766;  650.421
440.382;  215.832; -653.233; -302.580
440.670;  283.503; -361.235; -285.576
440.959;   -7.533; -347.223; -170.599
441.247;   91.284; -151.229; -109.587
441.535;  116.113; -266.235;   31.423
441.823;   27.523; -497.234; -305.578
442.111;  314.690;  173.771;  327.412
442.400;  645.385; -628.245; -335.559
442.688; 1660.226; -111.234; -620.579
442.976; 1105.095; -786.213; -450.617
443.264;   95.252; -324.224; -364.597
443.552;  136.321; -258.226;   51.408
443.840;  324.211;  602.765;  876.423
444.128;  207.031;  265.767;  269.420
444.416;  -26.206; -694.228; -312.588
444.704;   38.210; -465.219;  -92.605
444.992;   96.525;   -0.226;  240.407
445.280;   72.668; -517.230;  -94.585
445.568;   28.200; -694.212; -396.618
445.856;  425.587; -174.221;  357.398
446.143;  946.005;  -54.220;   -7.604
446.431;  813.799;  -25.228;  625.411
446.719;  399.638;  489.783;  675.391
447.007;  330.960;  481.769;  705.416
447.295;  346.463;  597.777;  871.402
447.583;   97.480; -464.229;  -34.587
447.870;  227.683; -434.221; -202.601
448.158;  548.666; -104.230;  129.415
448.446;  359.507; -800.219; -338.604
448.733;  264.154;   13.776;  269.403
449.021;  346.899;   60.788;  341.382
449.309;  291.521; -296.210;  208.379
449.596;  350.133;  128.783;   59.392
449.884;  237.373; -571.222; -325.600
450.172;  197.607; -756.227; -406.590
450.459;  793.371;  645.786;  780.387
450.747; 4113.631; -411.218; -147.608
451.034;13549.901;  493.772;  889.411
451.322;11482.575; -413.214; -170.614
451.609; 1069.256;  292.777;  508.403
451.897; 1028.613; -550.203; -183.634
452.184; 3211.964; -622.223; -400.598
452.472; 2990.452;   97.792;  269.375
452.759;  630.607;  512.781;  864.395
453.047;  139.396; -407.212; -125.617
453.334;   82.119; -732.219; -216.606
453.621;  121.778; -438.214; -161.615
453.909;  212.201;   13.796;  384.368
454.196;  141.367; -299.199; -123.641
454.483;  379.131;  317.798;  540.364
454.771;  240.357; -215.208;  196.374
455.058;   86.061; -316.207;  102.374
455.345;  228.247;   71.807;  344.347
455.632;  203.466; -128.207;  235.373
455.919;  106.699;  -82.196;  182.354
456.207; -150.127; -774.198; -450.642
456.494;  -49.951; -475.200;  -66.639
456.781;   25.225; -399.202; -198.635
457.068;   64.876; -253.206;  -29.628
457.355;  -39.523; -698.206; -401.629
457.642;  -44.915; -552.205; -290.630
457.929;  -19.766; -778.194; -417.651
458.216;   72.596; -575.212; -354.617
458.503;  445.041; -173.193;  -19.652
458.790;  365.853; -864.208; -630.625
459.077;  464.632;  -77.202;  110.364
459.364; 1374.324; -350.195; -210.649
459.651; 2926.773;  -46.206;  220.372
459.938; 1298.140; -864.209; -665.623
460.225;  276.137;  132.799;  276.363
460.512; -122.005; -836.197; -688.645
460.799;  169.229;  -32.218;  320.392
461.086;  107.756; -370.200; -251.640
461.372;   43.674; -509.198; -279.642
461.659;  155.601; -165.196;  108.354
461.946;   81.439; -445.193;  -54.651
462.233;  435.652;  842.800;  888.361
462.519;  503.148; -814.201; -464.639
462.806; 1709.696; -768.197; -497.645
463.093; 1519.769; -445.191;  -66.656
463.380;  -73.572; -920.186; -824.664
463.666;   86.399; -259.197;  -18.646
463.953;  128.916; -406.195; -243.648
464.239;  322.916; -173.195;  -77.648
464.526;  670.032;  413.806;  743.350
464.813;  481.585; -565.190; -304.658
465.099;  572.840;  606.807;  607.348
465.386;  569.446;  903.807;  921.348
465.672;  -26.704; -694.197; -522.645
465.959;   17.311; -598.188; -520.662
466.245;   28.646; -468.193; -359.652
466.532;  151.213; -109.195;   63.352
466.818;   97.628; -357.186; -216.664
467.104;  -20.514; -488.182; -415.672
467.391;  -49.312; -628.189; -459.658
467.677;   62.733; -289.186;    9.335
467.964;  -28.602; -682.189; -471.660
468.250;   64.637; -331.186; -160.665
468.536;  141.090;   90.811;  180.341
468.822;  -69.146; -821.184; -574.668
469.109;  320.403;  351.827;  471.311
469.395;  398.760;  729.808;  787.346
469.681;  337.794;   46.811;  156.341
469.967; 2157.901; -699.188; -382.660
470.254; 4575.913; -494.188; -306.662
470.540; 3094.899; -601.196; -476.646
470.826;  369.602; -488.181; -397.675
471.112;  539.860;  288.816;  113.331
471.398;  151.666; -253.183;  -58.670
471.684;   48.743; -626.177; -447.680
471.970;  -61.592; -918.180; -981.675
472.256;   14.558; -521.192; -441.654
472.542;    4.519; -499.171; -434.691
472.828;   16.581; -743.182; -607.672
473.114;   55.682; -380.166; -283.700
473.400;   61.267; -504.175; -293.684
473.686;    5.392; -452.166; -400.701
473.972;   87.489; -230.174; -131.687
474.258; -110.296; -925.173; -843.689
474.544;  315.632; -183.178;   -2.679
474.830;  608.870;  -65.175;   45.316
475.116;  864.988; -123.190; -196.658
475.401; 1174.211; -558.180; -467.676
475.687;  331.210; -725.180; -718.676
475.973;  -61.008; -673.181; -770.673
476.259;  457.073;  736.825;  764.315
476.544;  602.155; -539.176; -437.682
476.830; 1409.014; -398.172; -322.690
477.116; 1298.053; -430.177; -336.682
477.401;  263.411;  346.820;  358.324
477.687;  -42.532; -289.175; -405.684
477.973;   84.597;   21.819;   28.326
478.258;  -51.279; -448.163; -348.706
478.544;   93.645;   21.815;   61.334
478.829; -114.973; -818.171; -738.692
479.115;  -80.187; -749.172; -651.690
479.401;  -29.718; -444.174; -449.686
479.686;   99.909; -253.180;  -74.676
479.972;  -54.561; -886.178; -776.680
480.257;   85.385; -258.166;  -65.700
480.542;  -34.067; -614.170; -469.693
480.828;  507.565; 1288.824; 1392.317
481.113;  -52.338; -464.176; -426.683
481.399;  -26.144; -236.161; -202.711
481.684; -101.416; -620.166; -462.700
481.969;   45.575; -158.159;  -73.713
482.255;  -21.751; -439.169; -285.695
482.540;  -13.861; -569.178; -441.680
482.825;  -17.979; -395.187; -404.663
483.110;  174.953;  -85.169; -105.696
483.396;  305.107; -840.157; -652.718
483.681;  902.289;  543.826;  730.313
483.966;  251.367; -696.160; -700.712
484.251;   -8.413; -404.174; -310.687
484.536;   14.099; -356.165; -378.703
484.822;   44.692; -205.173; -218.687
485.107;  -51.938; -599.152; -502.726
485.392;  265.708;  662.836;  541.296
485.677;  159.667;  354.832;  163.302
485.962;  214.403;  160.843;  270.283
486.247;  159.533;  -14.162;   -8.707
486.532;  115.486; -178.166; -325.701
486.817;  269.548;  381.839;  431.291
487.102;  168.137; -453.154; -514.722
487.387; 1178.909; -637.156; -652.718
487.672; 2077.315; -154.164;  -38.705
487.957; 1277.358; -394.160; -286.711
488.241;  363.586; -290.150; -314.729
488.526; 1243.064; -280.152; -148.726
488.811; 2004.042; -881.177; -818.680
489.096; 1523.541; -666.154; -702.723
489.381;  883.559;    3.847;  162.275
489.666;  655.555; -428.161; -510.710
489.950;  359.746;  558.846;  627.277
490.235;  -57.921; -480.151; -458.728
490.520; -105.746; -756.161; -723.710
490.804; -111.788; -827.156; -736.719
491.089;    0.209; -469.149; -299.732
491.374;   70.813; -132.164;  -75.704
491.658;  -70.674; -817.147; -717.735
491.943;  204.070; -657.152; -609.727
492.227;  400.231; -178.155;  -38.721
492.512;   59.502; -294.157; -341.717
492.797; -158.500; -713.149; -716.731
493.081; -129.970; -588.147; -598.735
493.366; -122.944; -751.161; -635.711
493.650;  410.007;  831.859;  917.254
493.935;   51.125; -648.147; -447.734
494.219; -120.612; -778.142; -687.743
494.503;  -91.507; -585.150; -487.730
494.788;  105.290;   46.842;   74.285
495.072;  219.588;  184.850;  434.271
495.356;  230.814; -463.148; -343.733
495.641;  640.039; -812.146; -736.736
495.925;  591.219; -976.156; -903.719
496.209;   40.508; -599.149; -451.732
496.494;  -92.811; -763.142; -544.744
496.778;   49.537; -364.154; -360.722
497.062; -119.781; -819.156; -627.719
497.346;  -53.539; -869.160; -640.711
497.631;  307.219;  580.852;  560.266
497.915;  135.554;  -64.145;  175.261
498.199;   80.207; -341.157; -277.718
498.483;   43.761; -562.152; -508.725
498.767;  361.290;  301.850;  300.271
499.051;  329.505; -126.149; -100.732
499.335;   23.902; -693.149; -739.731
499.619;  -58.247; -381.129; -423.767
499.903;   45.329; -272.155;  -65.721
500.187;   47.548; -588.153; -316.724
500.471;  -35.331; -796.152; -595.727
500.755;  175.154;   62.839;  -96.710
501.039;   30.430; -270.155; -357.721
501.323;  147.909;  -21.141;  264.254
501.607;   12.322; -447.163; -503.706
501.891;  -32.991; -607.156; -512.718
502.174;  -94.029; -726.144; -585.741
502.458;  133.375;   89.849;  370.273
502.742;   65.044; -180.138; -191.751
503.026;  172.824; -412.147; -254.734
503.310;  323.274; -437.159; -375.713
503.593;  225.427; -464.147; -325.735
503.877;  159.402; -232.133; -156.760
504.161;  255.651;    2.847;  -50.724
504.444;  114.793; -841.158; -710.716
504.728;  760.512; -487.164; -522.704
505.012; 1180.185; -257.150;  -76.729
505.295;  882.756; -417.161; -212.711
505.579;  897.418; -256.156; -496.719
505.862; 1283.549; -555.145; -333.738
506.146; 1222.977; -681.159; -758.714
506.429;  755.078;  568.841;  461.286
506.713;   75.981; -732.151; -667.728
506.996;  566.337;   90.846;  295.278
507.280;  544.905; -633.165; -474.703
507.563;  385.327; -469.155; -261.721
507.847;  165.549; -423.153; -112.724
508.130;  163.557; -665.161; -456.711
508.413;  180.478; -758.167; -577.700
508.697;  456.579; -151.167;   12.300
508.980;  232.751; -422.153; -312.724
509.263;  -21.678; -466.155; -450.720
509.547;   44.185; -124.150;   82.271
509.830;  123.660; -172.160;  140.289
510.113;  151.318;  128.844;  298.281
510.396;   35.559; -530.152; -300.725
510.680;  131.751; -818.145; -812.738
510.963;  716.543;  184.846;  180.277
511.246;  514.896; -493.150; -357.730
511.529;  366.358; -482.145;  -83.739
511.812;  609.797; -250.134;   10.241
512.095;  460.577; -740.151; -396.728
512.378;  113.232; -317.147; -245.736
512.661;   21.555; -703.137; -623.753
512.944;   20.591; -750.142; -637.744
513.227;  138.551; -170.137; -171.752
513.510;   30.970; -479.144; -671.741
513.793;   44.815; -485.140; -435.747
514.076;  242.283;  -43.127;  -39.771
514.359;  206.509; -294.149; -135.732
514.642;  103.995; -442.142; -567.744
514.925; 1400.213;  581.860;  561.253
515.208; 1672.892; -498.134; -443.758
515.491; 1152.012; -276.133; -182.761
515.773;  651.876; -410.143; -337.742
516.056; 3633.464;  249.864;  409.246
516.339; 4691.770; -754.136; -652.755
516.622; 2873.693; -518.150; -488.730
516.904; 1603.586;  882.857;  975.257
517.187;  654.049; -730.138; -523.752
517.470;  586.584; -568.143; -510.743
517.752;  688.874; -624.136; -470.756
518.035;  543.131; -708.139; -725.749
518.318;  621.770; -799.136; -744.755
518.600; 4157.717; -300.132; -325.762
518.883; 5762.394;  310.858;   88.256
519.165; 2738.838; -585.138; -426.751
519.448;  575.517;  -61.132;  -19.762
519.730;  272.594; -573.126; -415.773
520.013;  527.506;  588.867;  664.240
520.295; 1004.200;  -94.134;  -15.759
520.578; 2141.335; -335.131; -305.764
520.860; 2484.817; -254.132;   56.238
521.143; 1293.777; -763.135; -584.756
521.425;  742.913; -251.125; -279.775
521.707; 1117.684; -622.127; -380.771
521.990; 2984.385; -199.127;  167.229
522.272; 3485.618; -116.140;   -4.748
522.554; 1463.877; -237.143; -157.742
522.836;  454.397;  -24.134;   99.241
523.119;  281.222; -496.148; -189.734
523.401;  221.046; -448.130; -314.766
523.683;  100.955; -865.137; -693.753
523.965;  535.846;  408.862;  260.248
524.247;  505.044;   54.878;  170.220
524.529;  294.999; -451.134; -367.759
524.812;  609.048;   -3.130;  191.234
525.094; 1402.145; -773.138; -631.751
525.376; 2321.626; -143.124;   78.223
525.658; 1385.466; -441.136; -339.754
525.940;   12.631; -805.131; -671.764
526.222;   42.871; -188.136;  -88.755
526.504;  117.328; -190.131;   32.237
526.786;  160.703; -960.133; -647.760
527.068;  365.434; -124.123;  -67.778
527.349;   86.061; -865.137; -774.754
527.631;  217.516; -137.132;   22.238
527.913;  174.383; -664.127; -450.771
528.195;  245.803; -761.125; -639.774
528.477;  417.192;  -93.134;  -30.758
528.759;  189.248; -648.130; -522.766
529.040;   71.332; -569.123; -293.778
529.322;   84.807; -235.125;  -10.774
529.604;  215.751;  -47.130;   93.233
529.886;  130.694; -546.126; -302.773
530.167;  231.839;  232.870;  192.235
530.449;   76.332;    1.853;   63.265
530.731;   29.042; -572.122; -459.779
531.012;   87.673; -513.120; -216.784
531.294;  148.629; -118.116;  -43.792
531.575;  279.813;  290.875;  538.225
531.857;  100.785; -548.135; -266.757
532.138;  166.307; -113.141;   40.254
532.420;  287.879;  294.865;  403.244
532.701;  183.007; -722.133; -751.760
532.983;  463.811;  232.867;  182.239
533.264;  160.291; -243.126;  175.228
533.546;  -68.529; -491.136; -508.755
533.827;   99.402;  173.867;   -1.759
534.109;   61.485; -352.135;  -80.757
534.390;   71.622; -725.132; -582.762
534.671;  374.979; -270.135;  -82.756
534.953;  143.836; -751.123; -611.779
535.234;   21.008; -426.117; -255.789
535.515; -152.115; -891.119; -735.785
535.796;  -30.123; -431.128; -193.770
536.078; -222.274;-1050.124; -904.777
536.359;    6.337;  -22.123;    3.221
536.640;  -65.495; -480.125; -197.774
536.921;  305.459;  225.871;  143.232
537.202;  646.640;  -87.138;  -16.751
537.483;  774.435;  251.869;  377.236
537.764;  332.439;   17.870;   98.235
538.045;  -76.409; -543.134; -371.758
538.326; -112.939; -596.129; -447.768
538.607;   -0.215; -686.127; -476.771
538.888;  261.560;   98.879;    5.218
539.169;  306.852; -704.122; -535.781
539.450;  516.157;  236.871;   16.233
539.731;  334.365; -361.121; -182.783
540.012;  221.573;  199.880;  412.216
540.293;  159.718;   82.876;  158.224
540.574;  -56.641; -895.113; -717.796
540.855;  684.463;  435.879;  377.218
541.136;  788.548;   47.878;  139.220
541.416;  465.949; -161.130; -220.766
541.697;  363.928; -274.131; -170.763
541.978; 1714.382; -270.135; -315.757
542.259; 2166.085; -211.127; -236.771
542.539; 1109.820; -191.116; -186.790
542.820;  334.512;  461.875;  480.225
543.101;  182.953;  -52.145;  -77.738
543.381;   -7.616; -638.127; -591.771
543.662;  459.381;  159.873; -254.771
543.942;  880.078; -751.127; -830.770
544.223; 1729.150;  193.878;  161.219
544.504; 1089.925; -275.124; -182.777
544.784;  982.894; -592.126; -408.773
545.065; 2760.626;  104.884; -254.791
545.345; 3195.785;  227.881;   14.215
545.626; 2142.858;  -14.113; -108.796
545.906; 1462.738;   77.869;   98.235
546.186;  629.800;   92.874;  -95.773
546.467;  337.529;   99.877;  -95.778
546.747;  562.720;  264.884;  327.210
547.027;  682.323;   91.876;  111.223
547.308;  514.877; -376.127; -530.770
547.588;  696.762;  299.871;  371.232
547.868;  373.840;  458.870;  588.235
548.149;  389.936;  609.885;  593.207
548.429;  214.382; -347.127; -299.771
548.709;  316.772; -645.120; -461.784
548.989;  849.199;   84.882;   88.213
549.269; 3571.214;   10.868;  139.239
549.550; 7933.035;  215.877;  117.222
549.830; 7285.884; -758.111; -556.799
550.110; 1437.195; -468.110; -320.801
550.390; 1426.943; -128.122;  -56.779
550.670; 1730.152; -868.114; -783.795
550.950; 1376.263; -509.121; -471.782
551.230;  391.757;  549.879;  460.218
551.510;   10.261; -381.121; -326.782
551.790;   54.906; -173.109; -127.803
552.070;  578.529;  940.877; 1181.223
552.350;  699.291; -492.119; -377.786
552.630; 1024.854;   -2.121;   77.219
552.909;  567.426;  181.884;   73.209
553.189;  428.024;  -49.132;   33.237
553.469;  258.190; -703.119; -514.786
553.749;  322.787; -469.127; -357.772
554.029;  314.414;   33.883;  -24.790
554.308;  301.443; -154.115;  -37.794
554.588;  100.476; -196.128; -204.770
554.868;  130.064; -366.121;  -47.782
555.147;  262.538; -114.115;  -46.793
555.427; 1056.430; -260.116; -250.792
555.707; 6618.735; -284.115; -200.793
555.986; 7780.189; -719.111; -538.800
556.266; 4227.718;   23.884;   72.210
556.546;  213.761; -888.121; -675.782
556.825;  430.149; -657.114; -556.794
557.105; 3070.972; -125.128;   17.230
557.384; 3520.025;  122.884;  187.209
557.664; 1331.129; -717.116; -508.792
557.943;  166.063; -557.121; -411.782
558.222;  312.103; -345.118; -344.788
558.502;  429.840; -116.115;  -76.793
558.781;  871.034;  194.885;  499.208
559.061;  679.203; -232.118; -227.788
559.340;  545.810;  302.883;  353.211
559.619; 1209.118;   93.884;  148.210
559.899; 1708.613; -239.117; -266.789
560.178; 1548.840; -778.115; -593.793
560.457; 5416.915; -623.117; -562.790
560.736; 7112.391; -472.111; -482.800
561.015; 4911.869; -500.128; -502.769
561.295;  670.435;  180.893;  215.193
561.574;  578.736;  119.885;  116.207
561.853;  843.912;  274.891;  303.197
562.132;  876.543;  -45.114;  182.206
562.411;  779.854;  396.879;  553.219
562.690;  219.833; -592.115; -458.792
562.969;  280.068;  472.888;  630.203
563.248; 1042.051; 2966.878; 2487.219
563.527;  440.890; -290.111; -408.800
563.806;  625.782; -650.127; -521.771
564.085;  691.557; -297.105; -206.810
564.364;  421.617; -594.117; -405.790
564.643;  906.655; -276.121; -223.781
564.922; 3227.104;  221.890;  397.198
565.201; 3080.209; -640.109; -700.803
565.479; 1444.932; -297.115; -219.792
565.758;  521.573; -810.128; -712.770
566.037;  825.011; -155.109; -100.803
566.316;  393.225; -286.116;  -28.791
566.595;   83.336;  -17.115;  -12.793
566.873;  208.793; -166.111;  -79.801
567.152;  -83.832; -490.113; -590.797
567.431;   71.019; -113.116;    6.210
567.709;   37.635; -344.107; -212.807
567.988;  398.648; -810.114; -769.794
568.266;  864.336; -160.115;  -68.793
568.545;  661.825; -644.100; -514.819
568.824;  992.131;  160.885;  356.208
569.102;  819.148; -351.114; -235.794
569.381;  370.530; -492.116; -407.792
569.659;  -89.138; -553.113; -553.796
569.938;   72.349; -743.122; -465.780
570.216;  164.614; -225.109; -225.804
570.494;  -33.847; -632.114; -572.795
570.773;  122.961;  202.879;  114.218
571.051;   55.433; -373.123; -357.778
571.330;   89.359; -221.113; -174.796
571.608;   81.951; -181.098; -173.823
571.886; -164.819; -671.111; -581.799
572.164; -135.936; -739.121; -621.782
572.443; -100.538; -562.105; -512.811
572.721;  -53.685; -399.117; -289.790
572.999;  -48.394; -280.117; -168.788
573.277;  229.153;  379.894;  620.191
573.555;  534.256;   94.894;   37.190
573.834; 2310.105;  -86.117; -114.788
574.112; 2651.839;  880.893;  811.193
574.390;  870.491; -143.111;  -96.801
574.668;   20.769;  -91.112;  -61.797
574.946;   27.356; -165.106; -187.810
575.224;   20.309;   71.891;  -16.803
575.502;   -7.978; -200.116; -204.791
575.780; -162.829; -767.112; -829.798
576.058;  332.690; 1589.889; 1004.200
576.336;  -32.302; -210.110; -129.801
576.614;  -84.729; -511.112; -340.798
576.891;   75.042; -711.115; -823.794
577.169;  837.226; -158.108; -285.805
577.447;  983.938;  169.893;  202.193
577.725;  543.878;  629.888;  854.201
578.003;   11.475;  -71.112; -371.798
578.280;  174.475; -208.104; -242.812
578.558;   70.640; -450.115; -422.793
578.836;  221.152; -210.114; -145.795
579.114;   16.169; -630.112; -670.797
579.391;  135.008;   -6.117;  -18.789
579.669; -154.557; -595.114; -704.794
579.947;  329.933; -326.107; -127.806
580.224;  486.433; -692.107; -524.806
580.502;  544.739;  127.893;   76.193
580.779;   61.817;  -42.117;   75.210
581.057; -120.085; -584.109; -470.804
581.334; -168.603; -726.102; -695.815
581.612;   93.557;   54.895;  511.190
581.889;  -56.684;  -83.101; -129.818
582.167;  -44.663; -298.099; -190.821
582.444; -186.192; -845.102; -814.817
582.721;  215.609;  657.899;  715.183
582.999;  117.433; -326.100; -167.821
583.276;  892.939; -812.123; -713.779
583.553; 1147.401; -364.102; -294.816
583.831;  380.071; -607.104; -631.812
584.108;  112.023;  349.892;  174.195
584.385;   14.196; -122.102;  -98.815
584.662; -132.707; -651.111; -828.801
584.940;   94.292;  204.889;  204.199
585.217;  -46.938;  -73.113; -303.796
585.494;   83.405;   71.890;  118.198
585.771;  320.616; -250.109; -354.804
586.048;  838.062; -196.113;  -76.796
586.325;  506.597; -721.110; -773.801
586.602;  184.076;  230.896;  213.188
586.879;  -23.372; -499.100; -580.820
587.156;  104.359; -156.105; -331.810
587.433; -108.595; -701.102; -667.817
587.710;  150.972;  152.888;  234.202
587.987;  501.066; -264.105; -236.811
588.264; 1328.674;  315.888;  387.202
588.541; 2259.179;  -61.104;   26.187
588.818; 4289.919;   72.892;  171.196
589.095; 3766.473; -163.104; -174.812
589.371;  621.413; -459.109; -414.804
589.648;    2.139; -581.107; -437.807
589.925;   49.254; -517.114; -621.795
590.202;    9.971; -741.112; -607.798
590.478;  183.869; -166.105;  -73.811
590.755;  467.828; -241.108; -132.806
591.032; 4131.100; -741.110; -699.802
591.308; 5433.109; -732.094; -790.831
591.585; 2932.499; -573.110; -560.802
591.862;  184.907;-1056.102; -950.817
592.138;   89.224; -475.108; -474.805
592.415;  234.177; -486.104; -495.813
592.691; 2460.074;  460.896;  518.188
592.968; 2902.654; -208.098; -123.824
593.244; 1393.820; -695.116; -595.790
593.521;  134.108; -105.102;  -42.817
593.797;  -19.455; -810.122; -720.780
594.074;  517.772; -611.096; -588.826
594.350; 1123.788;  828.905;  729.172
594.626;  505.193; -303.111; -283.801
594.903;  154.809; -643.101; -645.817
595.179;  391.283;  243.896;  418.187
595.455;   68.741; -136.107; -150.807
595.731;   11.785;  -19.103;  -38.814
596.008;  -57.715; -464.111; -434.800
596.284;   56.431; -187.100; -242.820
596.560;  100.918; -501.093; -493.833
596.836;  331.262; -173.105;  -70.810
597.112;  600.526; -582.108; -437.805
597.388;  449.969;  -49.097;  -48.826
597.665;  246.265;  437.887;  530.203
597.941; -134.539; -572.089; -658.839
598.217;   38.704; -323.110; -293.802
598.493;  447.318;   61.891; -204.804
598.769;  830.723; -175.100;  -50.819
599.045;  486.430; -490.108; -562.806
599.321;  111.730; -193.100; -261.820
599.597;  244.917; -355.109; -476.804
599.872;  858.479;  409.896;  429.187
600.148;  614.171;  -61.097; -172.826
600.424;  531.437;   91.893;  202.193
600.700;  423.640; -170.107; -280.807
600.976;  243.663; -442.097; -464.825
601.252;  401.112; -226.109; -272.803
601.527;  297.381; -833.104; -840.813
601.803;  218.370; -453.105; -404.812
602.079;  302.223; -124.100; -118.819
602.354;  884.332; -620.092; -531.835
602.630; 1286.562; -140.113; -482.796
602.906; 4070.516; -910.101; -863.818
603.181;10723.290; -627.119; -534.786
603.457; 9256.368;   98.903; -278.826
603.733; 1412.567; -605.120; -626.783
604.008; 1683.657; -245.106; -164.810
604.284; 4727.011; -636.101; -580.817
604.559; 4203.077;   -3.112;  -42.799
604.835;  823.461; -163.105; -225.810
605.110;  680.137; -732.099; -892.821
605.385; 1148.522;  224.907;  267.167
605.661; 1077.992; -625.095; -729.829
605.936; 1871.830; -664.108; -737.806
606.211; 1664.194;  -17.103; -170.815
606.487;  354.246; -329.114; -376.794
606.762;  -12.009; -791.119; -745.786
607.037;  -26.838; -501.105; -433.810
607.313; -102.018; -589.096; -574.828
607.588;   10.156; -375.106; -137.810
607.863;   71.815;  -28.101; -143.818
608.138;  367.203;  513.890;  516.198
608.413;   39.243; -576.099; -592.822
608.688;   91.525; -203.108; -267.805
608.964;  311.848; -509.106; -218.809
609.239;  432.558; -107.105; -212.810
609.514;  461.969;  281.895;  240.188
609.789; 1065.575; -187.104; -716.812
610.064; 1318.081; -435.096; -609.827
610.339; 1451.313; -855.109; -799.804
610.614; 1891.630; -131.100; -315.820
610.889; 1156.269;  215.895;  107.188
611.163;   86.670; -407.104; -591.812
611.438;  147.748;   81.886; -167.794
611.713;   16.011; -467.101; -499.817
611.988;  108.914; -144.101; -328.818
612.263;  -54.003; -771.102; -717.815
612.538;  422.861;  385.887;  251.204
612.812;  265.732; -832.100; -911.820
613.087;  241.550; -358.098; -338.823
613.362;  -98.160; -497.107; -557.807
613.637;  125.289;  261.897;  138.186
613.911;  -18.867; -256.092; -345.835
614.186;  223.238; -249.107; -292.807
614.460; 1036.069; -842.081; -758.854
614.735; 1288.494;  -55.087;  -17.843
615.010;  283.580;   43.912;  -82.841
615.284;  481.624;  360.892;  246.195
615.559;  494.532; -792.092; -955.835
615.833;  504.240;  -76.099;  -87.822
616.108;   24.749; -225.090; -390.837
616.382;  291.097;  274.913;  402.156
616.656;  258.749; -241.090; -232.837
616.931;  785.041; -785.099; -700.822
617.205; 1659.681; -973.104; -979.813
617.480; 1531.510;  -91.125;    6.225
617.754;  240.606; -396.125; -128.774
618.028;   10.564; -369.129; -382.768
618.302;  146.422;   73.892;  -25.805
618.577;  -76.109; -371.103; -518.815
618.851; -114.492; -399.109; -600.803
619.125;  -44.601; -335.134; -378.759
619.399;  -60.918; -244.104; -374.813
619.673;  -70.669; -330.115; -515.792
619.947;  -78.648; -333.114; -448.795
620.222;    1.195; -198.110; -204.801
620.496;   -0.137;  -47.121;  -96.782
620.770;   45.351; -187.122;  -93.781
621.044;  349.259;  323.895;  346.190
621.318; 1162.767; -653.120; -614.783
621.592; 1041.464; -430.121; -409.783
621.866;  560.179; -476.112; -572.799
622.140;   55.922; -207.116; -356.791
622.413;  136.885;  138.889;  112.200
622.687;  -71.389; -746.101; -492.817
622.961;   70.222; -130.108; -143.805
623.235; -123.114; -633.111; -661.800
623.509; -190.731; -816.105; -848.811
623.783;   49.834;  -12.107;   48.193
624.056;  -13.131; -254.120; -280.783
624.330;  115.769;   63.888;   -3.797
624.604;  147.117; -271.116; -355.790
624.877;  112.001;  180.890;   26.198
625.151;   50.644; -249.114; -238.794
625.425;  -36.815; -150.103; -283.814
625.698;  -81.018; -367.119; -374.785
625.972; -169.195; -799.110; -765.802
626.245;  202.520;  685.884;  484.210
626.519;  -68.625; -426.120; -340.784
626.792;  -51.060; -192.107; -380.807
627.066; -190.659; -485.122; -662.779
627.339; -176.501; -736.110; -663.802
627.613;   85.073;  351.880;  148.216
627.886;  114.007;  187.891; -612.803
628.160;  -39.733;  312.880; -161.783
628.433; -148.886; -695.125; -703.775
628.706; -116.925; -517.120; -615.784
628.979;   83.823;  296.876;  117.223
629.253; -143.011; -785.119; -833.786
629.526;  633.291; -334.126; -253.772
629.799;  499.134; -641.123; -479.778
630.072;  249.866; -497.128; -516.769
630.346; -162.580;-1115.116;-1080.790
630.619;  741.041; -467.107; -545.808
630.892; 1051.687;  709.889;  593.200
631.165;  654.382;  790.896;  679.187
631.438; -169.425;-1092.112;-1055.798
631.711;  150.138;  453.877;  257.221
631.984; -107.887; -523.117; -624.789
632.257; -113.792; -636.117; -681.789
632.530;  -86.417; -412.119; -433.785
632.803;   62.042; -109.115;    7.207
633.076; -119.571; -360.123; -422.777
633.349;   76.972;  173.872;  121.231
633.622;  -42.719; -187.119; -240.785
633.895; -231.431; -903.120; -823.783
634.167; -139.806; -496.126; -525.773
634.440;  -21.571;  -19.116; -137.792
634.713;   18.788;  -22.119; -120.786
634.986;  210.357;  593.871;  453.233
635.258; -126.361; -507.115; -597.793
635.531;  255.002;  742.882; -343.788
635.804;  -37.289; -303.117; -318.789
636.077; -162.077; -830.116; -852.791
636.349;  -11.963; -586.115; -474.793
636.622;  766.690; 1695.874; 1392.228
636.894;  380.175; -474.120; -909.784
637.167;  205.182; -836.127; -789.771
637.439;   65.076; -278.128; -213.770
637.712;  -44.807; -312.126; -293.772
637.984; -133.276; -635.116; -707.791
638.257;  733.529;  515.877;  488.222
638.529;  823.315; -881.125; -924.776
638.802;  361.066; -508.128; -449.769
639.074; -194.950; -927.122; -952.781
639.346; -230.213; -942.135; -930.757
639.619;   12.393;  -79.142; -319.744
639.891;    8.741;  -83.122; -168.779
640.163; -159.656; -689.122; -756.780
640.435;  113.346;  273.878;  103.220
640.708;   31.749;  -72.122; -132.780
640.980;  -45.148; -366.122; -362.781
641.252;  391.554;  -25.121;  -71.781
641.524; 2999.057;  580.879;  573.219
641.796; 2711.560;-1094.121; -907.782
642.068;  540.962; -191.121; -300.782
642.340;  -99.835; -486.121; -566.783
642.613;  127.767;  294.880;  323.217
642.885; -203.530; -787.120; -878.783
643.157; -110.227; -810.120; -658.784
643.428;  131.375;  170.880;  218.216
643.700; -131.822; -498.120; -425.784
643.972;  -33.219;  -16.119; -133.785
644.244; -121.317; -474.119; -559.785
644.516;  -86.514; -250.119; -114.786
644.788;  167.189;  662.881;  548.214
645.060;   -2.709;  -12.119; -124.786
645.332; -160.306; -525.118; -535.787
645.603;  136.297;  479.882;  342.213
645.875; -132.401; -334.118; -369.787
646.147;  352.602; 1487.882; 1242.212
646.418; -139.195; -931.117; -918.788
646.690;  216.207; -714.117; -715.789
646.962;   90.210; -413.117; -451.789
647.233;   25.612;   15.883;   11.211
647.505; -168.185; -595.117; -475.790
647.776;   85.318;  328.884;  229.210
648.048;    8.920; -248.116; -418.790
648.320; -159.877; -752.116; -679.791
648.591; -263.674;-1055.116; -958.791
648.862; -169.072; -505.116; -577.792
649.134;   77.531;  115.885;  198.208
649.405;  -75.766; -661.115; -618.792
649.677;  -78.764; -475.115; -598.793
649.948;   23.039; -181.115; -296.793
650.219;   27.242;  -37.115; -147.793
650.491; -142.856; -431.114; -520.794
650.762; -185.253; -705.114; -731.794
651.033; -144.950; -437.114; -424.795
651.304; -172.048; -743.114; -728.795
651.576; -151.645; -680.114; -645.795
651.847;  -27.943; -250.113; -140.796
652.118;  -30.440;  -32.113; -189.796
652.389; -177.737; -639.113; -722.796
652.660;  -36.535; -147.113;  -89.797
652.931; -247.432; -897.112; -871.797
653.202; -153.929; -382.112; -541.798
653.473;  -73.827; -633.112; -533.798
653.744;  227.176; -595.112; -590.798
654.015;  203.079; -356.112; -303.799
654.286; -116.619; -642.111; -663.799
654.557;  -71.616; -586.111; -521.799
654.828; -317.713;-1114.111;-1088.800
655.099;  -97.211; -404.111; -291.800
655.370; -133.408; -427.111; -543.801
655.641; -202.505; -656.110; -714.801
655.911; -207.403; -618.110; -638.801
656.182;  137.600;  437.890;  387.198
656.453;  203.202;  830.890;  746.198
656.724; -103.495; -466.110; -426.802
656.994; -132.092; -553.109; -568.803
657.265; -194.190; -862.109; -873.803
657.536; -156.687; -500.109; -377.804
657.806; -156.984; -561.109; -593.804
658.077; -262.882; -866.109; -950.804
658.347; -138.279; -523.108; -598.805
658.618; -226.476; -646.108; -694.805
658.888;  -36.374;  -41.108;  112.195
659.159; -105.471; -432.108; -548.806
659.429;   -8.268; -292.108; -349.806
659.700;   26.534; -435.107; -390.807
659.970;    4.837; -370.107; -359.807
660.241;   22.740; -754.107; -921.807
660.511;  820.242; -147.107; -174.808
660.781;  113.345; -793.106; -748.808
661.052;  -71.953; -222.106; -381.808
661.322;   -6.250;   21.894;   -9.809
661.592;   85.653;  257.894;  148.191
661.862;  -98.845; -369.106; -382.810
662.133; -162.342; -551.105; -502.810
662.403; -203.339; -770.105; -676.810
662.673;  -57.837; -256.105; -213.811
662.943; -153.934; -612.105; -551.811
663.213;   34.869;  -85.105;  -81.811
663.483; -144.229; -593.104; -568.812
663.753;  -32.626; -194.104; -152.812
664.023;   34.277;   68.896;  -32.813
664.293;  -77.121; -319.104; -126.813
664.563; -194.918; -694.104; -648.813
664.833; -213.415; -743.103; -608.814
665.103; -234.213; -730.103; -793.814
665.373; -184.510; -766.103; -806.814
665.643; -151.908; -863.103; -918.815
665.913;   46.395; -534.103; -714.815
666.182;  220.598; -685.102; -719.816
666.452;  453.400;  -22.102;  -89.816
666.722;  -75.897; -724.102; -784.816
666.992; -250.594; -948.102; -921.817
667.261; -188.692; -824.102; -808.817
667.531;  380.611;  134.899;   45.183
667.801;  744.514; -440.101; -412.818
668.070;  432.216;  714.899;  697.182
668.340; -182.981; -883.101; -840.819
668.609;  198.722;  588.900;  301.181
668.879; -140.176; -490.100; -558.819
669.149; -127.673; -539.100; -516.820
669.418; -191.770; -698.100; -726.820
669.688;  -19.968; -482.100; -666.820
669.957;  120.235; -423.099; -546.821
670.226;  -31.563; -268.099; -331.821
670.496; -154.460; -431.099; -635.822
670.765; -110.357; -418.099; -501.822
671.034; -233.655; -872.099; -828.822
671.304;   20.748;   55.902; -111.823
671.573; -287.649;-1085.098; -957.823
671.842;  149.553; -380.098; -294.823
672.112;   21.156; -692.098; -586.824
672.381;    3.859; -239.098; -214.824
672.650; -270.039;-1005.097;-1021.825
672.919; -148.236; -631.097; -507.825
673.188; -150.833; -681.097; -878.825
673.457; -278.531;-1101.097;-1143.826
673.726; -147.428; -579.096; -646.826
673.995;  -35.725; -533.096; -479.826
674.265;  -19.523; -263.096; -333.827
674.534;   75.580; -183.096; -235.827
674.802;   33.882; -618.096; -703.828
675.071; 1708.685; -886.095; -801.828
675.340; 5955.588; -464.095; -339.828
675.609; 2117.590;  103.905;   82.171
675.878;   89.193; -949.095; -893.829
676.147;   96.396;  -26.095;   -8.829
676.416;  165.998; -210.094; -294.830
676.685; 1310.401; 1000.906; -622.830
676.953;  143.404; -603.094; -452.831
677.222;   -8.994; -193.094; -273.831
677.491;   -9.991;  -24.094; -127.831
677.759;   28.012;   11.907;  172.168
678.028;  -16.486; -279.093; -222.832
678.297;   55.117;   71.907;  197.168
678.565; -281.480; -898.093; -944.833
678.834;  -68.378; -311.093; -268.833
679.102; -146.975; -411.092; -391.834
679.371; -252.273; -898.092; -727.834
679.639; -259.670; -797.092; -786.834
679.908; -218.267; -794.092; -724.835
680.176; -280.265; -895.091; -941.835
680.445;  -76.962; -346.091; -352.835
680.713;   -7.059;  -58.091;  -23.836
680.982; -148.357; -523.091; -525.836
681.250; -167.254; -578.091; -507.837
681.518; -148.851; -534.090; -751.837
681.787;  -17.749; -204.090; -167.837
682.055; -106.746; -490.090; -422.838
682.323; -254.243; -993.090; -992.838
682.591;   65.259; -216.090; -538.838
682.859;  186.362;    9.911;  -35.839
683.128;  101.865;  232.911;  497.161
683.396; -327.633;-1102.089;-1122.840
683.664;  -23.730; -241.089;   21.160
683.932;   25.072;  144.911;  -76.840
684.200; -107.825; -576.088; -320.841
684.468;  -21.122;  -73.088; -124.841
684.736;  -15.420; -214.088; -175.841
685.004; -245.117;-1024.088; -982.842
685.272;  -62.714; -880.088; -774.842
685.540; -118.712; -499.087; -557.843
685.808; -111.209; -651.087; -682.843
686.076; -195.606; -894.087; -969.843
686.343; -102.804; -601.087; -815.844
686.611;  103.399; -195.087; -224.844
686.879;  888.202; -530.086; -553.844
687.147; 5103.904; -483.086; -480.845
687.414; 1509.707;  -12.086; -169.845
687.682;  -14.390; -658.086; -757.846
687.950;  571.012;  259.915;  263.154
688.217;  -16.585; -792.085; -760.846
688.485;   10.317; -632.085; -636.847
688.753;  858.120;  -11.085; -102.847
689.020;  190.223; -820.085; -851.847
689.288; -210.675; -853.084; -787.848
689.555;    0.628; -195.084; -148.848
689.823;  -42.569; -241.084; -345.849
690.090; -132.667; -546.084; -651.849
690.358; -273.764; -877.084; -897.849
690.625;   54.639;  120.917;   45.150
690.892; -135.059; -403.083; -369.850
691.160;   18.344;   72.917;  -35.850
691.427;   69.547;  141.917;  130.149
691.694; -221.951; -855.083; -929.851
691.962; -262.648;-1177.082;-1060.852
692.229;   79.455;  127.918;   56.148
692.496;  179.057;  130.918;  -49.852
692.763;   70.560; -164.082; -201.853
693.031; -119.638; -739.082; -716.853
693.298;  -69.935; -509.081; -368.853
693.565;  570.268; -155.081; -163.854
693.832; 2003.870;   -5.081;   -9.854
694.099;  188.173; -643.081; -642.855
694.366; -123.324; -882.081; -896.855
694.633; -149.222; -920.080; -633.855
694.900; 1573.181; 4367.920; -114.856
695.167;  711.284; -214.080; -380.856
695.434;  156.086; -646.080; -623.856
695.701;  307.289;  121.921;  -61.857
695.968;  703.992; -365.079; -361.857
696.234; 1727.094; -415.079; -646.858
696.501;15865.397; -776.079; -614.858
696.768; 7629.300; -554.079; -617.858
697.035;  490.702; -632.078; -667.859
697.302;    3.805; -448.078; -552.859
697.568;   20.107; -458.078; -497.859
697.835;  -79.690; -683.078; -624.860
698.102;  -20.087; -498.078; -407.860
698.368;  176.915;  384.923;  396.139
698.635;  -35.982;  -47.077; -424.861
698.901;    1.021; -240.077; -348.861
699.168;  120.423; -534.077; -456.862
699.435;  145.626;  -72.077;  -13.862
699.701; -205.471; -868.076; -764.862
699.968;  -69.569;  144.924; -441.863
700.234; -171.166; -783.076; -822.863
700.500;  -64.163; -448.076; -539.864
700.767;   55.439;   -1.075;   26.136
701.033; -235.458;-1015.075; -963.864
701.299;  -62.456; -450.075; -483.865
701.566;  308.247;  950.925;  763.135
701.832;  107.150;  -31.075;  -76.865
702.098; -177.448;-1054.074;-1034.866
702.365; -153.845;-1098.074;-1030.866
702.631;  -34.542;-1038.074;-1063.867
702.897; 2225.260; -765.074; -676.867
703.163; 3377.963;  348.926;  254.133
703.429;  266.466; -256.073; -273.868
703.695;  -88.032; -796.073; -792.868
703.961;   83.971; -214.073; -210.868
704.227;  -98.826; -630.073; -725.869
704.493;  293.176;  613.927;  510.131
704.759;  -47.321; -565.072; -540.870
705.025;   95.782; -203.072; -194.870
705.291;  -28.016; -666.072; -562.870
705.557;  406.587;  719.928;   34.129
705.823;   36.989; -742.072; -694.871
706.089;  254.692; -307.071; -326.871
706.355;  589.095; -315.071; -244.872
706.620; 8531.097; -776.071; -729.872
706.886;11151.100; -309.071; -362.873
707.152; 1040.403; -818.070; -973.873
707.418; -105.395;-1153.070;-1186.873
707.683;   10.908; -550.070; -530.874
707.949;  -61.589; -547.070; -578.874
708.215;   34.413; -129.070; -207.874
708.480;  -22.084; -520.069; -420.875
708.746;  197.219;   68.931;   28.125
709.011; -101.379; -578.069; -612.876
709.277; -124.476; -538.069; -543.876
709.542;  -78.673; -428.069; -387.876
709.808;   34.929;  -59.068;   89.123
710.073; -167.268; -577.068; -695.877
710.339;   22.134; -242.068; -228.877
710.604;  110.337; -780.068; -845.878
710.869;  497.540; -277.068; -366.878
711.135; -122.558; -715.067; -628.879
711.400; -108.355; -507.067; -608.879
711.665;  -82.152; -404.067; -479.879
711.931; -146.350; -661.067; -677.880
712.196; -218.247; -876.067; -954.880
712.461;  216.256; -402.066; -490.880
712.726;  191.858; -727.066; -771.881
712.991; -142.139; -647.066; -664.881
713.256;  -48.236; -350.066; -332.882
713.521;  -90.034; -417.065; -381.882
713.787;  -80.531; -454.065; -472.882
714.052;    1.572; -214.065; -400.883
714.317; -178.326;-1045.065; -981.883
714.581; 1620.977; -374.065; -268.883
714.846; 1877.679; -822.064; -888.884
715.111;  308.382;  261.936;  257.116
715.376;  -48.015;  -86.064; -223.885
715.641;    9.487; -365.064; -367.885
715.906;  488.290;   15.936; -551.885
716.171;  289.593;  221.937;  209.114
716.436;   69.495;  -78.063; -104.886
716.700; -168.402; -818.063; -692.886
716.965; -221.799; -794.063; -807.887
717.230;  -91.697; -339.063; -392.887
717.494;   -2.194;  -40.062; -134.888
717.759; -133.991; -784.062; -640.888
718.024;   55.211;  269.938;  250.112
718.288;  200.014;  685.938;  395.111
718.553; -247.283; -803.062; -977.889
718.817; -231.481; -883.061; -899.889
719.082;   -6.578; -115.061; -125.890
719.346; -213.276;-1000.061; -947.890
719.611;  -52.673; -300.061; -255.891
719.875; -158.970; -568.060; -537.891
720.140;  -73.968; -453.060; -603.891
720.404;  136.335; -136.060; -249.892
720.668; 1374.638; -475.060; -411.892
720.933;  533.140;  146.940;  137.108
721.197; -159.057; -667.059; -600.893
721.461; -224.754; -851.059; -826.893
721.725;   22.448;  -21.059; -250.894
721.990;  -46.549; -284.059; -204.894
722.254;  -14.846;  -26.059; -108.894
722.518;  -82.244; -286.058; -442.895
722.782; -143.441; -743.058; -594.895
723.046;  271.862;  614.942;  570.105
723.310;  113.764;  374.942;  210.104
723.574; -135.333; -654.058; -614.896
723.838; -168.531; -576.057; -642.897
724.102;  -48.128; -226.057; -239.897
724.366; -213.125;-1032.057; -978.897
724.630; -129.623; -749.057; -571.898
724.894; -145.020; -722.057; -514.898
725.158;   55.083;   38.944; -295.898
725.422;  -75.815; -394.056; -327.899
725.685;  -96.312; -441.056; -349.899
725.949; -119.309; -566.056; -519.900
726.213; -121.507; -732.056; -811.900
726.477;  231.796;-1020.055; -933.900
726.740;  263.799; -274.055; -104.901
727.004;  605.401; -384.055; -510.901
727.268; 5004.704; -442.055; -400.901
727.531; 1176.707; -961.055; -775.902
727.795; -106.391; -713.054; -673.902
728.059;  -91.488; -552.054; -557.903
728.322; -100.786; -841.054; -669.903
728.586;   36.717; -692.054; -701.903
728.849; -121.780; -695.053; -756.904
729.112; -176.778; -812.053; -912.904
729.376; -194.775; -959.053; -905.904
729.639; -116.572; -536.053; -536.905
729.903; -178.970; -733.053; -699.905
730.166;  -31.367; -437.052; -399.906
730.429;   -5.564; -317.052; -468.906
730.693; -116.662; -355.052; -894.906
730.956;  525.941;  810.948;  651.093
731.219; 1037.044; -310.052; -103.907
731.482;  203.846;-1003.051; -894.907
731.745;   82.249; -794.051; -935.908
732.009;   67.252;  -30.051;   50.092
732.272; -159.046; -904.051; -771.909
732.535;  -40.343; -300.051; -310.909
732.798; -288.641;-1083.050;-1166.909
733.061;  -86.738; -430.050; -456.910
733.324;   71.165;   31.950; -180.910
733.587;  171.567;  290.950;  365.090
733.850; -113.930; -973.049;-1050.911
734.113;  134.273;   33.951;   32.089
734.376;    1.975; -328.049; -447.912
734.639;  500.678; 1188.951; 1011.088
734.901;  159.881; -180.049; -402.912
735.164;  871.683; -883.048; -837.913
735.427; 1931.286; -166.048; -355.913
735.690;  218.189; -205.048; -234.913
735.952;  -81.309; -923.048; -925.914
736.215;  -55.606;-1113.048;-1009.914
736.478;   61.197; -771.047; -774.915
736.740;  352.299;   33.953;  129.085
737.003; 1253.102; -658.047; -672.915
737.266; 6304.104;  -94.047;   46.084
737.528;  675.607; -682.047; -660.916
737.791;  531.210; -316.046; -327.916
738.053; 1431.412;  465.954;  649.083
738.316;17433.415; -162.046; -136.917
738.578;10517.818; -770.046; -736.918
738.841;  709.920; -382.046; -446.918
739.103;  304.623; -875.045; -777.918
739.365;  789.826;   79.955;  -69.919
739.628;  -27.072; -884.045; -805.919
739.890;  -13.269; -758.045; -710.919
740.152;  -60.866; -692.044; -754.920
740.414;  -16.764; -408.044; -359.920
740.677;  -78.861; -785.044; -634.921
740.939;  -63.858; -587.044; -487.921
741.201;  405.344; -432.044; -572.921
741.463;   40.347; -689.043; -745.922
741.725;   55.749;  -21.043; -199.922
741.987;  169.752;  220.957;  116.078
742.249;   23.355; -751.043; -859.923
742.511;  342.657; -703.043; -794.923
742.773;   10.460; -546.042; -546.924
743.035;  281.563;  796.958;  533.076
743.297;  -88.135; -963.042;-1013.924
743.559; 1153.368; -278.042; -262.925
743.821;   86.871; -735.042; -744.925
744.083;   23.073;  -44.041; -149.925
744.345; -149.624; -869.041; -892.926
744.607;  120.979;   75.959;  122.074
744.868;  -83.819; -490.041; -554.927
745.130; -178.716; -994.041;-1008.927
745.392;   71.787;   -1.040;  -44.927
745.653;   28.389; -411.040; -378.928
745.915;  345.292;  896.960;  631.072
746.177;  140.594;   35.960;  -43.928
746.438;  -20.403; -428.040; -543.929
746.700;  -74.500; -947.039; -988.929
746.961;    5.302; -659.039; -740.930
747.223;  269.505; -190.039;  -74.930
747.484;  124.808; -391.039; -471.930
747.746;  292.710;  -23.038; -106.931
748.007;  195.813; -647.038; -689.931
748.269;  540.216; -468.038; -440.931
748.530;  760.918; -852.038; -638.932
748.791;  454.521; -354.038; -420.932
749.053;  718.224;  286.963;  163.067
749.314;  737.626; -236.037; -169.933
749.575;  772.929; -945.037; -905.933
749.836; 1365.732; -217.037;   86.066
750.098; 4577.034;  -60.037;  -21.934
750.359;56049.037;  414.964;  555.066
750.620;12650.339; -121.036; -220.935
750.881; 1686.842; -585.036; -513.935
751.142; 2208.645; -950.036; -938.936
751.403;26926.147; -789.036; -705.936
751.664; 9997.650;-1034.035; -999.936
751.925;  826.553; -175.035; -262.937
752.186;  447.855; -298.035; -278.937
752.447;  235.958; -590.035; -445.937
752.708;   79.961; -532.035; -648.938
752.969;   39.863; -566.034; -576.938
753.230;    6.766; -777.034; -672.939
753.491;   31.769; -650.034; -631.939
753.751;  168.171;  109.966;   19.061
754.012;  244.574;  258.967;  181.060
754.273;  125.277; -174.033;  -71.940
754.534;   21.479; -487.033; -580.940
754.794; -153.118; -926.033; -911.941
755.055;  337.484; 1051.967;  881.059
755.316;  -63.513; -700.032; -566.942
755.576;  -27.910; -606.032; -576.942
755.837;  -58.108; -527.032; -695.942
756.097;  -48.905; -530.032; -564.943
756.358; -143.502; -725.032; -770.943
756.618;  -66.800; -705.031; -641.943
756.879;   54.503; -254.031; -349.944
757.139; -251.794;-1098.031;-1116.944
757.400;  -92.292; -538.031; -553.945
757.660;    5.911; -365.031; -401.945
757.920;   63.214; -266.030; -228.945
758.181;   37.716; -468.030; -351.946
758.441; -178.281; -870.030; -809.946
758.701;   -6.378; -308.030; -215.946
758.961;  -10.676; -220.030; -278.947
759.222;  -40.773; -574.029; -502.947
759.482; -112.971; -683.029; -723.948
759.742; -121.568; -706.029; -547.948
760.002;   78.635;  -83.029; -143.948
760.262;  103.737;   50.972;  182.051
760.522;  -61.360; -498.028; -574.949
760.782;  -61.957; -738.028; -612.949
761.042;  -42.055; -618.028; -573.950
761.302;  129.848;   55.972;  -18.950
761.562;  130.751; -164.027; -154.951
761.822;  150.853; -710.027; -551.951
762.082; -104.044;-1104.027;-1093.951
762.342;  147.359; -328.027; -403.952
762.601;  142.561; -567.027; -506.952
762.861;  620.364; -281.026; -207.952
763.121;  716.067; -406.026; -411.953
763.381;12862.669; -499.026; -485.953
763.640;11660.772; -139.026; -307.954
763.900;  599.874; -242.026; -203.954
764.160;  154.977; -458.025; -491.954
764.419;    5.880; -726.025; -782.955
764.679; -106.218; -795.025; -726.955
764.939;   28.785; -124.025; -210.955
765.198; -124.612; -608.025; -563.956
765.458; -118.810; -710.024; -612.956
765.717; -109.407; -454.024; -590.957
765.976;  -66.004; -428.024; -411.957
766.236; -127.202; -475.024; -610.957
766.495;  113.901;  260.977;   73.042
766.755; -166.596;-1090.023; -987.958
767.014;   30.506; -594.023; -665.958
767.273;  -73.691; -373.023; -397.959
767.533;  -42.389; -228.023; -307.959
767.792;  -15.086; -151.022; -188.960
768.051;  -50.283; -228.022; -276.960
768.310; -104.681; -546.022; -650.960
768.569;   70.322; -161.022;    4.039
768.828;  -40.875; -285.022; -363.961
769.088; -223.973;-1050.021; -942.961
769.347; -119.370; -755.021; -599.962
769.606; -159.267; -876.021; -857.962
769.865; -213.065;-1016.021;-1033.963
770.124;   15.838; -411.021; -336.963
770.383; -116.259; -778.020; -910.963
770.641;   -0.457; -398.020; -400.964
770.900; -152.054; -953.020; -846.964
771.159;  -84.251; -851.020; -951.964
771.418;  -56.549; -917.020; -779.965
771.677;  212.954; -224.019; -293.965
771.936;  204.256; -794.019; -865.966
772.194; 4106.859; -465.019; -437.966
772.453;15798.462; -213.019; -391.966
772.712; 1202.064;  416.982;  329.033
772.970;  184.867;   32.982;   63.033
773.229;  189.970;  -22.018;  102.033
773.488; -165.928; -814.018; -770.968
773.746;  168.175;  296.982;  335.032
774.005;   47.178;  190.983;  -22.969
774.263;   90.980;  243.983;  177.031
774.522; -135.317; -422.017; -548.969
774.780;  -76.314; -484.017; -417.970
775.039; -158.012; -551.017; -531.970
775.297;    5.391; -135.016; -351.970
775.555; -151.806; -489.016; -612.971
775.814; -191.204; -618.016; -570.971
776.072; -212.901; -749.016; -740.971
776.330; -130.199; -630.016; -520.972
776.589; -196.396; -703.015; -721.972
776.847; -206.993; -645.015; -624.973
777.105; -299.991;-1016.015;-1032.973
777.363; -113.188; -459.015; -454.973
777.621; -229.385; -660.015; -717.974
777.879;   26.817;  -42.014;   32.026
778.138; -147.780; -554.014; -717.974
778.396; -133.777; -585.014; -526.975
778.654; -294.675;-1015.014; -970.975
778.912;  -88.272; -269.014; -371.976
779.170; -211.069; -880.013; -803.976
779.427; -238.467; -922.013; -897.976
779.685; -241.064; -880.013; -832.977
779.943; -138.861; -654.013; -593.977
780.201; -270.559; -964.012; -883.978
780.459; -197.256; -651.012; -610.978
780.717; -109.254; -440.012; -390.978
780.974; -148.251; -449.012; -490.979
781.232; -114.348; -358.012; -338.979
781.490; -105.746; -551.011; -472.979
781.747; -187.543; -555.011; -476.980
782.005;  116.660;  462.989;  254.020
782.263; -281.838; -542.011;-1004.981
782.520; -107.035; -326.011; -501.981
782.778; -282.032;-1013.010;-1051.981
783.035; -284.730; -962.010; -938.982
783.293;  -72.227; -248.010; -206.982
783.550;  -47.924; -134.010; -198.982
783.808; -228.622; -764.010; -776.983
784.065; -262.319; -745.009; -874.983
784.322;  -42.316;   25.991;  -86.984
784.580; -216.814; -915.009; -771.984
784.837; -146.311; -392.009; -466.984
785.094; -202.709; -783.009; -762.985
785.352;  -77.406; -304.008; -404.985
785.609; -193.703; -934.008; -839.985
785.866; -144.101; -345.008; -401.986
786.123; -122.498; -639.008; -583.986
786.380; -199.595; -665.008; -604.987
786.637;    1.007; -225.007; -380.987
786.895;  -54.290; -456.007; -543.987
787.152;  -42.787; -135.007; -267.988
787.409;  -52.085; -123.007; -225.988
787.666; -116.082; -299.006; -378.988
787.923; -153.479; -616.006; -695.989
788.179; -154.777; -551.006; -584.989
788.436; -156.874; -585.006; -585.990
788.693;    6.429;  -92.006;  -87.990
788.950;  323.631; -125.005; -112.990
789.207;  327.234; -381.005; -372.991
789.464;  -61.664; -161.005; -301.991
789.720;   37.239;  150.995;  110.009
789.977; -313.358;-1003.005; -671.992
790.234;   14.144;   44.996;  -66.992
790.490; -264.353; -884.004;-1031.993
790.747;   19.550;  -85.004;   22.007
791.004;  -31.148; -426.004; -348.993
791.260; -107.645; -430.004; -560.994
791.517; -184.742; -843.003; -788.994
791.773;  -59.340; -379.003; -342.994
792.030; -170.837; -596.003; -660.995
792.286; -165.134; -686.003; -636.995
792.543;   -7.332;  -74.002; -159.995
792.799;  -69.429; -584.002; -382.996
793.055; -268.626;-1179.002;-1210.996
793.312; -148.624; -827.002; -816.997
793.568;  -75.421; -746.002; -599.997
793.824;   58.081; -226.001; -284.997
794.081;   36.284; -447.001; -508.998
794.337;  131.887; -664.001; -561.998
794.593; 2708.289; -319.001; -271.999
794.849; 9952.292; -746.001; -772.999
795.105;  427.795; -270.000; -261.999
795.361;   27.997; -490.000; -457.000
795.617; -125.100; -875.000; -945.000
795.873;  -31.400; -360.000; -407.000
796.129;  -20.100; -368.000; -306.000
796.385;    4.300; -124.000; -156.000
796.641;  188.200;  412.000;  550.000
796.897; -101.100; -666.000; -635.000
797.153;  176.800;  453.000;  357.000
797.409; -162.400; -785.000; -868.000
797.665; -128.100; -625.000; -732.000
797.921; -124.800; -775.000; -762.000
798.176;  -96.700; -744.000; -747.000
798.432;  -70.400; -824.000; -596.000
798.688; -150.200;-1174.000;-1078.000
798.943;  135.300; -165.000; -147.000
799.199;  -51.900;-1005.000; -959.000
799.455;  443.700;  369.000;  316.000
799.710;  163.600; -813.000; -380.000
799.966;  484.300; -162.000; -160.000
800.221;  728.900; -638.000; -721.000
800.477;17686.200; -743.000; -710.000
800.732;12065.200; -773.000; -800.000
800.988;  962.300;  205.000;  -19.000
801.243; 3258.900; -454.000; -344.000
801.498;10759.600; -814.000; -739.000
801.754;  612.800; -289.000; -163.000
802.009;  171.000; -257.000; -335.000
802.264; -133.700; -967.000;-1033.000
802.520;  112.000;  222.000;   -3.000
802.775; -111.600; -524.000; -359.000
803.030;  178.000;  395.000;  356.000
803.285; -212.700; -840.000; -903.000
803.540;  -86.200; -686.000; -699.000
803.795;  -76.600; -648.000; -583.000
804.051;  -35.900; -279.000; -346.000
804.306;   64.500;  168.000;  128.000
804.561;  267.000;  451.000;  362.000
804.816;  327.600;  714.000;  861.000
805.071;   81.500; -185.000; -280.000
805.325;  334.200; -257.000; -427.000
805.580; -171.200; -841.000; -877.000
805.835;   17.900; -204.000; -297.000
806.090; -103.200; -760.000; -676.000
806.345;   -8.400; -344.000; -264.000
806.600;  -46.800; -549.000; -632.000
806.854;  -33.400; -408.000; -538.000
807.109;   13.600; -493.000; -577.000
807.364;   15.600; -407.000; -328.000
807.618;   29.900; -415.000; -381.000
807.873;   99.600; -470.000; -494.000
808.128;  197.600; -257.000; -518.000
808.382;  213.500; -224.000; -332.000
808.637;  141.900; -440.000; -511.000
808.891;  325.400; -257.000; -180.000
809.146;  175.400; -902.000; -794.000
809.400;  406.500; -848.000; -923.000
809.654;  535.800; -779.000; -551.000
809.909;  794.600; -841.000; -927.000
810.163;12733.200; -813.000; -651.000
810.418;25109.800; -940.000; -861.000
810.672; 1523.000; -685.000; -690.000
810.926; 1066.300; -993.000; -973.000
811.180; 2363.200; -439.000; -372.000
811.434;50492.700;  240.000;  135.000
811.689;15503.000; -231.000; -365.000
811.943;  859.700; -936.000; -953.000
812.197;  475.300; -893.000; -671.000
812.451;  173.700; -379.000; -514.000
812.705;  -33.400; -809.000; -619.000
812.959;  -50.700; -263.000; -388.000
813.213;   58.500; -283.000; -209.000
813.467;  187.900;  470.000;  253.000
813.721; -160.200; -764.000; -792.000
813.975; -210.500; -826.000; -877.000
814.229;  141.300;  430.000;  353.000
814.482;  -78.500; -517.000; -566.000
814.736; -180.700; -766.000; -744.000
814.990; -222.300; -779.000; -872.000
815.244;  -46.600; -228.000; -285.000
815.497; -134.900; -636.000; -601.000
815.751;   31.500; -141.000;   82.000
816.005; -115.100; -470.000; -586.000
816.258;  -65.600; -510.000; -363.000
816.512; -198.000; -693.000; -610.000
816.766;   53.400;  121.000;  157.000
817.019;  134.800;  148.000;  149.000
817.273; -184.700;-1000.000; -802.000
817.526;   -5.400; -206.000; -173.000
817.779;  -67.000;-1049.000; -960.000
818.033; -155.800; -693.000; -807.000
818.286; -181.100; -725.000; -792.000
818.540; -148.100; -403.000; -403.000
818.793;  -74.600; -402.000; -489.000
819.046; -150.200; -582.000; -520.000
819.299;  -20.100; -157.000; -166.000
819.553; -164.500; -552.000; -592.000
819.806; -281.600;-1016.000; -838.000
820.059;  -59.400; -334.000; -354.000
820.312;   58.400;  152.000;  185.000
820.565;   55.900;  110.000;  -27.000
820.818;  -36.100;  -59.000; -173.000
821.071; -286.100;-1041.000; -957.000
821.324; -141.400; -536.000; -540.000
821.577; -188.400; -457.000; -483.000
821.830;  -63.500; -270.000; -172.000
822.083; -205.600; -733.000; -288.000
822.336;   -8.100; -261.000; -167.000
822.589; -232.900; -805.000; -688.000
822.842; -232.500; -875.000; -770.000
823.094; -332.300;-1076.000;-1114.000
823.347; -195.600; -925.000; -729.000
823.600;   94.200;  402.000;  187.000
823.853;  -11.700; -311.000; -267.000
824.105;  -93.000; -331.000; -575.000
824.358; -168.200; -617.000; -716.000
824.611;   90.800;  234.000;   40.000
824.863;  -89.600; -612.000; -591.000
825.116;   90.600;  -33.000;   27.000
825.368;  159.000; -366.000; -372.000
825.621;  295.600; -186.000; -240.000
825.873;  127.100; -704.000; -737.000
826.126; 1100.800; -669.000; -641.000
826.378;18920.300; -389.000; -505.000
826.630; 3303.800; -890.000; -898.000
826.883;   65.900; -754.000; -693.000
827.135;   92.800; -279.000; -270.000
827.387; -179.600; -893.000; -839.000
827.639;  -21.700;  -86.000;   32.000
827.892; -181.100; -742.000; -582.000
828.144; -228.300; -848.000; -804.000
828.396;   -4.500;  104.000;  -80.000
828.648; -142.100; -440.000; -333.000
828.900; -225.100; -702.000; -795.000
829.152; -208.400; -684.000; -683.000
829.404;   -7.400; -215.000; -267.000
829.656;  -40.100;  321.000;  214.000
829.908;   39.600;  393.000;  229.000
830.160; -284.200;-1064.000;-1047.000
830.412; -140.800; -481.000; -430.000
830.664; -188.300; -557.000; -665.000
830.916;  -66.400; -268.000; -206.000
831.167; -312.900;-1073.000; -951.000
831.419; -160.700; -623.000; -566.000
831.671; -257.100; -764.000; -809.000
831.923; -103.100; -311.000; -447.000
832.174; -102.000; -273.000; -331.000
832.426; -157.900; -493.000; -582.000
832.678; -337.800;-1043.000;-1091.000
832.929; -253.000; -947.000; -935.000
833.181; -107.700; -575.000; -677.000
833.432;  -65.100;  -59.000; -186.000
833.684;   19.200;  112.000;  -27.000
833.935; -189.200; -610.000; -566.000
834.187; -203.900; -829.000; -823.000
834.438;  -35.800;  -58.000;  -25.000
834.689;  -36.600; -255.000; -123.000
834.941;  -66.100; -343.000; -244.000
835.192; -151.900; -590.000; -533.000
835.443; -102.200; -419.000; -506.000
835.695;   45.100;  138.000;  -16.000
835.946; -103.700; -608.000; -378.000
836.197; -163.400; -599.000; -622.000
836.448; -115.600; -528.000; -395.000
836.699;  -76.600; -253.000; -341.000
836.950;   56.800;   72.000;    7.000
837.201; -250.000;-1003.000; -987.000
837.452;  -80.000; -356.000; -170.000
837.703; -187.600; -791.000; -737.000
837.954;  -28.000; -205.000; -365.000
838.205; -168.400;-1029.000;-1008.000
838.456;  261.000; -196.000; -282.000
838.707;   16.700; -423.000; -519.000
838.958;   13.900; -634.000; -647.000
839.209;  510.100;   18.000;   40.000
839.460;  181.900; -439.000; -201.000
839.710;  289.500; -135.000; -297.000
839.961;  767.200;  730.000;  612.000
840.212;  572.900; -382.000; -497.000
840.462; 2080.400; -328.000; -277.000
840.713;30023.200; -571.000; -536.000
840.964; 8909.800;  -62.000; -143.000
841.214;  786.700; -384.000; -624.000
841.465;  919.000; -214.000; -141.000
841.715;  794.900; -417.000; -380.000
841.966; 1094.700; -746.000; -685.000
842.216;17842.800; -330.000; -431.000
842.466;50923.400; -169.000; -313.000
842.717; 1997.900; -964.000; -952.000
842.967;  585.800; -635.000; -641.000
843.217;  461.100;   20.000;   28.000
843.468;  174.200; -104.000; -132.000
843.718;  -69.500; -718.000; -726.000
843.968; -155.400; -837.000; -765.000
844.218;   85.400; -315.000; -262.000
844.469;  -45.100; -577.000; -561.000
844.719; -178.400; -537.000; -682.000
844.969; -142.200; -550.000; -580.000
845.219; -230.300; -814.000; -862.000
845.469;  -91.700; -392.000; -342.000
845.719; -230.900; -792.000; -884.000
845.969;   24.900;  119.000;  174.000
846.219; -208.900; -738.000; -720.000
846.469;  120.100;  464.000;  432.000
846.718;  -57.200; -115.000;   31.000
846.968; -233.400; -827.000; -827.000
847.218;  -90.400; -224.000; -371.000
847.468; -139.200; -586.000; -555.000
847.718; -246.500; -827.000; -798.000
847.967; -214.900; -826.000; -915.000
848.217; -134.700; -449.000; -569.000
848.467;  -63.600; -405.000; -376.000
848.716; -203.800; -708.000; -725.000
848.966;   75.100; -372.000; -358.000
849.215;  -83.200; -428.000; -419.000
849.465; -115.500; -785.000; -615.000
849.714; -258.700;-1132.000;-1150.000
849.964;  -79.800; -551.000; -613.000
850.213;  -25.100; -393.000; -355.000
850.463;  210.400;  137.000;  340.000
850.712;    4.100; -542.000; -567.000
850.961;   14.700; -739.000; -678.000
851.211;  152.200; -513.000; -504.000
851.460;  259.400; -635.000; -650.000
851.709;  971.500;  -25.000;   18.000
851.958;18421.800; -912.000; -750.000
852.208;16892.400; -859.000; -879.000
852.457;  646.900; -181.000;  -13.000
852.706;   75.200; -791.000; -823.000
852.955;   28.200; -507.000; -528.000
853.204; -121.400; -521.000; -461.000
853.453;  -97.900; -418.000; -458.000
853.702; -206.800; -660.000; -750.000
853.951; -142.100; -532.000; -520.000
854.200; -165.200; -613.000; -562.000
854.449; -169.000; -695.000; -661.000
854.698; -111.300; -340.000; -279.000
854.946;  -43.100; -181.000; -284.000
855.195; -247.500; -843.000; -868.000
855.444; -100.800; -395.000; -420.000
855.693; -198.300; -345.000; -432.000
855.941; -186.100; -387.000; -516.000
856.190;  -93.400; -256.000; -382.000
856.439; -176.400; -652.000; -703.000
856.687;  -83.300;  -99.000;  -72.000
856.936; -161.500; -621.000; -323.000
857.184; -317.700;-1067.000;-1020.000
857.433; -151.800; -423.000; -512.000
857.681; -268.700; -989.000; -953.000
857.930;  -74.000; -282.000; -433.000
858.178; -250.900; -856.000; -929.000
858.427; -231.400; -802.000; -781.000
858.675; -190.600; -377.000; -544.000
858.923; -158.700; -527.000; -819.000
859.172; -304.900;-1094.000;-1070.000
859.420;  -87.900; -339.000; -239.000
859.668; -226.600; -624.000; -628.000
859.916;   42.400;  109.000;  115.000
860.164; -181.300; -699.000; -603.000
860.413;  564.300; -878.000; -696.000
860.661;  245.000; -709.000; -577.000
860.909; -107.100; -339.000; -325.000
861.157; -110.500; -277.000; -444.000
861.405; -183.400; -534.000; -670.000
861.653;   91.100;  310.000;  310.000
861.901;  373.300; -543.000; -613.000
862.149;  -53.900; -801.000; -824.000
862.396;  -74.700; -297.000; -187.000
862.644; -123.200; -368.000; -347.000
862.892;   -8.700;   98.000;  138.000
863.140; -193.900; -549.000; -530.000
863.388; -245.100; -815.000; -759.000
863.635; -199.800; -642.000; -601.000
863.883;   63.500;  231.000;  190.000
864.131; -141.300; -288.000; -357.000
864.378; -222.400; -675.000; -540.000
864.626; -167.800; -347.000; -415.000
864.873; -154.900; -556.000; -505.000
865.121; -229.200; -714.000; -799.000
865.368;  -39.900; -173.000;   75.000
865.616;  -37.900;  -33.000;  -40.000
865.863; -118.100; -462.000; -506.000
866.111; -213.300; -795.000; -824.000
866.358;   81.400; -426.000; -420.000
866.605; 3926.500;  -64.000; -804.000
866.853; 2902.800; -621.000; -537.000
867.100; -100.700; -728.000; -775.000
867.347; -131.400; -672.000; -611.000
867.594; -121.600; -740.000; -714.000
867.841;  191.600;   97.000;   17.000
868.089; -264.600; -746.000; -698.000
868.336; -159.600; -477.000; -420.000
868.583; -222.100; -637.000; -741.000
868.830;  -23.300; -131.000; -170.000
869.077; -283.600; -859.000; -787.000
869.324; -197.600; -502.000; -458.000
869.571; -177.100; -398.000; -430.000
869.818; -176.200; -485.000; -439.000
870.065; -158.200; -439.000; -513.000
870.311; -140.400; -456.000; -542.000
870.558; -146.100; -332.000; -311.000
870.805; -100.700; -320.000; -384.000
871.052; -174.900; -494.000; -369.000
871.298;  -53.500; -204.000; -131.000
871.545;  -69.100; -151.000; -185.000
871.792; -147.500; -173.000; -222.000
872.038;  -71.300;   43.000; -126.000
872.285; -193.100; -496.000; -387.000
872.532; -120.600; -357.000; -387.000
872.778;   78.700;  556.000;  403.000
873.025; -154.300; -384.000; -359.000
873.271;  147.300;  501.000;  578.000
873.517;    4.100; -133.000; -209.000
873.764;   -0.200; -193.000;  -80.000
874.010;  -72.000; -143.000; -230.000
874.257;   -1.700;  123.000;   90.000
874.503; -209.900; -579.000; -479.000
874.749;  -53.900;   31.000;  275.000
874.995;  -61.700;  -80.000;  -20.000
875.242; -171.000; -540.000; -478.000
875.488; -177.500; -414.000; -439.000
875.734;  -55.100; -106.000; -234.000
875.980;  387.600; -872.000;-1032.000
876.226;  559.300; -157.000; -255.000
876.472;   61.200;  343.000;  237.000
876.718;   13.400;  184.000;  158.000
876.964;  -36.300;   56.000;   55.000
877.210; -221.600; -547.000; -677.000
877.456; -228.900; -630.000; -557.000
877.702; -283.000; -821.000; -832.000
877.948; -142.600; -377.000; -497.000
878.193;  117.400;  361.000;  255.000
878.439; -161.900; -487.000; -472.000
878.685; -148.700; -272.000; -343.000
878.931; -216.900; -618.000; -676.000
879.176; -101.300; -201.000; -201.000
879.422; -313.000; -933.000; -820.000
879.668;  166.400;   10.000;   79.000
879.913;  294.200;   53.000;  137.000
880.159;  -44.100; -112.000;  -17.000
880.404;  -49.900; -152.000; -162.000
880.650;   24.500;   91.000;  141.000
880.895; -259.100; -670.000; -710.000
881.141; -191.600; -454.000; -428.000
881.386; -241.500; -503.000; -658.000
881.631; -126.200; -311.000; -166.000
881.877;   15.000;  112.000;  -13.000
882.122; -188.600; -684.000; -600.000
882.367; -125.900; -136.000; -186.000
882.612;  -46.600;  -80.000; -176.000
882.858; -277.200; -877.000; -823.000
883.103; -106.900; -297.000; -267.000
883.348; -248.500; -759.000; -852.000
883.593; -216.700; -677.000; -602.000
883.838;  -70.200; -311.000;  -24.000
884.083;  129.100;  353.000;  288.000
884.328; -164.400; -564.000; -545.000
884.573;  -14.600; -196.000; -143.000
884.818;  413.600; -694.000; -531.000
885.063;  265.500; -348.000; -315.000
885.308; -152.600; -475.000; -398.000
885.553;   45.900;  245.000;  325.000
885.797; -215.200; -545.000; -615.000
886.042;   -2.900;    8.000;   58.000
886.287;  -98.900; -253.000; -211.000
886.532;  -40.100;   26.000;  204.000
886.776; -145.900; -407.000; -525.000
887.021; -208.700; -621.000; -574.000
887.265; -243.300; -685.000; -689.000
887.510; -188.500; -557.000; -496.000
887.755;  -96.000; -194.000; -164.000
887.999; -198.600; -552.000; -575.000
888.244;  -67.700;  -58.000;  161.000
888.488;   60.600;  371.000;  393.000
888.732; -194.400; -368.000; -520.000
888.977; -183.700; -622.000; -567.000
889.221; -275.600; -683.000; -659.000
889.465; -163.200; -422.000; -566.000
889.710;  -78.800;  -56.000; -299.000
889.954;   87.400;  579.000;  467.000
890.198; -242.200; -584.000; -707.000
890.442; -233.700; -716.000; -712.000
890.687; -270.700; -800.000; -753.000
890.931; -120.500; -273.000; -210.000
891.175; -189.400; -502.000; -500.000
891.419;  -42.900; -105.000; -110.000
891.663; -119.900; -239.000; -112.000
891.907; -263.300; -801.000; -545.000
892.151; -280.300; -920.000; -815.000
892.395; -138.600; -274.000; -387.000
892.638;   23.700;  408.000;  291.000
892.882; -319.600; -780.000; -867.000
893.126;  101.600;  758.000;  558.000
893.370;  -92.900; -167.000; -168.000
893.614; -230.700; -714.000; -715.000
893.857; -103.400; -183.000; -197.000
894.101; -216.900; -527.000; -631.000
894.345;   -1.200;  300.000;  150.000
894.588;   98.300;  569.000;  380.000
894.832;  -97.800; -178.000;  -84.000
895.075; -109.000;   15.000;  -92.000
895.319; -175.000; -552.000; -420.000
895.563; -147.500; -413.000; -353.000
895.806; -234.900; -628.000; -741.000
896.049;  -85.000; -576.000; -368.000
896.293;  220.300;  527.000;  405.000
896.536; -137.600; -465.000; -468.000
896.779;  -52.600; -149.000;   -1.000
897.023; -257.100; -751.000; -714.000
897.266;   24.300;  325.000;  269.000
897.509; -338.700; -900.000; -901.000
897.752;   21.300;  149.000;  171.000
897.996; -332.100; -972.000; -864.000
898.239;   -2.900;  168.000;  102.000
898.482; -190.900; -431.000; -453.000
898.725;   35.200;  101.000;   53.000
898.968; -291.600; -609.000; -744.000
899.211; -136.400; -513.000; -361.000
899.454; -212.300; -633.000; -539.000
899.697;  -73.100;   90.000;  -43.000
899.940; -269.000; -761.000; -757.000
900.182; -132.300; -335.000; -405.000
900.425; -108.700; -150.000; -298.000
900.668;   44.700;  491.000;  350.000
900.911; -129.200; -292.000; -345.000
901.154;  -15.700;  141.000;   -3.000
901.396; -201.500; -407.000; -412.000
901.639; -188.400; -430.000; -496.000
901.882; -313.800; -790.000; -809.000
902.124;  -74.800;  -29.000; -143.000
902.367; -178.300; -315.000; -361.000
902.609; -182.100; -476.000; -453.000
902.852; -110.000; -108.000; -260.000
903.094; -196.200; -458.000; -337.000
903.337;  -26.300;  -26.000;   53.000
903.579; -156.800; -228.000; -441.000
903.821; -283.700; -597.000; -744.000
904.064;  -33.300;   85.000;  127.000
904.306; -107.600; -126.000; -166.000
904.548; -113.700; -152.000; -366.000
904.790; -168.600; -195.000; -340.000
905.033; -202.300; -625.000; -577.000
905.275; -196.300; -513.000; -524.000
905.517;  151.400;  468.000;  256.000
905.759; -131.700; -667.000; -761.000
906.001; -150.100; -322.000; -369.000
906.243;  -49.400; -162.000; -224.000
906.485;  311.000; -265.000; -207.000
906.727;  153.700; -499.000; -542.000
906.969;   -8.600;  -30.000; -135.000
907.211;  297.200; -316.000; -382.000
907.453;  531.100; -188.000; -237.000
907.695;   21.200; -158.000; -385.000
907.936;  176.500;  818.000;  706.000
908.178;  -34.500;   92.000; -135.000
908.420;  -41.900; -111.000; -162.000
908.662; -239.100; -633.000; -682.000
908.903; -113.800; -208.000; -123.000
909.145;  -63.000; -240.000; -305.000
909.386;  128.600;  315.000;  280.000
909.628;  106.700;  363.000;  397.000
909.870;   70.200;   29.000;  264.000
910.111; -171.800; -809.000; -949.000
910.353;   76.300; -123.000; -161.000
910.594;   -1.500; -574.000; -606.000
910.835;  161.600; -265.000; -326.000
911.077;  281.700; -503.000; -604.000
911.318;  530.000; -505.000; -471.000
911.559;  730.300; -577.000; -880.000
911.801; 2483.100; -284.000; -280.000
912.042;21272.900;  -50.000; -159.000
912.283;43932.000;  404.000;  371.000
912.524; 5090.700; -396.000; -457.000
912.765;  802.200; -193.000;   79.000
913.006;  420.100; -307.000; -338.000
913.247;  108.300; -270.000; -290.000
913.488;   24.100;  -43.000;   30.000
913.729;  -96.900; -373.000; -373.000
913.970;  -75.900;  -96.000; -292.000
914.211;  -61.100; -160.000; -198.000
914.452;  -69.800; -118.000;  -11.000
914.693;  111.900;  510.000;  592.000
914.934;   63.800;  510.000;  440.000
915.175;  -36.400;   53.000;  -95.000
915.415;  -72.700; -137.000;   27.000
915.656;  -30.400;  -28.000;  192.000
915.897; -141.600; -252.000;  -82.000
916.137;  -56.000;   74.000;   -9.000
916.378; -228.100; -573.000; -517.000
916.619;  -95.300; -159.000;  -63.000
916.859;   -5.200;  303.000;  330.000
917.100;  344.800; 1655.000; 1070.000
917.340;  176.600;  930.000;  728.000
917.581;  207.700;  965.000;  789.000
917.821;    9.300; -171.000;  143.000
918.061;   55.100; -199.000;  -72.000
918.302;  -72.000; -152.000; -211.000
918.542;   32.000;  -22.000;    3.000
918.782;  145.600;  369.000;  377.000
919.023;  289.800;  360.000;  427.000
919.263; 2848.700; 8131.000;  202.000
919.503; 1797.400; -137.000;  -54.000
919.743; 1163.600;  390.000;  266.000
919.983;  404.800; -134.000;  -26.000
920.223;  204.800;  135.000;   14.000
920.463;  341.000;  631.000;  554.000
920.703;  223.100;   84.000;   39.000
920.943;  300.200; -110.000;   90.000
921.183;  326.100; -414.000; -405.000
921.423;  905.900;  307.000;  546.000
921.663; 1172.200; -174.000; -257.000
921.903; 2769.300;  237.000;  173.000
922.143;16442.700;  372.000;  389.000
922.383;55184.100;  158.000;  115.000
922.622;13941.200; -120.000;  -15.000
922.862; 1763.500;  796.000;  785.000
923.102;  758.000;  -51.000;   33.000
923.341;  320.900;   59.000;   74.000
923.581;  194.800;  450.000;  360.000
923.821;   81.300;  301.000;  398.000
924.060;   85.800;  351.000;  193.000
924.300;  -39.000;  -16.000; -128.000
924.539;   33.800;  584.000;  473.000
924.779;  104.600;  812.000;  597.000
925.018;  -27.500;  247.000;  353.000
925.257;  101.900;  595.000;  666.000
925.497;   -8.100;  447.000;  412.000
925.736;  -72.400;  -35.000;  102.000
925.975;   65.000;  687.000;  669.000
926.214;  128.600;  907.000;  850.000
926.454;  114.800;  706.000;  757.000
926.693;    6.600;  419.000;  543.000
926.932;  149.700; 1021.000;  825.000
927.171;  247.800; 1107.000; 1044.000
927.410;  181.500; 1144.000;  967.000
927.649;  114.300;  924.000;  742.000
927.888;   49.200;  590.000;  564.000
928.127;   80.400;  680.000;  678.000
928.366;  120.400;  842.000;  826.000
928.605;  167.500;  831.000;  737.000
928.844;  525.400; 1451.000; 1393.000
929.083; 1177.100;  770.000;  613.000
929.321;  627.600; 1335.000; 1359.000
929.560;  245.200; 1158.000; 1122.000
929.799;   -4.200;  574.000;  475.000
930.038;  269.600; 1025.000; 1394.000
930.276;  -34.600;  334.000;  397.000
930.515;   86.100;  827.000;  681.000
930.753;   25.600;  614.000;  589.000
930.992;   74.100;  664.000;  717.000
931.230;   84.000;  847.000;  847.000
931.469;  486.900; 2162.000;  892.000
931.707;  204.900;  840.000;  751.000
931.946;  194.200; 1278.000; 1344.000
932.184;  223.600; 1437.000; 1175.000
932.423;  221.200; 1265.000;  963.000
932.661;  302.400; 1296.000; 1428.000
932.899;   90.600;  987.000;  821.000
933.137;   69.300;  754.000;  564.000
933.376;  392.500; 1664.000; 1335.000
933.614;  394.800; 1759.000; 1196.000
933.852;  180.300; 1357.000; 1171.000
934.090;  344.100; 1722.000; 1747.000
934.328;  289.100; 1252.000; 1457.000
934.566;  247.400; 1431.000; 1110.000
934.804;  334.600; 1263.000; 1309.000
935.042;  886.800; 1861.000; 1850.000
935.280; 3336.600; 2088.000; 2063.000
935.518; 2453.300; 2113.000; 2007.000
935.756;  635.900; 2481.000; 2316.000
935.994;  384.700; 1808.000; 1751.000
936.231;  778.900; 2890.000; 2950.000
936.469;  484.400; 2367.000; 2378.000
936.707;  454.100; 2220.000; 2167.000
936.945;  546.900; 2825.000; 2882.000
937.182;  536.200; 2679.000; 2741.000
937.420;  711.400; 3602.000; 3031.000
937.657;  940.900; 3365.000; 3478.000
937.895;  750.900; 3331.000; 3488.000
938.133;  710.000; 3540.000; 3528.000
938.370;  790.400; 3896.000; 4191.000
938.607;  894.100; 4488.000; 4205.000
938.845; 1210.900; 5587.000; 5549.000
939.082; 1071.400; 5387.000; 5177.000
939.320; 1150.500; 5799.000; 5728.000
939.557; 1412.100; 6549.000; 6491.000
939.794; 1544.600; 7285.000; 7097.000
940.031; 2012.300; 8421.000; 8368.000
940.269; 2254.000; 9552.000; 9107.000
940.506; 2390.200;10901.000;10507.000

