
Integration time [ms]: 100.000
Averaging Nr. [scans]: 40
Smoothing Nr. [pixels]: 0
Data measured with spectrometer [name]: 2101013U2
Wave   ;Sample   ;Dark     ;Reference
[nm]   ;[counts] ;[counts] ;[counts] 

394.013;   35.544; -450.257; -315.536
394.305;  189.042; -461.258; -419.536
394.596; 1121.165; -676.269; -527.514
394.887; 2750.881; -796.268; -654.518
395.178; 1051.237;  145.736;   11.476
395.470;   58.248; -210.263; -356.526
395.761;  183.171;  305.734;  394.479
396.052;  285.366; -545.284; -306.489
396.343;  271.535; -557.276; -454.503
396.634;  101.879; -200.279; -290.497
396.926;  100.954; -618.268; -565.517
397.217;   94.564;   11.725;  -17.504
397.508;   39.630; -366.273; -154.507
397.799;   49.979; -555.279; -571.497
398.090;   -4.551; -973.280; -902.495
398.381;   83.442;   11.708;  -11.473
398.672;  -15.632; -585.292; -742.473
398.963;   34.435; -348.279; -373.498
399.254;   89.452;   54.709; -209.475
399.545;  -39.232;-1017.266; -883.520
399.836;   54.199; -407.277; -343.501
400.127;   52.668; -205.295; -209.468
400.418;   57.200; -423.274; -392.506
400.709;   53.511; -359.281; -333.493
401.000;   44.281; -268.291; -309.476
401.290;   94.230;  225.698;  115.545
401.581;   50.399; -166.286; -228.485
401.872;   27.066; -542.298; -486.462
402.163;   48.236; -313.296; -252.467
402.454;   93.952; -123.291; -163.475
402.744;   66.402; -844.297; -813.465
403.035;  428.008; -226.293;  -86.471
403.326;  535.446; -366.292; -384.474
403.617;  362.760;  204.701;  165.539
403.907;  236.122; -593.283; -679.490
404.198; 2418.435; -545.307; -599.446
404.489; 6277.351; -618.283; -588.491
404.779; 2061.084; -618.302; -660.456
405.070;  205.088;  -67.304; -174.451
405.360;  335.160; -259.293; -238.472
405.651;  358.620;  125.699;   98.542
405.942;  184.619;  209.714;  127.516
406.232;  233.859; -432.285; -413.487
406.523;  436.628;  641.706;  758.530
406.813;   71.196; -579.286; -644.484
407.104;  315.791;  261.708;  144.527
407.394;  165.011; -604.299; -591.462
407.685;  145.933;  336.715;  222.513
407.975;   55.050; -400.283; -382.490
408.265;  122.517; -134.289; -190.478
408.556;   53.899; -472.291; -459.475
408.846;  158.179;  474.706;  429.530
409.137;   82.400;   -1.288; -216.480
409.427;   57.808; -193.285; -271.487
409.717;   32.808; -776.273; -692.508
410.007;  134.977;    4.715; -170.486
410.298;   76.146; -360.295; -342.469
410.588;   46.081; -495.285; -510.486
410.878;   31.686; -792.287; -873.482
411.168;  100.018; -481.298; -478.463
411.459;  109.095; -295.283; -242.489
411.749;   60.848; -609.292; -507.474
412.039;   59.448; -755.289; -386.480
412.329;  211.542;   40.722;  132.501
412.619;  191.922;  -62.286; -148.485
412.909;  369.820;  639.711;  594.521
413.199;  324.174; -130.280; -251.495
413.490;  382.260;  521.710;  352.523
413.780;  126.828;-1013.279; -913.496
414.070;  320.861;  -46.276;  235.497
414.360;  371.638; -729.278; -666.498
414.650;  406.557; -726.288; -688.482
414.940;  534.127; -538.280; -441.496
415.230;  930.454;   50.712;   74.519
415.520; 6090.964;  155.730;   66.486
415.809;24136.335; -305.281; -125.493
416.099;18600.176; -388.277; -229.501
416.389; 5206.748;  435.726;  236.494
416.679; 3046.776;   91.738;   85.473
416.969;  530.015; -527.287; -503.483
417.259;  466.479;  341.721;  171.503
417.549;  704.634;  522.718;  318.508
417.838; 1644.806; -205.268; -147.518
418.128; 5517.665;  650.710;  492.522
418.418; 4630.515; -491.272; -579.509
418.708; 3121.198;    9.726;  -48.506
418.997;11755.019; -474.275; -480.505
419.287;12222.829; -733.273; -790.507
419.577;11655.619; -160.283; -123.489
419.866;38390.299; -588.277; -498.501
420.156;39346.560; -242.270;  -55.513
420.446; 7020.744; -112.263;  -26.526
420.735;  861.004; -376.271; -446.512
421.025;  839.513; 1830.722;  315.502
421.314;  668.327; -203.271; -226.512
421.604; 1355.249;   89.732;  233.484
421.893;  761.574; -705.271; -602.511
422.183;  232.419; -487.263; -461.526
422.472;  366.750;  -36.271; -107.511
422.762;  445.899; -416.266; -379.521
423.051;  247.262; -916.276; -916.503
423.341;  302.181; -491.273; -439.507
423.630;  391.704; -121.265;   15.477
423.919;  390.918;   58.725;   49.495
424.209;  367.924;  -31.263;   56.473
424.498;  501.328;   68.732;  161.483
424.787; 1095.460; -535.267; -601.518
425.077; 3355.578;   34.735;   29.478
425.366; 4618.280; -734.262; -744.528
425.655; 9943.232;  639.727;  259.493
425.945;22050.083; -313.247; -268.554
426.234;12159.177;  117.741;  300.467
426.523; 5116.132;  -86.259; -350.534
426.812; 6981.419;  107.734;  159.480
427.101;10291.395; -127.269; -323.515
427.390;12938.914;  -55.270;  -86.514
427.680; 2838.002; -624.257; -411.538
427.969;  469.288; -330.255; -301.540
428.258;  305.444; -385.257; -477.536
428.547;  529.994;  449.728;  397.490
428.836; 1201.054; -421.253; -398.543
429.125; 1732.159; -199.259;  -72.534
429.414;  776.251; -330.251; -294.548
429.703; 3170.151; -231.251; -213.548
429.992; 9428.605; -938.250; -828.549
430.281; 6105.337; -397.264; -331.524
430.570;  558.742;  -21.252;   32.454
430.859;  523.382;  279.741;  352.466
431.148;  426.153;  636.752;  631.446
431.437;  283.316;  391.748;  367.454
431.725;  154.395; -544.257; -481.536
432.014;  124.811; -845.253; -756.545
432.303;  384.503; -149.239; -105.569
432.592;  596.018; -460.263; -178.525
432.881; 1060.804; -601.248; -437.554
433.169; 6299.563; -343.255;  -61.540
433.458;12723.487;  445.765;  540.424
433.747; 5301.535; -397.261; -289.529
434.036;  876.179; -275.242; -280.564
434.324; 2092.492; -395.249; -379.551
434.613; 3626.148;   40.757;  159.437
434.902; 1201.768;  333.760;  439.433
435.190;  518.352;   75.761;  295.431
435.479;  320.730;  -52.245;   83.441
435.767;   97.538; -411.244; -427.561
436.056;  205.500; -340.242; -294.563
436.345;  365.371; -372.240; -223.568
436.633;  379.562;   60.750;  383.450
436.922;  242.348;  208.760;  414.432
437.210;  552.877; -194.236;    1.426
437.499; 1723.460; -583.235; -432.576
437.787; 1933.001; -339.236;  -10.574
438.075;  487.208;   56.761;  162.430
438.364;  658.460;  -44.238;  250.429
438.652;  389.839; -286.226; -138.592
438.941;  130.203;    3.770;  269.415
439.229;  -13.211; -665.252; -466.545
439.517;   27.893; -160.234;  -85.577
439.806;   -6.496; -501.225; -290.595
440.094;  162.801;  377.766;  650.421
440.382;  169.704; -653.233; -302.580
440.670;  206.359; -361.235; -285.576
440.959;   23.196; -347.223; -170.599
441.247;   73.864; -151.229; -109.587
441.535;   97.816; -266.235;   31.423
441.823;   25.748; -497.234; -305.578
442.111;  170.644;  173.771;  327.412
442.400;  498.129; -628.245; -335.559
442.688; 1280.700; -111.234; -620.579
442.976;  906.208; -786.213; -450.617
443.264;   86.361; -324.224; -364.597
443.552;   90.390; -258.226;   51.408
443.840;  166.515;  602.765;  876.423
444.128;  110.979;  265.767;  269.420
444.416;   -3.304; -694.228; -312.588
444.704;   17.851; -465.219;  -92.605
444.992;   73.967;   -0.226;  240.407
445.280;   45.454; -517.230;  -94.585
445.568;   16.787; -694.212; -396.618
445.856;  317.635; -174.221;  357.398
446.143;  711.722;  -54.220;   -7.604
446.431;  595.750;  -25.228;  625.411
446.719;  251.845;  489.783;  675.391
447.007;  186.673;  481.769;  705.416
447.295;  161.743;  597.777;  871.402
447.583;   79.312; -464.229;  -34.587
447.870;  146.407; -434.221; -202.601
448.158;  397.327; -104.230;  129.415
448.446;  272.848; -800.219; -338.604
448.733;  168.537;   13.776;  269.403
449.021;  237.936;   60.788;  341.382
449.309;  178.526; -296.210;  208.379
449.596;  203.091;  128.783;   59.392
449.884;  141.825; -571.222; -325.600
450.172;  143.505; -756.227; -406.590
450.459;  439.917;  645.786;  780.387
450.747; 2426.814; -411.218; -147.608
451.034; 7773.501;  493.772;  889.411
451.322; 6360.695; -413.214; -170.614
451.609;  522.114;  292.777;  508.403
451.897;  601.938; -550.203; -183.634
452.184; 1810.019; -622.223; -400.598
452.472; 1678.447;   97.792;  269.375
452.759;  345.524;  512.781;  864.395
453.047;  102.259; -407.212; -125.617
453.334;   65.831; -732.219; -216.606
453.621;   58.222; -438.214; -161.615
453.909;  120.430;   13.796;  384.368
454.196;   98.700; -299.199; -123.641
454.483;  196.876;  317.798;  540.364
454.771;  121.975; -215.208;  196.374
455.058;   38.778; -316.207;  102.374
455.345;  104.205;   71.807;  344.347
455.632;   82.782; -128.207;  235.373
455.919;   48.272;  -82.196;  182.354
456.207;  -57.370; -774.198; -450.642
456.494;  -15.487; -475.200;  -66.639
456.781;    9.322; -399.202; -198.635
457.068;   54.138; -253.206;  -29.628
457.355;   -9.011; -698.206; -401.629
457.642;   -3.830; -552.205; -290.630
457.929;  -11.204; -778.194; -417.651
458.216;   60.409; -575.212; -354.617
458.503;  243.450; -173.193;  -19.652
458.790;  230.623; -864.208; -630.625
459.077;  261.802;  -77.202;  110.364
459.364;  797.139; -350.195; -210.649
459.651; 1685.361;  -46.206;  220.372
459.938;  781.514; -864.209; -665.623
460.225;  137.530;  132.799;  276.363
460.512;  -42.580; -836.197; -688.645
460.799;   93.988;  -32.218;  320.392
461.086;   50.368; -370.200; -251.640
461.372;   42.955; -509.198; -279.642
461.659;  101.174; -165.196;  108.354
461.946;   66.599; -445.193;  -54.651
462.233;  231.090;  842.800;  888.361
462.519;  336.012; -814.201; -464.639
462.806; 1004.745; -768.197; -497.645
463.093;  888.269; -445.191;  -66.656
463.380;  -20.915; -920.186; -824.664
463.666;   53.847; -259.197;  -18.646
463.953;   87.559; -406.195; -243.648
464.239;  191.084; -173.195;  -77.648
464.526;  389.669;  413.806;  743.350
464.813;  305.956; -565.190; -304.658
465.099;  345.300;  606.807;  607.348
465.386;  318.954;  903.807;  921.348
465.672;   15.970; -694.197; -522.645
465.959;   25.874; -598.188; -520.662
466.245;    3.979; -468.193; -359.652
466.532;   81.732; -109.195;   63.352
466.818;   52.785; -357.186; -216.664
467.104;    0.550; -488.182; -415.672
467.391;  -34.792; -628.189; -459.658
467.677;   35.164; -289.186;    9.335
467.964;    3.639; -682.189; -471.660
468.250;   65.341; -331.186; -160.665
468.536;   72.484;   90.811;  180.341
468.822;  -36.697; -821.184; -574.668
469.109;  131.804;  351.827;  471.311
469.395;  187.114;  729.808;  787.346
469.681;  191.487;   46.811;  156.341
469.967; 1257.642; -699.188; -382.660
470.254; 2712.774; -494.188; -306.662
470.540; 1739.597; -601.196; -476.646
470.826;  237.961; -488.181; -397.675
471.112;  299.131;  288.816;  113.331
471.398;   77.036; -253.183;  -58.670
471.684;   49.714; -626.177; -447.680
471.970;   -5.461; -918.180; -981.675
472.256;   31.338; -521.192; -441.654
472.542;    4.365; -499.171; -434.691
472.828;    2.896; -743.182; -607.672
473.114;   35.533; -380.166; -283.700
473.400;   11.680; -504.175; -293.684
473.686;   22.614; -452.166; -400.701
473.972;   42.344; -230.174; -131.687
474.258;  -54.971; -925.173; -843.689
474.544;  209.080; -183.178;   -2.679
474.830;  328.107;  -65.175;   45.316
475.116;  470.757; -123.190; -196.658
475.401;  649.467; -558.180; -467.676
475.687;  193.566; -725.180; -718.676
475.973;   -8.971; -673.181; -770.673
476.259;  242.934;  736.825;  764.315
476.544;  358.521; -539.176; -437.682
476.830;  822.411; -398.172; -322.690
477.116;  737.145; -430.177; -336.682
477.401;  134.741;  346.820;  358.324
477.687;  -20.820; -289.175; -405.684
477.973;   29.432;   21.819;   28.326
478.258;   -5.215; -448.163; -348.706
478.544;   55.796;   21.815;   61.334
478.829;  -53.454; -818.171; -738.692
479.115;  -35.489; -749.172; -651.690
479.401;  -22.610; -444.174; -449.686
479.686;   26.365; -253.180;  -74.676
479.972;  -39.440; -886.178; -776.680
480.257;   39.310; -258.166;  -65.700
480.542;  -16.876; -614.170; -469.693
480.828;  232.528; 1288.824; 1392.317
481.113;  -33.374; -464.176; -426.683
481.399;  -11.392; -236.161; -202.711
481.684;  -61.416; -620.166; -462.700
481.969;    9.846; -158.159;  -73.713
482.255;  -14.540; -439.169; -285.695
482.540;   -1.889; -569.178; -441.680
482.825;   -0.270; -395.187; -404.663
483.110;   84.663;  -85.169; -105.696
483.396;  197.343; -840.157; -652.718
483.681;  492.469;  543.826;  730.313
483.966;  153.590; -696.160; -700.712
484.251;  -10.807; -404.174; -310.687
484.536;  -11.805; -356.165; -378.703
484.822;    2.871; -205.173; -218.687
485.107;  -36.970; -599.152; -502.726
485.392;  123.550;  662.836;  541.296
485.677;   67.073;  354.832;  163.302
485.962;  108.915;  160.843;  270.283
486.247;   89.717;  -14.162;   -8.707
486.532;   46.436; -178.166; -325.701
486.817;  145.103;  381.839;  431.291
487.102;  120.989; -453.154; -514.722
487.387;  665.870; -637.156; -652.718
487.672; 1192.455; -154.164;  -38.705
487.957;  775.160; -394.160; -286.711
488.241;  190.247; -290.150; -314.729
488.526;  753.732; -280.152; -148.726
488.811; 1222.463; -881.177; -818.680
489.096;  916.366; -666.154; -702.723
489.381;  503.053;    3.847;  162.275
489.666;  391.283; -428.161; -510.710
489.950;  189.919;  558.846;  627.277
490.235;  -40.933; -480.151; -458.728
490.520;  -42.018; -756.161; -723.710
490.804;  -50.029; -827.156; -736.719
491.089;   -1.163; -469.149; -299.732
491.374;   20.054; -132.164;  -75.704
491.658;  -17.251; -817.147; -717.735
491.943;  136.361; -657.152; -609.727
492.227;  259.359; -178.155;  -38.721
492.512;   50.115; -294.157; -341.717
492.797;  -53.269; -713.149; -716.731
493.081;  -60.274; -588.147; -598.735
493.366;  -35.717; -751.161; -635.711
493.650;  196.854;  831.859;  917.254
493.935;   29.423; -648.147; -447.734
494.219;  -37.684; -778.142; -687.743
494.503;  -58.549; -585.150; -487.730
494.788;   45.132;   46.842;   74.285
495.072;  111.373;  184.850;  434.271
495.356;  160.991; -463.148; -343.733
495.641;  459.583; -812.146; -736.736
495.925;  409.801; -976.156; -903.719
496.209;   35.087; -599.149; -451.732
496.494;  -51.708; -763.142; -544.744
496.778;   -2.361; -364.154; -360.722
497.062;  -56.449; -819.156; -627.719
497.346;  -20.264; -869.160; -640.711
497.631;  136.694;  580.852;  560.266
497.915;   70.918;  -64.145;  175.261
498.199;   46.818; -341.157; -277.718
498.483;   25.630; -562.152; -508.725
498.767;  198.524;  301.850;  300.271
499.051;  174.035; -126.149; -100.732
499.335;   18.233; -693.149; -739.731
499.619;  -46.946; -381.129; -423.767
499.903;   18.583; -272.155;  -65.721
500.187;   34.496; -588.153; -316.724
500.471;    7.935; -796.152; -595.727
500.755;   97.157;   62.839;  -96.710
501.039;   17.284; -270.155; -357.721
501.323;   76.831;  -21.141;  264.254
501.607;    9.035; -447.163; -503.706
501.891;   -4.031; -607.156; -512.718
502.174;  -36.946; -726.144; -585.741
502.458;   71.614;   89.849;  370.273
502.742;   28.604; -180.138; -191.751
503.026;  115.573; -412.147; -254.734
503.310;  176.570; -437.159; -375.713
503.593;  114.849; -464.147; -325.735
503.877;  108.019; -232.133; -156.760
504.161;  176.873;    2.847;  -50.724
504.444;  143.609; -841.158; -710.716
504.728;  467.228; -487.164; -522.704
505.012;  733.971; -257.150;  -76.729
505.295;  545.583; -417.161; -212.711
505.579;  538.201; -256.156; -496.719
505.862;  773.015; -555.145; -333.738
506.146;  735.548; -681.159; -758.714
506.429;  419.898;  568.841;  461.286
506.713;   64.893; -732.151; -667.728
506.996;  323.413;   90.846;  295.278
507.280;  353.198; -633.165; -474.703
507.563;  242.432; -469.155; -261.721
507.847;   90.096; -423.153; -112.724
508.130;   94.834; -665.161; -456.711
508.413;  110.480; -758.167; -577.700
508.697;  247.806; -151.167;   12.300
508.980;  160.373; -422.153; -312.724
509.263;  -12.472; -466.155; -450.720
509.547;   42.696; -124.150;   82.271
509.830;   50.911; -172.160;  140.289
510.113;   76.651;  128.844;  298.281
510.396;   30.053; -530.152; -300.725
510.680;  154.266; -818.145; -812.738
510.963;  592.268;  184.846;  180.277
511.246;  493.404; -493.150; -357.730
511.529;  248.271; -482.145;  -83.739
511.812;  381.416; -250.134;   10.241
512.095;  286.165; -740.151; -396.728
512.378;   75.203; -317.147; -245.736
512.661;   24.262; -703.137; -623.753
512.944;   21.518; -750.142; -637.744
513.227;   62.059; -170.137; -171.752
513.510;   17.879; -479.144; -671.741
513.793;   31.335; -485.140; -435.747
514.076;  142.199;  -43.127;  -39.771
514.359;  104.888; -294.149; -135.732
514.642;   85.696; -442.142; -567.744
514.925;  768.333;  581.860;  561.253
515.208; 1022.587; -498.134; -443.758
515.491;  683.926; -276.133; -182.761
515.773;  383.033; -410.143; -337.742
516.056; 2126.843;  249.864;  409.246
516.339; 2852.672; -754.136; -652.755
516.622; 1892.401; -518.150; -488.730
516.904; 1182.615;  882.857;  975.257
517.187;  556.083; -730.138; -523.752
517.470;  405.964; -568.143; -510.743
517.752;  433.450; -624.136; -470.756
518.035;  331.445; -708.139; -725.749
518.318;  388.422; -799.136; -744.755
518.600; 2467.629; -300.132; -325.762
518.883; 3397.221;  310.858;   88.256
519.165; 1648.751; -585.138; -426.751
519.448;  368.454;  -61.132;  -19.762
519.730;  167.557; -573.126; -415.773
520.013;  300.922;  588.867;  664.240
520.295;  774.717;  -94.134;  -15.759
520.578; 1764.192; -335.131; -305.764
520.860; 1943.354; -254.132;   56.238
521.143; 1056.652; -763.135; -584.756
521.425;  470.569; -251.125; -279.775
521.707;  691.075; -622.127; -380.771
521.990; 1803.850; -199.127;  167.229
522.272; 2064.137; -116.140;   -4.748
522.554;  934.809; -237.143; -157.742
522.836;  343.990;  -24.134;   99.241
523.119;  200.571; -496.148; -189.734
523.401;  144.473; -448.130; -314.766
523.683;   87.987; -865.137; -693.753
523.965;  296.806;  408.862;  260.248
524.247;  272.190;   54.878;  170.220
524.529;  214.617; -451.134; -367.759
524.812;  362.750;   -3.130;  191.234
525.094;  861.730; -773.138; -631.751
525.376; 1372.853; -143.124;   78.223
525.658;  841.619; -441.136; -339.754
525.940;   38.838; -805.131; -671.764
526.222;   31.373; -188.136;  -88.755
526.504;  101.261; -190.131;   32.237
526.786;  181.395; -960.133; -647.760
527.068;  274.284; -124.123;  -67.778
527.349;  113.241; -865.137; -774.754
527.631;  129.204; -137.132;   22.238
527.913;  143.599; -664.127; -450.771
528.195;  158.512; -761.125; -639.774
528.477;  240.312;  -93.134;  -30.758
528.759;  138.725; -648.130; -522.766
529.040;   58.608; -569.123; -293.778
529.322;   56.590; -235.125;  -10.774
529.604;  140.552;  -47.130;   93.233
529.886;  113.606; -546.126; -302.773
530.167;  118.094;  232.870;  192.235
530.449;   29.603;    1.853;   63.265
530.731;   24.214; -572.122; -459.779
531.012;   61.210; -513.120; -216.784
531.294;   84.098; -118.116;  -43.792
531.575;  137.344;  290.875;  538.225
531.857;   58.632; -548.135; -266.757
532.138;   97.404; -113.141;   40.254
532.420;  171.978;  294.865;  403.244
532.701;  205.522; -722.133; -751.760
532.983;  340.250;  232.867;  182.239
533.264;  120.379; -243.126;  175.228
533.546;  -42.378; -491.136; -508.755
533.827;   33.569;  173.867;   -1.759
534.109;   37.207; -352.135;  -80.757
534.390;   80.208; -725.132; -582.762
534.671;  248.378; -270.135;  -82.756
534.953;  135.210; -751.123; -611.779
535.234;   12.134; -426.117; -255.789
535.515;  -81.207; -891.119; -735.785
535.796;  -14.705; -431.128; -193.770
536.078; -125.722;-1050.124; -904.777
536.359;   -1.639;  -22.123;    3.221
536.640;  -21.011; -480.125; -197.774
536.921;  164.583;  225.871;  143.232
537.202;  385.952;  -87.138;  -16.751
537.483;  465.166;  251.869;  377.236
537.764;  186.994;   17.870;   98.235
538.045;  -43.939; -543.134; -371.758
538.326;  -33.566; -596.129; -447.768
538.607;   28.401; -686.127; -476.771
538.888;  174.901;   98.879;    5.218
539.169;  187.946; -704.122; -535.781
539.450;  334.482;  236.871;   16.233
539.731;  217.155; -361.121; -182.783
540.012;  128.860;  199.880;  412.216
540.293;   83.098;   82.876;  158.224
540.574;   -0.456; -895.113; -717.796
540.855;  439.954;  435.879;  377.218
541.136;  516.968;   47.878;  139.220
541.416;  278.451; -161.130; -220.766
541.697;  206.012; -274.131; -170.763
541.978; 1068.680; -270.135; -315.757
542.259; 1354.075; -211.127; -236.771
542.539;  647.217; -191.116; -186.790
542.820;  186.569;  461.875;  480.225
543.101;  113.668;  -52.145;  -77.738
543.381;   26.750; -638.127; -591.771
543.662;  273.248;  159.873; -254.771
543.942;  570.696; -751.127; -830.770
544.223; 1075.095;  193.878;  161.219
544.504;  692.203; -275.124; -182.777
544.784;  593.206; -592.126; -408.773
545.065; 1680.996;  104.884; -254.791
545.345; 2008.993;  227.881;   14.215
545.626; 1300.493;  -14.113; -108.796
545.906;  916.194;   77.869;   98.235
546.186;  379.786;   92.874;  -95.773
546.467;  187.230;   99.877;  -95.778
546.747;  329.392;  264.884;  327.210
547.027;  386.501;   91.876;  111.223
547.308;  324.920; -376.127; -530.770
547.588;  411.260;  299.871;  371.232
547.868;  182.895;  458.870;  588.235
548.149;  197.554;  609.885;  593.207
548.429;  135.874; -347.127; -299.771
548.709;  204.410; -645.120; -461.784
548.989;  489.603;   84.882;   88.213
549.269; 2165.477;   10.868;  139.239
549.550; 4937.584;  215.877;  117.222
549.830; 4389.261; -758.111; -556.799
550.110;  880.493; -468.110; -320.801
550.390;  860.115; -128.122;  -56.779
550.670; 1133.014; -868.114; -783.795
550.950;  811.228; -509.121; -471.782
551.230;  176.124;  549.879;  460.218
551.510;   -8.773; -381.121; -326.782
551.790;   20.051; -173.109; -127.803
552.070;  266.130;  940.877; 1181.223
552.350;  404.747; -492.119; -377.786
552.630;  590.297;   -2.121;   77.219
552.909;  364.647;  181.884;   73.209
553.189;  234.634;  -49.132;   33.237
553.469;  207.822; -703.119; -514.786
553.749;  190.752; -469.127; -357.772
554.029;  167.563;   33.883;  -24.790
554.308;  155.458; -154.115;  -37.794
554.588;   50.869; -196.128; -204.770
554.868;   62.654; -366.121;  -47.782
555.147;  157.605; -114.115;  -46.793
555.427;  622.324; -260.116; -250.792
555.707; 3958.128; -284.115; -200.793
555.986; 4804.014; -719.111; -538.800
556.266; 2526.441;   23.884;   72.210
556.546;  121.852; -888.121; -675.782
556.825;  256.362; -657.114; -556.794
557.105; 1842.742; -125.128;   17.230
557.384; 2160.971;  122.884;  187.209
557.664;  826.398; -717.116; -508.792
557.943;  116.203; -557.121; -411.782
558.222;  178.031; -345.118; -344.788
558.502;  271.581; -116.115;  -76.793
558.781;  503.727;  194.885;  499.208
559.061;  404.756; -232.118; -227.788
559.340;  298.810;  302.883;  353.211
559.619;  727.616;   93.884;  148.210
559.899; 1047.662; -239.117; -266.789
560.178;  934.631; -778.115; -593.793
560.457; 3204.614; -623.117; -562.790
560.736; 4466.590; -472.111; -482.800
561.015; 2947.340; -500.128; -502.769
561.295;  390.696;  180.893;  215.193
561.574;  340.828;  119.885;  116.207
561.853;  466.005;  274.891;  303.197
562.132;  510.258;  -45.114;  182.206
562.411;  438.948;  396.879;  553.219
562.690;  129.851; -592.115; -458.792
562.969;  137.375;  472.888;  630.203
563.248;  494.820; 2966.878; 2487.219
563.527;  274.790; -290.111; -408.800
563.806;  401.724; -650.127; -521.771
564.085;  440.561; -297.105; -206.810
564.364;  237.890; -594.117; -405.790
564.643;  514.848; -276.121; -223.781
564.922; 1934.099;  221.890;  397.198
565.201; 1934.103; -640.109; -700.803
565.479;  835.825; -297.115; -219.792
565.758;  331.717; -810.128; -712.770
566.037;  488.079; -155.109; -100.803
566.316;  233.021; -286.116;  -28.791
566.595;   41.978;  -17.115;  -12.793
566.873;   99.792; -166.111;  -79.801
567.152;  -52.475; -490.113; -590.797
567.431;    3.117; -113.116;    6.210
567.709;   23.221; -344.107; -212.807
567.988;  254.587; -810.114; -769.794
568.266;  538.153; -160.115;  -68.793
568.545;  366.582; -644.100; -514.819
568.824;  605.025;  160.885;  356.208
569.102;  562.486; -351.114; -235.794
569.381;  229.949; -492.116; -407.792
569.659;  -40.254; -553.113; -553.796
569.938;   46.944; -743.122; -465.780
570.216;   91.332; -225.109; -225.804
570.494;  -30.710; -632.114; -572.795
570.773;   28.102;  202.879;  114.218
571.051;   23.133; -373.123; -357.778
571.330;   65.644; -221.113; -174.796
571.608;   34.049; -181.098; -173.823
571.886;  -73.216; -671.111; -581.799
572.164;  -66.546; -739.121; -621.782
572.443;  -52.936; -562.105; -512.811
572.721;  -35.336; -399.117; -289.790
572.999;  -28.517; -280.117; -168.788
573.277;   87.133;  379.894;  620.191
573.555;  289.410;   94.894;   37.190
573.834; 1384.907;  -86.117; -114.788
574.112; 1606.123;  880.893;  811.193
574.390;  499.391; -143.111;  -96.801
574.668;   -6.849;  -91.112;  -61.797
574.946;  -17.540; -165.106; -187.810
575.224;    9.003;   71.891;  -16.803
575.502;  -25.731; -200.116; -204.791
575.780;  -97.548; -767.112; -829.798
576.058;  131.940; 1589.889; 1004.200
576.336;  -26.005; -210.110; -129.801
576.614;  -48.698; -511.112; -340.798
576.891;   51.082; -711.115; -823.794
577.169;  503.414; -158.108; -285.805
577.447;  586.648;  169.893;  202.193
577.725;  279.556;  629.888;  854.201
578.003;    2.855;  -71.112; -371.798
578.280;   93.348; -208.104; -242.812
578.558;   57.956; -450.115; -422.793
578.836;  118.164; -210.114; -145.795
579.114;   32.050; -630.112; -670.797
579.391;   59.484;   -6.117;  -18.789
579.669;  -73.517; -595.114; -704.794
579.947;  168.119; -326.107; -127.806
580.224;  325.894; -692.107; -524.806
580.502;  317.323;  127.893;   76.193
580.779;   20.115;  -42.117;   75.210
581.057;  -53.893; -584.109; -470.804
581.334; -106.412; -726.102; -695.815
581.612;   43.761;   54.895;  511.190
581.889;  -32.849;  -83.101; -129.818
582.167;  -36.335; -298.099; -190.821
582.444;  -99.130; -845.102; -814.817
582.721;   89.946;  657.899;  715.183
582.999;   46.487; -326.100; -167.821
583.276;  546.312; -812.123; -713.779
583.553;  737.141; -364.102; -294.816
583.831;  233.320; -607.104; -631.812
584.108;   54.862;  349.892;  174.195
584.385;   23.162; -122.102;  -98.815
584.662;  -67.458; -651.111; -828.801
584.940;   20.341;  204.889;  204.199
585.217;  -19.729;  -73.113; -303.796
585.494;   32.375;   71.890;  118.198
585.771;  219.358; -250.109; -354.804
586.048;  500.171; -196.113;  -76.796
586.325;  309.544; -721.110; -773.801
586.602;   84.448;  230.896;  213.188
586.879;  -13.366; -499.100; -580.820
587.156;   33.837; -156.105; -331.810
587.433;  -41.682; -701.102; -667.817
587.710;   69.403;  152.888;  234.202
587.987;  283.192; -264.105; -236.811
588.264;  800.104;  315.888;  387.202
588.541; 1352.001;  -61.104;   26.187
588.818; 2691.335;   72.892;  171.196
589.095; 2319.896; -163.104; -174.812
589.371;  396.106; -459.109; -414.804
589.648;   14.098; -581.107; -437.807
589.925;   25.915; -517.114; -621.795
590.202;    6.627; -741.112; -607.798
590.478;   86.044; -166.105;  -73.811
590.755;  272.416; -241.108; -132.806
591.032; 2502.822; -741.110; -699.802
591.308; 3485.214; -732.094; -790.831
591.585; 1803.596; -573.110; -560.802
591.862;  131.995;-1056.102; -950.817
592.138;   70.488; -475.108; -474.805
592.415;  138.349; -486.104; -495.813
592.691; 1490.772;  460.896;  518.188
592.968; 1877.826; -208.098; -123.824
593.244;  903.617; -695.116; -595.790
593.521;   61.195; -105.102;  -42.817
593.797;  -27.809; -810.122; -720.780
594.074;  332.889; -611.096; -588.826
594.350;  637.625;  828.905;  729.172
594.626;  297.742; -303.111; -283.801
594.903;  108.171; -643.101; -645.817
595.179;  200.603;  243.896;  418.187
595.455;    8.799; -136.107; -150.807
595.731;   -9.521;  -19.103;  -38.814
596.008;  -40.538; -464.111; -434.800
596.284;   15.611; -187.100; -242.820
596.560;   55.695; -501.093; -493.833
596.836;  207.914; -173.105;  -70.810
597.112;  334.564; -582.108; -437.805
597.388;  295.412;  -49.097;  -48.826
597.665;  116.398;  437.887;  530.203
597.941;  -63.351; -572.089; -658.839
598.217;   21.175; -323.110; -293.802
598.493;  246.084;   61.891; -204.804
598.769;  516.155; -175.100;  -50.819
599.045;  304.642; -490.108; -562.806
599.321;   38.485; -193.100; -261.820
599.597;  146.983; -355.109; -476.804
599.872;  497.951;  409.896;  429.187
600.148;  378.988;  -61.097; -172.826
600.424;  292.922;   91.893;  202.193
600.700;  231.499; -170.107; -280.807
600.976;  116.358; -442.097; -464.825
601.252;  245.380; -226.109; -272.803
601.527;  223.202; -833.104; -840.813
601.803;  138.944; -453.105; -404.812
602.079;  178.030; -124.100; -118.819
602.354;  565.630; -620.092; -531.835
602.630;  853.921; -140.113; -482.796
602.906; 2347.151; -910.101; -863.818
603.181; 6815.722; -627.119; -534.786
603.457; 5757.136;   98.903; -278.826
603.733;  830.081; -605.120; -626.783
604.008;  966.536; -245.106; -164.810
604.284; 3089.772; -636.101; -580.817
604.559; 2651.006;   -3.112;  -42.799
604.835;  487.213; -163.105; -225.810
605.110;  410.315; -732.099; -892.821
605.385;  701.898;  224.907;  267.167
605.661;  643.402; -625.095; -729.829
605.936; 1168.017; -664.108; -737.806
606.211; 1008.111;  -17.103; -170.815
606.487;  194.960; -329.114; -376.794
606.762;   10.172; -791.119; -745.786
607.037;  -22.261; -501.105; -433.810
607.313;  -70.479; -589.096; -574.828
607.588;    0.435; -375.106; -137.810
607.863;   42.850;  -28.101; -143.818
608.138;  180.898;  513.890;  516.198
608.413;   25.644; -576.099; -592.822
608.688;   48.539; -203.108; -267.805
608.964;  199.930; -509.106; -218.809
609.239;  250.436; -107.105; -212.810
609.514;  248.644;  281.895;  240.188
609.789;  652.923; -187.104; -716.812
610.064;  866.645; -435.096; -609.827
610.339;  875.906; -855.109; -799.804
610.614; 1206.010; -131.100; -315.820
610.889;  660.544;  215.895;  107.188
611.163;   30.345; -407.104; -591.812
611.438;   96.461;   81.886; -167.794
611.713;    1.847; -467.101; -499.817
611.988;   63.074; -144.101; -328.818
612.263;  -30.312; -771.102; -717.815
612.538;  207.370;  385.887;  251.204
612.812;  175.112; -832.100; -911.820
613.087;  148.724; -358.098; -338.823
613.362;  -65.601; -497.107; -557.807
613.637;   54.582;  261.897;  138.186
613.911;   -3.994; -256.092; -345.835
614.186;  121.397; -249.107; -292.807
614.460;  703.323; -842.081; -758.854
614.735;  799.922;  -55.087;  -17.843
615.010;  145.862;   43.912;  -82.841
615.284;  265.738;  360.892;  246.195
615.559;  362.404; -792.092; -955.835
615.833;  297.092;  -76.099;  -87.822
616.108;    4.716; -225.090; -390.837
616.382;  144.574;  274.913;  402.156
616.656;  152.392; -241.090; -232.837
616.931;  500.893; -785.099; -700.822
617.205; 1063.377; -973.104; -979.813
617.480;  990.617;  -91.125;    6.225
617.754;  148.565; -396.125; -128.774
618.028;    0.411; -369.129; -382.768
618.302;   55.912;   73.892;  -25.805
618.577;  -54.442; -371.103; -518.815
618.851;  -66.948; -399.109; -600.803
619.125;  -51.833; -335.134; -378.759
619.399;  -59.148; -244.104; -374.813
619.673;  -53.275; -330.115; -515.792
619.947;  -48.636; -333.114; -448.795
620.222;  -17.532; -198.110; -204.801
620.496;   -9.071;  -47.121;  -96.782
620.770;    4.945; -187.122;  -93.781
621.044;  196.862;  323.895;  346.190
621.318;  722.831; -653.120; -614.783
621.592;  674.654; -430.121; -409.783
621.866;  372.782; -476.112; -572.799
622.140;    6.094; -207.116; -356.791
622.413;   64.886;  138.889;  112.200
622.687;  -44.128; -746.101; -492.817
622.961;    9.137; -130.108; -143.805
623.235;  -70.088; -633.111; -661.800
623.509;  -99.007; -816.105; -848.811
623.783;    4.245;  -12.107;   48.193
624.056;  -33.317; -254.120; -280.783
624.330;   47.451;   63.888;   -3.797
624.604;   48.965; -271.116; -355.790
624.877;   67.247;  180.890;   26.198
625.151;   33.159; -249.114; -238.794
625.425;  -37.921; -150.103; -283.814
625.698;  -67.083; -367.119; -374.785
625.972; -117.550; -799.110; -765.802
626.245;   59.692;  685.884;  484.210
626.519;  -54.613; -426.120; -340.784
626.792;  -32.501; -192.107; -380.807
627.066;  -84.437; -485.122; -662.779
627.339; -100.029; -736.110; -663.802
627.613;   40.935;  351.880;  148.216
627.886;   46.852;  187.891; -612.803
628.160;  -16.894;  312.880; -161.783
628.433;  -94.205; -695.125; -703.775
628.706;  -89.663; -517.120; -615.784
628.979;   27.176;  296.876;  117.223
629.253;  -98.079; -785.119; -833.786
629.526;  374.280; -334.126; -253.772
629.799;  332.858; -641.123; -479.778
630.072;  164.362; -497.128; -516.769
630.346;  -64.908;-1115.116;-1080.790
630.619;  461.800; -467.107; -545.808
630.892;  627.188;  709.889;  593.200
631.165;  337.852;  790.896;  679.187
631.438;  -92.996;-1092.112;-1055.798
631.711;   47.061;  453.877;  257.221
631.984;  -70.137; -523.117; -624.789
632.257;  -71.416; -636.117; -681.789
632.530;  -55.833; -412.119; -433.785
632.803;   32.657; -109.115;    7.207
633.076;  -72.670; -360.123; -422.777
633.349;    7.416;  173.872;  121.231
633.622;  -38.709; -187.119; -240.785
633.895; -119.043; -903.120; -823.783
634.167;  -79.943; -496.126; -525.773
634.440;    1.573;  -19.116; -137.792
634.713;   -5.380;  -22.119; -120.786
634.986;   68.906;  593.871;  453.233
635.258;  -91.195; -507.115; -597.793
635.531;  106.405;  742.882; -343.788
635.804;  -44.714; -303.117; -318.789
636.077;  -86.855; -830.116; -852.791
636.349;  -16.396; -586.115; -474.793
636.622;  373.879; 1695.874; 1392.228
636.894;  247.612; -474.120; -909.784
637.167;  158.873; -836.127; -789.771
637.439;   -0.531; -278.128; -213.770
637.712;  -43.044; -312.126; -293.772
637.984;  -96.055; -635.116; -707.791
638.257;  378.781;  515.877;  488.222
638.529;  551.171; -881.125; -924.776
638.802;  235.337; -508.128; -449.769
639.074; -120.230; -927.122; -952.781
639.346; -130.716; -942.135; -930.757
639.619;   -8.730;  -79.142; -319.744
639.891;  -17.186;  -83.122; -168.779
640.163;  -95.210; -689.122; -756.780
640.435;   28.817;  273.878;  103.220
640.708;   -1.981;  -72.122; -132.780
640.980;  -32.504; -366.122; -362.781
641.252;  182.248;  -25.121;  -71.781
641.524; 1789.149;  580.879;  573.219
641.796; 1789.501;-1094.121; -907.782
642.068;  324.778; -191.121; -300.782
642.340;  -61.945; -486.121; -566.783
642.613;   35.657;  294.880;  323.217
642.885; -108.817; -787.120; -878.783
643.157;  -41.290; -810.120; -658.784
643.428;   51.387;  170.880;  218.216
643.700;  -78.861; -498.120; -425.784
643.972;  -35.384;  -16.119; -133.785
644.244;  -96.133; -474.119; -559.785
644.516;  -62.956; -250.119; -114.786
644.788;   61.046;  662.881;  548.214
645.060;  -33.427;  -12.119; -124.786
645.332;  -92.950; -525.118; -535.787
645.603;   20.401;  479.882;  342.213
645.875;  -81.247; -334.118; -369.787
646.147;  164.805; 1487.882; 1242.212
646.418;  -62.268; -931.117; -918.788
646.690;  130.059; -714.117; -715.789
646.962;   31.560; -413.117; -451.789
647.233;  -20.163;   15.883;   11.211
647.505; -110.711; -595.117; -475.790
647.776;   26.916;  328.884;  229.210
648.048;   -3.057; -248.116; -418.790
648.320;  -82.631; -752.116; -679.791
648.591; -162.579;-1055.116; -958.791
648.862;  -92.377; -505.116; -577.792
649.134;   17.925;  115.885;  198.208
649.405;  -54.548; -661.115; -618.792
649.677;  -59.022; -475.115; -598.793
649.948;   -9.520; -181.115; -296.793
650.219;   -7.143;  -37.115; -147.793
650.491;  -82.616; -431.114; -520.794
650.762; -123.439; -705.114; -731.794
651.033;  -99.013; -437.114; -424.795
651.304;  -84.211; -743.114; -728.795
651.576;  -84.459; -680.114; -645.795
651.847;  -47.782; -250.113; -140.796
652.118;  -49.455;  -32.113; -189.796
652.389; -105.529; -639.113; -722.796
652.660;  -27.652; -147.113;  -89.797
652.931; -139.150; -897.112; -871.797
653.202;  -85.948; -382.112; -541.798
653.473;  -82.771; -633.112; -533.798
653.744;  161.055; -595.112; -590.798
654.015;  131.057; -356.112; -303.799
654.286;  -71.816; -642.111; -663.799
654.557;  -54.439; -586.111; -521.799
654.828; -158.312;-1114.111;-1088.800
655.099;  -93.436; -404.111; -291.800
655.370; -100.309; -427.111; -543.801
655.641; -113.832; -656.110; -714.801
655.911; -104.180; -618.110; -638.801
656.182;   41.722;  437.890;  387.198
656.453;   77.023;  830.890;  746.198
656.724;  -70.400; -466.110; -426.802
656.994;  -86.248; -553.109; -568.803
657.265; -100.921; -862.109; -873.803
657.536;  -82.344; -500.109; -377.804
657.806; -119.743; -561.109; -593.804
658.077; -153.266; -866.109; -950.804
658.347;  -82.389; -523.108; -598.805
658.618; -123.837; -646.108; -694.805
658.888;  -16.610;  -41.108;  112.195
659.159;  -91.884; -432.108; -548.806
659.429;  -23.332; -292.108; -349.806
659.700;   -0.255; -435.107; -390.807
659.970;    3.247; -370.107; -359.807
660.241;    6.899; -754.107; -921.807
660.511;  499.700; -147.107; -174.808
660.781;   69.127; -793.106; -748.808
661.052;  -46.121; -222.106; -381.808
661.322;  -33.069;   21.894;   -9.809
661.592;   17.933;  257.894;  148.191
661.862;  -74.591; -369.106; -382.810
662.133;  -98.964; -551.105; -502.810
662.403; -137.387; -770.105; -676.810
662.673;  -49.160; -256.105; -213.811
662.943; -105.658; -612.105; -551.811
663.213;  -11.132;  -85.105;  -81.811
663.483;  -85.830; -593.104; -568.812
663.753;  -51.928; -194.104; -152.812
664.023;  -28.776;   68.896;  -32.813
664.293;  -67.774; -319.104; -126.813
664.563; -109.922; -694.104; -648.813
664.833; -125.071; -743.103; -608.814
665.103; -133.669; -730.103; -793.814
665.373; -121.367; -766.103; -806.814
665.643; -102.965; -863.103; -918.815
665.913;   29.762; -534.103; -714.815
666.182;  132.413; -685.102; -719.816
666.452;  269.790;  -22.102;  -89.816
666.722;  -37.383; -724.102; -784.816
666.992; -131.181; -948.102; -921.817
667.261; -100.579; -824.102; -808.817
667.531;  202.047;  134.899;   45.183
667.801;  539.324; -440.101; -412.818
668.070;  243.651;  714.899;  697.182
668.340; -110.722; -883.101; -840.819
668.609;   98.130;  588.900;  301.181
668.879;  -85.994; -490.100; -558.819
669.149;  -85.292; -539.100; -516.820
669.418; -126.065; -698.100; -726.820
669.688;  -37.513; -482.100; -666.820
669.957;   68.014; -423.099; -546.821
670.226;  -27.285; -268.099; -331.821
670.496; -109.783; -431.099; -635.822
670.765;  -78.881; -418.099; -501.822
671.034; -142.079; -872.099; -828.822
671.304;   -0.427;   55.902; -111.823
671.573; -154.726;-1085.098; -957.823
671.842;   84.251; -380.098; -294.823
672.112;   24.253; -692.098; -586.824
672.381;   -6.920; -239.098; -214.824
672.650; -145.468;-1005.097;-1021.825
672.919; -101.017; -631.097; -507.825
673.188; -112.690; -681.097; -878.825
673.457; -149.338;-1101.097;-1143.826
673.726;  -79.861; -579.096; -646.826
673.995;  -43.134; -533.096; -479.826
674.265;  -15.783; -263.096; -333.827
674.534;    6.344; -183.096; -235.827
674.802;   -7.304; -618.096; -703.828
675.071; 1007.673; -886.095; -801.828
675.340; 3927.700; -464.095; -339.828
675.609; 1289.426;  103.905;   82.171
675.878;   64.453; -949.095; -893.829
676.147;   30.780;  -26.095;   -8.829
676.416;   87.732; -210.094; -294.830
676.685;  744.359; 1000.906; -622.830
676.953;  105.660; -603.094; -452.831
677.222;  -29.688; -193.094; -273.831
677.491;  -32.286;  -24.094; -127.831
677.759;  -16.659;   11.907;  172.168
678.028;  -16.257; -279.093; -222.832
678.297;  -14.581;   71.907;  197.168
678.565; -155.004; -898.093; -944.833
678.834;  -65.102; -311.093; -268.833
679.102;  -88.650; -411.092; -391.834
679.371; -141.948; -898.092; -727.834
679.639; -139.672; -797.092; -786.834
679.908; -119.620; -794.092; -724.835
680.176; -157.518; -895.091; -941.835
680.445;  -88.566; -346.091; -352.835
680.713;  -22.489;  -58.091;  -23.836
680.982;  -94.563; -523.091; -525.836
681.250; -124.261; -578.091; -507.837
681.518; -106.034; -534.090; -751.837
681.787;  -26.782; -204.090; -167.837
682.055;  -65.830; -490.090; -422.838
682.323; -149.054; -993.090; -992.838
682.591;   40.148; -216.090; -538.838
682.859;   84.575;    9.911;  -35.839
683.128;   15.027;  232.911;  497.161
683.396; -176.246;-1102.089;-1122.840
683.664;  -50.920; -241.089;   21.160
683.932;  -16.668;  144.911;  -76.840
684.200;  -75.141; -576.088; -320.841
684.468;  -30.539;  -73.088; -124.841
684.736;  -33.887; -214.088; -175.841
685.004; -120.761;-1024.088; -982.842
685.272;  -58.584; -880.088; -774.842
685.540;  -77.207; -499.087; -557.843
685.808;  -86.805; -651.087; -682.843
686.076; -107.803; -894.087; -969.843
686.343;  -47.827; -601.087; -815.844
686.611;   38.650; -195.087; -224.844
686.879;  467.527; -530.086; -553.844
687.147; 3299.279; -483.086; -480.845
687.414;  933.531;  -12.086; -169.845
687.682;    9.207; -658.086; -757.846
687.950;  300.859;  259.915;  263.154
688.217;    7.411; -792.085; -760.846
688.485;  -17.487; -632.085; -636.847
688.753;  538.340;  -11.085; -102.847
689.020;  159.067; -820.085; -851.847
689.288; -113.757; -853.084; -787.848
689.555;  -25.705; -195.084; -148.848
689.823;  -63.853; -241.084; -345.849
690.090;  -80.351; -546.084; -651.849
690.358; -156.074; -877.084; -897.849
690.625;    5.127;  120.917;   45.150
690.892;  -81.671; -403.083; -369.850
691.160;  -23.244;   72.917;  -35.850
691.427;   -7.117;  141.917;  130.149
691.694; -142.090; -855.083; -929.851
691.962; -154.164;-1177.082;-1060.852
692.229;    6.838;  127.918;   56.148
692.496;   72.865;  130.918;  -49.852
692.763;    8.792; -164.082; -201.853
693.031;  -87.081; -739.082; -716.853
693.298;  -47.455; -509.081; -368.853
693.565;  303.047; -155.081; -163.854
693.832; 1277.099;   -5.081;   -9.854
694.099;  136.151; -643.081; -642.855
694.366;  -73.772; -882.081; -896.855
694.633;  -68.846; -920.080; -633.855
694.900;  738.581; 4367.920; -114.856
695.167;  411.558; -214.080; -380.856
695.434;  113.885; -646.080; -623.856
695.701;  185.562;  121.921;  -61.857
695.968;  446.738; -365.079; -361.857
696.234;  982.465; -415.079; -646.858
696.501;10230.467; -776.079; -614.858
696.768; 5178.569; -554.079; -617.858
697.035;  306.671; -632.078; -667.859
697.302;   23.747; -448.078; -552.859
697.568;   16.524; -458.078; -497.859
697.835;  -51.024; -683.078; -624.860
698.102;  -15.497; -498.078; -407.860
698.368;   80.555;  384.923;  396.139
698.635;  -34.544;  -47.077; -424.861
698.901;  -23.917; -240.077; -348.861
699.168;   65.635; -534.077; -456.862
699.435;   56.112;  -72.077;  -13.862
699.701; -104.011; -868.076; -764.862
699.968;    4.165;  144.924; -441.863
700.234; -103.908; -783.076; -822.863
700.500;  -55.031; -448.076; -539.864
700.767;  -13.754;   -1.075;   26.136
701.033; -135.452;-1015.075; -963.864
701.299;  -61.451; -450.075; -483.865
701.566;  101.651;  950.925;  763.135
701.832;   33.453;  -31.075;  -76.865
702.098; -105.595;-1054.074;-1034.866
702.365;  -93.368;-1098.074;-1030.866
702.631;  -39.942;-1038.074;-1063.867
702.897; 1339.135; -765.074; -676.867
703.163; 2266.912;  348.926;  254.133
703.429;  155.039; -256.073; -273.868
703.695;  -44.659; -796.073; -792.868
703.961;   19.842; -214.073; -210.868
704.227;  -63.331; -630.073; -725.869
704.493;  131.471;  613.927;  510.131
704.759;  -33.477; -565.072; -540.870
705.025;   26.325; -203.072; -194.870
705.291;  -26.299; -666.072; -562.870
705.557;  208.453;  719.928;   34.129
705.823;   16.230; -742.072; -694.871
706.089;  128.632; -307.071; -326.871
706.355;  352.134; -315.071; -244.872
706.620; 5385.835; -776.071; -729.872
706.886; 7667.012; -309.071; -362.873
707.152;  725.389; -818.070; -973.873
707.418;  -16.584;-1153.070;-1186.873
707.683;  -12.132; -550.070; -530.874
707.949;  -66.431; -547.070; -578.874
708.215;    4.646; -129.070; -207.874
708.480;  -40.127; -520.069; -420.875
708.746;   83.750;   68.931;   28.125
709.011;  -69.348; -578.069; -612.876
709.277;  -78.147; -538.069; -543.876
709.542;  -69.220; -428.069; -387.876
709.808;  -13.643;  -59.068;   89.123
710.073;  -91.741; -577.068; -695.877
710.339;  -36.039; -242.068; -228.877
710.604;   68.762; -780.068; -845.878
710.869;  312.439; -277.068; -366.878
711.135;  -64.534; -715.067; -628.879
711.400;  -83.132; -507.067; -608.879
711.665;  -56.255; -404.067; -479.879
711.931;  -88.779; -661.067; -677.880
712.196; -139.277; -876.067; -954.880
712.461;   86.300; -402.066; -490.880
712.726;  145.777; -727.066; -771.881
712.991;  -94.546; -647.066; -664.881
713.256;  -64.769; -350.066; -332.882
713.521;  -63.293; -417.065; -381.882
713.787;  -74.816; -454.065; -472.882
714.052;  -37.264; -214.065; -400.883
714.317; -100.137;-1045.065; -981.883
714.581;  982.790; -374.065; -268.883
714.846; 1375.166; -822.064; -888.884
715.111;  130.443;  261.936;  257.116
715.376;  -33.805;  -86.064; -223.885
715.641;  -16.678; -365.064; -367.885
715.906;  288.174;   15.936; -551.885
716.171;  137.700;  221.937;  209.114
716.436;   34.227;  -78.063; -104.886
716.700; -122.846; -818.063; -692.886
716.965; -137.519; -794.063; -807.887
717.230;  -76.717; -339.063; -392.887
717.494;  -32.016;  -40.062; -134.888
717.759; -105.014; -784.062; -640.888
718.024;  -11.812;  269.938;  250.112
718.288;   84.790;  685.938;  395.111
718.553; -162.308; -803.062; -977.889
718.817; -137.432; -883.061; -899.889
719.082;  -41.030; -115.061; -125.890
719.346; -143.228;-1000.061; -947.890
719.611;  -62.126; -300.061; -255.891
719.875;  -98.099; -568.060; -537.891
720.140;  -64.348; -453.060; -603.891
720.404;   39.354; -136.060; -249.892
720.668;  854.781; -475.060; -411.892
720.933;  334.533;  146.940;  137.108
721.197; -112.340; -667.059; -600.893
721.461; -130.439; -851.059; -826.893
721.725;  -25.162;  -21.059; -250.894
721.990;  -63.685; -284.059; -204.894
722.254;  -42.883;  -26.059; -108.894
722.518;  -74.356; -286.058; -442.895
722.782; -106.555; -743.058; -594.895
723.046;  110.122;  614.942;  570.105
723.310;   13.149;  374.942;  210.104
723.574;  -96.024; -654.058; -614.896
723.838; -112.972; -576.057; -642.897
724.102;  -54.971; -226.057; -239.897
724.366; -146.419;-1032.057; -978.897
724.630; -115.242; -749.057; -571.898
724.894;  -93.990; -722.057; -514.898
725.158;  -22.938;   38.944; -295.898
725.422;  -80.412; -394.056; -327.899
725.685;  -77.835; -441.056; -349.899
725.949;  -97.033; -566.056; -519.900
726.213;  -79.131; -732.056; -811.900
726.477;  165.921;-1020.055; -933.900
726.740;  148.522; -274.055; -104.901
727.004;  330.399; -384.055; -510.901
727.268; 3283.226; -442.055; -400.901
727.531;  887.403; -961.055; -775.902
727.795;  -38.895; -713.054; -673.902
728.059;  -79.244; -552.054; -557.903
728.322;  -76.342; -841.054; -669.903
728.586;    3.985; -692.054; -701.903
728.849;  -83.388; -695.053; -756.904
729.112; -125.186; -812.053; -912.904
729.376; -134.260; -959.053; -905.904
729.639;  -80.133; -536.053; -536.905
729.903; -116.256; -733.053; -699.905
730.166;  -54.179; -437.052; -399.906
730.429;  -39.902; -317.052; -468.906
730.693;  -73.451; -355.052; -894.906
730.956;  212.801;  810.948;  651.093
731.219;  691.303; -310.052; -103.907
731.482;  118.780;-1003.051; -894.907
731.745;   90.832; -794.051; -935.908
732.009;    3.358;  -30.051;   50.092
732.272; -110.865; -904.051; -771.909
732.535;  -45.963; -300.051; -310.909
732.798; -164.886;-1083.050;-1166.909
733.061;  -69.059; -430.050; -456.910
733.324;   -4.183;   31.950; -180.910
733.587;   49.394;  290.950;  365.090
733.850;  -83.279; -973.049;-1050.911
734.113;   36.148;   33.951;   32.089
734.376;   -2.225; -328.049; -447.912
734.639;  206.101; 1188.951; 1011.088
734.901;   55.253; -180.049; -402.912
735.164;  478.005; -883.048; -837.913
735.427; 1302.607; -166.048; -355.913
735.690;  112.834; -205.048; -234.913
735.952;  -57.765; -923.048; -925.914
736.215;  -29.163;-1113.048;-1009.914
736.478;   24.414; -771.047; -774.915
736.740;  208.541;   33.953;  129.085
737.003;  657.368; -658.047; -672.915
737.266; 4095.845;  -94.047;   46.084
737.528;  419.096; -682.047; -660.916
737.791;  305.473; -316.046; -327.916
738.053;  783.525;  465.954;  649.083
738.316;10699.227; -162.046; -136.917
738.578; 7565.379; -770.046; -736.918
738.841;  432.580; -382.046; -446.918
739.103;  153.507; -875.045; -777.918
739.365;  508.309;   79.955;  -69.919
739.628;  -21.939; -884.045; -805.919
739.890;  -36.737; -758.045; -710.919
740.152;  -48.986; -692.044; -754.920
740.414;  -13.134; -408.044; -359.920
740.677;  -65.457; -785.044; -634.921
740.939;  -52.230; -587.044; -487.921
741.201;  273.947; -432.044; -572.921
741.463;   37.373; -689.043; -745.922
741.725;   -0.525;  -21.043; -199.922
741.987;   61.927;  220.957;  116.078
742.249;   -8.421; -751.043; -859.923
742.511;  197.706; -703.043; -794.923
742.773;    6.282; -546.042; -546.924
743.035;  122.384;  796.958;  533.076
743.297;  -47.889; -963.042;-1013.924
743.559;  729.563; -278.042; -262.925
743.821;   54.240; -735.042; -744.925
744.083;    8.191;  -44.041; -149.925
744.345; -102.282; -869.041; -892.926
744.607;   20.120;   75.959;  122.074
744.868;  -68.903; -490.041; -554.927
745.130; -112.801; -994.041;-1008.927
745.392;   44.300;   -1.040;  -44.927
745.653;  -15.073; -411.040; -378.928
745.915;  140.129;  896.960;  631.072
746.177;   48.931;   35.960;  -43.928
746.438;  -19.492; -428.040; -543.929
746.700;  -50.116; -947.039; -988.929
746.961;  -14.339; -659.039; -740.930
747.223;  134.963; -190.039;  -74.930
747.484;   75.240; -391.039; -471.930
747.746;  146.017;  -23.038; -106.931
748.007;  101.043; -647.038; -689.931
748.269;  297.120; -468.038; -440.931
748.530;  460.997; -852.038; -638.932
748.791;  257.049; -354.038; -420.932
749.053;  417.401;  286.963;  163.067
749.314;  444.527; -236.037; -169.933
749.575;  508.254; -945.037; -905.933
749.836;  847.531; -217.037;   86.066
750.098; 2449.608;  -60.037;  -21.934
750.359;36715.585;  414.964;  555.066
750.620; 9403.661; -121.036; -220.935
750.881; 1044.188; -585.036; -513.935
751.142; 1346.140; -950.036; -938.936
751.403;16683.942; -789.036; -705.936
751.664; 7387.544;-1034.035; -999.936
751.925;  494.795; -175.035; -262.937
752.186;  272.497; -298.035; -278.937
752.447;  123.374; -590.035; -445.937
752.708;   48.201; -532.035; -648.938
752.969;    7.878; -566.034; -576.938
753.230;  -18.871; -777.034; -672.939
753.491;  -10.119; -650.034; -631.939
753.751;   50.258;  109.966;   19.061
754.012;   85.010;  258.967;  181.060
754.273;   54.712; -174.033;  -71.940
754.534;    3.188; -487.033; -580.940
754.794; -101.885; -926.033; -911.941
755.055;  132.067; 1051.967;  881.059
755.316;  -59.506; -700.032; -566.942
755.576;  -34.779; -606.032; -576.942
755.837;  -50.728; -527.032; -695.942
756.097;  -44.726; -530.032; -564.943
756.358;  -85.274; -725.032; -770.943
756.618;  -58.172; -705.031; -641.943
756.879;   -3.745; -254.031; -349.944
757.139; -128.569;-1098.031;-1116.944
757.400;  -67.242; -538.031; -553.945
757.660;  -18.090; -365.031; -401.945
757.920;    3.662; -266.030; -228.945
758.181;  -12.911; -468.030; -351.946
758.441; -103.185; -870.030; -809.946
758.701;  -27.958; -308.030; -215.946
758.961;  -30.231; -220.030; -278.947
759.222;  -56.854; -574.029; -502.947
759.482;  -82.702; -683.029; -723.948
759.742;  -98.151; -706.029; -547.948
760.002;    3.751;  -83.029; -143.948
760.262;   30.453;   50.972;  182.051
760.522;  -57.870; -498.028; -574.949
760.782;  -63.368; -738.028; -612.949
761.042;  -43.516; -618.028; -573.950
761.302;   42.085;   55.972;  -18.950
761.562;   38.487; -164.027; -154.951
761.822;   68.864; -710.027; -551.951
762.082;  -59.609;-1104.027;-1093.951
762.342;   62.643; -328.027; -403.952
762.601;   77.619; -567.027; -506.952
762.861;  384.896; -281.026; -207.952
763.121;  406.023; -406.026; -411.953
763.381; 7350.000; -499.026; -485.953
763.640; 8126.527; -139.026; -307.954
763.900;  362.028; -242.026; -203.954
764.160;   72.905; -458.025; -491.954
764.419;  -14.168; -726.025; -782.955
764.679;  -83.716; -795.025; -726.955
764.939;   -8.114; -124.025; -210.955
765.198;  -82.488; -608.025; -563.956
765.458; -101.411; -710.024; -612.956
765.717;  -90.834; -454.024; -590.957
765.976;  -78.682; -428.024; -411.957
766.236;  -83.355; -475.024; -610.957
766.495;   19.496;  260.977;   73.042
766.755; -100.952;-1090.023; -987.958
767.014;   10.375; -594.023; -665.958
767.273;  -67.923; -373.023; -397.959
767.533;  -57.246; -228.023; -307.959
767.792;  -54.070; -151.022; -188.960
768.051;  -57.618; -228.022; -276.960
768.310;  -94.016; -546.022; -650.960
768.569;  -14.864; -161.022;    4.039
768.828;  -46.887; -285.022; -363.961
769.088; -122.636;-1050.021; -942.961
769.347;  -98.084; -755.021; -599.962
769.606;  -97.007; -876.021; -857.962
769.865; -134.755;-1016.021;-1033.963
770.124;  -17.903; -411.021; -336.963
770.383;  -61.252; -778.020; -910.963
770.641;    4.475; -398.020; -400.964
770.900;  -79.023; -953.020; -846.964
771.159;  -51.446; -851.020; -951.964
771.418;  -33.819; -917.020; -779.965
771.677;  105.557; -224.019; -293.965
771.936;  122.959; -794.019; -865.966
772.194; 2118.086; -465.019; -437.966
772.453;10856.988; -213.019; -391.966
772.712;  744.640;  416.982;  329.033
772.970;  102.841;   32.982;   63.033
773.229;   68.818;  -22.018;  102.033
773.488;  -97.330; -814.018; -770.968
773.746;   53.572;  296.982;  335.032
774.005;  -15.701;  190.983;  -22.969
774.263;   -2.975;  243.983;  177.031
774.522;  -55.398; -422.017; -548.969
774.780;  -96.596; -484.017; -417.970
775.039;  -93.044; -551.017; -531.970
775.297;  -41.442; -135.016; -351.970
775.555; -124.291; -489.016; -612.971
775.814; -136.789; -618.016; -570.971
776.072; -128.112; -749.016; -740.971
776.330; -101.635; -630.016; -520.972
776.589; -133.833; -703.015; -721.972
776.847; -134.907; -645.015; -624.973
777.105; -184.805;-1016.015;-1032.973
777.363;  -88.928; -459.015; -454.973
777.621; -149.701; -660.015; -717.974
777.879;  -30.599;  -42.014;   32.026
778.138; -124.823; -554.014; -717.974
778.396; -101.471; -585.014; -526.975
778.654; -186.044;-1015.014; -970.975
778.912;  -79.867; -269.014; -371.976
779.170; -140.615; -880.013; -803.976
779.427; -157.664; -922.013; -897.976
779.685; -133.012; -880.013; -832.977
779.943;  -92.785; -654.013; -593.977
780.201; -173.058; -964.012; -883.978
780.459; -117.281; -651.012; -610.978
780.717;  -99.505; -440.012; -390.978
780.974; -106.578; -449.012; -490.979
781.232;  -87.176; -358.012; -338.979
781.490;  -83.074; -551.011; -472.979
781.747; -107.947; -555.011; -476.980
782.005;   12.229;  462.989;  254.020
782.263; -174.419; -542.011;-1004.981
782.520;  -95.067; -326.011; -501.981
782.778; -172.540;-1013.010;-1051.981
783.035; -169.513; -962.010; -938.982
783.293;  -65.762; -248.010; -206.982
783.550;  -62.710; -134.010; -198.982
783.808; -152.858; -764.010; -776.983
784.065; -171.831; -745.009; -874.983
784.322;  -64.954;   25.991;  -86.984
784.580; -149.302; -915.009; -771.984
784.837;  -99.851; -392.009; -466.984
785.094; -147.674; -783.009; -762.985
785.352;  -81.847; -304.008; -404.985
785.609; -111.570; -934.008; -839.985
785.866;  -95.043; -345.008; -401.986
786.123;  -73.067; -639.008; -583.986
786.380; -111.465; -665.008; -604.987
786.637;  -40.613; -225.007; -380.987
786.895;  -27.136; -456.007; -543.987
787.152;  -51.409; -135.007; -267.988
787.409;  -55.908; -123.007; -225.988
787.666;  -84.881; -299.006; -378.988
787.923; -119.979; -616.006; -695.989
788.179; -112.402; -551.006; -584.989
788.436; -111.950; -585.006; -585.990
788.693;  -45.024;  -92.006;  -87.990
788.950;  125.828; -125.005; -112.990
789.207;  213.005; -381.005; -372.991
789.464;  -56.418; -161.005; -301.991
789.720;  -27.741;  150.995;  110.009
789.977; -178.315;-1003.005; -671.992
790.234;  -38.063;   44.996;  -66.992
790.490; -154.936; -884.004;-1031.993
790.747;  -49.684;  -85.004;   22.007
791.004;  -26.557; -426.004; -348.993
791.260;  -98.931; -430.004; -560.994
791.517; -117.479; -843.003; -788.994
791.773;  -56.427; -379.003; -342.994
792.030; -122.200; -596.003; -660.995
792.286; -112.273; -686.003; -636.995
792.543;  -30.272;  -74.002; -159.995
792.799;  -65.895; -584.002; -382.996
793.055; -170.093;-1179.002;-1210.996
793.312; -106.941; -827.002; -816.997
793.568;  -90.614; -746.002; -599.997
793.824;   -9.888; -226.001; -284.997
794.081;    3.039; -447.001; -508.998
794.337;   62.266; -664.001; -561.998
794.593; 1295.143; -319.001; -271.999
794.849; 6535.020; -746.001; -772.999
795.105;  324.871; -270.000; -261.999
795.361;    2.298; -490.000; -457.000
795.617;  -68.150; -875.000; -945.000
795.873;  -42.825; -360.000; -407.000
796.129;  -52.025; -368.000; -306.000
796.385;  -32.600; -124.000; -156.000
796.641;   55.775;  412.000;  550.000
796.897;  -88.275; -666.000; -635.000
797.153;   56.375;  453.000;  357.000
797.409; -104.550; -785.000; -868.000
797.665;  -85.800; -625.000; -732.000
797.921;  -81.725; -775.000; -762.000
798.176;  -78.775; -744.000; -747.000
798.432;  -54.075; -824.000; -596.000
798.688;  -91.450;-1174.000;-1078.000
798.943;   68.200; -165.000; -147.000
799.199;  -21.550;-1005.000; -959.000
799.455;  215.425;  369.000;  316.000
799.710;  110.350; -813.000; -380.000
799.966;  281.950; -162.000; -160.000
800.221;  461.850; -638.000; -721.000
800.477;10326.350; -743.000; -710.000
800.732; 9205.125; -773.000; -800.000
800.988;  610.725;  205.000;  -19.000
801.243; 1727.600; -454.000; -344.000
801.498; 7523.825; -814.000; -739.000
801.754;  415.200; -289.000; -163.000
802.009;   62.475; -257.000; -335.000
802.264;  -64.225; -967.000;-1033.000
802.520;    8.575;  222.000;   -3.000
802.775;  -53.850; -524.000; -359.000
803.030;   40.000;  395.000;  356.000
803.285; -133.950; -840.000; -903.000
803.540;  -63.025; -686.000; -699.000
803.795;  -62.550; -648.000; -583.000
804.051;  -46.050; -279.000; -346.000
804.306;   13.200;  168.000;  128.000
804.561;  134.300;  451.000;  362.000
804.816;  117.800;  714.000;  861.000
805.071;    0.650; -185.000; -280.000
805.325;  211.225; -257.000; -427.000
805.580; -111.875; -841.000; -877.000
805.835;  -36.100; -204.000; -297.000
806.090;  -82.575; -760.000; -676.000
806.345;  -39.350; -344.000; -264.000
806.600;  -33.350; -549.000; -632.000
806.854;  -37.225; -408.000; -538.000
807.109;  -13.175; -493.000; -577.000
807.364;   -5.300; -407.000; -328.000
807.618;    2.500; -415.000; -381.000
807.873;   45.875; -470.000; -494.000
808.128;   91.250; -257.000; -518.000
808.382;  103.150; -224.000; -332.000
808.637;   57.500; -440.000; -511.000
808.891;  162.250; -257.000; -180.000
809.146;   84.650; -902.000; -794.000
809.400;  255.375; -848.000; -923.000
809.654;  329.425; -779.000; -551.000
809.909;  481.050; -841.000; -927.000
810.163; 6585.475; -813.000; -651.000
810.418;17307.825; -940.000; -861.000
810.672; 1034.675; -685.000; -690.000
810.926;  715.600; -993.000; -973.000
811.180; 1360.000; -439.000; -372.000
811.434;31326.875;  240.000;  135.000
811.689;12807.275; -231.000; -365.000
811.943;  616.900; -936.000; -953.000
812.197;  310.725; -893.000; -671.000
812.451;  114.675; -379.000; -514.000
812.705;  -29.150; -809.000; -619.000
812.959;  -13.475; -263.000; -388.000
813.213;   -3.250; -283.000; -209.000
813.467;   59.675;  470.000;  253.000
813.721; -117.625; -764.000; -792.000
813.975; -117.825; -826.000; -877.000
814.229;   29.450;  430.000;  353.000
814.482;  -89.825; -517.000; -566.000
814.736; -129.225; -766.000; -744.000
814.990; -145.650; -779.000; -872.000
815.244;  -57.150; -228.000; -285.000
815.497;  -94.625; -636.000; -601.000
815.751;  -19.875; -141.000;   82.000
816.005;  -98.275; -470.000; -586.000
816.258;  -67.600; -510.000; -363.000
816.512; -115.950; -693.000; -610.000
816.766;   -3.150;  121.000;  157.000
817.019;    9.275;  148.000;  149.000
817.273; -117.900;-1000.000; -802.000
817.526;  -39.975; -206.000; -173.000
817.779;  -33.775;-1049.000; -960.000
818.033;  -95.125; -693.000; -807.000
818.286; -124.975; -725.000; -792.000
818.540;  -93.375; -403.000; -403.000
818.793;  -82.700; -402.000; -489.000
819.046; -114.100; -582.000; -520.000
819.299;  -46.525; -157.000; -166.000
819.553; -126.750; -552.000; -592.000
819.806; -168.400;-1016.000; -838.000
820.059;  -79.575; -334.000; -354.000
820.312;   -2.575;  152.000;  185.000
820.565;  -34.525;  110.000;  -27.000
820.818;  -66.450;  -59.000; -173.000
821.071; -165.125;-1041.000; -957.000
821.324; -114.000; -536.000; -540.000
821.577; -121.950; -457.000; -483.000
821.830;  -75.050; -270.000; -172.000
822.083; -137.050; -733.000; -288.000
822.336;  -58.950; -261.000; -167.000
822.589; -150.500; -805.000; -688.000
822.842; -139.375; -875.000; -770.000
823.094; -190.900;-1076.000;-1114.000
823.347; -135.525; -925.000; -729.000
823.600;   -1.800;  402.000;  187.000
823.853;  -53.475; -311.000; -267.000
824.105;  -75.675; -331.000; -575.000
824.358; -109.050; -617.000; -716.000
824.611;    3.700;  234.000;   40.000
824.863;  -60.225; -612.000; -591.000
825.116;   31.825;  -33.000;   27.000
825.368;   71.425; -366.000; -372.000
825.621;  133.325; -186.000; -240.000
825.873;   67.300; -704.000; -737.000
826.126;  559.850; -669.000; -641.000
826.378;11501.650; -389.000; -505.000
826.630; 2890.825; -890.000; -898.000
826.883;   35.600; -754.000; -693.000
827.135;   25.525; -279.000; -270.000
827.387; -128.250; -893.000; -839.000
827.639;  -55.225;  -86.000;   32.000
827.892; -135.175; -742.000; -582.000
828.144; -150.425; -848.000; -804.000
828.396;  -34.200;  104.000;  -80.000
828.648; -120.675; -440.000; -333.000
828.900; -151.550; -702.000; -795.000
829.152; -135.300; -684.000; -683.000
829.404;  -68.200; -215.000; -267.000
829.656;  -66.675;  321.000;  214.000
829.908;  -27.625;  393.000;  229.000
830.160; -176.150;-1064.000;-1047.000
830.412; -109.125; -481.000; -430.000
830.664; -146.750; -557.000; -665.000
830.916;  -91.400; -268.000; -206.000
831.167; -194.125;-1073.000; -951.000
831.419; -125.700; -623.000; -566.000
831.671; -158.600; -764.000; -809.000
831.923; -108.100; -311.000; -447.000
832.174;  -84.150; -273.000; -331.000
832.426; -133.425; -493.000; -582.000
832.678; -191.450;-1043.000;-1091.000
832.929; -168.950; -947.000; -935.000
833.181;  -76.850; -575.000; -677.000
833.432;  -49.025;  -59.000; -186.000
833.684;  -27.850;  112.000;  -27.000
833.935; -120.150; -610.000; -566.000
834.187; -130.825; -829.000; -823.000
834.438;  -39.550;  -58.000;  -25.000
834.689;  -70.425; -255.000; -123.000
834.941;  -50.600; -343.000; -244.000
835.192; -101.450; -590.000; -533.000
835.443; -114.600; -419.000; -506.000
835.695;  -30.375;  138.000;  -16.000
835.946;  -90.075; -608.000; -378.000
836.197; -115.600; -599.000; -622.000
836.448;  -98.875; -528.000; -395.000
836.699;  -61.325; -253.000; -341.000
836.950;  -17.925;   72.000;    7.000
837.201; -162.225;-1003.000; -987.000
837.452;  -63.750; -356.000; -170.000
837.703; -120.975; -791.000; -737.000
837.954;  -33.600; -205.000; -365.000
838.205; -109.125;-1029.000;-1008.000
838.456;  160.475; -196.000; -282.000
838.707;  -14.600; -423.000; -519.000
838.958;    7.150; -634.000; -647.000
839.209;  280.325;   18.000;   40.000
839.460;  107.525; -439.000; -201.000
839.710;  156.275; -135.000; -297.000
839.961;  397.875;  730.000;  612.000
840.212;  326.450; -382.000; -497.000
840.462; 1125.350; -328.000; -277.000
840.713;17852.725; -571.000; -536.000
840.964; 7325.000;  -62.000; -143.000
841.214;  496.950; -384.000; -624.000
841.465;  560.550; -214.000; -141.000
841.715;  506.125; -417.000; -380.000
841.966;  671.125; -746.000; -685.000
842.216; 9049.425; -330.000; -431.000
842.466;35056.700; -169.000; -313.000
842.717; 1964.825; -964.000; -952.000
842.967;  309.450; -635.000; -641.000
843.217;  272.475;   20.000;   28.000
843.468;   59.300; -104.000; -132.000
843.718;  -53.900; -718.000; -726.000
843.968;  -98.675; -837.000; -765.000
844.218;    8.975; -315.000; -262.000
844.469;  -63.300; -577.000; -561.000
844.719; -120.125; -537.000; -682.000
844.969; -102.400; -550.000; -580.000
845.219; -158.050; -814.000; -862.000
845.469;  -81.925; -392.000; -342.000
845.719; -144.850; -792.000; -884.000
845.969;  -14.050;  119.000;  174.000
846.219; -128.375; -738.000; -720.000
846.469;    6.325;  464.000;  432.000
846.718;  -65.875; -115.000;   31.000
846.968; -129.100; -827.000; -827.000
847.218;  -60.550; -224.000; -371.000
847.468;  -21.450; -586.000; -555.000
847.718; -153.200; -827.000; -798.000
847.967; -142.900; -826.000; -915.000
848.217; -105.425; -449.000; -569.000
848.467;  -68.850; -405.000; -376.000
848.716; -128.800; -708.000; -725.000
848.966;  -11.100; -372.000; -358.000
849.215;  -67.575; -428.000; -419.000
849.465; -111.425; -785.000; -615.000
849.714; -160.500;-1132.000;-1150.000
849.964;  -82.825; -551.000; -613.000
850.213;  -44.775; -393.000; -355.000
850.463;   63.600;  137.000;  340.000
850.712;  -12.525; -542.000; -567.000
850.961;   12.975; -739.000; -678.000
851.211;   89.625; -513.000; -504.000
851.460;  143.275; -635.000; -650.000
851.709;  550.875;  -25.000;   18.000
851.958;10152.550; -912.000; -750.000
852.208;12750.000; -859.000; -879.000
852.457;  466.200; -181.000;  -13.000
852.706;   72.150; -791.000; -823.000
852.955;    6.200; -507.000; -528.000
853.204;  -84.975; -521.000; -461.000
853.453; -104.225; -418.000; -458.000
853.702; -139.400; -660.000; -750.000
853.951; -111.975; -532.000; -520.000
854.200; -126.625; -613.000; -562.000
854.449; -144.300; -695.000; -661.000
854.698; -106.850; -340.000; -279.000
854.946;  -77.550; -181.000; -284.000
855.195; -176.125; -843.000; -868.000
855.444; -103.375; -395.000; -420.000
855.693; -131.125; -345.000; -432.000
855.941; -122.375; -387.000; -516.000
856.190;  -69.675; -256.000; -382.000
856.439; -147.725; -652.000; -703.000
856.687;  -68.100;  -99.000;  -72.000
856.936; -135.675; -621.000; -323.000
857.184; -179.925;-1067.000;-1020.000
857.433; -114.550; -423.000; -512.000
857.681; -170.700; -989.000; -953.000
857.930;  -87.750; -282.000; -433.000
858.178; -184.675; -856.000; -929.000
858.427; -170.175; -802.000; -781.000
858.675; -137.950; -377.000; -544.000
858.923; -120.450; -527.000; -819.000
859.172; -202.125;-1094.000;-1070.000
859.420; -106.125; -339.000; -239.000
859.668; -146.375; -624.000; -628.000
859.916;  -33.625;  109.000;  115.000
860.164; -121.350; -699.000; -603.000
860.413;  282.200; -878.000; -696.000
860.661;  221.900; -709.000; -577.000
860.909;  -92.700; -339.000; -325.000
861.157;  -99.850; -277.000; -444.000
861.405; -140.225; -534.000; -670.000
861.653;    8.975;  310.000;  310.000
861.901;  146.775; -543.000; -613.000
862.149;  -17.100; -801.000; -824.000
862.396;  -97.975; -297.000; -187.000
862.644; -101.075; -368.000; -347.000
862.892;  -50.775;   98.000;  138.000
863.140; -120.500; -549.000; -530.000
863.388; -168.350; -815.000; -759.000
863.635; -145.400; -642.000; -601.000
863.883;  -22.950;  231.000;  190.000
864.131; -112.975; -288.000; -357.000
864.378; -142.700; -675.000; -540.000
864.626; -113.575; -347.000; -415.000
864.873; -126.100; -556.000; -505.000
865.121; -148.200; -714.000; -799.000
865.368;  -60.175; -173.000;   75.000
865.616;  -48.900;  -33.000;  -40.000
865.863;  -91.000; -462.000; -506.000
866.111; -127.450; -795.000; -824.000
866.358;    8.625; -426.000; -420.000
866.605; 2146.625;  -64.000; -804.000
866.853; 2238.800; -621.000; -537.000
867.100;  -49.050; -728.000; -775.000
867.347; -101.900; -672.000; -611.000
867.594;  -98.150; -740.000; -714.000
867.841;   69.075;   97.000;   17.000
868.089; -153.675; -746.000; -698.000
868.336; -123.300; -477.000; -420.000
868.583; -153.200; -637.000; -741.000
868.830;  -61.750; -131.000; -170.000
869.077; -176.350; -859.000; -787.000
869.324; -145.075; -502.000; -458.000
869.571; -138.300; -398.000; -430.000
869.818; -141.225; -485.000; -439.000
870.065; -127.550; -439.000; -513.000
870.311; -123.650; -456.000; -542.000
870.558; -103.325; -332.000; -311.000
870.805;  -80.575; -320.000; -384.000
871.052; -123.675; -494.000; -369.000
871.298;  -57.375; -204.000; -131.000
871.545;  -89.650; -151.000; -185.000
871.792;  -98.000; -173.000; -222.000
872.038;  -88.700;   43.000; -126.000
872.285; -133.775; -496.000; -387.000
872.532; -116.200; -357.000; -387.000
872.778;   -2.750;  556.000;  403.000
873.025; -116.925; -384.000; -359.000
873.271;   16.600;  501.000;  578.000
873.517;  -36.950; -133.000; -209.000
873.764;  -45.725; -193.000;  -80.000
874.010;  -82.750; -143.000; -230.000
874.257;  -48.300;  123.000;   90.000
874.503; -149.775; -579.000; -479.000
874.749;  -65.400;   31.000;  275.000
874.995;  -75.025;  -80.000;  -20.000
875.242; -133.700; -540.000; -478.000
875.488; -121.300; -414.000; -439.000
875.734;  -62.625; -106.000; -234.000
875.980;  166.275; -872.000;-1032.000
876.226;  363.300; -157.000; -255.000
876.472;  -19.800;  343.000;  237.000
876.718;  -42.825;  184.000;  158.000
876.964;  -57.800;   56.000;   55.000
877.210; -154.400; -547.000; -677.000
877.456; -161.050; -630.000; -557.000
877.702; -189.700; -821.000; -832.000
877.948; -121.375; -377.000; -497.000
878.193;   -4.925;  361.000;  255.000
878.439;  -98.875; -487.000; -472.000
878.685; -115.375; -272.000; -343.000
878.931; -155.325; -618.000; -676.000
879.176;  -91.475; -201.000; -201.000
879.422; -193.175; -933.000; -820.000
879.668;   23.825;   10.000;   79.000
879.913;  123.025;   53.000;  137.000
880.159;  -74.225; -112.000;  -17.000
880.404;  -54.850; -152.000; -162.000
880.650;  -53.350;   91.000;  141.000
880.895; -177.625; -670.000; -710.000
881.141; -125.425; -454.000; -428.000
881.386; -158.150; -503.000; -658.000
881.631; -100.575; -311.000; -166.000
881.877;  -51.800;  112.000;  -13.000
882.122; -147.825; -684.000; -600.000
882.367; -103.475; -136.000; -186.000
882.612;  -86.575;  -80.000; -176.000
882.858; -176.750; -877.000; -823.000
883.103; -115.125; -297.000; -267.000
883.348; -169.150; -759.000; -852.000
883.593; -146.200; -677.000; -602.000
883.838;  -67.850; -311.000;  -24.000
884.083;   29.425;  353.000;  288.000
884.328;  -98.475; -564.000; -545.000
884.573;  -69.325; -196.000; -143.000
884.818;  185.075; -694.000; -531.000
885.063;  167.825; -348.000; -315.000
885.308; -108.475; -475.000; -398.000
885.553;  -26.175;  245.000;  325.000
885.797; -149.450; -545.000; -615.000
886.042;  -60.650;    8.000;   58.000
886.287; -114.025; -253.000; -211.000
886.532;  -66.800;   26.000;  204.000
886.776; -120.575; -407.000; -525.000
887.021; -148.025; -621.000; -574.000
887.265; -165.050; -685.000; -689.000
887.510; -131.650; -557.000; -496.000
887.755; -109.525; -194.000; -164.000
887.999; -142.850; -552.000; -575.000
888.244;  -81.000;  -58.000;  161.000
888.488;  -21.325;  371.000;  393.000
888.732; -143.750; -368.000; -520.000
888.977; -156.125; -622.000; -567.000
889.221; -167.300; -683.000; -659.000
889.465; -130.000; -422.000; -566.000
889.710;  -85.750;  -56.000; -299.000
889.954;   -6.800;  579.000;  467.000
890.198; -147.975; -584.000; -707.000
890.442; -163.075; -716.000; -712.000
890.687; -187.925; -800.000; -753.000
890.931; -107.475; -273.000; -210.000
891.175; -157.350; -502.000; -500.000
891.419;  -75.100; -105.000; -110.000
891.663; -113.125; -239.000; -112.000
891.907; -181.225; -801.000; -545.000
892.151; -197.100; -920.000; -815.000
892.395; -120.725; -274.000; -387.000
892.638;  -33.775;  408.000;  291.000
892.882; -186.250; -780.000; -867.000
893.126;    7.675;  758.000;  558.000
893.370; -103.775; -167.000; -168.000
893.614; -178.225; -714.000; -715.000
893.857; -115.225; -183.000; -197.000
894.101; -146.225; -527.000; -631.000
894.345;  -71.600;  300.000;  150.000
894.588;   -5.650;  569.000;  380.000
894.832;  -82.725; -178.000;  -84.000
895.075;  -99.900;   15.000;  -92.000
895.319; -134.225; -552.000; -420.000
895.563; -139.400; -413.000; -353.000
895.806; -155.600; -628.000; -741.000
896.049;  -75.000; -576.000; -368.000
896.293;   82.775;  527.000;  405.000
896.536;  -72.750; -465.000; -468.000
896.779;  -82.100; -149.000;   -1.000
897.023; -143.875; -751.000; -714.000
897.266;  -42.100;  325.000;  269.000
897.509; -195.125; -900.000; -901.000
897.752;  -64.375;  149.000;  171.000
897.996; -208.975; -972.000; -864.000
898.239;  -64.375;  168.000;  102.000
898.482; -132.125; -431.000; -453.000
898.725;  -40.725;  101.000;   53.000
898.968; -163.750; -609.000; -744.000
899.211; -117.025; -513.000; -361.000
899.454; -136.825; -633.000; -539.000
899.697;  -78.750;   90.000;  -43.000
899.940; -182.750; -761.000; -757.000
900.182; -112.525; -335.000; -405.000
900.425; -116.675; -150.000; -298.000
900.668;  -37.050;  491.000;  350.000
900.911; -111.750; -292.000; -345.000
901.154;  -57.425;  141.000;   -3.000
901.396; -154.550; -407.000; -412.000
901.639; -152.450; -430.000; -496.000
901.882; -189.625; -790.000; -809.000
902.124;  -77.725;  -29.000; -143.000
902.367; -128.775; -315.000; -361.000
902.609; -145.575; -476.000; -453.000
902.852; -108.200; -108.000; -260.000
903.094; -133.625; -458.000; -337.000
903.337;  -83.450;  -26.000;   53.000
903.579; -120.775; -228.000; -441.000
903.821; -179.625; -597.000; -744.000
904.064;  -68.775;   85.000;  127.000
904.306;  -95.200; -126.000; -166.000
904.548; -116.575; -152.000; -366.000
904.790; -127.275; -195.000; -340.000
905.033; -147.975; -625.000; -577.000
905.275; -143.050; -513.000; -524.000
905.517;   39.825;  468.000;  256.000
905.759;  -78.000; -667.000; -761.000
906.001; -104.025; -322.000; -369.000
906.243;  -83.350; -162.000; -224.000
906.485;  122.275; -265.000; -207.000
906.727;   86.725; -499.000; -542.000
906.969;  -34.275;  -30.000; -135.000
907.211;   90.875; -316.000; -382.000
907.453;  267.950; -188.000; -237.000
907.695;  -16.500; -158.000; -385.000
907.936;   34.225;  818.000;  706.000
908.178;  -76.300;   92.000; -135.000
908.420;  -75.725; -111.000; -162.000
908.662; -142.000; -633.000; -682.000
908.903;  -91.850; -208.000; -123.000
909.145;  -90.825; -240.000; -305.000
909.386;   -4.700;  315.000;  280.000
909.628;   30.100;  363.000;  397.000
909.870;   -2.175;   29.000;  264.000
910.111; -110.525; -809.000; -949.000
910.353;   -8.950; -123.000; -161.000
910.594;  -10.550; -574.000; -606.000
910.835;   68.675; -265.000; -326.000
911.077;  140.500; -503.000; -604.000
911.318;  288.700; -505.000; -471.000
911.559;  447.600; -577.000; -880.000
911.801; 1332.000; -284.000; -280.000
912.042;10268.175;  -50.000; -159.000
912.283;26989.150;  404.000;  371.000
912.524; 4135.025; -396.000; -457.000
912.765;  493.400; -193.000;   79.000
913.006;  223.250; -307.000; -338.000
913.247;   42.925; -270.000; -290.000
913.488;  -20.275;  -43.000;   30.000
913.729;  -96.700; -373.000; -373.000
913.970;  -73.700;  -96.000; -292.000
914.211;  -91.075; -160.000; -198.000
914.452;  -81.675; -118.000;  -11.000
914.693;   -1.025;  510.000;  592.000
914.934;    4.125;  510.000;  440.000
915.175;  -78.925;   53.000;  -95.000
915.415;  -78.250; -137.000;   27.000
915.656;  -82.325;  -28.000;  192.000
915.897; -117.600; -252.000;  -82.000
916.137;  -75.275;   74.000;   -9.000
916.378; -149.075; -573.000; -517.000
916.619;  -97.975; -159.000;  -63.000
916.859;  -41.200;  303.000;  330.000
917.100;  124.375; 1655.000; 1070.000
917.340;   45.700;  930.000;  728.000
917.581;   32.275;  965.000;  789.000
917.821;  -39.900; -171.000;  143.000
918.061;   11.950; -199.000;  -72.000
918.302;  -59.675; -152.000; -211.000
918.542;  -32.225;  -22.000;    3.000
918.782;   19.300;  369.000;  377.000
919.023;  135.825;  360.000;  427.000
919.263; 1748.750; 8131.000;  202.000
919.503; 1117.325; -137.000;  -54.000
919.743;  608.400;  390.000;  266.000
919.983;  254.450; -134.000;  -26.000
920.223;   70.325;  135.000;   14.000
920.463;  134.225;  631.000;  554.000
920.703;  111.400;   84.000;   39.000
920.943;  168.825; -110.000;   90.000
921.183;  211.800; -414.000; -405.000
921.423;  495.350;  307.000;  546.000
921.663;  706.575; -174.000; -257.000
921.903; 1548.500;  237.000;  173.000
922.143; 8520.700;  372.000;  389.000
922.383;33195.525;  158.000;  115.000
922.622;11310.700; -120.000;  -15.000
922.862; 1211.450;  796.000;  785.000
923.102;  444.450;  -51.000;   33.000
923.341;  170.425;   59.000;   74.000
923.581;   78.175;  450.000;  360.000
923.821;    3.600;  301.000;  398.000
924.060;    7.125;  351.000;  193.000
924.300;  -68.825;  -16.000; -128.000
924.539;  -26.500;  584.000;  473.000
924.779;    2.550;  812.000;  597.000
925.018;  -58.400;  247.000;  353.000
925.257;   -3.425;  595.000;  666.000
925.497;  -46.275;  447.000;  412.000
925.736;  -88.800;  -35.000;  102.000
925.975;   -9.775;  687.000;  669.000
926.214;   14.275;  907.000;  850.000
926.454;   10.550;  706.000;  757.000
926.693;  -43.525;  419.000;  543.000
926.932;   20.575; 1021.000;  825.000
927.171;   65.925; 1107.000; 1044.000
927.410;   54.575; 1144.000;  967.000
927.649;   -2.175;  924.000;  742.000
927.888;  -19.125;  590.000;  564.000
928.127;   -4.325;  680.000;  678.000
928.366;   22.800;  842.000;  826.000
928.605;   34.050;  831.000;  737.000
928.844;  226.150; 1451.000; 1393.000
929.083;  603.175;  770.000;  613.000
929.321;  323.775; 1335.000; 1359.000
929.560;   90.125; 1158.000; 1122.000
929.799;  -37.475;  574.000;  475.000
930.038;   83.950; 1025.000; 1394.000
930.276;  -62.950;  334.000;  397.000
930.515;   -6.400;  827.000;  681.000
930.753;  -35.150;  614.000;  589.000
930.992;  -22.825;  664.000;  717.000
931.230;   -1.875;  847.000;  847.000
931.469;  163.625; 2162.000;  892.000
931.707;   63.425;  840.000;  751.000
931.946;   55.625; 1278.000; 1344.000
932.184;   47.625; 1437.000; 1175.000
932.423;   44.950; 1265.000;  963.000
932.661;   88.375; 1296.000; 1428.000
932.899;    6.625;  987.000;  821.000
933.137;    5.225;  754.000;  564.000
933.376;  146.575; 1664.000; 1335.000
933.614;  148.000; 1759.000; 1196.000
933.852;   43.350; 1357.000; 1171.000
934.090;  119.750; 1722.000; 1747.000
934.328;   95.150; 1252.000; 1457.000
934.566;   83.800; 1431.000; 1110.000
934.804;  133.250; 1263.000; 1309.000
935.042;  431.425; 1861.000; 1850.000
935.280; 1746.400; 2088.000; 2063.000
935.518; 1635.950; 2113.000; 2007.000
935.756;  357.000; 2481.000; 2316.000
935.994;  147.875; 1808.000; 1751.000
936.231;  321.550; 2890.000; 2950.000
936.469;  172.350; 2367.000; 2378.000
936.707;  155.050; 2220.000; 2167.000
936.945;  205.625; 2825.000; 2882.000
937.182;  209.225; 2679.000; 2741.000
937.420;  294.125; 3602.000; 3031.000
937.657;  412.150; 3365.000; 3478.000
937.895;  342.175; 3331.000; 3488.000
938.133;  299.275; 3540.000; 3528.000
938.370;  331.600; 3896.000; 4191.000
938.607;  404.725; 4488.000; 4205.000
938.845;  551.200; 5587.000; 5549.000
939.082;  479.000; 5387.000; 5177.000
939.320;  537.800; 5799.000; 5728.000
939.557;  634.275; 6549.000; 6491.000
939.794;  703.025; 7285.000; 7097.000
940.031;  912.375; 8421.000; 8368.000
940.269; 1098.900; 9552.000; 9107.000
940.506; 1135.525;10901.000;10507.000

