
Integration time [ms]: 100.000
Averaging Nr. [scans]: 40
Smoothing Nr. [pixels]: 0
Data measured with spectrometer [name]: 2101013U2
Wave   ;Sample   ;Dark     ;Reference
[nm]   ;[counts] ;[counts] ;[counts] 

394.013;   78.352; -450.257; -315.536
394.305;  282.550; -461.258; -419.536
394.596;  947.353; -676.269; -527.514
394.887; 2120.094; -796.268; -654.518
395.178;  812.047;  145.736;   11.476
395.470;  106.608; -210.263; -356.526
395.761;  260.858;  305.734;  394.479
396.052;  491.485; -545.284; -306.489
396.343;  482.026; -557.276; -454.503
396.634;  167.396; -200.279; -290.497
396.926;  197.466; -618.268; -565.517
397.217;  158.230;   11.725;  -17.504
397.508;   89.895; -366.273; -154.507
397.799;   93.021; -555.279; -571.497
398.090;   35.891; -973.280; -902.495
398.381;  174.064;   11.708;  -11.473
398.672;   30.440; -585.292; -742.473
398.963;   93.827; -348.279; -373.498
399.254;  141.249;   54.709; -209.475
399.545;   12.554;-1017.266; -883.520
399.836;   97.790; -407.277; -343.501
400.127;   72.667; -205.295; -209.468
400.418;   96.690; -423.274; -392.506
400.709;  114.079; -359.281; -333.493
401.000;   87.278; -268.291; -309.476
401.290;  121.782;  225.698;  115.545
401.581;   99.419; -166.286; -228.485
401.872;   46.741; -542.298; -486.462
402.163;   68.785; -313.296; -252.467
402.454;  117.450; -123.291; -163.475
402.744;  125.652; -844.297; -813.465
403.035;  631.331; -226.293;  -86.471
403.326;  809.368; -366.292; -384.474
403.617;  477.385;  204.701;  165.539
403.907;  242.490; -593.283; -679.490
404.198; 1954.264; -545.307; -599.446
404.489; 5187.695; -618.283; -588.491
404.779; 1989.286; -618.302; -660.456
405.070;  221.090;  -67.304; -174.451
405.360;  324.958; -259.293; -238.472
405.651;  335.471;  125.699;   98.542
405.942;  239.139;  209.714;  127.516
406.232;  435.328; -432.285; -413.487
406.523;  683.476;  641.706;  758.530
406.813;  161.616; -579.286; -644.484
407.104;  472.013;  261.708;  144.527
407.394;  314.687; -604.299; -591.462
407.685;  182.027;  336.715;  222.513
407.975;   86.419; -400.283; -382.490
408.265;  142.438; -134.289; -190.478
408.556;   77.672; -472.291; -459.475
408.846;  174.652;  474.706;  429.530
409.137;   87.196;   -1.288; -216.480
409.427;   66.178; -193.285; -271.487
409.717;   56.248; -776.273; -692.508
410.007;  172.047;    4.715; -170.486
410.298;  114.070; -360.295; -342.469
410.588;   78.575; -495.285; -510.486
410.878;   58.582; -792.287; -873.482
411.168;  141.343; -481.298; -478.463
411.459;  122.039; -295.283; -242.489
411.749;   92.645; -609.292; -507.474
412.039;   85.870; -755.289; -386.480
412.329;  229.409;   40.722;  132.501
412.619;  222.767;  -62.286; -148.485
412.909;  403.516;  639.711;  594.521
413.199;  420.191; -130.280; -251.495
413.490;  479.307;  521.710;  352.523
413.780;  153.820;-1013.279; -913.496
414.070;  353.127;  -46.276;  235.497
414.360;  411.755; -729.278; -666.498
414.650;  422.403; -726.288; -688.482
414.940;  482.869; -538.280; -441.496
415.230;  826.750;   50.712;   74.519
415.520; 5199.002;  155.730;   66.486
415.809;20337.378; -305.281; -125.493
416.099;15437.068; -388.277; -229.501
416.389; 4063.463;  435.726;  236.494
416.679; 2367.936;   91.738;   85.473
416.969;  437.411; -527.287; -503.483
417.259;  442.522;  341.721;  171.503
417.549;  647.977;  522.718;  318.508
417.838; 1328.968; -205.268; -147.518
418.128; 4366.712;  650.710;  492.522
418.418; 3583.779; -491.272; -579.509
418.708; 2455.813;    9.726;  -48.506
418.997; 9109.134; -474.275; -480.505
419.287; 9323.444; -733.273; -790.507
419.577; 8434.188; -160.283; -123.489
419.866;28873.991; -588.277; -498.501
420.156;30823.123; -242.270;  -55.513
420.446; 5727.179; -112.263;  -26.526
420.735; 1016.993; -376.271; -446.512
421.025;  859.254; 1830.722;  315.502
421.314;  934.566; -203.271; -226.512
421.604; 2216.511;   89.732;  233.484
421.893; 1276.937; -705.271; -602.511
422.183;  242.154; -487.263; -461.526
422.472;  383.764;  -36.271; -107.511
422.762;  505.760; -416.266; -379.521
423.051;  294.102; -916.276; -916.503
423.341;  363.371; -491.273; -439.507
423.630;  462.991; -121.265;   15.477
423.919;  400.083;   58.725;   49.495
424.209;  352.210;  -31.263;   56.473
424.498;  484.666;   68.732;  161.483
424.787;  958.197; -535.267; -601.518
425.077; 3037.164;   34.735;   29.478
425.366; 4939.365; -734.262; -744.528
425.655; 8104.772;  639.727;  259.493
425.945;14817.236; -313.247; -268.554
426.234; 8257.036;  117.741;  300.467
426.523; 4301.191;  -86.259; -350.534
426.812; 5824.081;  107.734;  159.480
427.101; 8365.908; -127.269; -323.515
427.390;11005.677;  -55.270;  -86.514
427.680; 3294.460; -624.257; -411.538
427.969;  552.695; -330.255; -301.540
428.258;  357.927; -385.257; -477.536
428.547;  613.333;  449.728;  397.490
428.836; 1667.960; -421.253; -398.543
429.125; 2438.943; -199.259;  -72.534
429.414;  960.656; -330.251; -294.548
429.703; 2620.956; -231.251; -213.548
429.992; 7593.985; -938.250; -828.549
430.281; 4931.398; -397.264; -331.524
430.570;  620.747;  -21.252;   32.454
430.859;  766.066;  279.741;  352.466
431.148;  546.382;  636.752;  631.446
431.437;  351.497;  391.748;  367.454
431.725;  177.153; -544.257; -481.536
432.014;  141.792; -845.253; -756.545
432.303;  421.679; -149.239; -105.569
432.592;  740.829; -460.263; -178.525
432.881;  943.833; -601.248; -437.554
433.169; 4763.896; -343.255;  -61.540
433.458; 9690.035;  445.765;  540.424
433.747; 4308.670; -397.261; -289.529
434.036; 1116.431; -275.242; -280.564
434.324; 1915.721; -395.249; -379.551
434.613; 3118.175;   40.757;  159.437
434.902; 1198.669;  333.760;  439.433
435.190;  983.702;   75.761;  295.431
435.479;  552.408;  -52.245;   83.441
435.767;  175.315; -411.244; -427.561
436.056;  300.827; -340.242; -294.563
436.345;  366.021; -372.240; -223.568
436.633;  407.492;   60.750;  383.450
436.922;  409.449;  208.760;  414.432
437.210; 1080.001; -194.236;    1.426
437.499; 3568.434; -583.235; -432.576
437.787; 3832.151; -339.236;  -10.574
438.075;  846.933;   56.761;  162.430
438.364; 1200.885;  -44.238;  250.429
438.652;  732.134; -286.226; -138.592
438.941;  200.625;    3.770;  269.415
439.229;   58.945; -665.252; -466.545
439.517;   73.516; -160.234;  -85.577
439.806;   27.748; -501.225; -290.595
440.094;  252.174;  377.766;  650.421
440.382;  307.927; -653.233; -302.580
440.670;  349.708; -361.235; -285.576
440.959;   72.990; -347.223; -170.599
441.247;  117.536; -151.229; -109.587
441.535;  154.640; -266.235;   31.423
441.823;   82.621; -497.234; -305.578
442.111;  227.615;  173.771;  327.412
442.400;  828.532; -628.245; -335.559
442.688; 2336.873; -111.234; -620.579
442.976; 1797.272; -786.213; -450.617
443.264;  198.730; -324.224; -364.597
443.552;  152.335; -258.226;   51.408
443.840;  192.214;  602.765;  876.423
444.128;  117.651;  265.767;  269.420
444.416;   18.742; -694.228; -312.588
444.704;   58.118; -465.219;  -92.605
444.992;  104.112;   -0.226;  240.407
445.280;   87.975; -517.230;  -94.585
445.568;   92.951; -694.212; -396.618
445.856;  508.278; -174.221;  357.398
446.143; 1179.889;  -54.220;   -7.604
446.431;  960.445;  -25.228;  625.411
446.719;  303.736;  489.783;  675.391
447.007;  217.895;  481.769;  705.416
447.295;  198.312;  597.777;  871.402
447.583;  121.333; -464.229;  -34.587
447.870;  200.175; -434.221; -202.601
448.158;  573.524; -104.230;  129.415
448.446;  457.940; -800.219; -338.604
448.733;  201.781;   13.776;  269.403
449.021;  305.975;   60.788;  341.382
449.309;  209.639; -296.210;  208.379
449.596;  243.807;  128.783;   59.392
449.884;  170.119; -571.222; -325.600
450.172;  119.575; -756.227; -406.590
450.459;  365.132;  645.786;  780.387
450.747; 1711.256; -411.218; -147.608
451.034; 5533.446;  493.772;  889.411
451.322; 4458.759; -413.214; -170.614
451.609;  418.057;  292.777;  508.403
451.897;  459.774; -550.203; -183.634
452.184; 1398.437; -622.223; -400.598
452.472; 1335.084;   97.792;  269.375
452.759;  367.316;  512.781;  864.395
453.047;  153.598; -407.212; -125.617
453.334;  140.798; -732.219; -216.606
453.621;  139.637; -438.214; -161.615
453.909;  157.866;   13.796;  384.368
454.196;  151.784; -299.199; -123.641
454.483;  260.511;  317.798;  540.364
454.771;  181.387; -215.208;  196.374
455.058;   54.065; -316.207;  102.374
455.345;   96.236;   71.807;  344.347
455.632;   86.218; -128.207;  235.373
455.919;   49.330;  -82.196;  182.354
456.207;  -40.712; -774.198; -450.642
456.494;   -8.353; -475.200;  -66.639
456.781;   19.632; -399.202; -198.635
457.068;   71.075; -253.206;  -29.628
457.355;   30.626; -698.206; -401.629
457.642;    8.856; -552.205; -290.630
457.929;   32.852; -778.194; -417.651
458.216;   77.948; -575.212; -354.617
458.503;  187.157; -173.193;  -19.652
458.790;  161.210; -864.208; -630.625
459.077;  257.161;  -77.202;  110.364
459.364;  619.446; -350.195; -210.649
459.651; 1337.948;  -46.206;  220.372
459.938;  633.426; -864.209; -665.623
460.225;  200.089;  132.799;  276.363
460.512;  -16.573; -836.197; -688.645
460.799;  130.730;  -32.218;  320.392
461.086;  114.576; -370.200; -251.640
461.372;  101.713; -509.198; -279.642
461.659;  153.706; -165.196;  108.354
461.946;  102.980; -445.193;  -54.651
462.233;  277.249;  842.800;  888.361
462.519;  354.296; -814.201; -464.639
462.806;  841.378; -768.197; -497.645
463.093;  701.175; -445.191;  -66.656
463.380;  -18.062; -920.186; -824.664
463.666;  101.954; -259.197;  -18.646
463.953;  108.766; -406.195; -243.648
464.239;  157.966; -173.195;  -77.648
464.526;  411.501;  413.806;  743.350
464.813;  440.336; -565.190; -304.658
465.099;  407.856;  606.807;  607.348
465.386;  425.085;  903.807;  921.348
465.672;   98.653; -694.197; -522.645
465.959;   82.927; -598.188; -520.662
466.245;   50.060; -468.193; -359.652
466.532;  127.889; -109.195;   63.352
466.818;  120.288; -357.186; -216.664
467.104;   30.376; -488.182; -415.672
467.391;   -9.613; -628.189; -459.658
467.677;   49.067; -289.186;    9.335
467.964;   29.568; -682.189; -471.660
468.250;  121.369; -331.186; -160.665
468.536;  105.114;   90.811;  180.341
468.822;  -16.195; -821.184; -574.668
469.109;  155.327;  351.827;  471.311
469.395;  188.219;  729.808;  787.346
469.681;  196.441;   46.811;  156.341
469.967;  999.271; -699.188; -382.660
470.254; 2122.453; -494.188; -306.662
470.540; 1328.380; -601.196; -476.646
470.826;  193.761; -488.181; -397.675
471.112;  254.359;  288.816;  113.331
471.398;  107.788; -253.183;  -58.670
471.684;   68.913; -626.177; -447.680
471.970;   -3.585; -918.180; -981.675
472.256;   31.743; -521.192; -441.654
472.542;   44.437; -499.171; -434.691
472.828;   64.472; -743.182; -607.672
473.114;   57.953; -380.166; -283.700
473.400;   57.328; -504.175; -293.684
473.686;   68.809; -452.166; -400.701
473.972;   88.392; -230.174; -131.687
474.258;  -49.298; -925.173; -843.689
474.544;  129.080; -183.178;   -2.679
474.830;  213.455;  -65.175;   45.316
475.116;  318.587; -123.190; -196.658
475.401;  430.842; -558.180; -467.676
475.687;  161.241; -725.180; -718.676
475.973;   19.555; -673.181; -770.673
476.259;  306.082;  736.825;  764.315
476.544;  351.020; -539.176; -437.682
476.830;  573.883; -398.172; -322.690
477.116;  458.944; -430.177; -336.682
477.401;  133.092;  346.820;  358.324
477.687;   -8.921; -289.175; -405.684
477.973;   50.383;   21.819;   28.326
478.258;   -1.047; -448.163; -348.706
478.544;   53.799;   21.815;   61.334
478.829;  -34.258; -818.171; -738.692
479.115;  -22.592; -749.172; -651.690
479.401;    1.738; -444.174; -449.686
479.686;   39.891; -253.180;  -74.676
479.972;  -47.240; -886.178; -776.680
480.257;   35.579; -258.166;  -65.700
480.542;   10.771; -614.170; -469.693
480.828;  232.127; 1288.824; 1392.317
481.113;  -17.850; -464.176; -426.683
481.399;    7.601; -236.161; -202.711
481.684;  -51.171; -620.166; -462.700
481.969;   27.063; -158.159;  -73.713
482.255;   -4.969; -439.169; -285.695
482.540;   11.085; -569.178; -441.680
482.825;    2.834; -395.187; -404.663
483.110;   73.159;  -85.169; -105.696
483.396;   91.508; -840.157; -652.718
483.681;  358.067;  543.826;  730.313
483.966;   88.132; -696.160; -700.712
484.251;   25.041; -404.174; -310.687
484.536;   20.139; -356.165; -378.703
484.822;   33.619; -205.173; -218.687
485.107;  -17.606; -599.152; -502.726
485.392;  123.719;  662.836;  541.296
485.677;   73.743;  354.832;  163.302
485.962;  131.731;  160.843;  270.283
486.247;   98.436;  -14.162;   -8.707
486.532;   50.255; -178.166; -325.701
486.817;  159.145;  381.839;  431.291
487.102;  131.728; -453.154; -514.722
487.387;  445.685; -637.156; -652.718
487.672;  796.749; -154.164;  -38.705
487.957;  508.627; -394.160; -286.711
488.241;  176.285; -290.150; -314.729
488.526;  500.221; -280.152; -148.726
488.811;  818.537; -881.177; -818.680
489.096;  625.106; -666.154; -702.723
489.381;  394.267;    3.847;  162.275
489.666;  228.350; -428.161; -510.710
489.950;  147.759;  558.846;  627.277
490.235;  -17.970; -480.151; -458.728
490.520;  -27.951; -756.161; -723.710
490.804;  -70.813; -827.156; -736.719
491.089;   12.525; -469.149; -299.732
491.374;   43.298; -132.164;  -75.704
491.658;    3.811; -817.147; -717.735
491.943;  215.450; -657.152; -609.727
492.227;  307.699; -178.155;  -38.721
492.512;   64.381; -294.157; -341.717
492.797;  -46.481; -713.149; -716.731
493.081;  -48.037; -588.147; -598.735
493.366;  -24.649; -751.161; -635.711
493.650;  197.313;  831.859;  917.254
493.935;   21.560; -648.147; -447.734
494.219;  -45.149; -778.142; -687.743
494.503;  -27.436; -585.150; -487.730
494.788;   34.448;   46.842;   74.285
495.072;   97.561;  184.850;  434.271
495.356;  135.853; -463.148; -343.733
495.641;  449.594; -812.146; -736.736
495.925;  447.317; -976.156; -903.719
496.209;   57.574; -599.149; -451.732
496.494;  -22.348; -763.142; -544.744
496.778;   23.128; -364.154; -360.722
497.062;  -53.159; -819.156; -627.719
497.346;  -42.646; -869.160; -640.711
497.631;  119.381;  580.852;  560.266
497.915;   79.154;  -64.145;  175.261
498.199;   69.883; -341.157; -277.718
498.483;   60.369; -562.152; -508.725
498.767;  161.837;  301.850;  300.271
499.051;  152.922; -126.149; -100.732
499.335;   10.745; -693.149; -739.731
499.619;  -31.517; -381.129; -423.767
499.903;   40.773; -272.155;  -65.721
500.187;   53.485; -588.153; -316.724
500.471;   35.074; -796.152; -595.727
500.755;  114.200;   62.839;  -96.710
501.039;   44.274; -270.155; -357.721
501.323;  117.965;  -21.141;  264.254
501.607;   71.103; -447.163; -503.706
501.891;   20.660; -607.156; -512.718
502.174;  -37.260; -726.144; -585.741
502.458;   77.678;   89.849;  370.273
502.742;   36.112; -180.138; -191.751
503.026;   57.884; -412.147; -254.734
503.310;  117.687; -437.159; -375.713
503.593;   73.686; -464.147; -325.735
503.877;  133.175; -232.133; -156.760
504.161;  204.562;    2.847;  -50.724
504.444;  125.175; -841.158; -710.716
504.728;  318.872; -487.164; -522.704
505.012;  512.909; -257.150;  -76.729
505.295;  397.201; -417.161; -212.711
505.579;  397.191; -256.156; -496.719
505.862;  480.876; -555.145; -333.738
506.146;  471.614; -681.159; -758.714
506.429;  317.365;  568.841;  461.286
506.713;   35.507; -732.151; -667.728
506.996;  238.503;   90.846;  295.278
507.280;  248.018; -633.165; -474.703
507.563;  167.372; -469.155; -261.721
507.847;   43.036; -423.153; -112.724
508.130;   50.426; -665.161; -456.711
508.413;   52.850; -758.167; -577.700
508.697;  193.000; -151.167;   12.300
508.980;   93.012; -422.153; -312.724
509.263;  -17.057; -466.155; -450.720
509.547;   28.259; -124.150;   82.271
509.830;   63.178; -172.160;  140.289
510.113;   90.716;  128.844;  298.281
510.396;   48.967; -530.152; -300.725
510.680;  305.752; -818.145; -812.738
510.963; 1101.732;  184.846;  180.277
511.246; 1016.666; -493.150; -357.730
511.529;  290.157; -482.145;  -83.739
511.812;  244.372; -250.134;   10.241
512.095;  165.029; -740.151; -396.728
512.378;   54.665; -317.147; -245.736
512.661;   -5.131; -703.137; -623.753
512.944;   17.028; -750.142; -637.744
513.227;   52.667; -170.137; -171.752
513.510;   13.090; -479.144; -671.741
513.793;   35.744; -485.140; -435.747
514.076;  129.703;  -43.127;  -39.771
514.359;   95.650; -294.149; -135.732
514.642;   63.781; -442.142; -567.744
514.925;  551.467;  581.860;  561.253
515.208;  665.543; -498.134; -443.758
515.491;  454.706; -276.133; -182.761
515.773;  252.968; -410.143; -337.742
516.056; 1422.300;  249.864;  409.246
516.339; 2070.029; -754.136; -652.755
516.622; 2073.489; -518.150; -488.730
516.904; 1893.950;  882.857;  975.257
517.187;  897.265; -730.138; -523.752
517.470;  395.224; -568.143; -510.743
517.752;  318.232; -624.136; -470.756
518.035;  229.804; -708.139; -725.749
518.318;  228.254; -799.136; -744.755
518.600; 1531.510; -300.132; -325.762
518.883; 2161.955;  310.858;   88.256
519.165; 1071.759; -585.138; -426.751
519.448;  399.384;  -61.132;  -19.762
519.730;  227.510; -573.126; -415.773
520.013;  370.803;  588.867;  664.240
520.295; 1308.573;  -94.134;  -15.759
520.578; 2942.072; -335.131; -305.764
520.860; 3224.284; -254.132;   56.238
521.143; 1579.359; -763.135; -584.756
521.425;  455.072; -251.125; -279.775
521.707;  530.303; -622.127; -380.771
521.990; 1245.853; -199.127;  167.229
522.272; 1430.620; -116.140;   -4.748
522.554;  811.494; -237.143; -157.742
522.836;  499.621;  -24.134;   99.241
523.119;  255.608; -496.148; -189.734
523.401;  166.378; -448.130; -314.766
523.683;   51.170; -865.137; -693.753
523.965;  212.338;  408.862;  260.248
524.247;  191.517;   54.878;  170.220
524.529;  151.373; -451.134; -367.759
524.812;  287.655;   -3.130;  191.234
525.094;  568.638; -773.138; -631.751
525.376;  922.980; -143.124;   78.223
525.658;  558.901; -441.136; -339.754
525.940;   -6.132; -805.131; -671.764
526.222;   66.880; -188.136;  -88.755
526.504;  152.891; -190.131;   32.237
526.786;  329.451; -960.133; -647.760
527.068;  492.885; -124.123;  -67.778
527.349;  252.573; -865.137; -774.754
527.631;  132.834; -137.132;   22.238
527.913;   95.377; -664.127; -450.771
528.195;   89.965; -761.125; -639.774
528.477;  184.268;  -93.134;  -30.758
528.759;   71.480; -648.130; -522.766
529.040;   24.609; -569.123; -293.778
529.322;   46.143; -235.125;  -10.774
529.604;  173.057;  -47.130;   93.233
529.886;  168.509; -546.126; -302.773
530.167;  158.474;  232.870;  192.235
530.449;   51.989;    1.853;   63.265
530.731;    4.516; -572.122; -459.779
531.012;   21.735; -513.120; -216.784
531.294;   41.397; -118.116;  -43.792
531.575;  117.372;  290.875;  538.225
531.857;    4.839; -548.135; -266.757
532.138;   83.588; -113.141;   40.254
532.420;  209.435;  294.865;  403.244
532.701;  320.578; -722.133; -751.760
532.983;  461.456;  232.867;  182.239
533.264;  168.532; -243.126;  175.228
533.546;  -28.495; -491.136; -508.755
533.827;   65.350;  173.867;   -1.759
534.109;   75.164; -352.135;  -80.757
534.390;  130.638; -725.132; -582.762
534.671;  254.035; -270.135;  -82.756
534.953;  125.887; -751.123; -611.779
535.234;   25.458; -426.117; -255.789
535.515;  -90.607; -891.119; -735.785
535.796;  -29.177; -431.128; -193.770
536.078; -106.820;-1050.124; -904.777
536.359;   -1.487;  -22.123;    3.221
536.640;  -10.233; -480.125; -197.774
536.921;  169.612;  225.871;  143.232
537.202;  284.710;  -87.138;  -16.751
537.483;  342.071;  251.869;  377.236
537.764;  110.774;   17.870;   98.235
538.045;  -38.882; -543.134; -371.758
538.326;  -31.787; -596.129; -447.768
538.607;   -8.646; -686.127; -476.771
538.888;  114.402;   98.879;    5.218
539.169;  129.797; -704.122; -535.781
539.450;  281.836;  236.871;   16.233
539.731;  213.806; -361.121; -182.783
540.012;  131.335;  199.880;  412.216
540.293;   98.225;   82.876;  158.224
540.574;   37.141; -895.113; -717.796
540.855;  446.154;  435.879;  377.218
541.136;  482.344;   47.878;  139.220
541.416;  237.780; -161.130; -220.766
541.697;  124.867; -274.131; -170.763
541.978;  700.362; -270.135; -315.757
542.259;  893.754; -211.127; -236.771
542.539;  440.891; -191.116; -186.790
542.820;  181.121;  461.875;  480.225
543.101;  138.429;  -52.145;  -77.738
543.381;   40.503; -638.127; -591.771
543.662;  196.551;  159.873; -254.771
543.942;  368.049; -751.127; -830.770
544.223;  725.071;  193.878;  161.219
544.504;  460.830; -275.124; -182.777
544.784;  421.309; -592.126; -408.773
545.065; 1208.745;  104.884; -254.791
545.345; 1445.443;  227.881;   14.215
545.626;  889.141;  -14.113; -108.796
545.906;  584.923;   77.869;   98.235
546.186;  230.164;   92.874;  -95.773
546.467;  150.382;   99.877;  -95.778
546.747;  251.291;  264.884;  327.210
547.027;  263.303;   91.876;  111.223
547.308;  214.824; -376.127; -530.770
547.588;  302.514;  299.871;  371.232
547.868;  169.750;  458.870;  588.235
548.149;  162.227;  609.885;  593.207
548.429;   68.427; -347.127; -299.771
548.709;  109.060; -645.120; -461.784
548.989;  302.227;   84.882;   88.213
549.269; 1393.583;   10.868;  139.239
549.550; 3254.511;  215.877;  117.222
549.830; 2858.433; -758.111; -556.799
550.110;  559.540; -468.110; -320.801
550.390;  572.116; -128.122;  -56.779
550.670;  755.437; -868.114; -783.795
550.950;  529.454; -509.121; -471.782
551.230;  143.850;  549.879;  460.218
551.510;  -13.022; -381.121; -326.782
551.790;   24.347; -173.109; -127.803
552.070;  212.182;  940.877; 1181.223
552.350;  236.272; -492.119; -377.786
552.630;  373.223;   -2.121;   77.219
552.909;  228.870;  181.884;   73.209
553.189;  156.489;  -49.132;   33.237
553.469;   92.672; -703.119; -514.786
553.749;   94.930; -469.127; -357.772
554.029;  103.862;   33.883;  -24.790
554.308;   79.456; -154.115;  -37.794
554.588;   13.322; -196.128; -204.770
554.868;   27.780; -366.121;  -47.782
555.147;   92.903; -114.115;  -46.793
555.427;  379.197; -260.116; -250.792
555.707; 2516.451; -284.115; -200.793
555.986; 3138.436; -719.111; -538.800
556.266; 1593.890;   23.884;   72.210
556.546;   35.353; -888.121; -675.782
556.825;  131.410; -657.114; -556.794
557.105; 1173.845; -125.128;   17.230
557.384; 1376.844;  122.884;  187.209
557.664;  506.697; -717.116; -508.792
557.943;   45.279; -557.121; -411.782
558.222;  106.980; -345.118; -344.788
558.502;  204.154; -116.115;  -76.793
558.781;  361.775;  194.885;  499.208
559.061;  258.230; -232.118; -227.788
559.340;  195.510;  302.883;  353.211
559.619;  439.290;   93.884;  148.210
559.899;  648.236; -239.117; -266.789
560.178;  567.279; -778.115; -593.793
560.457; 2029.988; -623.117; -562.790
560.736; 2849.612; -472.111; -482.800
561.015; 1890.093; -500.128; -502.769
561.295;  267.491;  180.893;  215.193
561.574;  288.927;  119.885;  116.207
561.853;  363.351;  274.891;  303.197
562.132;  331.306;  -45.114;  182.206
562.411;  300.424;  396.879;  553.219
562.690;   61.100; -592.115; -458.792
562.969;  112.747;  472.888;  630.203
563.248;  451.496; 2966.878; 2487.219
563.527;  164.761; -290.111; -408.800
563.806;  221.152; -650.127; -521.771
564.085;  253.480; -297.105; -206.810
564.364;  137.739; -594.117; -405.790
564.643;  294.824; -276.121; -223.781
564.922; 1222.545;  221.890;  397.198
565.201; 1186.374; -640.109; -700.803
565.479;  518.824; -297.115; -219.792
565.758;  186.496; -810.128; -712.770
566.037;  323.750; -155.109; -100.803
566.316;  160.770; -286.116;  -28.791
566.595;   33.201;  -17.115;  -12.793
566.873;   66.288; -166.111;  -79.801
567.152;  -62.003; -490.113; -590.797
567.431;    4.741; -113.116;    6.210
567.709;  -13.984; -344.107; -212.807
567.988;  140.834; -810.114; -769.794
568.266;  347.426; -160.115;  -68.793
568.545;  211.449; -644.100; -514.819
568.824;  379.648;  160.885;  356.208
569.102;  336.209; -351.114; -235.794
569.381;  105.072; -492.116; -407.792
569.659;  -50.281; -553.113; -553.796
569.938;   -8.830; -743.122; -465.780
570.216;   54.877; -225.109; -225.804
570.494;  -41.663; -632.114; -572.795
570.773;   28.403;  202.879;  114.218
571.051;   -8.715; -373.123; -357.778
571.330;   40.166; -221.113; -174.796
571.608;   27.591; -181.098; -173.823
571.886;  -86.294; -671.111; -581.799
572.164;  -67.520; -739.121; -621.782
572.443;  -64.342; -562.105; -512.811
572.721;  -41.662; -399.117; -289.790
572.999;  -32.393; -280.117; -168.788
573.277;   73.827;  379.894;  620.191
573.555;  181.854;   94.894;   37.190
573.834;  854.332;  -86.117; -114.788
574.112; 1022.943;  880.893;  811.193
574.390;  291.662; -143.111;  -96.801
574.668;   -0.727;  -91.112;  -61.797
574.946;  -21.146; -165.106; -187.810
575.224;    4.899;   71.891;  -16.803
575.502;  -21.258; -200.116; -204.791
575.780;  -74.051; -767.112; -829.798
576.058;  213.111; 1589.889; 1004.200
576.336;  -20.183; -210.110; -129.801
576.614;  -59.051; -511.112; -340.798
576.891;   -6.545; -711.115; -823.794
577.169;  286.785; -158.108; -285.805
577.447;  380.667;  169.893;  202.193
577.725;  191.228;  629.888;  854.201
578.003;    3.777;  -71.112; -371.798
578.280;   74.867; -208.104; -242.812
578.558;   65.954; -450.115; -422.793
578.836;  126.437; -210.114; -145.795
579.114;   55.798; -630.112; -670.797
579.391;   78.308;   -6.117;  -18.789
579.669;  -69.344; -595.114; -704.794
579.947;   99.439; -326.107; -127.806
580.224;  188.514; -692.107; -524.806
580.502;  213.518;  127.893;   76.193
580.779;    9.314;  -42.117;   75.210
581.057;  -72.097; -584.109; -470.804
581.334; -103.094; -726.102; -695.815
581.612;   42.930;   54.895;  511.190
581.889;  -14.607;  -83.101; -129.818
582.167;  -30.294; -298.099; -190.821
582.444; -101.087; -845.102; -814.817
582.721;  110.114;  657.899;  715.183
582.999;   15.979; -326.100; -167.821
583.276;  300.289; -812.123; -713.779
583.553;  437.309; -364.102; -294.816
583.831;  104.939; -607.104; -631.812
584.108;   42.608;  349.892;  174.195
584.385;    1.630; -122.102;  -98.815
584.662;  -86.536; -651.111; -828.801
584.940;   16.413;  204.889;  204.199
585.217;  -23.007;  -73.113; -303.796
585.494;   27.221;   71.890;  118.198
585.771;  130.953; -250.109; -354.804
586.048;  348.618; -196.113;  -76.796
586.325;  179.391; -721.110; -773.801
586.602;   75.592;  230.896;  213.188
586.879;  -34.799; -499.100; -580.820
587.156;   32.131; -156.105; -331.810
587.433;  -54.814; -701.102; -667.817
587.710;   49.200;  152.888;  234.202
587.987;  220.236; -264.105; -236.811
588.264;  606.351;  315.888;  387.202
588.541;  994.469;  -61.104;   26.187
588.818; 1956.280;   72.892;  171.196
589.095; 1700.390; -163.104; -174.812
589.371;  274.351; -459.109; -414.804
589.648;  -10.057; -581.107; -437.807
589.925;    7.413; -517.114; -621.795
590.202;  -46.201; -741.112; -607.798
590.478;   52.462; -166.105;  -73.811
590.755;  144.311; -241.108; -132.806
591.032; 1556.718; -741.110; -699.802
591.308; 2197.253; -732.094; -790.831
591.585; 1118.842; -573.110; -560.802
591.862;   55.713;-1056.102; -950.817
592.138;   32.884; -475.108; -474.805
592.415;   61.443; -486.104; -495.813
592.691; 1029.141;  460.896;  518.188
592.968; 1306.892; -208.098; -123.824
593.244;  618.591; -695.116; -595.790
593.521;   46.613; -105.102;  -42.817
593.797;  -44.858; -810.122; -720.780
594.074;  198.629; -611.096; -588.826
594.350;  485.165;  828.905;  729.172
594.626;  190.264; -303.111; -283.801
594.903;   43.988; -643.101; -645.817
595.179;  118.146;  243.896;  418.187
595.455;   15.244; -136.107; -150.807
595.731;    1.423;  -19.103;  -38.814
596.008;  -49.167; -464.111; -434.800
596.284;   11.378; -187.100; -242.820
596.560;   13.134; -501.093; -493.833
596.836;  118.908; -173.105;  -70.810
597.112;  215.209; -582.108; -437.805
597.388;  192.677;  -49.097;  -48.826
597.665;   99.871;  437.887;  530.203
597.941;  -68.738; -572.089; -658.839
598.217;    4.696; -323.110; -293.802
598.493;  157.780;   61.891; -204.804
598.769;  356.323; -175.100;  -50.819
599.045;  179.912; -490.108; -562.806
599.321;    8.527; -193.100; -261.820
599.597;   67.179; -355.109; -476.804
599.872;  330.894;  409.896;  429.187
600.148;  227.454;  -61.097; -172.826
600.424;  175.667;   91.893;  202.193
600.700;  143.619; -170.107; -280.807
600.976;   63.798; -442.097; -464.825
601.252;  146.676; -226.109; -272.803
601.527;  119.545; -833.104; -840.813
601.803;   99.563; -453.105; -404.812
602.079;  113.023; -124.100; -118.819
602.354;  363.044; -620.092; -531.835
602.630;  567.793; -140.113; -482.796
602.906; 1489.868; -910.101; -863.818
603.181; 4564.822; -627.119; -534.786
603.457; 3876.852;   98.903; -278.826
603.733;  541.481; -605.120; -626.783
604.008;  634.155; -245.106; -164.810
604.284; 2125.590; -636.101; -580.817
604.559; 1833.628;   -3.112;  -42.799
604.835;  327.683; -163.105; -225.810
605.110;  235.407; -732.099; -892.821
605.385;  482.462;  224.907;  267.167
605.661;  397.967; -625.095; -729.829
605.936;  717.512; -664.108; -737.806
606.211;  627.179;  -17.103; -170.815
606.487;  122.483; -329.114; -376.794
606.762;  -35.753; -791.119; -745.786
607.037;  -39.667; -501.105; -433.810
607.313;  -62.689; -589.096; -574.828
607.588;  -15.471; -375.106; -137.810
607.863;   12.768;  -28.101; -143.818
608.138;  137.470;  513.890;  516.198
608.413;  -28.239; -576.099; -592.822
608.688;   16.809; -203.108; -267.805
608.964;   96.549; -509.106; -218.809
609.239;  141.780; -107.105; -212.810
609.514;  175.088;  281.895;  240.188
609.789;  425.217; -187.104; -716.812
610.064;  561.060; -435.096; -609.827
610.339;  538.276; -855.109; -799.804
610.614;  719.427; -131.100; -315.820
610.889;  403.363;  215.895;  107.188
611.163;   -9.536; -407.104; -591.812
611.438;   42.734;   81.886; -167.794
611.713;  -18.310; -467.101; -499.817
611.988;   22.692; -144.101; -328.818
612.263;  -53.669; -771.102; -717.815
612.538;  152.243;  385.887;  251.204
612.812;   63.779; -832.100; -911.820
613.087;   72.265; -358.098; -338.823
613.362;  -79.481; -497.107; -557.807
613.637;   37.075;  261.897;  138.186
613.911;  -25.531; -256.092; -345.835
614.186;   60.392; -249.107; -292.807
614.460;  384.882; -842.081; -758.854
614.735;  497.834;  -55.087;  -17.843
615.010;   92.649;   43.912;  -82.841
615.284;  170.133;  360.892;  246.195
615.559;  196.668; -792.092; -955.835
615.833;  197.934;  -76.099;  -87.822
616.108;  -24.371; -225.090; -390.837
616.382;  100.760;  274.913;  402.156
616.656;   96.905; -241.090; -232.837
616.931;  336.609; -785.099; -700.822
617.205;  710.921; -973.104; -979.813
617.480;  652.045;  -91.125;    6.225
617.754;   73.792; -396.125; -128.774
618.028;  -30.960; -369.129; -382.768
618.302;   51.682;   73.892;  -25.805
618.577;  -67.398; -371.103; -518.815
618.851;  -74.102; -399.109; -600.803
619.125;  -49.952; -335.134; -378.759
619.399;  -54.304; -244.104; -374.813
619.673;  -53.977; -330.115; -515.792
619.947;  -50.913; -333.114; -448.795
620.222;  -32.086; -198.110; -204.801
620.496;  -17.996;  -47.121;  -96.782
620.770;   -5.728; -187.122;  -93.781
621.044;  146.256;  323.895;  346.190
621.318;  507.932; -653.120; -614.783
621.592;  433.955; -430.121; -409.783
621.866;  197.454; -476.112; -572.799
622.140;  -16.883; -207.116; -356.791
622.413;   48.933;  138.889;  112.200
622.687;  -55.910; -746.101; -492.817
622.961;    1.607; -130.108; -143.805
623.235;  -80.091; -633.111; -661.800
623.509;  -96.638; -816.105; -848.811
623.783;   -4.060;  -12.107;   48.193
624.056;  -29.217; -254.120; -280.783
624.330;   25.098;   63.888;   -3.797
624.604;   31.214; -271.116; -355.790
624.877;   41.769;  180.890;   26.198
625.151;    5.282; -249.114; -238.794
625.425;  -37.977; -150.103; -283.814
625.698;  -54.058; -367.119; -374.785
625.972; -106.604; -799.110; -765.802
626.245;   69.866;  685.884;  484.210
626.519;  -54.988; -426.120; -340.784
626.792;  -48.281; -192.107; -380.807
627.066; -103.135; -485.122; -662.779
627.339;  -90.183; -736.110; -663.802
627.613;   28.160;  351.880;  148.216
627.886;   43.798;  187.891; -612.803
628.160;  -22.868;  312.880; -161.783
628.433;  -91.928; -695.125; -703.775
628.706;  -79.613; -517.120; -615.784
628.979;   14.703;  296.876;  117.223
629.253; -128.129; -785.119; -833.786
629.526;  199.058; -334.126; -253.772
629.799;  161.585; -641.123; -479.778
630.072;   72.841; -497.128; -516.769
630.346; -100.584;-1115.116;-1080.790
630.619;  269.320; -467.107; -545.808
630.892;  428.409;  709.889;  593.200
631.165;  241.846;  790.896;  679.187
631.438; -101.899;-1092.112;-1055.798
631.711;   35.388;  453.877;  257.221
631.984;  -72.313; -523.117; -624.789
632.257;  -68.617; -636.117; -681.789
632.530;  -61.383; -412.119; -433.785
632.803;    8.905; -109.115;    7.207
633.076;  -82.893; -360.123; -422.777
633.349;   11.470;  173.872;  121.231
633.622;  -54.109; -187.119; -240.785
633.895; -131.367; -903.120; -823.783
634.167;  -63.915; -496.126; -525.773
634.440;   -3.403;  -19.116; -137.792
634.713;  -19.730;  -22.119; -120.786
634.986;   67.535;  593.871;  453.233
635.258;  -91.422; -507.115; -597.793
635.531;   87.105;  742.882; -343.788
635.804;  -13.265; -303.117; -318.789
636.077;  -91.657; -830.116; -852.791
636.349;  -43.448; -586.115; -474.793
636.622;  319.507; 1695.874; 1392.228
636.894;  111.662; -474.120; -909.784
637.167;   63.476; -836.127; -789.771
637.439;   -0.002; -278.128; -213.770
637.712;  -62.516; -312.126; -293.772
637.984;  -97.181; -635.116; -707.791
638.257;  282.957;  515.877;  488.222
638.529;  385.748; -881.125; -924.776
638.802;  176.641; -508.128; -449.769
639.074; -117.104; -927.122; -952.781
639.346; -121.385; -942.135; -930.757
639.619;   -7.271;  -79.142; -319.744
639.891;   -3.510;  -83.122; -168.779
640.163;  -76.333; -689.122; -756.780
640.435;   27.768;  273.878;  103.220
640.708;   -9.305;  -72.122; -132.780
640.980;  -28.428; -366.122; -362.781
641.252;  139.598;  -25.121;  -71.781
641.524; 1427.075;  580.879;  573.219
641.796; 1440.527;-1094.121; -907.782
642.068;  241.729; -191.121; -300.782
642.340;  -64.245; -486.121; -566.783
642.613;   25.907;  294.880;  323.217
642.885; -105.966; -787.120; -878.783
643.157;  -60.715; -810.120; -658.784
643.428;   31.087;  170.880;  218.216
643.700;  -76.911; -498.120; -425.784
643.972;  -29.559;  -16.119; -133.785
644.244;  -87.358; -474.119; -559.785
644.516;  -59.606; -250.119; -114.786
644.788;   63.846;  662.881;  548.214
645.060;  -42.777;  -12.119; -124.786
645.332;  -89.826; -525.118; -535.787
645.603;   23.701;  479.882;  342.213
645.875;  -70.422; -334.118; -369.787
646.147;  143.104; 1487.882; 1242.212
646.418;  -90.244; -931.117; -918.788
646.690;   32.908; -714.117; -715.789
646.962;  -14.215; -413.117; -451.789
647.233;   -8.314;   15.883;   11.211
647.505;  -95.937; -595.117; -475.790
647.776;    2.965;  328.884;  229.210
648.048;  -17.084; -248.116; -418.790
648.320;  -89.657; -752.116; -679.791
648.591; -146.730;-1055.116; -958.791
648.862;  -89.378; -505.116; -577.792
649.134;   11.773;  115.885;  198.208
649.405;  -69.700; -661.115; -618.792
649.677;  -66.448; -475.115; -598.793
649.948;  -21.872; -181.115; -296.793
650.219;   -9.095;  -37.115; -147.793
650.491;  -81.818; -431.114; -520.794
650.762; -121.341; -705.114; -731.794
651.033;  -97.090; -437.114; -424.795
651.304; -106.813; -743.114; -728.795
651.576;  -75.811; -680.114; -645.795
651.847;  -39.785; -250.113; -140.796
652.118;  -32.633;  -32.113; -189.796
652.389; -106.931; -639.113; -722.796
652.660;  -48.779; -147.113;  -89.797
652.931; -138.353; -897.112; -871.797
653.202;  -93.476; -382.112; -541.798
653.473;  -75.674; -633.112; -533.798
653.744;   78.677; -595.112; -590.798
654.015;   81.504; -356.112; -303.799
654.286;  -83.819; -642.111; -663.799
654.557;  -66.467; -586.111; -521.799
654.828; -158.691;-1114.111;-1088.800
655.099;  -79.489; -404.111; -291.800
655.370;  -92.862; -427.111; -543.801
655.641; -115.536; -656.110; -714.801
655.911; -107.984; -618.110; -638.801
656.182;   60.143;  437.890;  387.198
656.453;  111.945;  830.890;  746.198
656.724;  -68.579; -466.110; -426.802
656.994;  -92.727; -553.109; -568.803
657.265; -100.900; -862.109; -873.803
657.536;  -94.799; -500.109; -377.804
657.806; -109.947; -561.109; -593.804
658.077; -142.745; -866.109; -950.804
658.347;  -78.068; -523.108; -598.805
658.618; -120.117; -646.108; -694.805
658.888;  -29.315;  -41.108;  112.195
659.159;  -84.563; -432.108; -548.806
659.429;  -30.337; -292.108; -349.806
659.700;  -15.285; -435.107; -390.807
659.970;  -18.308; -370.107; -359.807
660.241;  -25.406; -754.107; -921.807
660.511;  368.870; -147.107; -174.808
660.781;   26.697; -793.106; -748.808
661.052;  -52.751; -222.106; -381.808
661.322;  -37.600;   21.894;   -9.809
661.592;   23.727;  257.894;  148.191
661.862;  -76.946; -369.106; -382.810
662.133;  -88.569; -551.105; -502.810
662.403; -114.918; -770.105; -676.810
662.673;  -53.316; -256.105; -213.811
662.943; -122.714; -612.105; -551.811
663.213;  -22.813;  -85.105;  -81.811
663.483;  -78.811; -593.104; -568.812
663.753;  -56.784; -194.104; -152.812
664.023;  -22.182;   68.896;  -32.813
664.293;  -61.781; -319.104; -126.813
664.563; -125.804; -694.104; -648.813
664.833; -123.027; -743.103; -608.814
665.103; -136.576; -730.103; -793.814
665.373; -107.974; -766.103; -806.814
665.643; -131.347; -863.103; -918.815
665.913;   -8.695; -534.103; -714.815
666.182;   64.856; -685.102; -719.816
666.452;  187.308;  -22.102;  -89.816
666.722;  -48.165; -724.102; -784.816
666.992; -118.039; -948.102; -921.817
667.261; -116.387; -824.102; -808.817
667.531;  169.640;  134.899;   45.183
667.801;  473.442; -440.101; -412.818
668.070;  215.043;  714.899;  697.182
668.340; -112.755; -883.101; -840.819
668.609;   74.147;  588.900;  301.181
668.879;  -88.102; -490.100; -558.819
669.149;  -77.625; -539.100; -516.820
669.418; -116.348; -698.100; -726.820
669.688;  -43.146; -482.100; -666.820
669.957;   15.230; -423.099; -546.821
670.226;  -41.993; -268.099; -331.821
670.496;  -94.266; -431.099; -635.822
670.765;  -70.115; -418.099; -501.822
671.034; -143.388; -872.099; -828.822
671.304;  -13.036;   55.902; -111.823
671.573; -155.559;-1085.098; -957.823
671.842;   28.417; -380.098; -294.823
672.112;  -37.956; -692.098; -586.824
672.381;  -17.004; -239.098; -214.824
672.650; -139.253;-1005.097;-1021.825
672.919; -107.601; -631.097; -507.825
673.188;  -98.324; -681.097; -878.825
673.457; -155.397;-1101.097;-1143.826
673.726;  -96.596; -579.096; -646.826
673.995;  -50.819; -533.096; -479.826
674.265;  -36.067; -263.096; -333.827
674.534;  -20.841; -183.096; -235.827
674.802;  -38.464; -618.096; -703.828
675.071;  611.338; -886.095; -801.828
675.340; 2701.490; -464.095; -339.828
675.609;  889.616;  103.905;   82.171
675.878;   11.643; -949.095; -893.829
676.147;   11.870;  -26.095;   -8.829
676.416;   29.721; -210.094; -294.830
676.685;  520.873; 1000.906; -622.830
676.953;   37.550; -603.094; -452.831
677.222;  -46.498; -193.094; -273.831
677.491;  -38.547;  -24.094; -127.831
677.759;  -15.570;   11.907;  172.168
678.028;  -24.218; -279.093; -222.832
678.297;  -16.567;   71.907;  197.168
678.565; -163.665; -898.093; -944.833
678.834;  -60.713; -311.093; -268.833
679.102;  -92.011; -411.092; -391.834
679.371; -141.110; -898.092; -727.834
679.639; -145.333; -797.092; -786.834
679.908; -123.456; -794.092; -724.835
680.176; -152.055; -895.091; -941.835
680.445;  -75.803; -346.091; -352.835
680.713;  -20.876;  -58.091;  -23.836
680.982;  -90.599; -523.091; -525.836
681.250; -102.598; -578.091; -507.837
681.518;  -98.771; -534.090; -751.837
681.787;  -31.319; -204.090; -167.837
682.055;  -82.968; -490.090; -422.838
682.323; -154.116; -993.090; -992.838
682.591;    3.186; -216.090; -538.838
682.859;   33.163;    9.911;  -35.839
683.128;    5.339;  232.911;  497.161
683.396; -179.184;-1102.089;-1122.840
683.664;  -42.507; -241.089;   21.160
683.932;   -0.631;  144.911;  -76.840
684.200;  -81.954; -576.088; -320.841
684.468;  -33.352;  -73.088; -124.841
684.736;  -36.475; -214.088; -175.841
685.004; -135.399;-1024.088; -982.842
685.272;  -81.722; -880.088; -774.842
685.540;  -73.920; -499.087; -557.843
685.808;  -98.419; -651.087; -682.843
686.076; -128.492; -894.087; -969.843
686.343;  -76.690; -601.087; -815.844
686.611;    3.237; -195.087; -224.844
686.879;  266.988; -530.086; -553.844
687.147; 2275.115; -483.086; -480.845
687.414;  629.492;  -12.086; -169.845
687.682;  -35.657; -658.086; -757.846
687.950;  216.670;  259.915;  263.154
688.217;  -37.478; -792.085; -760.846
688.485;  -32.201; -632.085; -636.847
688.753;  329.700;  -11.085; -102.847
689.020;   67.952; -820.085; -851.847
689.288; -115.846; -853.084; -787.848
689.555;  -36.870; -195.084; -148.848
689.823;  -61.893; -241.084; -345.849
690.090;  -84.716; -546.084; -651.849
690.358; -153.414; -877.084; -897.849
690.625;  -14.188;  120.917;   45.150
690.892;  -78.661; -403.083; -369.850
691.160;  -15.609;   72.917;  -35.850
691.427;  -16.858;  141.917;  130.149
691.694; -146.756; -855.083; -929.851
691.962; -145.179;-1177.082;-1060.852
692.229;   -1.852;  127.918;   56.148
692.496;   52.899;  130.918;  -49.852
692.763;    6.751; -164.082; -201.853
693.031;  -76.597; -739.082; -716.853
693.298;  -49.271; -509.081; -368.853
693.565;  189.456; -155.081; -163.854
693.832;  856.633;   -5.081;   -9.854
694.099;   76.985; -643.081; -642.855
694.366;  -67.014; -882.081; -896.855
694.633;  -66.362; -920.080; -633.855
694.900;  689.965; 4367.920; -114.856
695.167;  302.266; -214.080; -380.856
695.434;   52.168; -646.080; -623.856
695.701;  167.220;  121.921;  -61.857
695.968;  347.022; -365.079; -361.857
696.234;  831.023; -415.079; -646.858
696.501; 9837.100; -776.079; -614.858
696.768; 5148.527; -554.079; -617.858
697.035;  283.753; -632.078; -667.859
697.302;   22.155; -448.078; -552.859
697.568;   15.457; -458.078; -497.859
697.835;  -52.191; -683.078; -624.860
698.102;  -31.640; -498.078; -407.860
698.368;   55.837;  384.923;  396.139
698.635;  -26.811;  -47.077; -424.861
698.901;  -25.960; -240.077; -348.861
699.168;   19.442; -534.077; -456.862
699.435;   34.144;  -72.077;  -13.862
699.701; -109.854; -868.076; -764.862
699.968;   13.647;  144.924; -441.863
700.234;  -99.551; -783.076; -822.863
700.500;  -54.799; -448.076; -539.864
700.767;   -3.548;   -1.075;   26.136
701.033; -122.021;-1015.075; -963.864
701.299;  -55.894; -450.075; -483.865
701.566;   95.208;  950.925;  763.135
701.832;   19.984;  -31.075;  -76.865
702.098; -110.689;-1054.074;-1034.866
702.365;  -96.887;-1098.074;-1030.866
702.631;  -70.436;-1038.074;-1063.867
702.897; 1043.616; -765.074; -676.867
703.163; 1849.418;  348.926;  254.133
703.429;  123.070; -256.073; -273.868
703.695;  -42.029; -796.073; -792.868
703.961;   14.998; -214.073; -210.868
704.227;  -61.900; -630.073; -725.869
704.493;  114.626;  613.927;  510.131
704.759;  -35.397; -565.072; -540.870
705.025;   19.555; -203.072; -194.870
705.291;  -20.068; -666.072; -562.870
705.557;  192.558;  719.928;   34.129
705.823;   39.385; -742.072; -694.871
706.089;  144.862; -307.071; -326.871
706.355;  355.089; -315.071; -244.872
706.620; 5730.515; -776.071; -729.872
706.886; 7915.467; -309.071; -362.873
707.152;  671.369; -818.070; -973.873
707.418;  -12.305;-1153.070;-1186.873
707.683;    0.522; -550.070; -530.874
707.949;  -42.751; -547.070; -578.874
708.215;    3.076; -129.070; -207.874
708.480;  -45.023; -520.069; -420.875
708.746;   70.879;   68.931;   28.125
709.011;  -75.594; -578.069; -612.876
709.277;  -75.768; -538.069; -543.876
709.542;  -58.541; -428.069; -387.876
709.808;   -6.089;  -59.068;   89.123
710.073;  -90.062; -577.068; -695.877
710.339;  -23.111; -242.068; -228.877
710.604;   34.966; -780.068; -845.878
710.869;  268.193; -277.068; -366.878
711.135;  -88.331; -715.067; -628.879
711.400;  -90.804; -507.067; -608.879
711.665;  -75.952; -404.067; -479.879
711.931;  -94.775; -661.067; -677.880
712.196; -128.099; -876.067; -954.880
712.461;   66.178; -402.066; -490.880
712.726;   73.980; -727.066; -771.881
712.991;  -82.669; -647.066; -664.881
713.256;  -53.842; -350.066; -332.882
713.521;  -54.540; -417.065; -381.882
713.787;  -51.938; -454.065; -472.882
714.052;  -21.812; -214.065; -400.883
714.317;  -91.510;-1045.065; -981.883
714.581; 1021.342; -374.065; -268.883
714.846; 1515.368; -822.064; -888.884
715.111;  136.070;  261.936;  257.116
715.376;  -30.928;  -86.064; -223.885
715.641;  -23.926; -365.064; -367.885
715.906;  188.750;   15.936; -551.885
716.171;  101.902;  221.937;  209.114
716.436;   16.004;  -78.063; -104.886
716.700; -103.870; -818.063; -692.886
716.965; -126.518; -794.063; -807.887
717.230;  -77.091; -339.063; -392.887
717.494;  -37.239;  -40.062; -134.888
717.759;  -90.313; -784.062; -640.888
718.024;    0.064;  269.938;  250.112
718.288;   71.966;  685.938;  395.111
718.553; -150.983; -803.062; -977.889
718.817; -129.631; -883.061; -899.889
719.082;  -35.354; -115.061; -125.890
719.346; -145.527;-1000.061; -947.890
719.611;  -45.451; -300.061; -255.891
719.875; -100.924; -568.060; -537.891
720.140;  -81.997; -453.060; -603.891
720.404;   13.229; -136.060; -249.892
720.668;  555.056; -475.060; -411.892
720.933;  237.783;  146.940;  137.108
721.197; -116.790; -667.059; -600.893
721.461; -138.989; -851.059; -826.893
721.725;  -27.887;  -21.059; -250.894
721.990;  -57.410; -284.059; -204.894
722.254;  -33.884;  -26.059; -108.894
722.518;  -70.507; -286.058; -442.895
722.782; -101.230; -743.058; -594.895
723.046;   93.472;  614.942;  570.105
723.310;   17.473;  374.942;  210.104
723.574; -101.975; -654.058; -614.896
723.838;  -96.898; -576.057; -642.897
724.102;  -36.672; -226.057; -239.897
724.366; -141.870;-1032.057; -978.897
724.630;  -99.368; -749.057; -571.898
724.894;  -93.366; -722.057; -514.898
725.158;  -27.615;   38.944; -295.898
725.422;  -71.263; -394.056; -327.899
725.685;  -72.086; -441.056; -349.899
725.949;  -74.110; -566.056; -519.900
726.213;  -86.983; -732.056; -811.900
726.477;   72.994;-1020.055; -933.900
726.740;   95.921; -274.055; -104.901
727.004;  254.997; -384.055; -510.901
727.268; 3238.449; -442.055; -400.901
727.531;  972.501; -961.055; -775.902
727.795;  -52.023; -713.054; -673.902
728.059;  -57.371; -552.054; -557.903
728.322;  -94.269; -841.054; -669.903
728.586;  -16.242; -692.054; -701.903
728.849;  -95.291; -695.053; -756.904
729.112; -126.389; -812.053; -912.904
729.376; -125.687; -959.053; -905.904
729.639;  -75.886; -536.053; -536.905
729.903; -109.984; -733.053; -699.905
730.166;  -56.007; -437.052; -399.906
730.429;  -32.705; -317.052; -468.906
730.693;  -81.804; -355.052; -894.906
730.956;  151.523;  810.948;  651.093
731.219;  523.900; -310.052; -103.907
731.482;   49.151;-1003.051; -894.907
731.745;   29.403; -794.051; -935.908
732.009;    8.155;  -30.051;   50.092
732.272; -101.018; -904.051; -771.909
732.535;  -55.242; -300.051; -310.909
732.798; -162.465;-1083.050;-1166.909
733.061;  -59.963; -430.050; -456.910
733.324;    0.188;   31.950; -180.910
733.587;   54.565;  290.950;  365.090
733.850;  -78.058; -973.049;-1050.911
734.113;   16.569;   33.951;   32.089
734.376;   -4.005; -328.049; -447.912
734.639;  204.472; 1188.951; 1011.088
734.901;   35.999; -180.049; -402.912
735.164;  338.550; -883.048; -837.913
735.427;  991.777; -166.048; -355.913
735.690;  102.854; -205.048; -234.913
735.952;  -59.894; -923.048; -925.914
736.215;  -29.968;-1113.048;-1009.914
736.478;   13.909; -771.047; -774.915
736.740;  170.736;   33.953;  129.085
737.003;  430.237; -658.047; -672.915
737.266; 3013.914;  -94.047;   46.084
737.528;  344.466; -682.047; -660.916
737.791;  260.518; -316.046; -327.916
738.053;  686.119;  465.954;  649.083
738.316; 9451.021; -162.046; -136.917
738.578; 7226.323; -770.046; -736.918
738.841;  396.374; -382.046; -446.918
739.103;  127.176; -875.045; -777.918
739.365;  405.203;   79.955;  -69.919
739.628;  -17.995; -884.045; -805.919
739.890;  -34.494; -758.045; -710.919
740.152;  -57.967; -692.044; -754.920
740.414;  -14.340; -408.044; -359.920
740.677;  -65.864; -785.044; -634.921
740.939;  -46.012; -587.044; -487.921
741.201;  145.365; -432.044; -572.921
741.463;   -2.408; -689.043; -745.922
741.725;  -15.882;  -21.043; -199.922
741.987;   27.695;  220.957;  116.078
742.249;  -41.028; -751.043; -859.923
742.511;  118.673; -703.043; -794.923
742.773;   -9.125; -546.042; -546.924
743.035;  104.502;  796.958;  533.076
743.297;  -81.946; -963.042;-1013.924
743.559;  570.130; -278.042; -262.925
743.821;   22.332; -735.042; -744.925
744.083;    0.709;  -44.041; -149.925
744.345; -103.615; -869.041; -892.926
744.607;   30.662;   75.959;  122.074
744.868;  -71.611; -490.041; -554.927
745.130; -118.159; -994.041;-1008.927
745.392;   20.567;   -1.040;  -44.927
745.653;  -33.806; -411.040; -378.928
745.915;  134.121;  896.960;  631.072
746.177;   46.222;   35.960;  -43.928
746.438;  -35.326; -428.040; -543.929
746.700;  -69.424; -947.039; -988.929
746.961;  -14.497; -659.039; -740.930
747.223;  111.679; -190.039;  -74.930
747.484;   61.631; -391.039; -471.930
747.746;  116.008;  -23.038; -106.931
748.007;   75.484; -647.038; -689.931
748.269;  211.336; -468.038; -440.931
748.530;  356.638; -852.038; -638.932
748.791;  199.865; -354.038; -420.932
749.053;  355.641;  286.963;  163.067
749.314;  370.043; -236.037; -169.933
749.575;  396.695; -945.037; -905.933
749.836;  709.096; -217.037;   86.066
750.098; 1886.523;  -60.037;  -21.934
750.359;29585.325;  414.964;  555.066
750.620; 8223.452; -121.036; -220.935
750.881;  858.003; -585.036; -513.935
751.142; 1095.630; -950.036; -938.936
751.403;14557.507; -789.036; -705.936
751.664; 7059.058;-1034.035; -999.936
751.925;  432.160; -175.035; -262.937
752.186;  231.012; -298.035; -278.937
752.447;  110.914; -590.035; -445.937
752.708;   30.265; -532.035; -648.938
752.969;   -6.083; -566.034; -576.938
753.230;  -14.556; -777.034; -672.939
753.491;  -15.180; -650.034; -631.939
753.751;   44.497;  109.966;   19.061
754.012;   76.974;  258.967;  181.060
754.273;   26.476; -174.033;  -71.940
754.534;  -11.948; -487.033; -580.940
754.794;  -94.146; -926.033; -911.941
755.055;  129.181; 1051.967;  881.059
755.316;  -62.018; -700.032; -566.942
755.576;  -43.716; -606.032; -576.942
755.837;  -53.914; -527.032; -695.942
756.097;  -50.837; -530.032; -564.943
756.358;  -76.786; -725.032; -770.943
756.618;  -66.384; -705.031; -641.943
756.879;   -5.082; -254.031; -349.944
757.139; -122.456;-1098.031;-1116.944
757.400;  -76.129; -538.031; -553.945
757.660;  -23.027; -365.031; -401.945
757.920;  -12.975; -266.030; -228.945
758.181;  -20.249; -468.030; -351.946
758.441;  -89.522; -870.030; -809.946
758.701;  -35.795; -308.030; -215.946
758.961;  -38.344; -220.030; -278.947
759.222;  -58.292; -574.029; -502.947
759.482;  -93.790; -683.029; -723.948
759.742;  -84.913; -706.029; -547.948
760.002;    0.338;  -83.029; -143.948
760.262;   22.265;   50.972;  182.051
760.522;  -49.083; -498.028; -574.949
760.782;  -56.182; -738.028; -612.949
761.042;  -30.380; -618.028; -573.950
761.302;   30.547;   55.972;  -18.950
761.562;   31.099; -164.027; -154.951
761.822;   44.650; -710.027; -551.951
762.082;  -63.023;-1104.027;-1093.951
762.342;   49.904; -328.027; -403.952
762.601;   76.855; -567.027; -506.952
762.861;  278.307; -281.026; -207.952
763.121;  344.809; -406.026; -411.953
763.381; 6683.386; -499.026; -485.953
763.640; 8194.437; -139.026; -307.954
763.900;  354.614; -242.026; -203.954
764.160;   76.516; -458.025; -491.954
764.419;   -8.783; -726.025; -782.955
764.679;  -77.131; -795.025; -726.955
764.939;  -19.429; -124.025; -210.955
765.198;  -80.877; -608.025; -563.956
765.458;  -89.476; -710.024; -612.956
765.717;  -80.299; -454.024; -590.957
765.976;  -66.197; -428.024; -411.957
766.236;  -90.095; -475.024; -610.957
766.495;    2.881;  260.977;   73.042
766.755; -109.367;-1090.023; -987.958
767.014;  -35.965; -594.023; -665.958
767.273;  -59.739; -373.023; -397.959
767.533;  -42.512; -228.023; -307.959
767.792;  -43.485; -151.022; -188.960
768.051;  -45.483; -228.022; -276.960
768.310;  -93.757; -546.022; -650.960
768.569;   -7.005; -161.022;    4.039
768.828;  -32.003; -285.022; -363.961
769.088; -118.602;-1050.021; -942.961
769.347; -100.075; -755.021; -599.962
769.606;  -96.873; -876.021; -857.962
769.865; -111.871;-1016.021;-1033.963
770.124;   -5.445; -411.021; -336.963
770.383;  -50.493; -778.020; -910.963
770.641;    8.084; -398.020; -400.964
770.900;  -58.790; -953.020; -846.964
771.159;  -37.213; -851.020; -951.964
771.418;    0.339; -917.020; -779.965
771.677;  143.966; -224.019; -293.965
771.936;  151.642; -794.019; -865.966
772.194; 2190.369; -465.019; -437.966
772.453;11812.596; -213.019; -391.966
772.712;  852.022;  416.982;  329.033
772.970;  125.299;   32.982;   63.033
773.229;   76.751;  -22.018;  102.033
773.488;  -77.547; -814.018; -770.968
773.746;   48.054;  296.982;  335.032
774.005;  -13.169;  190.983;  -22.969
774.263;   12.533;  243.983;  177.031
774.522;  -35.741; -422.017; -548.969
774.780;  -71.139; -484.017; -417.970
775.039;  -84.137; -551.017; -531.970
775.297;  -29.810; -135.016; -351.970
775.555; -113.284; -489.016; -612.971
775.814; -109.057; -618.016; -570.971
776.072; -114.480; -749.016; -740.971
776.330;  -90.279; -630.016; -520.972
776.589; -114.152; -703.015; -721.972
776.847; -130.600; -645.015; -624.973
777.105; -171.448;-1016.015;-1032.973
777.363;  -82.172; -459.015; -454.973
777.621; -144.195; -660.015; -717.974
777.879;  -30.993;  -42.014;   32.026
778.138; -104.317; -554.014; -717.974
778.396; -112.240; -585.014; -526.975
778.654; -186.763;-1015.014; -970.975
778.912;  -69.911; -269.014; -371.976
779.170; -141.560; -880.013; -803.976
779.427; -147.008; -922.013; -897.976
779.685; -150.356; -880.013; -832.977
779.943;  -95.430; -654.013; -593.977
780.201; -159.478; -964.012; -883.978
780.459; -122.026; -651.012; -610.978
780.717;  -91.849; -440.012; -390.978
780.974; -110.973; -449.012; -490.979
781.232;  -74.421; -358.012; -338.979
781.490;  -94.019; -551.011; -472.979
781.747; -102.243; -555.011; -476.980
782.005;   22.609;  462.989;  254.020
782.263; -167.314; -542.011;-1004.981
782.520;  -77.162; -326.011; -501.981
782.778; -172.886;-1013.010;-1051.981
783.035; -154.559; -962.010; -938.982
783.293;  -69.707; -248.010; -206.982
783.550;  -58.731; -134.010; -198.982
783.808; -141.604; -764.010; -776.983
784.065; -168.677; -745.009; -874.983
784.322;  -60.125;   25.991;  -86.984
784.580; -133.474; -915.009; -771.984
784.837; -103.722; -392.009; -466.984
785.094; -132.570; -783.009; -762.985
785.352;  -84.294; -304.008; -404.985
785.609; -115.092; -934.008; -839.985
785.866;  -86.865; -345.008; -401.986
786.123;  -92.238; -639.008; -583.986
786.380; -112.762; -665.008; -604.987
786.637;  -54.760; -225.007; -380.987
786.895;  -41.783; -456.007; -543.987
787.152;  -33.632; -135.007; -267.988
787.409;  -53.505; -123.007; -225.988
787.666; -100.478; -299.006; -378.988
787.923; -114.126; -616.006; -695.989
788.179;  -99.425; -551.006; -584.989
788.436; -118.923; -585.006; -585.990
788.693;  -37.346;  -92.006;  -87.990
788.950;   76.130; -125.005; -112.990
789.207;  126.307; -381.005; -372.991
789.464;  -66.066; -161.005; -301.991
789.720;   -4.164;  150.995;  110.009
789.977; -177.463;-1003.005; -671.992
790.234;  -39.861;   44.996;  -66.992
790.490; -156.759; -884.004;-1031.993
790.747;  -22.583;  -85.004;   22.007
791.004;  -46.731; -426.004; -348.993
791.260;  -79.904; -430.004; -560.994
791.517;  -99.402; -843.003; -788.994
791.773;  -53.326; -379.003; -342.994
792.030; -116.174; -596.003; -660.995
792.286; -109.372; -686.003; -636.995
792.543;  -15.946;  -74.002; -159.995
792.799;  -63.244; -584.002; -382.996
793.055; -160.192;-1179.002;-1210.996
793.312;  -89.165; -827.002; -816.997
793.568;  -78.939; -746.002; -599.997
793.824;   -1.037; -226.001; -284.997
794.081;   11.015; -447.001; -508.998
794.337;   39.116; -664.001; -561.998
794.593; 1039.718; -319.001; -271.999
794.849; 6032.370; -746.001; -772.999
795.105;  324.447; -270.000; -261.999
795.361;   13.648; -490.000; -457.000
795.617;  -57.000; -875.000; -945.000
795.873;  -47.350; -360.000; -407.000
796.129;  -33.075; -368.000; -306.000
796.385;  -23.525; -124.000; -156.000
796.641;   72.400;  412.000;  550.000
796.897;  -80.800; -666.000; -635.000
797.153;   53.400;  453.000;  357.000
797.409;  -98.350; -785.000; -868.000
797.665;  -82.300; -625.000; -732.000
797.921;  -79.275; -775.000; -762.000
798.176;  -62.650; -744.000; -747.000
798.432;  -53.575; -824.000; -596.000
798.688;  -95.800;-1174.000;-1078.000
798.943;   66.325; -165.000; -147.000
799.199;    9.525;-1005.000; -959.000
799.455;  230.150;  369.000;  316.000
799.710;  131.050; -813.000; -380.000
799.966;  293.450; -162.000; -160.000
800.221;  440.825; -638.000; -721.000
800.477; 9080.150; -743.000; -710.000
800.732; 9260.550; -773.000; -800.000
800.988;  648.375;  205.000;  -19.000
801.243; 1927.000; -454.000; -344.000
801.498; 9712.200; -814.000; -739.000
801.754;  585.600; -289.000; -163.000
802.009;  113.975; -257.000; -335.000
802.264;  -46.175; -967.000;-1033.000
802.520;   33.275;  222.000;   -3.000
802.775;  -48.950; -524.000; -359.000
803.030;   32.300;  395.000;  356.000
803.285; -119.025; -840.000; -903.000
803.540;  -68.725; -686.000; -699.000
803.795;  -67.175; -648.000; -583.000
804.051;  -50.575; -279.000; -346.000
804.306;    2.300;  168.000;  128.000
804.561;   91.675;  451.000;  362.000
804.816;  119.625;  714.000;  861.000
805.071;   -7.850; -185.000; -280.000
805.325;  130.300; -257.000; -427.000
805.580; -110.725; -841.000; -877.000
805.835;  -29.950; -204.000; -297.000
806.090;  -80.650; -760.000; -676.000
806.345;  -32.775; -344.000; -264.000
806.600;  -47.300; -549.000; -632.000
806.854;  -45.075; -408.000; -538.000
807.109;  -19.900; -493.000; -577.000
807.364;   -4.050; -407.000; -328.000
807.618;   -9.625; -415.000; -381.000
807.873;   10.800; -470.000; -494.000
808.128;   70.425; -257.000; -518.000
808.382;   66.700; -224.000; -332.000
808.637;   67.625; -440.000; -511.000
808.891;  152.125; -257.000; -180.000
809.146;   77.725; -902.000; -794.000
809.400;  205.400; -848.000; -923.000
809.654;  271.300; -779.000; -551.000
809.909;  398.050; -841.000; -927.000
810.163; 4992.850; -813.000; -651.000
810.418;14777.725; -940.000; -861.000
810.672;  958.950; -685.000; -690.000
810.926;  653.050; -993.000; -973.000
811.180; 1268.250; -439.000; -372.000
811.434;29489.525;  240.000;  135.000
811.689;13809.350; -231.000; -365.000
811.943;  625.825; -936.000; -953.000
812.197;  319.500; -893.000; -671.000
812.451;  125.000; -379.000; -514.000
812.705;  -15.775; -809.000; -619.000
812.959;  -16.775; -263.000; -388.000
813.213;   -5.700; -283.000; -209.000
813.467;   53.575;  470.000;  253.000
813.721; -103.675; -764.000; -792.000
813.975; -113.800; -826.000; -877.000
814.229;   39.075;  430.000;  353.000
814.482;  -77.425; -517.000; -566.000
814.736; -123.525; -766.000; -744.000
814.990; -144.550; -779.000; -872.000
815.244;  -57.925; -228.000; -285.000
815.497; -112.900; -636.000; -601.000
815.751;  -27.550; -141.000;   82.000
816.005;  -92.800; -470.000; -586.000
816.258;  -61.750; -510.000; -363.000
816.512; -120.925; -693.000; -610.000
816.766;   -8.675;  121.000;  157.000
817.019;    7.400;  148.000;  149.000
817.273; -129.500;-1000.000; -802.000
817.526;  -50.950; -206.000; -173.000
817.779;  -94.225;-1049.000; -960.000
818.033; -100.075; -693.000; -807.000
818.286; -120.850; -725.000; -792.000
818.540; -100.350; -403.000; -403.000
818.793;  -77.200; -402.000; -489.000
819.046; -112.125; -582.000; -520.000
819.299;  -40.250; -157.000; -166.000
819.553; -113.325; -552.000; -592.000
819.806; -160.100;-1016.000; -838.000
820.059;  -71.825; -334.000; -354.000
820.312;    7.425;  152.000;  185.000
820.565;  -22.000;  110.000;  -27.000
820.818;  -59.300;  -59.000; -173.000
821.071; -161.200;-1041.000; -957.000
821.324; -102.150; -536.000; -540.000
821.577; -106.700; -457.000; -483.000
821.830;  -64.450; -270.000; -172.000
822.083; -139.950; -733.000; -288.000
822.336;  -56.825; -261.000; -167.000
822.589; -138.825; -805.000; -688.000
822.842; -140.825; -875.000; -770.000
823.094; -183.750;-1076.000;-1114.000
823.347; -137.125; -925.000; -729.000
823.600;   -5.400;  402.000;  187.000
823.853;  -52.900; -311.000; -267.000
824.105;  -72.750; -331.000; -575.000
824.358; -111.525; -617.000; -716.000
824.611;    7.650;  234.000;   40.000
824.863;  -57.150; -612.000; -591.000
825.116;   20.300;  -33.000;   27.000
825.368;   60.575; -366.000; -372.000
825.621;  132.350; -186.000; -240.000
825.873;   75.200; -704.000; -737.000
826.126;  456.125; -669.000; -641.000
826.378;10442.025; -389.000; -505.000
826.630; 3052.450; -890.000; -898.000
826.883;   38.500; -754.000; -693.000
827.135;   45.375; -279.000; -270.000
827.387; -117.800; -893.000; -839.000
827.639;  -32.025;  -86.000;   32.000
827.892; -132.925; -742.000; -582.000
828.144; -132.050; -848.000; -804.000
828.396;  -40.275;  104.000;  -80.000
828.648; -104.000; -440.000; -333.000
828.900; -146.200; -702.000; -795.000
829.152; -131.950; -684.000; -683.000
829.404;  -62.150; -215.000; -267.000
829.656;  -18.350;  321.000;  214.000
829.908;  -27.225;  393.000;  229.000
830.160; -174.025;-1064.000;-1047.000
830.412; -105.650; -481.000; -430.000
830.664; -122.250; -557.000; -665.000
830.916;  -71.225; -268.000; -206.000
831.167; -189.075;-1073.000; -951.000
831.419; -113.950; -623.000; -566.000
831.671; -140.975; -764.000; -809.000
831.923;  -91.025; -311.000; -447.000
832.174;  -87.675; -273.000; -331.000
832.426; -110.875; -493.000; -582.000
832.678; -183.525;-1043.000;-1091.000
832.929; -165.850; -947.000; -935.000
833.181;  -99.400; -575.000; -677.000
833.432;  -50.100;  -59.000; -186.000
833.684;  -33.875;  112.000;  -27.000
833.935; -125.350; -610.000; -566.000
834.187; -128.850; -829.000; -823.000
834.438;  -43.250;  -58.000;  -25.000
834.689;  -70.900; -255.000; -123.000
834.941;  -75.050; -343.000; -244.000
835.192; -110.475; -590.000; -533.000
835.443; -111.325; -419.000; -506.000
835.695;  -36.600;  138.000;  -16.000
835.946; -106.450; -608.000; -378.000
836.197; -119.550; -599.000; -622.000
836.448;  -81.900; -528.000; -395.000
836.699;  -77.100; -253.000; -341.000
836.950;  -11.650;   72.000;    7.000
837.201; -159.125;-1003.000; -987.000
837.452;  -55.000; -356.000; -170.000
837.703; -118.850; -791.000; -737.000
837.954;  -43.000; -205.000; -365.000
838.205;  -98.725;-1029.000;-1008.000
838.456;  119.475; -196.000; -282.000
838.707;    3.300; -423.000; -519.000
838.958;  -14.075; -634.000; -647.000
839.209;  195.500;   18.000;   40.000
839.460;  104.300; -439.000; -201.000
839.710;  135.125; -135.000; -297.000
839.961;  377.175;  730.000;  612.000
840.212;  303.225; -382.000; -497.000
840.462;  977.650; -328.000; -277.000
840.713;16298.000; -571.000; -536.000
840.964; 7697.375;  -62.000; -143.000
841.214;  440.125; -384.000; -624.000
841.465;  487.725; -214.000; -141.000
841.715;  412.400; -417.000; -380.000
841.966;  503.200; -746.000; -685.000
842.216; 6455.825; -330.000; -431.000
842.466;28470.900; -169.000; -313.000
842.717; 1830.950; -964.000; -952.000
842.967;  235.950; -635.000; -641.000
843.217;  200.275;   20.000;   28.000
843.468;   57.275; -104.000; -132.000
843.718;  -60.550; -718.000; -726.000
843.968; -104.875; -837.000; -765.000
844.218;  -15.575; -315.000; -262.000
844.469;  -63.750; -577.000; -561.000
844.719; -112.200; -537.000; -682.000
844.969; -108.800; -550.000; -580.000
845.219; -137.875; -814.000; -862.000
845.469;  -84.675; -392.000; -342.000
845.719; -140.100; -792.000; -884.000
845.969;  -18.775;  119.000;  174.000
846.219; -129.200; -738.000; -720.000
846.469;   18.950;  464.000;  432.000
846.718;  -56.650; -115.000;   31.000
846.968; -140.275; -827.000; -827.000
847.218;  -58.650; -224.000; -371.000
847.468; -113.325; -586.000; -555.000
847.718; -151.875; -827.000; -798.000
847.967; -139.100; -826.000; -915.000
848.217;  -83.975; -449.000; -569.000
848.467;  -80.525; -405.000; -376.000
848.716; -123.350; -708.000; -725.000
848.966;  -31.725; -372.000; -358.000
849.215;  -74.275; -428.000; -419.000
849.465;  -99.800; -785.000; -615.000
849.714; -153.125;-1132.000;-1150.000
849.964;  -73.450; -551.000; -613.000
850.213;  -23.600; -393.000; -355.000
850.463;   61.725;  137.000;  340.000
850.712;   -7.650; -542.000; -567.000
850.961;   33.325; -739.000; -678.000
851.211;   82.875; -513.000; -504.000
851.460;  133.050; -635.000; -650.000
851.709;  483.000;  -25.000;   18.000
851.958; 8943.800; -912.000; -750.000
852.208;12757.550; -859.000; -879.000
852.457;  481.575; -181.000;  -13.000
852.706;   58.775; -791.000; -823.000
852.955;    7.925; -507.000; -528.000
853.204;  -79.575; -521.000; -461.000
853.453;  -84.950; -418.000; -458.000
853.702; -148.025; -660.000; -750.000
853.951; -106.800; -532.000; -520.000
854.200; -124.825; -613.000; -562.000
854.449; -140.100; -695.000; -661.000
854.698;  -94.875; -340.000; -279.000
854.946;  -80.350; -181.000; -284.000
855.195; -163.525; -843.000; -868.000
855.444;  -86.525; -395.000; -420.000
855.693; -130.125; -345.000; -432.000
855.941; -114.400; -387.000; -516.000
856.190;  -66.775; -256.000; -382.000
856.439; -121.775; -652.000; -703.000
856.687;  -71.025;  -99.000;  -72.000
856.936; -114.550; -621.000; -323.000
857.184; -189.700;-1067.000;-1020.000
857.433; -102.925; -423.000; -512.000
857.681; -180.975; -989.000; -953.000
857.930;  -89.175; -282.000; -433.000
858.178; -173.800; -856.000; -929.000
858.427; -159.125; -802.000; -781.000
858.675; -128.475; -377.000; -544.000
858.923; -114.375; -527.000; -819.000
859.172; -193.875;-1094.000;-1070.000
859.420;  -93.975; -339.000; -239.000
859.668; -141.500; -624.000; -628.000
859.916;  -38.225;  109.000;  115.000
860.164; -137.800; -699.000; -603.000
860.413;  143.825; -878.000; -696.000
860.661;  142.300; -709.000; -577.000
860.909;  -81.100; -339.000; -325.000
861.157; -108.600; -277.000; -444.000
861.405; -135.675; -534.000; -670.000
861.653;   -0.825;  310.000;  310.000
861.901;   74.300; -543.000; -613.000
862.149;  -55.200; -801.000; -824.000
862.396;  -83.875; -297.000; -187.000
862.644;  -84.150; -368.000; -347.000
862.892;  -47.300;   98.000;  138.000
863.140; -112.650; -549.000; -530.000
863.388; -159.375; -815.000; -759.000
863.635; -142.850; -642.000; -601.000
863.883;  -21.850;  231.000;  190.000
864.131; -116.325; -288.000; -357.000
864.378; -119.825; -675.000; -540.000
864.626; -112.475; -347.000; -415.000
864.873; -123.950; -556.000; -505.000
865.121; -137.150; -714.000; -799.000
865.368;  -50.550; -173.000;   75.000
865.616;  -46.300;  -33.000;  -40.000
865.863;  -59.825; -462.000; -506.000
866.111; -100.150; -795.000; -824.000
866.358;   64.200; -426.000; -420.000
866.605; 2572.100;  -64.000; -804.000
866.853; 3117.425; -621.000; -537.000
867.100;    8.300; -728.000; -775.000
867.347;  -82.000; -672.000; -611.000
867.594; -103.700; -740.000; -714.000
867.841;   51.350;   97.000;   17.000
868.089; -148.375; -746.000; -698.000
868.336; -115.800; -477.000; -420.000
868.583; -140.750; -637.000; -741.000
868.830;  -49.425; -131.000; -170.000
869.077; -177.475; -859.000; -787.000
869.324; -123.900; -502.000; -458.000
869.571; -139.325; -398.000; -430.000
869.818; -123.675; -485.000; -439.000
870.065; -112.050; -439.000; -513.000
870.311; -113.175; -456.000; -542.000
870.558; -100.000; -332.000; -311.000
870.805;  -78.825; -320.000; -384.000
871.052; -121.125; -494.000; -369.000
871.298;  -72.375; -204.000; -131.000
871.545;  -87.125; -151.000; -185.000
871.792;  -93.150; -173.000; -222.000
872.038;  -85.500;   43.000; -126.000
872.285; -128.625; -496.000; -387.000
872.532; -100.075; -357.000; -387.000
872.778;   -5.950;  556.000;  403.000
873.025;  -93.000; -384.000; -359.000
873.271;   11.200;  501.000;  578.000
873.517;  -47.050; -133.000; -209.000
873.764;  -50.550; -193.000;  -80.000
874.010;  -86.525; -143.000; -230.000
874.257;  -42.750;  123.000;   90.000
874.503; -133.100; -579.000; -479.000
874.749;  -78.850;   31.000;  275.000
874.995;  -72.975;  -80.000;  -20.000
875.242; -132.500; -540.000; -478.000
875.488; -123.225; -414.000; -439.000
875.734;  -75.850; -106.000; -234.000
875.980;   28.350; -872.000;-1032.000
876.226;  231.425; -157.000; -255.000
876.472;  -22.625;  343.000;  237.000
876.718;  -51.925;  184.000;  158.000
876.964;  -48.625;   56.000;   55.000
877.210; -143.525; -547.000; -677.000
877.456; -141.200; -630.000; -557.000
877.702; -181.650; -821.000; -832.000
877.948; -117.100; -377.000; -497.000
878.193;    8.800;  361.000;  255.000
878.439; -109.000; -487.000; -472.000
878.685;  -96.375; -272.000; -343.000
878.931; -145.325; -618.000; -676.000
879.176;  -90.300; -201.000; -201.000
879.422; -183.850; -933.000; -820.000
879.668;   31.300;   10.000;   79.000
879.913;   82.625;   53.000;  137.000
880.159;  -56.575; -112.000;  -17.000
880.404;  -67.350; -152.000; -162.000
880.650;  -48.950;   91.000;  141.000
880.895; -166.100; -670.000; -710.000
881.141; -124.625; -454.000; -428.000
881.386; -151.125; -503.000; -658.000
881.631;  -96.200; -311.000; -166.000
881.877;  -52.050;  112.000;  -13.000
882.122; -133.925; -684.000; -600.000
882.367;  -92.575; -136.000; -186.000
882.612;  -73.700;  -80.000; -176.000
882.858; -175.600; -877.000; -823.000
883.103;  -93.475; -297.000; -267.000
883.348; -156.250; -759.000; -852.000
883.593; -130.700; -677.000; -602.000
883.838;  -78.275; -311.000;  -24.000
884.083;    7.025;  353.000;  288.000
884.328;  -94.000; -564.000; -545.000
884.573;  -75.450; -196.000; -143.000
884.818;   70.400; -694.000; -531.000
885.063;  112.525; -348.000; -315.000
885.308; -116.800; -475.000; -398.000
885.553;  -17.475;  245.000;  325.000
885.797; -138.775; -545.000; -615.000
886.042;  -52.525;    8.000;   58.000
886.287; -103.050; -253.000; -211.000
886.532;  -54.375;   26.000;  204.000
886.776;  -96.550; -407.000; -525.000
887.021; -138.050; -621.000; -574.000
887.265; -163.650; -685.000; -689.000
887.510; -132.800; -557.000; -496.000
887.755; -103.250; -194.000; -164.000
887.999; -133.950; -552.000; -575.000
888.244;  -53.150;  -58.000;  161.000
888.488;  -26.350;  371.000;  393.000
888.732; -126.725; -368.000; -520.000
888.977; -136.050; -622.000; -567.000
889.221; -169.425; -683.000; -659.000
889.465; -142.175; -422.000; -566.000
889.710;  -90.325;  -56.000; -299.000
889.954;   -6.525;  579.000;  467.000
890.198; -163.950; -584.000; -707.000
890.442; -156.475; -716.000; -712.000
890.687; -162.925; -800.000; -753.000
890.931;  -96.275; -273.000; -210.000
891.175; -129.475; -502.000; -500.000
891.419;  -79.475; -105.000; -110.000
891.663; -111.150; -239.000; -112.000
891.907; -156.550; -801.000; -545.000
892.151; -179.500; -920.000; -815.000
892.395; -112.000; -274.000; -387.000
892.638;  -24.300;  408.000;  291.000
892.882; -179.300; -780.000; -867.000
893.126;  -14.975;  758.000;  558.000
893.370;  -96.250; -167.000; -168.000
893.614; -165.425; -714.000; -715.000
893.857; -114.450; -183.000; -197.000
894.101; -145.350; -527.000; -631.000
894.345;  -55.750;  300.000;  150.000
894.588;   -1.450;  569.000;  380.000
894.832;  -99.150; -178.000;  -84.000
895.075;  -94.850;   15.000;  -92.000
895.319; -137.950; -552.000; -420.000
895.563; -129.300; -413.000; -353.000
895.806; -152.850; -628.000; -741.000
896.049;  -93.075; -576.000; -368.000
896.293;   52.075;  527.000;  405.000
896.536; -100.975; -465.000; -468.000
896.779;  -76.500; -149.000;   -1.000
897.023; -151.550; -751.000; -714.000
897.266;  -49.525;  325.000;  269.000
897.509; -194.000; -900.000; -901.000
897.752;  -48.300;  149.000;  171.000
897.996; -200.225; -972.000; -864.000
898.239;  -39.550;  168.000;  102.000
898.482; -132.800; -431.000; -453.000
898.725;  -48.450;  101.000;   53.000
898.968; -163.250; -609.000; -744.000
899.211; -122.525; -513.000; -361.000
899.454; -147.375; -633.000; -539.000
899.697;  -73.975;   90.000;  -43.000
899.940; -170.675; -761.000; -757.000
900.182; -114.300; -335.000; -405.000
900.425; -101.875; -150.000; -298.000
900.668;  -23.100;  491.000;  350.000
900.911;  -98.725; -292.000; -345.000
901.154;  -70.800;  141.000;   -3.000
901.396; -139.000; -407.000; -412.000
901.639; -144.775; -430.000; -496.000
901.882; -190.950; -790.000; -809.000
902.124;  -78.525;  -29.000; -143.000
902.367; -140.900; -315.000; -361.000
902.609; -140.100; -476.000; -453.000
902.852;  -94.725; -108.000; -260.000
903.094; -128.950; -458.000; -337.000
903.337;  -67.325;  -26.000;   53.000
903.579; -121.850; -228.000; -441.000
903.821; -165.425; -597.000; -744.000
904.064;  -76.275;   85.000;  127.000
904.306; -104.225; -126.000; -166.000
904.548; -112.325; -152.000; -366.000
904.790; -112.100; -195.000; -340.000
905.033; -126.125; -625.000; -577.000
905.275; -127.975; -513.000; -524.000
905.517;    8.325;  468.000;  256.000
905.759; -106.875; -667.000; -761.000
906.001; -110.625; -322.000; -369.000
906.243;  -84.600; -162.000; -224.000
906.485;   39.875; -265.000; -207.000
906.727;   49.025; -499.000; -542.000
906.969;  -45.000;  -30.000; -135.000
907.211;   28.625; -316.000; -382.000
907.453;  157.275; -188.000; -237.000
907.695;  -27.500; -158.000; -385.000
907.936;   45.100;  818.000;  706.000
908.178;  -64.675;   92.000; -135.000
908.420;  -84.350; -111.000; -162.000
908.662; -140.550; -633.000; -682.000
908.903;  -91.025; -208.000; -123.000
909.145;  -70.700; -240.000; -305.000
909.386;   -7.550;  315.000;  280.000
909.628;    9.850;  363.000;  397.000
909.870;   -0.900;   29.000;  264.000
910.111; -113.600; -809.000; -949.000
910.353;   12.550; -123.000; -161.000
910.594;   -7.725; -574.000; -606.000
910.835;   87.125; -265.000; -326.000
911.077;  125.775; -503.000; -604.000
911.318;  285.000; -505.000; -471.000
911.559;  421.000; -577.000; -880.000
911.801; 1260.100; -284.000; -280.000
912.042; 9299.025;  -50.000; -159.000
912.283;26835.350;  404.000;  371.000
912.524; 4764.675; -396.000; -457.000
912.765;  498.600; -193.000;   79.000
913.006;  228.825; -307.000; -338.000
913.247;   46.675; -270.000; -290.000
913.488;  -11.325;  -43.000;   30.000
913.729;  -92.700; -373.000; -373.000
913.970;  -60.375;  -96.000; -292.000
914.211;  -82.350; -160.000; -198.000
914.452;  -80.825; -118.000;  -11.000
914.693;    3.350;  510.000;  592.000
914.934;   -2.950;  510.000;  440.000
915.175;  -62.700;   53.000;  -95.000
915.415;  -82.625; -137.000;   27.000
915.656;  -73.650;  -28.000;  192.000
915.897;  -91.550; -252.000;  -82.000
916.137;  -74.525;   74.000;   -9.000
916.378; -142.900; -573.000; -517.000
916.619;  -95.025; -159.000;  -63.000
916.859;  -44.250;  303.000;  330.000
917.100;  110.375; 1655.000; 1070.000
917.340;   39.850;  930.000;  728.000
917.581;   38.250;  965.000;  789.000
917.821;  -55.700; -171.000;  143.000
918.061;  -13.925; -199.000;  -72.000
918.302;  -65.700; -152.000; -211.000
918.542;  -28.550;  -22.000;    3.000
918.782;   18.100;  369.000;  377.000
919.023;   84.075;  360.000;  427.000
919.263; 1516.875; 8131.000;  202.000
919.503;  922.225; -137.000;  -54.000
919.743;  443.150;  390.000;  266.000
919.983;  195.325; -134.000;  -26.000
920.223;   67.425;  135.000;   14.000
920.463;  138.875;  631.000;  554.000
920.703;  133.150;   84.000;   39.000
920.943;  165.750; -110.000;   90.000
921.183;  230.175; -414.000; -405.000
921.423;  507.250;  307.000;  546.000
921.663;  723.275; -174.000; -257.000
921.903; 1541.975;  237.000;  173.000
922.143; 8345.150;  372.000;  389.000
922.383;33849.125;  158.000;  115.000
922.622;13146.750; -120.000;  -15.000
922.862; 1362.500;  796.000;  785.000
923.102;  500.200;  -51.000;   33.000
923.341;  230.875;   59.000;   74.000
923.581;   86.425;  450.000;  360.000
923.821;   39.800;  301.000;  398.000
924.060;   -4.650;  351.000;  193.000
924.300;  -57.875;  -16.000; -128.000
924.539;  -28.650;  584.000;  473.000
924.779;   12.725;  812.000;  597.000
925.018;  -52.450;  247.000;  353.000
925.257;   -3.950;  595.000;  666.000
925.497;  -45.075;  447.000;  412.000
925.736;  -72.925;  -35.000;  102.000
925.975;  -20.000;  687.000;  669.000
926.214;   20.825;  907.000;  850.000
926.454;   14.425;  706.000;  757.000
926.693;  -33.750;  419.000;  543.000
926.932;   20.850; 1021.000;  825.000
927.171;   76.950; 1107.000; 1044.000
927.410;   59.925; 1144.000;  967.000
927.649;    3.850;  924.000;  742.000
927.888;  -20.550;  590.000;  564.000
928.127;    1.200;  680.000;  678.000
928.366;   13.400;  842.000;  826.000
928.605;   26.325;  831.000;  737.000
928.844;  209.300; 1451.000; 1393.000
929.083;  508.400;  770.000;  613.000
929.321;  299.800; 1335.000; 1359.000
929.560;   71.050; 1158.000; 1122.000
929.799;  -41.275;  574.000;  475.000
930.038;   81.875; 1025.000; 1394.000
930.276;  -52.400;  334.000;  397.000
930.515;   -0.500;  827.000;  681.000
930.753;  -34.775;  614.000;  589.000
930.992;  -23.075;  664.000;  717.000
931.230;   -9.475;  847.000;  847.000
931.469;  149.450; 2162.000;  892.000
931.707;   59.225;  840.000;  751.000
931.946;   61.400; 1278.000; 1344.000
932.184;   31.400; 1437.000; 1175.000
932.423;   43.975; 1265.000;  963.000
932.661;   74.200; 1296.000; 1428.000
932.899;   28.700;  987.000;  821.000
933.137;   -3.025;  754.000;  564.000
933.376;  129.475; 1664.000; 1335.000
933.614;  153.825; 1759.000; 1196.000
933.852;   62.925; 1357.000; 1171.000
934.090;  136.725; 1722.000; 1747.000
934.328;  111.700; 1252.000; 1457.000
934.566;   91.500; 1431.000; 1110.000
934.804;  159.600; 1263.000; 1309.000
935.042;  538.500; 1861.000; 1850.000
935.280; 2157.725; 2088.000; 2063.000
935.518; 2288.675; 2113.000; 2007.000
935.756;  433.875; 2481.000; 2316.000
935.994;  179.875; 1808.000; 1751.000
936.231;  331.275; 2890.000; 2950.000
936.469;  166.650; 2367.000; 2378.000
936.707;  162.825; 2220.000; 2167.000
936.945;  226.825; 2825.000; 2882.000
937.182;  198.975; 2679.000; 2741.000
937.420;  290.075; 3602.000; 3031.000
937.657;  378.200; 3365.000; 3478.000
937.895;  340.375; 3331.000; 3488.000
938.133;  306.350; 3540.000; 3528.000
938.370;  331.075; 3896.000; 4191.000
938.607;  373.925; 4488.000; 4205.000
938.845;  521.600; 5587.000; 5549.000
939.082;  467.650; 5387.000; 5177.000
939.320;  535.275; 5799.000; 5728.000
939.557;  642.925; 6549.000; 6491.000
939.794;  700.650; 7285.000; 7097.000
940.031;  880.525; 8421.000; 8368.000
940.269; 1053.375; 9552.000; 9107.000
940.506; 1097.625;10901.000;10507.000

