
Integration time [ms]: 200.000
Averaging Nr. [scans]: 10
Smoothing Nr. [pixels]: 0
Data measured with spectrometer [name]: 2101013U2
Wave   ;Sample   ;Dark     ;Reference
[nm]   ;[counts] ;[counts] ;[counts] 

394.013;   72.350; -450.257; -315.536
394.305;  377.047; -461.258; -419.536
394.596; 2074.203; -676.269; -527.514
394.887; 5269.427; -796.268; -654.518
395.178; 1984.869;  145.736;   11.476
395.470;  125.285; -210.263; -356.526
395.761;  389.548;  305.734;  394.479
396.052;  616.029; -545.284; -306.489
396.343;  556.326; -557.276; -454.503
396.634;  153.382; -200.279; -290.497
396.926;  122.023; -618.268; -565.517
397.217;  153.832;   11.725;  -17.504
397.508;   62.255; -366.273; -154.507
397.799;   51.882; -555.279; -571.497
398.090;  -87.125; -973.280; -902.495
398.381;  197.724;   11.708;  -11.473
398.672;  -76.475; -585.292; -742.473
398.963;   76.891; -348.279; -373.498
399.254;  128.038;   54.709; -209.475
399.545; -104.557;-1017.266; -883.520
399.836;   50.711; -407.277; -343.501
400.127;  111.891; -205.295; -209.468
400.418;   75.547; -423.274; -392.506
400.709;   86.457; -359.281; -333.493
401.000;   65.244; -268.291; -309.476
401.290;  189.302;  225.698;  115.545
401.581;   91.404; -166.286; -228.485
401.872;   39.752; -542.298; -486.462
402.163;   73.280; -313.296; -252.467
402.454;  176.039; -123.291; -163.475
402.744;   56.768; -844.297; -813.465
403.035;  559.012; -226.293;  -86.471
403.326;  730.229; -366.292; -384.474
403.617;  609.444;  204.701;  165.539
403.907;  377.936; -593.283; -679.490
404.198; 4406.838; -545.307; -599.446
404.489;11577.643; -618.283; -588.491
404.779; 3813.207; -618.302; -660.456
405.070;  353.677;  -67.304; -174.451
405.360;  626.214; -259.293; -238.472
405.651;  637.423;  125.699;   98.542
405.942;  346.698;  209.714;  127.516
406.232;  341.918; -432.285; -413.487
406.523;  722.104;  641.706;  758.530
406.813;   92.901; -579.286; -644.484
407.104;  534.022;  261.708;  144.527
407.394;  228.445; -604.299; -591.462
407.685;  301.417;  336.715;  222.513
407.975;   60.941; -400.283; -382.490
408.265;  212.859; -134.289; -190.478
408.556;   57.135; -472.291; -459.475
408.846;  336.106;  474.706;  429.530
409.137;  142.271;   -1.288; -216.480
409.427;  118.818; -193.285; -271.487
409.717;   41.859; -776.273; -692.508
410.007;  262.809;    4.715; -170.486
410.298;   98.594; -360.295; -342.469
410.588;   85.914; -495.285; -510.486
410.878;   -3.714; -792.287; -873.482
411.168;  167.255; -481.298; -478.463
411.459;  167.534; -295.283; -242.489
411.749;   67.333; -609.292; -507.474
412.039;   44.669; -755.289; -386.480
412.329;  338.401;   40.722;  132.501
412.619;  329.901;  -62.286; -148.485
412.909;  649.263;  639.711;  594.521
413.199;  537.975; -130.280; -251.495
413.490;  671.250;  521.710;  352.523
413.780;  247.181;-1013.279; -913.496
414.070;  564.128;  -46.276;  235.497
414.360;  565.996; -729.278; -666.498
414.650;  644.781; -726.288; -688.482
414.940;  916.180; -538.280; -441.496
415.230; 1536.377;   50.712;   74.519
415.520;10719.302;  155.730;   66.486
415.809;42517.956; -305.281; -125.493
416.099;34144.714; -388.277; -229.501
416.389; 9498.944;  435.726;  236.494
416.679; 5720.490;   91.738;   85.473
416.969;  971.893; -527.287; -503.483
417.259; 1087.083;  341.721;  171.503
417.549; 1188.854;  522.718;  318.508
417.838; 2983.126; -205.268; -147.518
418.128; 9852.757;  650.710;  492.522
418.418; 8460.568; -491.272; -579.509
418.708; 5522.844;    9.726;  -48.506
418.997;20903.138; -474.275; -480.505
419.287;22465.854; -733.273; -790.507
419.577;20854.533; -160.283; -123.489
419.866;64329.811; -588.277; -498.501
420.156;64282.097; -242.270;  -55.513
420.446;12718.880; -112.263;  -26.526
420.735; 1354.488; -376.271; -446.512
421.025; 1539.694; 1830.722;  315.502
421.314; 1035.186; -203.271; -226.512
421.604; 1906.216;   89.732;  233.484
421.893; 1024.581; -705.271; -602.511
422.183;  347.780; -487.263; -461.526
422.472;  649.883;  -36.271; -107.511
422.762;  718.251; -416.266; -379.521
423.051;  350.128; -916.276; -916.503
423.341;  480.756; -491.273; -439.507
423.630;  642.959; -121.265;   15.477
423.919;  641.637;   58.725;   49.495
424.209;  587.788;  -31.263;   56.473
424.498;  826.522;   68.732;  161.483
424.787; 1823.131; -535.267; -601.518
425.077; 5693.957;   34.735;   29.478
425.366; 7387.795; -734.262; -744.528
425.655;17093.157;  639.727;  259.493
425.945;39755.176; -313.247; -268.554
426.234;22735.927;  117.741;  300.467
426.523; 8795.834;  -86.259; -350.534
426.812;12235.845;  107.734;  159.480
427.101;17927.711; -127.269; -323.515
427.390;22486.402;  -55.270;  -86.514
427.680; 4482.262; -624.257; -411.538
427.969;  780.177; -330.255; -301.540
428.258;  479.250; -385.257; -477.536
428.547;  844.374;  449.728;  397.490
428.836; 1647.599; -421.253; -398.543
429.125; 2407.637; -199.259;  -72.534
429.414; 1206.031; -330.251; -294.548
429.703; 5449.631; -231.251; -213.548
429.992;16340.436; -938.250; -828.549
430.281;11109.870; -397.264; -331.524
430.570; 1005.018;  -21.252;   32.454
430.859;  900.834;  279.741;  352.466
431.148;  767.170;  636.752;  631.446
431.437;  538.917;  391.748;  367.454
431.725;  227.252; -544.257; -481.536
432.014;  186.610; -845.253; -756.545
432.303;  563.675; -149.239; -105.569
432.592;  895.079; -460.263; -178.525
432.881; 1701.271; -601.248; -437.554
433.169;11018.978; -343.255;  -61.540
433.458;22337.023;  445.765;  540.424
433.747; 9522.303; -397.261; -289.529
434.036; 1402.742; -275.242; -280.564
434.324; 3510.853; -395.249; -379.551
434.613; 6462.533;   40.757;  159.437
434.902; 2162.562;  333.760;  439.433
435.190;  759.074;   75.761;  295.431
435.479;  382.207;  -52.245;   83.441
435.767;   96.818; -411.244; -427.561
436.056;  294.236; -340.242; -294.563
436.345;  605.165; -372.240; -223.568
436.633;  660.147;   60.750;  383.450
436.922;  383.868;  208.760;  414.432
437.210;  695.609; -194.236;    1.426
437.499; 2098.020; -583.235; -432.576
437.787; 2409.808; -339.236;  -10.574
438.075;  622.681;   56.761;  162.430
438.364;  887.785;  -44.238;  250.429
438.652;  490.831; -286.226; -138.592
438.941;  230.481;    3.770;  269.415
439.229;  -51.686; -665.252; -466.545
439.517;   71.831; -160.234;  -85.577
439.806;  -43.147; -501.225; -290.595
440.094;  268.142;  377.766;  650.421
440.382;  214.948; -653.233; -302.580
440.670;  215.919; -361.235; -285.576
440.959;    2.677; -347.223; -170.599
441.247;  111.997; -151.229; -109.587
441.535;   92.429; -266.235;   31.423
441.823;   17.438; -497.234; -305.578
442.111;  286.703;  173.771;  327.412
442.400;  623.606; -628.245; -335.559
442.688; 1631.442; -111.234; -620.579
442.976; 1116.000; -786.213; -450.617
443.264;  104.862; -324.224; -364.597
443.552;  124.433; -258.226;   51.408
443.840;  306.427;  602.765;  876.423
444.128;  211.646;  265.767;  269.420
444.416;  -89.294; -694.228; -312.588
444.704;   38.919; -465.219;  -92.605
444.992;   91.337;   -0.226;  240.407
445.280;   63.282; -517.230;  -94.585
445.568;    2.705; -694.212; -396.618
445.856;  426.196; -174.221;  357.398
446.143;  863.013;  -54.220;   -7.604
446.431;  800.812;  -25.228;  625.411
446.719;  405.646;  489.783;  675.391
447.007;  360.774;  481.769;  705.416
447.295;  277.073;  597.777;  871.402
447.583;  106.594; -464.229;  -34.587
447.870;  168.792; -434.221; -202.601
448.158;  541.280; -104.230;  129.415
448.446;  320.215; -800.219; -338.604
448.733;  260.964;   13.776;  269.403
449.021;  339.404;   60.788;  341.382
449.309;  270.325; -296.210;  208.379
449.596;  379.140;  128.783;   59.392
449.884;  210.783; -571.222; -325.600
450.172;  185.119; -756.227; -406.590
450.459;  732.076;  645.786;  780.387
450.747; 4151.038; -411.218; -147.608
451.034;13248.513;  493.772;  889.411
451.322;11227.981; -413.214; -170.614
451.609;  941.266;  292.777;  508.403
451.897;  995.213; -550.203; -183.634
452.184; 3114.674; -622.223; -400.598
452.472; 3005.655;   97.792;  269.375
452.759;  624.016;  512.781;  864.395
453.047;  159.001; -407.212; -125.617
453.334;   59.027; -732.219; -216.606
453.621;   91.184; -438.214; -161.615
453.909;  215.202;   13.796;  384.368
454.196;  160.465; -299.199; -123.641
454.483;  354.631;  317.798;  540.364
454.771;  198.159; -215.208;  196.374
455.058;   97.064; -316.207;  102.374
455.345;  205.142;   71.807;  344.347
455.632;  142.268; -128.207;  235.373
455.919;  119.696;  -82.196;  182.354
456.207; -143.129; -774.198; -450.642
456.494;  -37.852; -475.200;  -66.639
456.781;    7.625; -399.202; -198.635
457.068;   72.677; -253.206;  -29.628
457.355;  -66.321; -698.206; -401.629
457.642;  -24.413; -552.205; -290.630
457.929;    1.330; -778.194; -417.651
458.216;   64.601; -575.212; -354.617
458.503;  432.636; -173.193;  -19.652
458.790;  314.256; -864.208; -630.625
459.077;  434.132;  -77.202;  110.364
459.364; 1289.420; -350.195; -210.649
459.651; 2856.775;  -46.206;  220.372
459.938; 1338.743; -864.209; -665.623
460.225;  241.636;  132.799;  276.363
460.512; -152.407; -836.197; -688.645
460.799;  196.037;  -32.218;  320.392
461.086;   79.754; -370.200; -251.640
461.372;   36.672; -509.198; -279.642
461.659;  119.798; -165.196;  108.354
461.946;   35.134; -445.193;  -54.651
462.233;  405.451;  842.800;  888.361
462.519;  456.347; -814.201; -464.639
462.806; 1583.793; -768.197; -497.645
463.093; 1504.863; -445.191;  -66.656
463.380;  -85.180; -920.186; -824.664
463.666;   82.396; -259.197;  -18.646
463.953;  148.813; -406.195; -243.648
464.239;  308.912; -173.195;  -77.648
464.526;  615.027;  413.806;  743.350
464.813;  439.979; -565.190; -304.658
465.099;  556.536;  606.807;  607.348
465.386;  571.841;  903.807;  921.348
465.672;  -29.807; -694.197; -522.645
465.959;   28.804; -598.188; -520.662
466.245;    1.741; -468.193; -359.652
466.532;  132.709; -109.195;   63.352
466.818;  100.420; -357.186; -216.664
467.104;    2.176; -488.182; -415.672
467.391;  -55.018; -628.189; -459.658
467.677;   12.825; -289.186;    9.335
467.964;  -41.609; -682.189; -471.660
468.250;   93.829; -331.186; -160.665
468.536;  109.883;   90.811;  180.341
468.822;  -72.255; -821.184; -574.668
469.109;  247.989;  351.827;  471.311
469.395;  352.155;  729.808;  787.346
469.681;  286.188;   46.811;  156.341
469.967; 2004.894; -699.188; -382.660
470.254; 4439.305; -494.188; -306.662
470.540; 2953.996; -601.196; -476.646
470.826;  407.992; -488.181; -397.675
471.112;  534.650;  288.816;  113.331
471.398;  167.557; -253.183;  -58.670
471.684;   42.031; -626.177; -447.680
471.970;  -96.103; -918.180; -981.675
472.256;   25.853; -521.192; -441.654
472.542;  -13.396; -499.171; -434.691
472.828;  -73.929; -743.182; -607.672
473.114;    5.765; -380.166; -283.700
473.400;  -14.846; -504.175; -293.684
473.686;   32.173; -452.166; -400.701
473.972;   82.074; -230.174; -131.687
474.258; -110.011; -925.173; -843.689
474.544;  379.220; -183.178;   -2.679
474.830;  551.156;  -65.175;   45.316
475.116;  868.381; -123.190; -196.658
475.401; 1095.200; -558.180; -467.676
475.687;  295.099; -725.180; -718.676
475.973;  -41.518; -673.181; -770.673
476.259;  412.359;  736.825;  764.315
476.544;  555.742; -539.176; -437.682
476.830; 1302.598; -398.172; -322.690
477.116; 1312.640; -430.177; -336.682
477.401;  296.099;  346.820;  358.324
477.687;  -15.546; -289.175; -405.684
477.973;   77.986;   21.819;   28.326
478.258;  -48.798; -448.163; -348.706
478.544;  104.336;   21.815;   61.334
478.829; -144.388; -818.171; -738.692
479.115; -108.302; -749.172; -651.690
479.401;   -1.532; -444.174; -449.686
479.686;   59.998; -253.180;  -74.676
479.972; -104.473; -886.178; -776.680
480.257;   63.967; -258.166;  -65.700
480.542;  -11.483; -614.170; -469.693
480.828;  478.052; 1288.824; 1392.317
481.113;  -69.051; -464.176; -426.683
481.399;  -20.765; -236.161; -202.711
481.684;  -90.634; -620.166; -462.700
481.969;   56.654; -158.159;  -73.713
482.255;  -25.868; -439.169; -285.695
482.540;   13.127; -569.178; -441.680
482.825;  -23.687; -395.187; -404.663
483.110;  168.736;  -85.169; -105.696
483.396;  283.584; -840.157; -652.718
483.681;  884.875;  543.826;  730.313
483.966;  231.345; -696.160; -700.712
484.251;    1.473; -404.174; -310.687
484.536;   -7.519; -356.165; -378.703
484.822;   52.477; -205.173; -218.687
485.107;  -71.363; -599.152; -502.726
485.392;  246.589;  662.836;  541.296
485.677;  127.950;  354.832;  163.302
485.962;  196.980;  160.843;  270.283
486.247;  133.713;  -14.162;   -8.707
486.532;   77.368; -178.166; -325.701
486.817;  287.427;  381.839;  431.291
487.102;  182.413; -453.154; -514.722
487.387; 1039.786; -637.156; -652.718
487.672; 2015.996; -154.164;  -38.705
487.957; 1264.037; -394.160; -286.711
488.241;  356.860; -290.150; -314.729
488.526; 1207.339; -280.152; -148.726
488.811; 1978.530; -881.177; -818.680
489.096; 1493.717; -666.154; -702.723
489.381;  797.134;    3.847;  162.275
489.666;  599.235; -428.161; -510.710
489.950;  375.521;  558.846;  627.277
490.235;  -98.547; -480.151; -458.728
490.520;  -88.667; -756.161; -723.710
490.804; -121.611; -827.156; -736.719
491.089;    1.882; -469.149; -299.732
491.374;   82.494; -132.164;  -75.704
491.658;  -55.502; -817.147; -717.735
491.943;  197.945; -657.152; -609.727
492.227;  347.708; -178.155;  -38.721
492.512;   45.980; -294.157; -341.717
492.797; -131.626; -713.149; -716.731
493.081; -132.898; -588.147; -598.735
493.366; -101.565; -751.161; -635.711
493.650;  407.776;  831.859;  917.254
493.935;   33.797; -648.147; -447.734
494.219; -114.042; -778.142; -687.743
494.503;  -93.233; -585.150; -487.730
494.788;   69.668;   46.842;   74.285
495.072;  211.662;  184.850;  434.271
495.356;  206.087; -463.148; -343.733
495.641;  668.211; -812.146; -736.736
495.925;  553.396; -976.156; -903.719
496.209;   29.181; -599.149; -451.732
496.494;  -97.241; -763.142; -544.744
496.778;   28.213; -364.154; -360.722
497.062; -108.005; -819.156; -627.719
497.346;  -92.360; -869.160; -640.711
497.631;  295.592;  580.852;  560.266
497.915;  144.826;  -64.145;  175.261
498.199;   66.984; -341.157; -277.718
498.483;   40.437; -562.152; -508.725
498.767;  379.564;  301.850;  300.271
499.051;  309.778; -126.149; -100.732
499.335;    7.476; -693.149; -739.731
499.619;  -48.483; -381.129; -423.767
499.903;    5.806; -272.155;  -65.721
500.187;   12.823; -588.153; -316.724
500.471;  -72.956; -796.152; -595.727
500.755;  185.934;   62.839;  -96.710
501.039;   -5.494; -270.155; -357.721
501.323;  153.479;  -21.141;  264.254
501.607;   11.902; -447.163; -503.706
501.891;  -34.514; -607.156; -512.718
502.174;  -93.358; -726.144; -585.741
502.458;  137.849;   89.849;  370.273
502.742;   66.612; -180.138; -191.751
503.026;  175.997; -412.147; -254.734
503.310;  216.152; -437.159; -375.713
503.593;  177.099; -464.147; -325.735
503.877;  191.868; -232.133; -156.760
504.161;  249.427;    2.847;  -50.724
504.444;  113.971; -841.158; -710.716
504.728;  764.693; -487.164; -522.704
505.012; 1128.559; -257.150;  -76.729
505.295;  861.535; -417.161; -212.711
505.579;  845.695; -256.156; -496.719
505.862; 1231.721; -555.145; -333.738
506.146; 1183.356; -681.159; -758.714
506.429;  733.256;  568.841;  461.286
506.713;   82.555; -732.151; -667.728
506.996;  544.913;   90.846;  295.278
507.280;  542.286; -633.165; -474.703
507.563;  415.804; -469.155; -261.721
507.847;  172.325; -423.153; -112.724
508.130;  145.236; -665.161; -456.711
508.413;  168.361; -758.167; -577.700
508.697;  447.761; -151.167;   12.300
508.980;  225.027; -422.153; -312.724
509.263;   -9.701; -466.155; -450.720
509.547;   37.359; -124.150;   82.271
509.830;  128.639; -172.160;  140.289
510.113;  158.595;  128.844;  298.281
510.396;   47.334; -530.152; -300.725
510.680;  125.023; -818.145; -812.738
510.963;  731.119;  184.846;  180.277
511.246;  527.670; -493.150; -357.730
511.529;  375.230; -482.145;  -83.739
511.812;  607.463; -250.134;   10.241
512.095;  436.051; -740.151; -396.728
512.378;  107.005; -317.147; -245.736
512.661;    7.522; -703.137; -623.753
512.944;  -27.439; -750.142; -637.744
513.227;   87.419; -170.137; -171.752
513.510;    1.741; -479.144; -671.741
513.793;    6.385; -485.140; -435.747
514.076;  190.246;  -43.127;  -39.771
514.359;  181.083; -294.149; -135.732
514.642;  134.765; -442.142; -567.744
514.925; 1340.682;  581.860;  561.253
515.208; 1637.458; -498.134; -443.758
515.491; 1090.777; -276.133; -182.761
515.773;  606.847; -410.143; -337.742
516.056; 3579.431;  249.864;  409.246
516.339; 4490.637; -754.136; -652.755
516.622; 2787.767; -518.150; -488.730
516.904; 1593.456;  882.857;  975.257
517.187;  673.017; -730.138; -523.752
517.470;  545.755; -568.143; -510.743
517.752;  648.941; -624.136; -470.756
518.035;  524.399; -708.139; -725.749
518.318;  550.137; -799.136; -744.755
518.600; 4120.582; -300.132; -325.762
518.883; 5637.365;  310.858;   88.256
519.165; 2689.107; -585.138; -426.751
519.448;  561.082;  -61.132;  -19.762
519.730;  252.557; -573.126; -415.773
520.013;  507.772;  588.867;  664.240
520.295;  935.066;  -94.134;  -15.759
520.578; 2090.800; -335.131; -305.764
520.860; 2412.582; -254.132;   56.238
521.143; 1306.744; -763.135; -584.756
521.425;  715.274; -251.125; -279.775
521.707; 1031.947; -622.127; -380.771
521.990; 2916.847; -199.127;  167.229
522.272; 3316.087; -116.140;   -4.748
522.554; 1488.148; -237.143; -157.742
522.836;  504.763;  -24.134;   99.241
523.119;  270.895; -496.148; -189.734
523.401;  211.210; -448.130; -314.766
523.683;  108.623; -865.137; -693.753
523.965;  496.914;  408.862;  260.248
524.247;  467.704;   54.878;  170.220
524.529;  294.865; -451.134; -367.759
524.812;  574.612;   -3.130;  191.234
525.094; 1365.313; -773.138; -631.751
525.376; 2214.287; -143.124;   78.223
525.658; 1411.233; -441.136; -339.754
525.940;   -3.205; -805.131; -671.764
526.222;   49.938; -188.136;  -88.755
526.504;  153.592; -190.131;   32.237
526.786;  102.469; -960.133; -647.760
527.068;  332.495; -124.123;  -67.778
527.349;   62.228; -865.137; -774.754
527.631;  179.582; -137.132;   22.238
527.913;  151.946; -664.127; -450.771
528.195;  227.865; -761.125; -639.774
528.477;  409.558;  -93.134;  -30.758
528.759;  157.612; -648.130; -522.766
529.040;   75.693; -569.123; -293.778
529.322;   67.369; -235.125;  -10.774
529.604;  208.315;  -47.130;   93.233
529.886;  113.556; -546.126; -302.773
530.167;  202.704;  232.870;  192.235
530.449;   92.404;    1.853;   63.265
530.731;   17.503; -572.122; -459.779
531.012;   95.132; -513.120; -216.784
531.294;  115.786; -118.116;  -43.792
531.575;  310.974;  290.875;  538.225
531.857;   87.651; -548.135; -266.757
532.138;  198.077; -113.141;   40.254
532.420;  276.146;  294.865;  403.244
532.701;  174.472; -722.133; -751.760
532.983;  482.476;  232.867;  182.239
533.264;  177.653; -243.126;  175.228
533.546;  -66.562; -491.136; -508.755
533.827;   47.867;  173.867;   -1.759
534.109;   67.051; -352.135;  -80.757
534.390;   56.287; -725.132; -582.762
534.671;  365.146; -270.135;  -82.756
534.953;  155.797; -751.123; -611.779
535.234;   32.565; -426.117; -255.789
535.515; -155.556; -891.119; -735.785
535.796;  -43.260; -431.128; -193.770
536.078; -243.013;-1050.124; -904.777
536.359;   56.098;  -22.123;    3.221
536.640;  -36.633; -480.125; -197.774
536.921;  277.723;  225.871;  143.232
537.202;  582.209;  -87.138;  -16.751
537.483;  752.999;  251.869;  377.236
537.764;  324.304;   17.870;   98.235
538.045;  -83.143; -543.134; -371.758
538.326;  -74.775; -596.129; -447.768
538.607;  -29.052; -686.127; -476.771
538.888;  279.319;   98.879;    5.218
539.169;  243.812; -704.122; -535.781
539.450;  517.021;  236.871;   16.233
539.731;  379.325; -361.121; -182.783
540.012;  221.532;  199.880;  412.216
540.293;  148.979;   82.876;  158.224
540.574;  -95.585; -895.113; -717.796
540.855;  701.823;  435.879;  377.218
541.136;  825.508;   47.878;  139.220
541.416;  440.313; -161.130; -220.766
541.697;  296.893; -274.131; -170.763
541.978; 1710.149; -270.135; -315.757
542.259; 2091.948; -211.127; -236.771
542.539; 1045.478; -191.116; -186.790
542.820;  326.674;  461.875;  480.225
543.101;  204.025;  -52.145;  -77.738
543.381;  -35.653; -638.127; -591.771
543.662;  405.544;  159.873; -254.771
543.942;  840.441; -751.127; -830.770
544.223; 1760.910;  193.878;  161.219
544.504; 1061.286; -275.124; -182.777
544.784; 1004.056; -592.126; -408.773
545.065; 2572.483;  104.884; -254.791
545.345; 3182.044;  227.881;   14.215
545.626; 2090.914;  -14.113; -108.796
545.906; 1455.203;   77.869;   98.235
546.186;  584.962;   92.874;  -95.773
546.467;  307.390;   99.877;  -95.778
546.747;  548.977;  264.884;  327.210
547.027;  651.384;   91.876;  111.223
547.308;  493.940; -376.127; -530.770
547.588;  702.126;  299.871;  371.232
547.868;  340.405;  458.870;  588.235
548.149;  395.193;  609.885;  593.207
548.429;  182.245; -347.127; -299.771
548.709;  289.931; -645.120; -461.784
548.989;  775.157;   84.882;   88.213
549.269; 3524.480;   10.868;  139.239
549.550; 7822.496;  215.877;  117.222
549.830; 7049.939; -758.111; -556.799
550.110; 1422.449; -468.110; -320.801
550.390; 1379.403; -128.122;  -56.779
550.670; 1760.508; -868.114; -783.795
550.950; 1233.722; -509.121; -471.782
551.230;  368.017;  549.879;  460.218
551.510;   -8.379; -381.121; -326.782
551.790;   34.360; -173.109; -127.803
552.070;  546.590;  940.877; 1181.223
552.350;  641.149; -492.119; -377.786
552.630;  946.914;   -2.121;   77.219
552.909;  626.984;  181.884;   73.209
553.189;  388.589;  -49.132;   33.237
553.469;  257.149; -703.119; -514.786
553.749;  275.150; -469.127; -357.772
554.029;  264.271;   33.883;  -24.790
554.308;  278.499; -154.115;  -37.794
554.588;  103.139; -196.128; -204.770
554.868;   99.723; -366.121;  -47.782
555.147;  226.395; -114.115;  -46.793
555.427; 1087.487; -260.116; -250.792
555.707; 6498.792; -284.115; -200.793
555.986; 7670.144; -719.111; -538.800
556.266; 4116.076;   23.884;   72.210
556.546;  178.821; -888.121; -675.782
556.825;  409.205; -657.114; -556.794
557.105; 2987.836; -125.128;   17.230
557.384; 3334.982;  122.884;  187.209
557.664; 1338.586; -717.116; -508.792
557.943;  166.822; -557.121; -411.782
558.222;  281.361; -345.118; -344.788
558.502;  441.097; -116.115;  -76.793
558.781;  853.691;  194.885;  499.208
559.061;  658.061; -232.118; -227.788
559.340;  543.768;  302.883;  353.211
559.619; 1225.375;   93.884;  148.210
559.899; 1678.870; -239.117; -266.789
560.178; 1525.696; -778.115; -593.793
560.457; 5243.873; -623.117; -562.790
560.736; 6951.845; -472.111; -482.800
561.015; 4776.733; -500.128; -502.769
561.295;  614.788;  180.893;  215.193
561.574;  545.793;  119.885;  116.207
561.853;  793.066;  274.891;  303.197
562.132;  807.900;  -45.114;  182.206
562.411;  762.314;  396.879;  553.219
562.690;  199.490; -592.115; -458.792
562.969;  272.124;  472.888;  630.203
563.248; 1017.811; 2966.878; 2487.219
563.527;  429.744; -290.111; -408.800
563.806;  609.645; -650.127; -521.771
564.085;  685.209; -297.105; -206.810
564.364;  364.575; -594.117; -405.790
564.643;  804.615; -276.121; -223.781
564.922; 3149.258;  221.890;  397.198
565.201; 3024.763; -640.109; -700.803
565.479; 1388.889; -297.115; -219.792
565.758;  469.336; -810.128; -712.770
566.037;  789.465; -155.109; -100.803
566.316;  371.283; -286.116;  -28.791
566.595;   79.892;  -17.115;  -12.793
566.873;  174.947; -166.111;  -79.801
567.152; -103.777; -490.113; -590.797
567.431;   10.977; -113.116;    6.210
567.709;   61.488; -344.107; -212.807
567.988;  392.305; -810.114; -769.794
568.266;  814.792; -160.115;  -68.793
568.545;  635.774; -644.100; -514.819
568.824;  992.688;  160.885;  356.208
569.102;  857.404; -351.114; -235.794
569.381;  390.087; -492.116; -407.792
569.659;  -78.582; -553.113; -553.796
569.938;   22.209; -743.122; -465.780
570.216;  181.868; -225.109; -225.804
570.494;  -65.291; -632.114; -572.795
570.773;   60.420;  202.879;  114.218
571.051;    4.794; -373.123; -357.778
571.330;   81.715; -221.113; -174.796
571.608;   77.399; -181.098; -173.823
571.886; -151.664; -671.111; -581.799
572.164; -137.577; -739.121; -621.782
572.443; -103.286; -562.105; -512.811
572.721;  -60.227; -399.117; -289.790
572.999;  -45.936; -280.117; -168.788
573.277;  172.605;  379.894;  620.191
573.555;  547.808;   94.894;   37.190
573.834; 2206.263;  -86.117; -114.788
574.112; 2594.192;  880.893;  811.193
574.390;  860.846; -143.111;  -96.801
574.668;   30.825;  -91.112;  -61.797
574.946;   -3.892; -165.106; -187.810
575.224;   26.463;   71.891;  -16.803
575.502;  -12.321; -200.116; -204.791
575.780; -173.074; -767.112; -829.798
576.058;  311.945; 1589.889; 1004.200
576.336;  -42.848; -210.110; -129.801
576.614;  -74.273; -511.112; -340.798
576.891;   79.199; -711.115; -823.794
577.169;  811.979; -158.108; -285.805
577.447;  986.691;  169.893;  202.193
577.725;  493.933;  629.888;  854.201
578.003;   12.630;  -71.112; -371.798
578.280;  166.527; -208.104; -242.812
578.558;   83.597; -450.115; -422.793
578.836;  188.709; -210.114; -145.795
579.114;  -28.976; -630.112; -670.797
579.391;  112.666;   -6.117;  -18.789
579.669; -180.300; -595.114; -704.794
579.947;  303.086; -326.107; -127.806
580.224;  494.286; -692.107; -524.806
580.502;  505.792;  127.893;   76.193
580.779;   46.874;  -42.117;   75.210
581.057; -119.431; -584.109; -470.804
581.334; -218.253; -726.102; -695.815
581.612;  112.810;   54.895;  511.190
581.889;  -53.934;  -83.101; -129.818
582.167;  -65.114; -298.099; -190.821
582.444; -222.442; -845.102; -814.817
582.721;  267.759;  657.899;  715.183
582.999;   83.482; -326.100; -167.821
583.276;  839.700; -812.123; -713.779
583.553; 1137.252; -364.102; -294.816
583.831;  333.622; -607.104; -631.812
584.108;  118.776;  349.892;  174.195
584.385;   10.947; -122.102;  -98.815
584.662; -147.852; -651.111; -828.801
584.940;   87.747;  204.889;  204.199
585.217;  -28.782;  -73.113; -303.796
585.494;   97.359;   71.890;  118.198
585.771;  332.270; -250.109; -354.804
586.048;  776.417; -196.113;  -76.796
586.325;  442.751; -721.110; -773.801
586.602;  190.527;  230.896;  213.188
586.879;  -53.323; -499.100; -580.820
587.156;   70.011; -156.105; -331.810
587.433;  -76.144; -701.102; -667.817
587.710;  156.027;  152.888;  234.202
587.987;  458.118; -264.105; -236.811
588.264; 1266.930;  315.888;  387.202
588.541; 2186.831;  -61.104;   26.187
588.818; 4150.773;   72.892;  171.196
589.095; 3585.324; -163.104; -174.812
589.371;  589.267; -459.109; -414.804
589.648;    3.792; -581.107; -437.807
589.925;   14.210; -517.114; -621.795
590.202;   -2.473; -741.112; -607.798
590.478;  171.020; -166.105;  -73.811
590.755;  469.881; -241.108; -132.806
591.032; 4070.454; -741.110; -699.802
591.308; 5254.855; -732.094; -790.831
591.585; 2810.054; -573.110; -560.802
591.862;  181.658;-1056.102; -950.817
592.138;   68.678; -475.108; -474.805
592.415;  221.328; -486.104; -495.813
592.691; 2307.725;  460.896;  518.188
592.968; 2807.302; -208.098; -123.824
593.244; 1437.577; -695.116; -595.790
593.521;  117.458; -105.102;  -42.817
593.797;  -44.795; -810.122; -720.780
594.074;  467.320; -611.096; -588.826
594.350; 1123.035;  828.905;  729.172
594.626;  518.748; -303.111; -283.801
594.903;  147.659; -643.101; -645.817
595.179;  364.434;  243.896;  418.187
595.455;   18.593; -136.107; -150.807
595.731;   11.936;  -19.103;  -38.814
596.008;  -75.760; -464.111; -434.800
596.284;   67.280; -187.100; -242.820
596.560;   67.064; -501.093; -493.833
596.836;  361.913; -173.105;  -70.810
597.112;  561.979; -582.108; -437.805
597.388;  440.317;  -49.097;  -48.826
597.665;  230.421;  437.887;  530.203
597.941; -130.995; -572.089; -658.839
598.217;   34.058; -323.110; -293.802
598.493;  452.072;   61.891; -204.804
598.769;  808.472; -175.100;  -50.819
599.045;  437.183; -490.108; -562.806
599.321;   92.779; -193.100; -261.820
599.597;  253.571; -355.109; -476.804
599.872;  800.731;  409.896;  429.187
600.148;  534.119;  -61.097; -172.826
600.424;  526.190;   91.893;  202.193
600.700;  368.493; -170.107; -280.807
600.976;  170.411; -442.097; -464.825
601.252;  410.366; -226.109; -272.803
601.527;  291.932; -833.104; -840.813
601.803;  228.821; -453.105; -404.812
602.079;  316.672; -124.100; -118.819
602.354;  931.078; -620.092; -531.835
602.630; 1219.618; -140.113; -482.796
602.906; 3966.166; -910.101; -863.818
603.181;10579.149; -627.119; -534.786
603.457; 9137.516;   98.903; -278.826
603.733; 1366.126; -605.120; -626.783
604.008; 1649.509; -245.106; -164.810
604.284; 4714.261; -636.101; -580.817
604.559; 4166.633;   -3.112;  -42.799
604.835;  788.313; -163.105; -225.810
605.110;  662.086; -732.099; -892.821
605.385; 1140.868;  224.907;  267.167
605.661; 1069.039; -625.095; -729.829
605.936; 1779.383; -664.108; -737.806
606.211; 1516.445;  -17.103; -170.815
606.487;  362.003; -329.114; -376.794
606.762;   12.349; -791.119; -745.786
607.037;    2.413; -501.105; -433.810
607.313;  -98.970; -589.096; -574.828
607.588;   22.509; -375.106; -137.810
607.863;   64.665;  -28.101; -143.818
608.138;  339.457;  513.890;  516.198
608.413;   45.192; -576.099; -592.822
608.688;   85.778; -203.108; -267.805
608.964;  344.401; -509.106; -218.809
609.239;  411.710; -107.105; -212.810
609.514;  478.221;  281.895;  240.188
609.789; 1003.327; -187.104; -716.812
610.064; 1295.628; -435.096; -609.827
610.339; 1407.267; -855.109; -799.804
610.614; 1877.380; -131.100; -315.820
610.889; 1133.921;  215.895;  107.188
611.163;   70.722; -407.104; -591.812
611.438;  123.204;   81.886; -167.794
611.713;    0.561; -467.101; -499.817
611.988;   89.564; -144.101; -328.818
612.263;  -86.153; -771.102; -717.815
612.538;  443.417;  385.887;  251.204
612.812;  214.881; -832.100; -911.820
613.087;  244.599; -358.098; -338.823
613.362; -117.507; -497.107; -557.807
613.637;  135.940;  261.897;  138.186
613.911;  -39.921; -256.092; -345.835
614.186;  209.891; -249.107; -292.807
614.460; 1077.209; -842.081; -758.854
614.735; 1236.737;  -55.087;  -17.843
615.010;  259.823;   43.912;  -82.841
615.284;  436.877;  360.892;  246.195
615.559;  502.077; -792.092; -955.835
615.833;  493.689;  -76.099;  -87.822
616.108;  -14.307; -225.090; -390.837
616.382;  291.840;  274.913;  402.156
616.656;  243.894; -241.090; -232.837
616.931;  754.990; -785.099; -700.822
617.205; 1603.333; -973.104; -979.813
617.480; 1512.472;  -91.125;    6.225
617.754;  255.468; -396.125; -128.774
618.028;   11.227; -369.129; -382.768
618.302;  161.775;   73.892;  -25.805
618.577;  -75.459; -371.103; -518.815
618.851; -120.438; -399.109; -600.803
619.125;  -44.535; -335.134; -378.759
619.399;  -56.267; -244.104; -374.813
619.673;  -54.512; -330.115; -515.792
619.947;  -80.192; -333.114; -448.795
620.222;  -15.751; -198.110; -204.801
620.496;   18.923;  -47.121;  -96.782
620.770;   65.311; -187.122;  -93.781
621.044;  384.811;  323.895;  346.190
621.318; 1149.527; -653.120; -614.783
621.592; 1045.924; -430.121; -409.783
621.866;  596.434; -476.112; -572.799
622.140;   40.579; -207.116; -356.791
622.413;  114.340;  138.889;  112.200
622.687;  -84.139; -746.101; -492.817
622.961;   37.875; -130.108; -143.805
623.235; -130.859; -633.111; -661.800
623.509; -198.280; -816.105; -848.811
623.783;   56.487;  -12.107;   48.193
624.056;  -25.472; -254.120; -280.783
624.330;   99.125;   63.888;   -3.797
624.604;  109.575; -271.116; -355.790
624.877;  119.355;  180.890;   26.198
625.151;   73.201; -249.114; -238.794
625.425;  -78.064; -150.103; -283.814
625.698;  -80.059; -367.119; -374.785
625.972; -194.241; -799.110; -765.802
626.245;  186.777;  685.884;  484.210
626.519;  -97.566; -426.120; -340.784
626.792;  -46.307; -192.107; -380.807
627.066; -154.199; -485.122; -662.779
627.339; -174.747; -736.110; -663.802
627.613;  115.732;  351.880;  148.216
627.886;  153.561;  187.891; -612.803
628.160;  -21.074;  312.880; -161.783
628.433; -190.425; -695.125; -703.775
628.706; -151.766; -517.120; -615.784
628.979;  116.084;  296.876;  117.223
629.253; -155.652; -785.119; -833.786
629.526;  621.154; -334.126; -253.772
629.799;  502.094; -641.123; -479.778
630.072;  246.929; -497.128; -516.769
630.346; -161.923;-1115.116;-1080.790
630.619;  763.094; -467.107; -545.808
630.892; 1053.942;  709.889;  593.200
631.165;  590.833;  790.896;  679.187
631.438; -180.570;-1092.112;-1055.798
631.711;  164.799;  453.877;  257.221
631.984;  -97.129; -523.117; -624.789
632.257; -112.834; -636.117; -681.789
632.530; -116.158; -412.119; -433.785
632.803;   85.298; -109.115;    7.207
633.076; -137.210; -360.123; -422.777
633.349;   66.335;  173.872;  121.231
633.622;  -63.060; -187.119; -240.785
633.895; -225.072; -903.120; -823.783
634.167; -147.343; -496.126; -525.773
634.440;   23.886;  -19.116; -137.792
634.713;   31.746;  -22.119; -120.786
634.986;  228.821;  593.871;  453.233
635.258; -155.504; -507.115; -597.793
635.531;  246.360;  742.882; -343.788
635.804;  -48.831; -303.117; -318.789
636.077; -191.519; -830.116; -852.791
636.349;  -27.407; -586.115; -474.793
636.622;  771.453; 1695.874; 1392.228
636.894;  404.934; -474.120; -909.784
637.167;  203.845; -836.127; -789.771
637.439;   70.639; -278.128; -213.770
637.712;  -65.145; -312.126; -293.772
637.984; -144.418; -635.116; -707.791
638.257;  720.090;  515.877;  488.222
638.529;  807.077; -881.125; -924.776
638.802;  348.029; -508.128; -449.769
639.074; -230.590; -927.122; -952.781
639.346; -235.046; -942.135; -930.757
639.619;    7.363;  -79.142; -319.744
639.891;   47.602;  -83.122; -168.779
640.163; -133.996; -689.122; -756.780
640.435;   87.007;  273.878;  103.220
640.708;   17.909;  -72.122; -132.780
640.980;  -46.488; -366.122; -362.781
641.252;  364.914;  -25.121;  -71.781
641.524; 2847.117;  580.879;  573.219
641.796; 2663.119;-1094.121; -907.782
642.068;  540.522; -191.121; -300.782
642.340; -107.276; -486.121; -566.783
642.613;  115.327;  294.880;  323.217
642.885; -181.571; -787.120; -878.783
643.157;  -98.468; -810.120; -658.784
643.428;  132.335;  170.880;  218.216
643.700; -109.663; -498.120; -425.784
643.972;  -26.860;  -16.119; -133.785
644.244; -136.258; -474.119; -559.785
644.516;  -46.055; -250.119; -114.786
644.788;  194.147;  662.881;  548.214
645.060;  -13.150;  -12.119; -124.786
645.332; -195.448; -525.118; -535.787
645.603;   97.255;  479.882;  342.213
645.875; -106.443; -334.118; -369.787
646.147;  357.460; 1487.882; 1242.212
646.418; -120.437; -931.117; -918.788
646.690;  183.865; -714.117; -715.789
646.962;   88.868; -413.117; -451.789
647.233;   24.870;   15.883;   11.211
647.505; -164.027; -595.117; -475.790
647.776;  107.975;  328.884;  229.210
648.048;   18.978; -248.116; -418.790
648.320; -119.420; -752.116; -679.791
648.591; -270.417;-1055.116; -958.791
648.862; -156.315; -505.116; -577.792
649.134;   73.388;  115.885;  198.208
649.405;  -84.209; -661.115; -618.792
649.677;  -82.307; -475.115; -598.793
649.948;  -52.804; -181.115; -296.793
650.219;   27.998;  -37.115; -147.793
650.491; -155.199; -431.114; -520.794
650.762; -188.597; -705.114; -731.794
651.033; -144.294; -437.114; -424.795
651.304; -186.792; -743.114; -728.795
651.576; -136.889; -680.114; -645.795
651.847;  -26.887; -250.113; -140.796
652.118;    1.516;  -32.113; -189.796
652.389; -189.681; -639.113; -722.796
652.660;  -19.479; -147.113;  -89.797
652.931; -269.176; -897.112; -871.797
653.202; -135.674; -382.112; -541.798
653.473;  -99.871; -633.112; -533.798
653.744;  214.931; -595.112; -590.798
654.015;  201.734; -356.112; -303.799
654.286; -142.364; -642.111; -663.799
654.557; -114.361; -586.111; -521.799
654.828; -318.059;-1114.111;-1088.800
655.099;  -99.556; -404.111; -291.800
655.370; -148.353; -427.111; -543.801
655.641; -205.151; -656.110; -714.801
655.911; -185.148; -618.110; -638.801
656.182;  139.854;  437.890;  387.198
656.453;  214.357;  830.890;  746.198
656.724; -107.941; -466.110; -426.802
656.994; -140.038; -553.109; -568.803
657.265; -224.736; -862.109; -873.803
657.536; -148.233; -500.109; -377.804
657.806; -175.531; -561.109; -593.804
658.077; -243.428; -866.109; -950.804
658.347; -139.125; -523.108; -598.805
658.618; -211.123; -646.108; -694.805
658.888;   -5.220;  -41.108;  112.195
659.159; -128.318; -432.108; -548.806
659.429;  -14.715; -292.108; -349.806
659.700;   -9.213; -435.107; -390.807
659.970;    6.090; -370.107; -359.807
660.241;  -38.608; -754.107; -921.807
660.511;  780.795; -147.107; -174.808
660.781;  107.897; -793.106; -748.808
661.052;  -72.300; -222.106; -381.808
661.322;  -11.698;   21.894;   -9.809
661.592;  117.205;  257.894;  148.191
661.862; -124.092; -369.106; -382.810
662.133; -155.290; -551.105; -502.810
662.403; -229.587; -770.105; -676.810
662.673;  -90.285; -256.105; -213.811
662.943; -171.182; -612.105; -551.811
663.213;   13.020;  -85.105;  -81.811
663.483; -145.977; -593.104; -568.812
663.753;  -71.575; -194.104; -152.812
664.023;  -10.572;   68.896;  -32.813
664.293;  -99.770; -319.104; -126.813
664.563; -194.267; -694.104; -648.813
664.833; -195.264; -743.103; -608.814
665.103; -230.462; -730.103; -793.814
665.373; -203.859; -766.103; -806.814
665.643; -168.057; -863.103; -918.815
665.913;   16.546; -534.103; -714.815
666.182;  179.248; -685.102; -719.816
666.452;  414.951;  -22.102;  -89.816
666.722;  -51.047; -724.102; -784.816
666.992; -267.344; -948.102; -921.817
667.261; -173.742; -824.102; -808.817
667.531;  376.261;  134.899;   45.183
667.801;  790.564; -440.101; -412.818
668.070;  475.566;  714.899;  697.182
668.340; -173.031; -883.101; -840.819
668.609;  196.771;  588.900;  301.181
668.879; -169.126; -490.100; -558.819
669.149; -117.824; -539.100; -516.820
669.418; -196.921; -698.100; -726.820
669.688;  -21.019; -482.100; -666.820
669.957;   88.384; -423.099; -546.821
670.226;  -46.014; -268.099; -331.821
670.496; -180.711; -431.099; -635.822
670.765; -131.508; -418.099; -501.822
671.034; -226.706; -872.099; -828.822
671.304;   28.797;   55.902; -111.823
671.573; -300.601;-1085.098; -957.823
671.842;  173.002; -380.098; -294.823
672.112;   15.504; -692.098; -586.824
672.381;   45.007; -239.098; -214.824
672.650; -236.391;-1005.097;-1021.825
672.919; -158.988; -631.097; -507.825
673.188; -163.286; -681.097; -878.825
673.457; -309.083;-1101.097;-1143.826
673.726; -147.080; -579.096; -646.826
673.995;  -48.478; -533.096; -479.826
674.265;  -25.475; -263.096; -333.827
674.534;   31.827; -183.096; -235.827
674.802;    7.530; -618.096; -703.828
675.071; 1744.232; -886.095; -801.828
675.340; 5992.335; -464.095; -339.828
675.609; 2095.737;  103.905;   82.171
675.878;   92.440; -949.095; -893.829
676.147;  115.342;  -26.095;   -8.829
676.416;  181.945; -210.094; -294.830
676.685; 1258.748; 1000.906; -622.830
676.953;  131.550; -603.094; -452.831
677.222;  -64.847; -193.094; -273.831
677.491;  -14.245;  -24.094; -127.831
677.759;   26.558;   11.907;  172.168
678.028;   17.960; -279.093; -222.832
678.297;   47.863;   71.907;  197.168
678.565; -264.135; -898.093; -944.833
678.834;  -74.432; -311.093; -268.833
679.102; -127.830; -411.092; -391.834
679.371; -269.627; -898.092; -727.834
679.639; -234.825; -797.092; -786.834
679.908; -201.522; -794.092; -724.835
680.176; -300.119; -895.091; -941.835
680.445;  -98.817; -346.091; -352.835
680.713;   10.686;  -58.091;  -23.836
680.982; -135.812; -523.091; -525.836
681.250; -186.609; -578.091; -507.837
681.518; -215.307; -534.090; -751.837
681.787;  -50.704; -204.090; -167.837
682.055;  -83.302; -490.090; -422.838
682.323; -271.699; -993.090; -992.838
682.591;   76.403; -216.090; -538.838
682.859;  130.506;    9.911;  -35.839
683.128;  105.509;  232.911;  497.161
683.396; -289.689;-1102.089;-1122.840
683.664;  -34.286; -241.089;   21.160
683.932;   60.716;  144.911;  -76.840
684.200; -124.781; -576.088; -320.841
684.468;  -32.779;  -73.088; -124.841
684.736;  -38.276; -214.088; -175.841
685.004; -218.974;-1024.088; -982.842
685.272;  -96.171; -880.088; -774.842
685.540; -113.669; -499.087; -557.843
685.808; -134.566; -651.087; -682.843
686.076; -226.563; -894.087; -969.843
686.343; -118.861; -601.087; -815.844
686.611;   74.742; -195.087; -224.844
686.879;  837.444; -530.086; -553.844
687.147; 4983.347; -483.086; -480.845
687.414; 1408.949;  -12.086; -169.845
687.682;  -22.548; -658.086; -757.846
687.950;  514.854;  259.915;  263.154
688.217;   -0.843; -792.085; -760.846
688.485;   -3.741; -632.085; -636.847
688.753;  852.362;  -11.085; -102.847
689.020;  233.365; -820.085; -851.847
689.288; -188.133; -853.084; -787.848
689.555;   -0.030; -195.084; -148.848
689.823;  -67.228; -241.084; -345.849
690.090; -144.325; -546.084; -651.849
690.358; -277.723; -877.084; -897.849
690.625;   66.980;  120.917;   45.150
690.892; -117.018; -403.083; -369.850
691.160;  -11.215;   72.917;  -35.850
691.427;   25.587;  141.917;  130.149
691.694; -246.210; -855.083; -929.851
691.962; -294.607;-1177.082;-1060.852
692.229;   77.395;  127.918;   56.148
692.496;  166.098;  130.918;  -49.852
692.763;   37.800; -164.082; -201.853
693.031; -129.197; -739.082; -716.853
693.298;  -57.595; -509.081; -368.853
693.565;  593.408; -155.081; -163.854
693.832; 1957.910;   -5.081;   -9.854
694.099;  218.813; -643.081; -642.855
694.366; -102.185; -882.081; -896.855
694.633; -123.882; -920.080; -633.855
694.900; 1564.021; 4367.920; -114.856
695.167;  628.423; -214.080; -380.856
695.434;  132.826; -646.080; -623.856
695.701;  299.628;  121.921;  -61.857
695.968;  710.831; -365.079; -361.857
696.234; 1681.133; -415.079; -646.858
696.501;15449.636; -776.079; -614.858
696.768; 7323.938; -554.079; -617.858
697.035;  461.141; -632.078; -667.859
697.302;   51.043; -448.078; -552.859
697.568;   37.246; -458.078; -497.859
697.835;  -57.552; -683.078; -624.860
698.102;   -2.149; -498.078; -407.860
698.368;  181.954;  384.923;  396.139
698.635;  -32.544;  -47.077; -424.861
698.901;  -30.341; -240.077; -348.861
699.168;  129.361; -534.077; -456.862
699.435;  143.064;  -72.077;  -13.862
699.701; -214.834; -868.076; -764.862
699.968;  -96.731;  144.924; -441.863
700.234; -143.529; -783.076; -822.863
700.500;  -56.926; -448.076; -539.864
700.767;   22.476;   -1.075;   26.136
701.033; -247.721;-1015.075; -963.864
701.299;  -64.418; -450.075; -483.865
701.566;  305.884;  950.925;  763.135
701.832;   60.287;  -31.075;  -76.865
702.098; -200.811;-1054.074;-1034.866
702.365; -176.308;-1098.074;-1030.866
702.631;  -73.206;-1038.074;-1063.867
702.897; 2241.497; -765.074; -676.867
703.163; 3322.499;  348.926;  254.133
703.429;  248.602; -256.073; -273.868
703.695;  -94.396; -796.073; -792.868
703.961;   81.907; -214.073; -210.868
704.227; -116.190; -630.073; -725.869
704.493;  273.312;  613.927;  510.131
704.759;  -45.085; -565.072; -540.870
705.025;   49.917; -203.072; -194.870
705.291;  -81.080; -666.072; -562.870
705.557;  375.422;  719.928;   34.129
705.823;    0.825; -742.072; -694.871
706.089;  232.527; -307.071; -326.871
706.355;  538.230; -315.071; -244.872
706.620; 8271.532; -776.071; -729.872
706.886;10851.335; -309.071; -362.873
707.152; 1003.238; -818.070; -973.873
707.418;  -90.460;-1153.070;-1186.873
707.683;   48.743; -550.070; -530.874
707.949;  -67.455; -547.070; -578.874
708.215;   15.148; -129.070; -207.874
708.480;  -18.350; -520.069; -420.875
708.746;  146.453;   68.931;   28.125
709.011; -125.845; -578.069; -612.876
709.277;  -91.642; -538.069; -543.876
709.542;  -77.540; -428.069; -387.876
709.808;   -1.437;  -59.068;   89.123
710.073; -169.434; -577.068; -695.877
710.339;  -15.532; -242.068; -228.877
710.604;   84.771; -780.068; -845.878
710.869;  475.873; -277.068; -366.878
711.135; -146.824; -715.067; -628.879
711.400; -116.322; -507.067; -608.879
711.665;  -98.919; -404.067; -479.879
711.931; -173.017; -661.067; -677.880
712.196; -185.414; -876.067; -954.880
712.461;  187.288; -402.066; -490.880
712.726;  132.991; -727.066; -771.881
712.991; -138.006; -647.066; -664.881
713.256;  -81.404; -350.066; -332.882
713.521;  -94.601; -417.065; -381.882
713.787;  -79.499; -454.065; -472.882
714.052;  -43.196; -214.065; -400.883
714.317; -213.494;-1045.065; -981.883
714.581; 1556.109; -374.065; -268.883
714.846; 1819.611; -822.064; -888.884
715.111;  261.714;  261.936;  257.116
715.376;   -5.784;  -86.064; -223.885
715.641;   26.419; -365.064; -367.885
715.906;  479.421;   15.936; -551.885
716.171;  244.024;  221.937;  209.114
716.436;   80.427;  -78.063; -104.886
716.700; -188.471; -818.063; -692.886
716.965; -185.268; -794.063; -807.887
717.230;  -61.066; -339.063; -392.887
717.494;  -26.763;  -40.062; -134.888
717.759; -132.361; -784.062; -640.888
718.024;   72.942;  269.938;  250.112
718.288;  188.044;  685.938;  395.111
718.553; -249.153; -803.062; -977.889
718.817; -239.351; -883.061; -899.889
719.082;  -32.248; -115.061; -125.890
719.346; -248.745;-1000.061; -947.890
719.611;  -68.643; -300.061; -255.891
719.875; -174.740; -568.060; -537.891
720.140;  -82.438; -453.060; -603.891
720.404;   98.465; -136.060; -249.892
720.668; 1291.467; -475.060; -411.892
720.933;  534.670;  146.940;  137.108
721.197; -175.428; -667.059; -600.893
721.461; -239.325; -851.059; -826.893
721.725;   41.577;  -21.059; -250.894
721.990;  -64.520; -284.059; -204.894
722.254;  -19.917;  -26.059; -108.894
722.518;  -88.415; -286.058; -442.895
722.782; -136.412; -743.058; -594.895
723.046;  271.990;  614.942;  570.105
723.310;   90.593;  374.942;  210.104
723.574; -172.605; -654.058; -614.896
723.838; -141.502; -576.057; -642.897
724.102;  -45.100; -226.057; -239.897
724.366; -253.297;-1032.057; -978.897
724.630; -174.195; -749.057; -571.898
724.894; -137.792; -722.057; -514.898
725.158;    1.911;   38.944; -295.898
725.422;  -83.587; -394.056; -327.899
725.685; -112.784; -441.056; -349.899
725.949; -152.982; -566.056; -519.900
726.213; -118.779; -732.056; -811.900
726.477;  224.723;-1020.055; -933.900
726.740;  228.026; -274.055; -104.901
727.004;  549.228; -384.055; -510.901
727.268; 4752.331; -442.055; -400.901
727.531; 1099.233; -961.055; -775.902
727.795;  -72.964; -713.054; -673.902
728.059;  -98.461; -552.054; -557.903
728.322; -126.459; -841.054; -669.903
728.586;   23.444; -692.054; -701.903
728.849; -145.554; -695.053; -756.904
729.112; -233.051; -812.053; -912.904
729.376; -217.449; -959.053; -905.904
729.639; -111.746; -536.053; -536.905
729.903; -184.144; -733.053; -699.905
730.166;  -67.741; -437.052; -399.906
730.429;   -3.539; -317.052; -468.906
730.693;  -99.736; -355.052; -894.906
730.956;  454.767;  810.948;  651.093
731.219; 1062.769; -310.052; -103.907
731.482;  161.372;-1003.051; -894.907
731.745;   67.274; -794.051; -935.908
732.009;  107.577;  -30.051;   50.092
732.272; -177.921; -904.051; -771.909
732.535;  -42.818; -300.051; -310.909
732.798; -287.216;-1083.050;-1166.909
733.061;  -74.413; -430.050; -456.910
733.324;   43.389;   31.950; -180.910
733.587;  170.392;  290.950;  365.090
733.850; -109.406; -973.049;-1050.911
734.113;   91.297;   33.951;   32.089
734.376;    2.400; -328.049; -447.912
734.639;  468.702; 1188.951; 1011.088
734.901;  133.805; -180.049; -402.912
735.164;  869.507; -883.048; -837.913
735.427; 1879.210; -166.048; -355.913
735.690;  225.712; -205.048; -234.913
735.952;  -64.085; -923.048; -925.914
736.215; -129.383;-1113.048;-1009.914
736.478;   12.620; -771.047; -774.915
736.740;  396.322;   33.953;  129.085
737.003; 1256.325; -658.047; -672.915
737.266; 6181.528;  -94.047;   46.084
737.528;  664.930; -682.047; -660.916
737.791;  510.033; -316.046; -327.916
738.053; 1371.735;  465.954;  649.083
738.316;16792.738; -162.046; -136.917
738.578;10030.640; -770.046; -736.918
738.841;  650.943; -382.046; -446.918
739.103;  264.245; -875.045; -777.918
739.365;  757.448;   79.955;  -69.919
739.628;  -31.550; -884.045; -805.919
739.890;  -52.047; -758.045; -710.919
740.152;  -73.344; -692.044; -754.920
740.414;   18.158; -408.044; -359.920
740.677;  -81.639; -785.044; -634.921
740.939;  -77.037; -587.044; -487.921
741.201;  419.366; -432.044; -572.921
741.463;   63.568; -689.043; -745.922
741.725;   56.471;  -21.043; -199.922
741.987;  170.073;  220.957;  116.078
742.249;   -7.224; -751.043; -859.923
742.511;  310.078; -703.043; -794.923
742.773;   11.781; -546.042; -546.924
743.035;  255.584;  796.958;  533.076
743.297;  -87.914; -963.042;-1013.924
743.559; 1166.189; -278.042; -262.925
743.821;   66.091; -735.042; -744.925
744.083;   25.694;  -44.041; -149.925
744.345; -204.704; -869.041; -892.926
744.607;  132.499;   75.959;  122.074
744.868;  -93.199; -490.041; -554.927
745.130; -177.096; -994.041;-1008.927
745.392;  109.806;   -1.040;  -44.927
745.653;  -10.791; -411.040; -378.928
745.915;  336.312;  896.960;  631.072
746.177;  147.814;   35.960;  -43.928
746.438;  -52.883; -428.040; -543.929
746.700;  -91.781; -947.039; -988.929
746.961;    2.122; -659.039; -740.930
747.223;  224.124; -190.039;  -74.930
747.484;  186.227; -391.039; -471.930
747.746;  275.429;  -23.038; -106.931
748.007;  194.132; -647.038; -689.931
748.269;  522.334; -468.038; -440.931
748.530;  705.437; -852.038; -638.932
748.791;  444.140; -354.038; -420.932
749.053;  742.542;  286.963;  163.067
749.314;  734.145; -236.037; -169.933
749.575;  693.447; -945.037; -905.933
749.836; 1404.750; -217.037;   86.066
750.098; 4564.052;  -60.037;  -21.934
750.359;55398.355;  414.964;  555.066
750.620;12334.857; -121.036; -220.935
750.881; 1622.160; -585.036; -513.935
751.142; 2165.662; -950.036; -938.936
751.403;25937.165; -789.036; -705.936
751.664; 9509.567;-1034.035; -999.936
751.925;  802.570; -175.035; -262.937
752.186;  435.673; -298.035; -278.937
752.447;  214.475; -590.035; -445.937
752.708;   83.078; -532.035; -648.938
752.969;   42.380; -566.034; -576.938
753.230;   19.983; -777.034; -672.939
753.491;   10.085; -650.034; -631.939
753.751;  181.388;  109.966;   19.061
754.012;  243.290;  258.967;  181.060
754.273;  116.193; -174.033;  -71.940
754.534;   46.595; -487.033; -580.940
754.794; -165.002; -926.033; -911.941
755.055;  360.701; 1051.967;  881.059
755.316;  -72.097; -700.032; -566.942
755.576;  -22.794; -606.032; -576.942
755.837;  -59.492; -527.032; -695.942
756.097;  -23.489; -530.032; -564.943
756.358; -131.487; -725.032; -770.943
756.618;  -95.684; -705.031; -641.943
756.879;   61.318; -254.031; -349.944
757.139; -208.279;-1098.031;-1116.944
757.400;  -93.777; -538.031; -553.945
757.660;   22.726; -365.031; -401.945
757.920;   46.729; -266.030; -228.945
758.181;    6.531; -468.030; -351.946
758.441; -149.266; -870.030; -809.946
758.701;  -30.064; -308.030; -215.946
758.961;  -15.861; -220.030; -278.947
759.222;  -37.559; -574.029; -502.947
759.482; -146.956; -683.029; -723.948
759.742; -143.454; -706.029; -547.948
760.002;   45.749;  -83.029; -143.948
760.262;  127.251;   50.972;  182.051
760.522;  -45.046; -498.028; -574.949
760.782; -100.443; -738.028; -612.949
761.042;  -43.241; -618.028; -573.950
761.302;  141.862;   55.972;  -18.950
761.562;  132.064; -164.027; -154.951
761.822;  112.667; -710.027; -551.951
762.082;  -89.431;-1104.027;-1093.951
762.342;  124.072; -328.027; -403.952
762.601;   98.274; -567.027; -506.952
762.861;  626.277; -281.026; -207.952
763.121;  694.779; -406.026; -411.953
763.381;12133.082; -499.026; -485.953
763.640;10890.485; -139.026; -307.954
763.900;  528.587; -242.026; -203.954
764.160;  117.290; -458.025; -491.954
764.419;  -18.508; -726.025; -782.955
764.679; -110.905; -795.025; -726.955
764.939;    8.797; -124.025; -210.955
765.198; -126.600; -608.025; -563.956
765.458; -113.298; -710.024; -612.956
765.717; -111.195; -454.024; -590.957
765.976;  -56.093; -428.024; -411.957
766.236;  -85.490; -475.024; -610.957
766.495;  115.513;  260.977;   73.042
766.755; -191.785;-1090.023; -987.958
767.014;   16.418; -594.023; -665.958
767.273;  -82.980; -373.023; -397.959
767.533;  -54.777; -228.023; -307.959
767.792;    1.025; -151.022; -188.960
768.051;  -45.472; -228.022; -276.960
768.310; -114.270; -546.022; -650.960
768.569;   41.633; -161.022;    4.039
768.828;  -15.365; -285.022; -363.961
769.088; -240.262;-1050.021; -942.961
769.347; -130.860; -755.021; -599.962
769.606; -154.457; -876.021; -857.962
769.865; -264.454;-1016.021;-1033.963
770.124;   26.948; -411.021; -336.963
770.383; -109.749; -778.020; -910.963
770.641;   24.053; -398.020; -400.964
770.900; -175.944; -953.020; -846.964
771.159; -126.642; -851.020; -951.964
771.418;  -66.239; -917.020; -779.965
771.677;  239.463; -224.019; -293.965
771.936;  193.966; -794.019; -865.966
772.194; 3846.868; -465.019; -437.966
772.453;15069.271; -213.019; -391.966
772.712; 1172.874;  416.982;  329.033
772.970;  233.476;   32.982;   63.033
773.229;  157.979;  -22.018;  102.033
773.488; -143.219; -814.018; -770.968
773.746;  146.084;  296.982;  335.032
774.005;   30.686;  190.983;  -22.969
774.263;   74.989;  243.983;  177.031
774.522; -170.109; -422.017; -548.969
774.780; -136.006; -484.017; -417.970
775.039; -149.104; -551.017; -531.970
775.297;    7.299; -135.016; -351.970
775.555; -160.198; -489.016; -612.971
775.814; -192.596; -618.016; -570.971
776.072; -214.093; -749.016; -740.971
776.330; -143.491; -630.016; -520.972
776.589; -237.288; -703.015; -721.972
776.847; -212.286; -645.015; -624.973
777.105; -290.083;-1016.015;-1032.973
777.363; -120.781; -459.015; -454.973
777.621; -238.178; -660.015; -717.974
777.879;   25.924;  -42.014;   32.026
778.138; -150.173; -554.014; -717.974
778.396; -178.270; -585.014; -526.975
778.654; -283.568;-1015.014; -970.975
778.912;  -55.265; -269.014; -371.976
779.170; -230.063; -880.013; -803.976
779.427; -242.160; -922.013; -897.976
779.685; -220.658; -880.013; -832.977
779.943; -103.155; -654.013; -593.977
780.201; -266.553; -964.012; -883.978
780.459; -175.050; -651.012; -610.978
780.717; -153.048; -440.012; -390.978
780.974; -139.945; -449.012; -490.979
781.232; -109.142; -358.012; -338.979
781.490; -111.840; -551.011; -472.979
781.747; -183.937; -555.011; -476.980
782.005;  133.565;  462.989;  254.020
782.263; -290.632; -542.011;-1004.981
782.520; -144.330; -326.011; -501.981
782.778; -307.327;-1013.010;-1051.981
783.035; -283.825; -962.010; -938.982
783.293;  -71.422; -248.010; -206.982
783.550;  -51.120; -134.010; -198.982
783.808; -224.517; -764.010; -776.983
784.065; -291.014; -745.009; -874.983
784.322;  -31.412;   25.991;  -86.984
784.580; -231.009; -915.009; -771.984
784.837; -141.907; -392.009; -466.984
785.094; -212.504; -783.009; -762.985
785.352;  -84.502; -304.008; -404.985
785.609; -163.999; -934.008; -839.985
785.866; -149.497; -345.008; -401.986
786.123;  -96.294; -639.008; -583.986
786.380; -149.792; -665.008; -604.987
786.637;  -39.489; -225.007; -380.987
786.895;  -34.987; -456.007; -543.987
787.152;  -36.084; -135.007; -267.988
787.409;  -29.081; -123.007; -225.988
787.666; -126.179; -299.006; -378.988
787.923; -194.276; -616.006; -695.989
788.179; -142.274; -551.006; -584.989
788.436; -169.971; -585.006; -585.990
788.693;  -15.669;  -92.006;  -87.990
788.950;  284.234; -125.005; -112.990
789.207;  324.736; -381.005; -372.991
789.464;  -89.161; -161.005; -301.991
789.720;   40.941;  150.995;  110.009
789.977; -284.156;-1003.005; -671.992
790.234;  -34.953;   44.996;  -66.992
790.490; -275.951; -884.004;-1031.993
790.747;   31.652;  -85.004;   22.007
791.004;  -48.346; -426.004; -348.993
791.260; -134.543; -430.004; -560.994
791.517; -178.841; -843.003; -788.994
791.773;  -85.238; -379.003; -342.994
792.030; -197.236; -596.003; -660.995
792.286; -164.233; -686.003; -636.995
792.543;   16.469;  -74.002; -159.995
792.799;  -66.128; -584.002; -382.996
793.055; -306.025;-1179.002;-1210.996
793.312; -167.223; -827.002; -816.997
793.568;  -98.020; -746.002; -599.997
793.824;   36.782; -226.001; -284.997
794.081;   29.985; -447.001; -508.998
794.337;   96.387; -664.001; -561.998
794.593; 2616.690; -319.001; -271.999
794.849; 9444.892; -746.001; -772.999
795.105;  446.895; -270.000; -261.999
795.361;   49.497; -490.000; -457.000
795.617; -125.500; -875.000; -945.000
795.873;  -43.600; -360.000; -407.000
796.129;  -65.700; -368.000; -306.000
796.385;   14.800; -124.000; -156.000
796.641;  169.000;  412.000;  550.000
796.897; -132.800; -666.000; -635.000
797.153;  178.100;  453.000;  357.000
797.409; -139.500; -785.000; -868.000
797.665; -130.100; -625.000; -732.000
797.921; -125.600; -775.000; -762.000
798.176; -104.300; -744.000; -747.000
798.432;  -94.300; -824.000; -596.000
798.688; -172.400;-1174.000;-1078.000
798.943;  155.700; -165.000; -147.000
799.199;  -67.300;-1005.000; -959.000
799.455;  462.400;  369.000;  316.000
799.710;  142.000; -813.000; -380.000
799.966;  456.600; -162.000; -160.000
800.221;  731.300; -638.000; -721.000
800.477;16789.900; -743.000; -710.000
800.732;11415.900; -773.000; -800.000
800.988;  940.800;  205.000;  -19.000
801.243; 3159.200; -454.000; -344.000
801.498;10222.100; -814.000; -739.000
801.754;  571.000; -289.000; -163.000
802.009;  153.900; -257.000; -335.000
802.264; -145.200; -967.000;-1033.000
802.520;   76.500;  222.000;   -3.000
802.775;  -61.700; -524.000; -359.000
803.030;  197.900;  395.000;  356.000
803.285; -217.100; -840.000; -903.000
803.540;  -75.500; -686.000; -699.000
803.795;  -84.200; -648.000; -583.000
804.051;  -36.400; -279.000; -346.000
804.306;   55.800;  168.000;  128.000
804.561;  296.400;  451.000;  362.000
804.816;  321.200;  714.000;  861.000
805.071;   53.600; -185.000; -280.000
805.325;  337.500; -257.000; -427.000
805.580; -181.300; -841.000; -877.000
805.835;    0.700; -204.000; -297.000
806.090; -143.500; -760.000; -676.000
806.345;  -26.900; -344.000; -264.000
806.600;  -31.500; -549.000; -632.000
806.854;  -30.900; -408.000; -538.000
807.109;    4.400; -493.000; -577.000
807.364;   -0.400; -407.000; -328.000
807.618;   21.900; -415.000; -381.000
807.873;   67.100; -470.000; -494.000
808.128;  171.300; -257.000; -518.000
808.382;  171.000; -224.000; -332.000
808.637;  140.500; -440.000; -511.000
808.891;  297.600; -257.000; -180.000
809.146;  122.000; -902.000; -794.000
809.400;  412.300; -848.000; -923.000
809.654;  477.300; -779.000; -551.000
809.909;  747.300; -841.000; -927.000
810.163;12405.600; -813.000; -651.000
810.418;24445.400; -940.000; -861.000
810.672; 1443.200; -685.000; -690.000
810.926; 1017.300; -993.000; -973.000
811.180; 2260.900; -439.000; -372.000
811.434;47716.900;  240.000;  135.000
811.689;14417.000; -231.000; -365.000
811.943;  776.000; -936.000; -953.000
812.197;  453.000; -893.000; -671.000
812.451;  153.600; -379.000; -514.000
812.705;  -50.500; -809.000; -619.000
812.959;  -49.700; -263.000; -388.000
813.213;   18.400; -283.000; -209.000
813.467;  148.300;  470.000;  253.000
813.721; -154.500; -764.000; -792.000
813.975; -213.300; -826.000; -877.000
814.229;  150.000;  430.000;  353.000
814.482; -122.300; -517.000; -566.000
814.736; -206.000; -766.000; -744.000
814.990; -228.400; -779.000; -872.000
815.244;  -24.100; -228.000; -285.000
815.497; -148.900; -636.000; -601.000
815.751;  -22.900; -141.000;   82.000
816.005; -128.700; -470.000; -586.000
816.258;  -97.700; -510.000; -363.000
816.512; -175.100; -693.000; -610.000
816.766;   59.500;  121.000;  157.000
817.019;   88.700;  148.000;  149.000
817.273; -211.700;-1000.000; -802.000
817.526;  -12.900; -206.000; -173.000
817.779;  -48.100;-1049.000; -960.000
818.033; -148.400; -693.000; -807.000
818.286; -173.300; -725.000; -792.000
818.540; -137.700; -403.000; -403.000
818.793;  -88.000; -402.000; -489.000
819.046; -171.800; -582.000; -520.000
819.299;  -11.200; -157.000; -166.000
819.553; -182.900; -552.000; -592.000
819.806; -290.700;-1016.000; -838.000
820.059;  -31.600; -334.000; -354.000
820.312;   95.300;  152.000;  185.000
820.565;   25.200;  110.000;  -27.000
820.818;  -39.400;  -59.000; -173.000
821.071; -306.500;-1041.000; -957.000
821.324; -154.700; -536.000; -540.000
821.577; -146.400; -457.000; -483.000
821.830;  -63.000; -270.000; -172.000
822.083; -225.200; -733.000; -288.000
822.336;  -29.200; -261.000; -167.000
822.589; -208.400; -805.000; -688.000
822.842; -259.400; -875.000; -770.000
823.094; -330.200;-1076.000;-1114.000
823.347; -244.000; -925.000; -729.000
823.600;   81.900;  402.000;  187.000
823.853;  -65.600; -311.000; -267.000
824.105;  -88.200; -331.000; -575.000
824.358; -166.400; -617.000; -716.000
824.611;   82.500;  234.000;   40.000
824.863;  -79.500; -612.000; -591.000
825.116;  134.900;  -33.000;   27.000
825.368;  164.100; -366.000; -372.000
825.621;  218.600; -186.000; -240.000
825.873;  121.200; -704.000; -737.000
826.126; 1046.100; -669.000; -641.000
826.378;18140.600; -389.000; -505.000
826.630; 3087.800; -890.000; -898.000
826.883;   27.900; -754.000; -693.000
827.135;   80.600; -279.000; -270.000
827.387; -202.500; -893.000; -839.000
827.639;    4.900;  -86.000;   32.000
827.892; -196.400; -742.000; -582.000
828.144; -244.800; -848.000; -804.000
828.396;    1.800;  104.000;  -80.000
828.648; -138.800; -440.000; -333.000
828.900; -236.400; -702.000; -795.000
829.152; -201.700; -684.000; -683.000
829.404;  -49.000; -215.000; -267.000
829.656;  -32.200;  321.000;  214.000
829.908;   64.500;  393.000;  229.000
830.160; -281.100;-1064.000;-1047.000
830.412; -145.700; -481.000; -430.000
830.664; -227.300; -557.000; -665.000
830.916;  -98.400; -268.000; -206.000
831.167; -309.700;-1073.000; -951.000
831.419; -163.900; -623.000; -566.000
831.671; -258.400; -764.000; -809.000
831.923; -116.200; -311.000; -447.000
832.174;  -98.800; -273.000; -331.000
832.426; -171.200; -493.000; -582.000
832.678; -352.800;-1043.000;-1091.000
832.929; -257.500; -947.000; -935.000
833.181;  -77.000; -575.000; -677.000
833.432;  -29.000;  -59.000; -186.000
833.684;   18.100;  112.000;  -27.000
833.935; -160.100; -610.000; -566.000
834.187; -230.600; -829.000; -823.000
834.438;  -29.800;  -58.000;  -25.000
834.689;  -84.700; -255.000; -123.000
834.941;  -72.200; -343.000; -244.000
835.192; -165.400; -590.000; -533.000
835.443; -121.800; -419.000; -506.000
835.695;   34.700;  138.000;  -16.000
835.946; -157.100; -608.000; -378.000
836.197; -157.600; -599.000; -622.000
836.448; -133.900; -528.000; -395.000
836.699;  -67.200; -253.000; -341.000
836.950;   41.400;   72.000;    7.000
837.201; -279.000;-1003.000; -987.000
837.452;  -47.700; -356.000; -170.000
837.703; -187.900; -791.000; -737.000
837.954;  -12.200; -205.000; -365.000
838.205; -172.600;-1029.000;-1008.000
838.456;  295.900; -196.000; -282.000
838.707;   40.800; -423.000; -519.000
838.958;   38.600; -634.000; -647.000
839.209;  480.400;   18.000;   40.000
839.460;  212.500; -439.000; -201.000
839.710;  265.800; -135.000; -297.000
839.961;  712.300;  730.000;  612.000
840.212;  485.600; -382.000; -497.000
840.462; 1979.200; -328.000; -277.000
840.713;28563.400; -571.000; -536.000
840.964; 8601.500;  -62.000; -143.000
841.214;  726.700; -384.000; -624.000
841.465;  917.700; -214.000; -141.000
841.715;  779.600; -417.000; -380.000
841.966;  981.400; -746.000; -685.000
842.216;17344.100; -330.000; -431.000
842.466;49366.400; -169.000; -313.000
842.717; 1892.900; -964.000; -952.000
842.967;  508.300; -635.000; -641.000
843.217;  442.500;   20.000;   28.000
843.468;  131.800; -104.000; -132.000
843.718;  -50.100; -718.000; -726.000
843.968; -157.200; -837.000; -765.000
844.218;   67.200; -315.000; -262.000
844.469;  -85.000; -577.000; -561.000
844.719; -195.300; -537.000; -682.000
844.969; -126.700; -550.000; -580.000
845.219; -251.600; -814.000; -862.000
845.469;  -82.300; -392.000; -342.000
845.719; -218.700; -792.000; -884.000
845.969;   43.400;  119.000;  174.000
846.219; -184.900; -738.000; -720.000
846.469;  118.900;  464.000;  432.000
846.718;  -43.900; -115.000;   31.000
846.968; -198.500; -827.000; -827.000
847.218;  -53.100; -224.000; -371.000
847.468; -141.900; -586.000; -555.000
847.718; -252.400; -827.000; -798.000
847.967; -188.000; -826.000; -915.000
848.217; -104.900; -449.000; -569.000
848.467;  -57.200; -405.000; -376.000
848.716; -166.300; -708.000; -725.000
848.966;   25.900; -372.000; -358.000
849.215; -104.000; -428.000; -419.000
849.465; -147.100; -785.000; -615.000
849.714; -264.000;-1132.000;-1150.000
849.964;  -98.100; -551.000; -613.000
850.213;   -7.900; -393.000; -355.000
850.463;  189.500;  137.000;  340.000
850.712;  -42.800; -542.000; -567.000
850.961;   25.400; -739.000; -678.000
851.211;  109.400; -513.000; -504.000
851.460;  215.800; -635.000; -650.000
851.709;  924.000;  -25.000;   18.000
851.958;17976.600; -912.000; -750.000
852.208;16189.300; -859.000; -879.000
852.457;  648.600; -181.000;  -13.000
852.706;   54.400; -791.000; -823.000
852.955;   43.000; -507.000; -528.000
853.204; -105.700; -521.000; -461.000
853.453; -110.300; -418.000; -458.000
853.702; -218.600; -660.000; -750.000
853.951; -144.200; -532.000; -520.000
854.200; -175.700; -613.000; -562.000
854.449; -201.800; -695.000; -661.000
854.698; -123.600; -340.000; -279.000
854.946;  -71.800; -181.000; -284.000
855.195; -250.100; -843.000; -868.000
855.444; -118.700; -395.000; -420.000
855.693; -197.800; -345.000; -432.000
855.941; -143.300; -387.000; -516.000
856.190;  -86.300; -256.000; -382.000
856.439; -209.300; -652.000; -703.000
856.687;  -41.700;  -99.000;  -72.000
856.936; -168.000; -621.000; -323.000
857.184; -326.600;-1067.000;-1020.000
857.433; -160.800; -423.000; -512.000
857.681; -272.100; -989.000; -953.000
857.930;  -84.800; -282.000; -433.000
858.178; -287.800; -856.000; -929.000
858.427; -254.300; -802.000; -781.000
858.675; -194.300; -377.000; -544.000
858.923; -150.900; -527.000; -819.000
859.172; -330.000;-1094.000;-1070.000
859.420; -101.100; -339.000; -239.000
859.668; -202.800; -624.000; -628.000
859.916;   18.400;  109.000;  115.000
860.164; -219.600; -699.000; -603.000
860.413;  543.900; -878.000; -696.000
860.661;  236.300; -709.000; -577.000
860.909;  -88.100; -339.000; -325.000
861.157; -106.000; -277.000; -444.000
861.405; -194.200; -534.000; -670.000
861.653;  113.600;  310.000;  310.000
861.901;  309.100; -543.000; -613.000
862.149; -110.200; -801.000; -824.000
862.396; -117.500; -297.000; -187.000
862.644; -132.300; -368.000; -347.000
862.892;   17.300;   98.000;  138.000
863.140; -149.100; -549.000; -530.000
863.388; -243.000; -815.000; -759.000
863.635; -214.400; -642.000; -601.000
863.883;   67.000;  231.000;  190.000
864.131; -167.700; -288.000; -357.000
864.378; -199.300; -675.000; -540.000
864.626; -174.300; -347.000; -415.000
864.873; -193.800; -556.000; -505.000
865.121; -241.500; -714.000; -799.000
865.368;  -49.400; -173.000;   75.000
865.616;  -26.100;  -33.000;  -40.000
865.863; -117.500; -462.000; -506.000
866.111; -197.700; -795.000; -824.000
866.358;   37.500; -426.000; -420.000
866.605; 3711.100;  -64.000; -804.000
866.853; 2743.700; -621.000; -537.000
867.100; -125.100; -728.000; -775.000
867.347; -164.900; -672.000; -611.000
867.594; -118.200; -740.000; -714.000
867.841;  186.900;   97.000;   17.000
868.089; -242.800; -746.000; -698.000
868.336; -126.700; -477.000; -420.000
868.583; -210.800; -637.000; -741.000
868.830;  -23.500; -131.000; -170.000
869.077; -283.100; -859.000; -787.000
869.324; -183.900; -502.000; -458.000
869.571; -221.100; -398.000; -430.000
869.818; -193.100; -485.000; -439.000
870.065; -178.300; -439.000; -513.000
870.311; -154.100; -456.000; -542.000
870.558; -165.600; -332.000; -311.000
870.805; -102.900; -320.000; -384.000
871.052; -148.900; -494.000; -369.000
871.298;  -61.000; -204.000; -131.000
871.545;  -99.100; -151.000; -185.000
871.792; -107.000; -173.000; -222.000
872.038;  -81.800;   43.000; -126.000
872.285; -156.200; -496.000; -387.000
872.532; -112.400; -357.000; -387.000
872.778;  112.200;  556.000;  403.000
873.025; -136.300; -384.000; -359.000
873.271;  151.400;  501.000;  578.000
873.517;   -5.900; -133.000; -209.000
873.764;  -21.900; -193.000;  -80.000
874.010;  -41.700; -143.000; -230.000
874.257;   -1.700;  123.000;   90.000
874.503; -188.000; -579.000; -479.000
874.749;  -52.100;   31.000;  275.000
874.995;  -71.600;  -80.000;  -20.000
875.242; -165.400; -540.000; -478.000
875.488; -147.000; -414.000; -439.000
875.734;  -51.400; -106.000; -234.000
875.980;  368.900; -872.000;-1032.000
876.226;  565.400; -157.000; -255.000
876.472;   36.400;  343.000;  237.000
876.718;   10.200;  184.000;  158.000
876.964;  -19.000;   56.000;   55.000
877.210; -223.500; -547.000; -677.000
877.456; -213.800; -630.000; -557.000
877.702; -280.300; -821.000; -832.000
877.948; -117.200; -377.000; -497.000
878.193;  113.400;  361.000;  255.000
878.439; -143.100; -487.000; -472.000
878.685; -115.000; -272.000; -343.000
878.931; -197.900; -618.000; -676.000
879.176; -116.800; -201.000; -201.000
879.422; -292.900; -933.000; -820.000
879.668;  141.000;   10.000;   79.000
879.913;  243.100;   53.000;  137.000
880.159;  -50.400; -112.000;  -17.000
880.404;  -43.500; -152.000; -162.000
880.650;   -8.800;   91.000;  141.000
880.895; -248.900; -670.000; -710.000
881.141; -168.800; -454.000; -428.000
881.386; -246.900; -503.000; -658.000
881.631;  -99.800; -311.000; -166.000
881.877;  -16.000;  112.000;  -13.000
882.122; -191.900; -684.000; -600.000
882.367; -113.600; -136.000; -186.000
882.612;  -82.100;  -80.000; -176.000
882.858; -300.200; -877.000; -823.000
883.103; -118.500; -297.000; -267.000
883.348; -246.900; -759.000; -852.000
883.593; -231.400; -677.000; -602.000
883.838;  -65.000; -311.000;  -24.000
884.083;  148.800;  353.000;  288.000
884.328; -143.900; -564.000; -545.000
884.573;   -8.500; -196.000; -143.000
884.818;  406.900; -694.000; -531.000
885.063;  261.900; -348.000; -315.000
885.308; -168.500; -475.000; -398.000
885.553;   52.100;  245.000;  325.000
885.797; -209.300; -545.000; -615.000
886.042;  -28.700;    8.000;   58.000
886.287;  -92.500; -253.000; -211.000
886.532;  -41.700;   26.000;  204.000
886.776; -132.900; -407.000; -525.000
887.021; -227.300; -621.000; -574.000
887.265; -252.200; -685.000; -689.000
887.510; -208.600; -557.000; -496.000
887.755; -123.200; -194.000; -164.000
887.999; -200.900; -552.000; -575.000
888.244;  -69.300;  -58.000;  161.000
888.488;   98.900;  371.000;  393.000
888.732; -190.000; -368.000; -520.000
888.977; -194.800; -622.000; -567.000
889.221; -306.100; -683.000; -659.000
889.465; -185.300; -422.000; -566.000
889.710; -103.500;  -56.000; -299.000
889.954;   44.700;  579.000;  467.000
890.198; -241.300; -584.000; -707.000
890.442; -253.200; -716.000; -712.000
890.687; -285.400; -800.000; -753.000
890.931;  -84.200; -273.000; -210.000
891.175; -239.000; -502.000; -500.000
891.419;  -77.800; -105.000; -110.000
891.663; -139.200; -239.000; -112.000
891.907; -257.200; -801.000; -545.000
892.151; -310.800; -920.000; -815.000
892.395; -133.000; -274.000; -387.000
892.638;   37.900;  408.000;  291.000
892.882; -277.300; -780.000; -867.000
893.126;  130.300;  758.000;  558.000
893.370; -113.900; -167.000; -168.000
893.614; -236.700; -714.000; -715.000
893.857; -166.900; -183.000; -197.000
894.101; -227.700; -527.000; -631.000
894.345;  -29.500;  300.000;  150.000
894.588;   56.600;  569.000;  380.000
894.832;  -62.100; -178.000;  -84.000
895.075; -107.700;   15.000;  -92.000
895.319; -202.400; -552.000; -420.000
895.563; -187.800; -413.000; -353.000
895.806; -248.500; -628.000; -741.000
896.049; -110.500; -576.000; -368.000
896.293;  200.900;  527.000;  405.000
896.536; -137.800; -465.000; -468.000
896.779;  -27.000; -149.000;   -1.000
897.023; -239.800; -751.000; -714.000
897.266;   33.800;  325.000;  269.000
897.509; -310.400; -900.000; -901.000
897.752;   16.400;  149.000;  171.000
897.996; -321.700; -972.000; -864.000
898.239;  -35.700;  168.000;  102.000
898.482; -197.100; -431.000; -453.000
898.725;  -25.800;  101.000;   53.000
898.968; -263.400; -609.000; -744.000
899.211; -159.800; -513.000; -361.000
899.454; -192.600; -633.000; -539.000
899.697;  -56.000;   90.000;  -43.000
899.940; -289.100; -761.000; -757.000
900.182; -108.400; -335.000; -405.000
900.425; -120.400; -150.000; -298.000
900.668;   55.800;  491.000;  350.000
900.911; -135.300; -292.000; -345.000
901.154;  -24.200;  141.000;   -3.000
901.396; -214.300; -407.000; -412.000
901.639; -204.300; -430.000; -496.000
901.882; -307.100; -790.000; -809.000
902.124; -100.700;  -29.000; -143.000
902.367; -152.700; -315.000; -361.000
902.609; -187.800; -476.000; -453.000
902.852;  -92.000; -108.000; -260.000
903.094; -175.200; -458.000; -337.000
903.337;  -26.700;  -26.000;   53.000
903.579; -162.100; -228.000; -441.000
903.821; -272.900; -597.000; -744.000
904.064;  -44.900;   85.000;  127.000
904.306; -118.700; -126.000; -166.000
904.548; -107.900; -152.000; -366.000
904.790; -144.200; -195.000; -340.000
905.033; -177.000; -625.000; -577.000
905.275; -166.300; -513.000; -524.000
905.517;  175.800;  468.000;  256.000
905.759; -135.400; -667.000; -761.000
906.001; -141.100; -322.000; -369.000
906.243;  -66.900; -162.000; -224.000
906.485;  307.800; -265.000; -207.000
906.727;  141.700; -499.000; -542.000
906.969;   -8.600;  -30.000; -135.000
907.211;  257.300; -316.000; -382.000
907.453;  530.400; -188.000; -237.000
907.695;  -36.400; -158.000; -385.000
907.936;  177.500;  818.000;  706.000
908.178;  -89.300;   92.000; -135.000
908.420;  -82.900; -111.000; -162.000
908.662; -233.300; -633.000; -682.000
908.903; -111.900; -208.000; -123.000
909.145;  -65.700; -240.000; -305.000
909.386;   57.600;  315.000;  280.000
909.628;  126.400;  363.000;  397.000
909.870;   79.400;   29.000;  264.000
910.111; -200.700; -809.000; -949.000
910.353;   58.900; -123.000; -161.000
910.594;  -21.400; -574.000; -606.000
910.835;  159.000; -265.000; -326.000
911.077;  212.600; -503.000; -604.000
911.318;  451.400; -505.000; -471.000
911.559;  638.300; -577.000; -880.000
911.801; 2286.600; -284.000; -280.000
912.042;20022.400;  -50.000; -159.000
912.283;41183.700;  404.000;  371.000
912.524; 4794.900; -396.000; -457.000
912.765;  775.300; -193.000;   79.000
913.006;  381.800; -307.000; -338.000
913.247;   81.600; -270.000; -290.000
913.488;   21.300;  -43.000;   30.000
913.729; -122.900; -373.000; -373.000
913.970;  -69.400;  -96.000; -292.000
914.211;  -77.400; -160.000; -198.000
914.452;  -64.200; -118.000;  -11.000
914.693;  135.300;  510.000;  592.000
914.934;   42.500;  510.000;  440.000
915.175;  -51.300;   53.000;  -95.000
915.415;  -66.300; -137.000;   27.000
915.656;  -74.900;  -28.000;  192.000
915.897; -140.000; -252.000;  -82.000
916.137;  -47.100;   74.000;   -9.000
916.378; -209.700; -573.000; -517.000
916.619; -103.200; -159.000;  -63.000
916.859;  -14.900;  303.000;  330.000
917.100;  374.400; 1655.000; 1070.000
917.340;  162.200;  930.000;  728.000
917.581;  152.200;  965.000;  789.000
917.821;  -21.900; -171.000;  143.000
918.061;   57.700; -199.000;  -72.000
918.302;  -56.300; -152.000; -211.000
918.542;  -11.100;  -22.000;    3.000
918.782;  112.000;  369.000;  377.000
919.023;  290.500;  360.000;  427.000
919.263; 2711.600; 8131.000;  202.000
919.503; 1720.500; -137.000;  -54.000
919.743; 1158.300;  390.000;  266.000
919.983;  428.700; -134.000;  -26.000
920.223;  115.700;  135.000;   14.000
920.463;  298.100;  631.000;  554.000
920.703;  214.400;   84.000;   39.000
920.943;  259.200; -110.000;   90.000
921.183;  328.500; -414.000; -405.000
921.423;  857.400;  307.000;  546.000
921.663; 1115.000; -174.000; -257.000
921.903; 2660.800;  237.000;  173.000
922.143;15810.600;  372.000;  389.000
922.383;53063.300;  158.000;  115.000
922.622;13509.400; -120.000;  -15.000
922.862; 1698.700;  796.000;  785.000
923.102;  697.500;  -51.000;   33.000
923.341;  282.100;   59.000;   74.000
923.581;  191.300;  450.000;  360.000
923.821;   86.000;  301.000;  398.000
924.060;   64.300;  351.000;  193.000
924.300;  -54.200;  -16.000; -128.000
924.539;   34.500;  584.000;  473.000
924.779;  141.300;  812.000;  597.000
925.018;  -12.000;  247.000;  353.000
925.257;   63.100;  595.000;  666.000
925.497;   15.600;  447.000;  412.000
925.736;  -83.200;  -35.000;  102.000
925.975;  106.500;  687.000;  669.000
926.214;  162.700;  907.000;  850.000
926.454;  108.800;  706.000;  757.000
926.693;   16.800;  419.000;  543.000
926.932;  150.800; 1021.000;  825.000
927.171;  220.100; 1107.000; 1044.000
927.410;  201.400; 1144.000;  967.000
927.649;   90.900;  924.000;  742.000
927.888;   50.600;  590.000;  564.000
928.127;   48.900;  680.000;  678.000
928.366;  131.800;  842.000;  826.000
928.605;  142.100;  831.000;  737.000
928.844;  518.600; 1451.000; 1393.000
929.083; 1143.300;  770.000;  613.000
929.321;  602.400; 1335.000; 1359.000
929.560;  264.500; 1158.000; 1122.000
929.799;  -13.500;  574.000;  475.000
930.038;  240.600; 1025.000; 1394.000
930.276;  -44.000;  334.000;  397.000
930.515;  120.200;  827.000;  681.000
930.753;   32.900;  614.000;  589.000
930.992;   33.400;  664.000;  717.000
931.230;   81.200;  847.000;  847.000
931.469;  470.700; 2162.000;  892.000
931.707;  243.400;  840.000;  751.000
931.946;  224.500; 1278.000; 1344.000
932.184;  172.100; 1437.000; 1175.000
932.423;  200.900; 1265.000;  963.000
932.661;  260.800; 1296.000; 1428.000
932.899;  143.700;  987.000;  821.000
933.137;   67.500;  754.000;  564.000
933.376;  330.700; 1664.000; 1335.000
933.614;  392.300; 1759.000; 1196.000
933.852;  186.500; 1357.000; 1171.000
934.090;  346.500; 1722.000; 1747.000
934.328;  248.900; 1252.000; 1457.000
934.566;  197.500; 1431.000; 1110.000
934.804;  312.100; 1263.000; 1309.000
935.042;  851.200; 1861.000; 1850.000
935.280; 3082.600; 2088.000; 2063.000
935.518; 2372.900; 2113.000; 2007.000
935.756;  663.900; 2481.000; 2316.000
935.994;  378.700; 1808.000; 1751.000
936.231;  792.000; 2890.000; 2950.000
936.469;  425.800; 2367.000; 2378.000
936.707;  430.200; 2220.000; 2167.000
936.945;  561.000; 2825.000; 2882.000
937.182;  490.300; 2679.000; 2741.000
937.420;  694.800; 3602.000; 3031.000
937.657;  928.100; 3365.000; 3478.000
937.895;  765.300; 3331.000; 3488.000
938.133;  734.800; 3540.000; 3528.000
938.370;  775.400; 3896.000; 4191.000
938.607;  929.700; 4488.000; 4205.000
938.845; 1215.400; 5587.000; 5549.000
939.082; 1109.800; 5387.000; 5177.000
939.320; 1157.000; 5799.000; 5728.000
939.557; 1414.600; 6549.000; 6491.000
939.794; 1534.800; 7285.000; 7097.000
940.031; 1957.600; 8421.000; 8368.000
940.269; 2294.300; 9552.000; 9107.000
940.506; 2340.500;10901.000;10507.000

