
Integration time [ms]: 100.000
Averaging Nr. [scans]: 40
Smoothing Nr. [pixels]: 0
Data measured with spectrometer [name]: 2101013U2
Wave   ;Sample   ;Dark     ;Reference
[nm]   ;[counts] ;[counts] ;[counts] 

394.013;   72.897; -450.257; -315.536
394.305;  247.370; -461.258; -419.536
394.596; 1059.793; -676.269; -527.514
394.887; 2535.685; -796.268; -654.518
395.178;  971.265;  145.736;   11.476
395.470;  106.126; -210.263; -356.526
395.761;  238.474;  305.734;  394.479
396.052;  411.794; -545.284; -306.489
396.343;  412.138; -557.276; -454.503
396.634;  145.633; -200.279; -290.497
396.926;  167.282; -618.268; -565.517
397.217;  134.493;   11.725;  -17.504
397.508;   63.584; -366.273; -154.507
397.799;   80.233; -555.279; -571.497
398.090;   19.102; -973.280; -902.495
398.381;  156.070;   11.708;  -11.473
398.672;   12.071; -585.292; -742.473
398.963;   74.914; -348.279; -373.498
399.254;  134.105;   54.709; -209.475
399.545;   -6.079;-1017.266; -883.520
399.836;   85.128; -407.277; -343.501
400.127;   81.947; -205.295; -209.468
400.418;   75.978; -423.274; -392.506
400.709;  103.089; -359.281; -333.493
401.000;   63.434; -268.291; -309.476
401.290;  122.459;  225.698;  115.545
401.581;   80.302; -166.286; -228.485
401.872;   33.694; -542.298; -486.462
402.163;   75.539; -313.296; -252.467
402.454;   90.131; -123.291; -163.475
402.744;  109.981; -844.297; -813.465
403.035;  549.537; -226.293;  -86.471
403.326;  713.149; -366.292; -384.474
403.617;  447.214;  204.701;  165.539
403.907;  251.275; -593.283; -679.490
404.198; 2283.539; -545.307; -599.446
404.489; 5988.580; -618.283; -588.491
404.779; 2133.588; -618.302; -660.456
405.070;  243.641;  -67.304; -174.451
405.360;  348.364; -259.293; -238.472
405.651;  361.049;  125.699;   98.542
405.942;  206.648;  209.714;  127.516
406.232;  347.062; -432.285; -413.487
406.523;  596.832;  641.706;  758.530
406.813;  138.075; -579.286; -644.484
407.104;  413.519;  261.708;  144.527
407.394;  248.690; -604.299; -591.462
407.685;  171.161;  336.715;  222.513
407.975;   81.279; -400.283; -382.490
408.265;  152.420; -134.289; -190.478
408.556;   79.078; -472.291; -459.475
408.846;  178.032;  474.706;  429.530
409.137;   89.704;   -1.288; -216.480
409.427;   65.762; -193.285; -271.487
409.717;   49.237; -776.273; -692.508
410.007;  159.530;    4.715; -170.486
410.298;  106.124; -360.295; -342.469
410.588;   85.709; -495.285; -510.486
410.878;   32.315; -792.287; -873.482
411.168;  135.847; -481.298; -478.463
411.459;  132.298; -295.283; -242.489
411.749;   71.952; -609.292; -507.474
412.039;   81.827; -755.289; -386.480
412.329;  215.396;   40.722;  132.501
412.619;  225.575;  -62.286; -148.485
412.909;  388.323;  639.711;  594.521
413.199;  375.677; -130.280; -251.495
413.490;  441.114;  521.710;  352.523
413.780;  156.306;-1013.279; -913.496
414.070;  347.539;  -46.276;  235.497
414.360;  413.542; -729.278; -666.498
414.650;  441.111; -726.288; -688.482
414.940;  536.981; -538.280; -441.496
415.230;  909.308;   50.712;   74.519
415.520; 5761.417;  155.730;   66.486
415.809;22866.039; -305.281; -125.493
416.099;17581.505; -388.277; -229.501
416.389; 4835.826;  435.726;  236.494
416.679; 2791.454;   91.738;   85.473
416.969;  521.844; -527.287; -503.483
417.259;  469.258;  341.721;  171.503
417.549;  705.713;  522.718;  318.508
417.838; 1545.184; -205.268; -147.518
418.128; 5128.869;  650.710;  492.522
418.418; 4244.818; -491.272; -579.509
418.708; 2912.276;    9.726;  -48.506
418.997;10778.672; -474.275; -480.505
419.287;11191.083; -733.273; -790.507
419.577;10394.823; -160.283; -123.489
419.866;34775.578; -588.277; -498.501
420.156;35994.838; -242.270;  -55.513
420.446; 6542.897; -112.263;  -26.526
420.735;  973.057; -376.271; -446.512
421.025;  859.116; 1830.722;  315.502
421.314;  823.906; -203.271; -226.512
421.604; 1863.927;   89.732;  233.484
421.893; 1047.927; -705.271; -602.511
422.183;  252.797; -487.263; -461.526
422.472;  385.528;  -36.271; -107.511
422.762;  505.152; -416.266; -379.521
423.051;  270.090; -916.276; -916.503
423.341;  333.360; -491.273; -439.507
423.630;  454.408; -121.265;   15.477
423.919;  413.096;   58.725;   49.495
424.209;  370.678;  -31.263;   56.473
424.498;  498.732;   68.732;  161.483
424.787; 1035.238; -535.267; -601.518
425.077; 3312.106;   34.735;   29.478
425.366; 5041.983; -734.262; -744.528
425.655; 9438.110;  639.727;  259.493
425.945;19121.761; -313.247; -268.554
426.234;10616.331;  117.741;  300.467
426.523; 4845.161;  -86.259; -350.534
426.812; 6597.648;  107.734;  159.480
427.101; 9680.373; -127.269; -323.515
427.390;12464.767;  -55.270;  -86.514
427.680; 3236.680; -624.257; -411.538
427.969;  520.341; -330.255; -301.540
428.258;  338.797; -385.257; -477.536
428.547;  601.722;  449.728;  397.490
428.836; 1522.957; -421.253; -398.543
429.125; 2200.937; -199.259;  -72.534
429.414;  911.404; -330.251; -294.548
429.703; 3008.679; -231.251; -213.548
429.992; 8768.558; -938.250; -828.549
430.281; 5721.565; -397.264; -331.524
430.570;  624.420;  -21.252;   32.454
430.859;  668.710;  279.741;  352.466
431.148;  474.956;  636.752;  631.446
431.437;  317.019;  391.748;  367.454
431.725;  179.348; -544.257; -481.536
432.014;  129.939; -845.253; -756.545
432.303;  430.506; -149.239; -105.569
432.592;  697.947; -460.263; -178.525
432.881; 1015.508; -601.248; -437.554
433.169; 5703.242; -343.255;  -61.540
433.458;11660.365;  445.765;  540.424
433.747; 4969.439; -397.261; -289.529
434.036; 1016.332; -275.242; -280.564
434.324; 2061.695; -395.249; -379.551
434.613; 3472.951;   40.757;  159.437
434.902; 1229.596;  333.760;  439.433
435.190;  769.905;   75.761;  295.431
435.479;  437.033;  -52.245;   83.441
435.767;  141.316; -411.244; -427.561
436.056;  269.153; -340.242; -294.563
436.345;  397.249; -372.240; -223.568
436.633;  416.265;   60.750;  383.450
436.922;  323.551;  208.760;  414.432
437.210;  824.180; -194.236;    1.426
437.499; 2735.838; -583.235; -432.576
437.787; 2995.404; -339.236;  -10.574
438.075;  713.186;   56.761;  162.430
438.364;  962.363;  -44.238;  250.429
438.652;  590.991; -286.226; -138.592
438.941;  181.556;    3.770;  269.415
439.229;   23.067; -665.252; -466.545
439.517;   61.046; -160.234;  -85.577
439.806;   14.807; -501.225; -290.595
440.094;  219.278;  377.766;  650.421
440.382;  268.382; -653.233; -302.580
440.670;  283.862; -361.235; -285.576
440.959;   33.449; -347.223; -170.599
441.247;   98.967; -151.229; -109.587
441.535;  141.719; -266.235;   31.423
441.823;   60.526; -497.234; -305.578
442.111;  199.246;  173.771;  327.412
442.400;  678.007; -628.245; -335.559
442.688; 1914.028; -111.234; -620.579
442.976; 1419.661; -786.213; -450.617
443.264;  152.464; -324.224; -364.597
443.552;  136.892; -258.226;   51.408
443.840;  184.793;  602.765;  876.423
444.128;  113.956;  265.767;  269.420
444.416;   23.524; -694.228; -312.588
444.704;   63.153; -465.219;  -92.605
444.992;   96.370;   -0.226;  240.407
445.280;   77.757; -517.230;  -94.585
445.568;   77.064; -694.212; -396.618
445.856;  443.863; -174.221;  357.398
446.143; 1039.375;  -54.220;   -7.604
446.431;  820.628;  -25.228;  625.411
446.719;  288.272;  489.783;  675.391
447.007;  211.951;  481.769;  705.416
447.295;  190.821;  597.777;  871.402
447.583;  111.115; -464.229;  -34.587
447.870;  184.110; -434.221; -202.601
448.158;  514.580; -104.230;  129.415
448.446;  411.501; -800.219; -338.604
448.733;  210.390;   13.776;  269.403
449.021;  284.189;   60.788;  341.382
449.309;  207.104; -296.210;  208.379
449.596;  232.269;  128.783;   59.392
449.884;  169.578; -571.222; -325.600
450.172;  153.633; -756.227; -406.590
450.459;  428.219;  645.786;  780.387
450.747; 2165.192; -411.218; -147.608
451.034; 6873.554;  493.772;  889.411
451.322; 5588.422; -413.214; -170.614
451.609;  507.066;  292.777;  508.403
451.897;  537.916; -550.203; -183.634
452.184; 1629.621; -622.223; -400.598
452.472; 1574.650;   97.792;  269.375
452.759;  386.651;  512.781;  864.395
453.047;  136.461; -407.212; -125.617
453.334;  114.884; -732.219; -216.606
453.621;  113.674; -438.214; -161.615
453.909;  150.333;   13.796;  384.368
454.196;  132.328; -299.199; -123.641
454.483;  232.629;  317.798;  540.364
454.771;  159.678; -215.208;  196.374
455.058;   49.206; -316.207;  102.374
455.345;  108.807;   71.807;  344.347
455.632;   91.634; -128.207;  235.373
455.919;   47.650;  -82.196;  182.354
456.207;  -38.793; -774.198; -450.642
456.494;   -8.635; -475.200;  -66.639
456.781;   20.174; -399.202; -198.635
457.068;   74.866; -253.206;  -29.628
457.355;    4.642; -698.206; -401.629
457.642;    6.847; -552.205; -290.630
457.929;   14.748; -778.194; -417.651
458.216;   67.537; -575.212; -354.617
458.503;  213.553; -173.193;  -19.652
458.790;  218.126; -864.208; -630.625
459.077;  268.129;  -77.202;  110.364
459.364;  739.941; -350.195; -210.649
459.651; 1566.389;  -46.206;  220.372
459.938;  764.941; -864.209; -665.623
460.225;  171.007;  132.799;  276.363
460.512;  -29.853; -836.197; -688.645
460.799;  112.616;  -32.218;  320.392
461.086;   90.870; -370.200; -251.640
461.372;   64.482; -509.198; -279.642
461.659;  124.576; -165.196;  108.354
461.946;  101.476; -445.193;  -54.651
462.233;  258.793;  842.800;  888.361
462.519;  343.315; -814.201; -464.639
462.806;  953.698; -768.197; -497.645
463.093;  804.372; -445.191;  -66.656
463.380;  -19.512; -920.186; -824.664
463.666;   74.824; -259.197;  -18.646
463.953;   97.086; -406.195; -243.648
464.239;  202.786; -173.195;  -77.648
464.526;  418.047;  413.806;  743.350
464.813;  394.858; -565.190; -304.658
465.099;  385.552;  606.807;  607.348
465.386;  386.831;  903.807;  921.348
465.672;   52.973; -694.197; -522.645
465.959;   54.826; -598.188; -520.662
466.245;   42.831; -468.193; -359.652
466.532;  134.934; -109.195;   63.352
466.818;  111.387; -357.186; -216.664
467.104;   32.327; -488.182; -415.672
467.391;  -20.665; -628.189; -459.658
467.677;   40.541; -289.186;    9.335
467.964;   30.667; -682.189; -471.660
468.250;   84.393; -331.186; -160.665
468.536;   93.311;   90.811;  180.341
468.822;  -27.470; -821.184; -574.668
469.109;  151.582;  351.827;  471.311
469.395;  195.141;  729.808;  787.346
469.681;  206.689;   46.811;  156.341
469.967; 1170.644; -699.188; -382.660
470.254; 2520.502; -494.188; -306.662
470.540; 1610.125; -601.196; -476.646
470.826;  233.613; -488.181; -397.675
471.112;  293.384;  288.816;  113.331
471.398;  104.938; -253.183;  -58.670
471.684;   61.591; -626.177; -447.680
471.970;    4.242; -918.180; -981.675
472.256;   40.765; -521.192; -441.654
472.542;   19.492; -499.171; -434.691
472.828;   38.323; -743.182; -607.672
473.114;   44.685; -380.166; -283.700
473.400;   37.732; -504.175; -293.684
473.686;   48.591; -452.166; -400.701
473.972;   74.996; -230.174; -131.687
474.258;  -42.618; -925.173; -843.689
474.544;  174.983; -183.178;   -2.679
474.830;  281.859;  -65.175;   45.316
475.116;  435.585; -123.190; -196.658
475.401;  571.244; -558.180; -467.676
475.687;  191.893; -725.180; -718.676
475.973;   22.206; -673.181; -770.673
476.259;  254.736;  736.825;  764.315
476.544;  337.774; -539.176; -437.682
476.830;  744.063; -398.172; -322.690
477.116;  615.697; -430.177; -336.682
477.401;  143.293;  346.820;  358.324
477.687;   -8.043; -289.175; -405.684
477.973;   41.934;   21.819;   28.326
478.258;   -1.563; -448.163; -348.706
478.544;   68.649;   21.815;   61.334
478.829;  -25.552; -818.171; -738.692
479.115;  -36.737; -749.172; -651.690
479.401;   -0.183; -444.174; -449.686
479.686;   32.567; -253.180;  -74.676
479.972;  -23.837; -886.178; -776.680
480.257;   36.387; -258.166;  -65.700
480.542;    5.227; -614.170; -469.693
480.828;  226.930; 1288.824; 1392.317
481.113;  -37.822; -464.176; -426.683
481.399;   10.110; -236.161; -202.711
481.684;  -46.389; -620.166; -462.700
481.969;   28.548; -158.159;  -73.713
482.255;   11.362; -439.169; -285.695
482.540;   -1.087; -569.178; -441.680
482.825;    2.508; -395.187; -404.663
483.110;   91.465;  -85.169; -105.696
483.396;  159.595; -840.157; -652.718
483.681;  431.747;  543.826;  730.313
483.966;  142.667; -696.160; -700.712
484.251;   11.771; -404.174; -310.687
484.536;    5.647; -356.165; -378.703
484.822;   32.474; -205.173; -218.687
485.107;  -18.568; -599.152; -502.726
485.392;  128.727;  662.836;  541.296
485.677;   70.500;  354.832;  163.302
485.962;  101.292;  160.843;  270.283
486.247;   96.369;  -14.162;   -8.707
486.532;   47.413; -178.166; -325.701
486.817;  164.055;  381.839;  431.291
487.102;  128.215; -453.154; -514.722
487.387;  579.346; -637.156; -652.718
487.672; 1005.632; -154.164;  -38.705
487.957;  662.637; -394.160; -286.711
488.241;  186.524; -290.150; -314.729
488.526;  643.334; -280.152; -148.726
488.811; 1067.915; -881.177; -818.680
489.096;  783.643; -666.154; -702.723
489.381;  468.530;    3.847;  162.275
489.666;  307.585; -428.161; -510.710
489.950;  165.496;  558.846;  627.277
490.235;  -40.856; -480.151; -458.728
490.520;  -43.066; -756.161; -723.710
490.804;  -65.402; -827.156; -736.719
491.089;   14.789; -469.149; -299.732
491.374;   25.731; -132.164;  -75.704
491.658;   13.101; -817.147; -717.735
491.943;  199.488; -657.152; -609.727
492.227;  294.611; -178.155;  -38.721
492.512;   71.692; -294.157; -341.717
492.797;  -71.792; -713.149; -716.731
493.081;  -40.047; -588.147; -598.735
493.366;  -24.115; -751.161; -635.711
493.650;  194.906;  831.859;  917.254
493.935;   43.575; -648.147; -447.734
494.219;  -29.932; -778.142; -687.743
494.503;  -38.822; -585.150; -487.730
494.788;   39.908;   46.842;   74.285
495.072;  100.725;  184.850;  434.271
495.356;  159.842; -463.148; -343.733
495.641;  479.335; -812.146; -736.736
495.925;  471.053; -976.156; -903.719
496.209;   53.264; -599.149; -451.732
496.494;  -40.406; -763.142; -544.744
496.778;   16.266; -364.154; -360.722
497.062;  -51.197; -819.156; -627.719
497.346;  -38.312; -869.160; -640.711
497.631;  125.871;  580.852;  560.266
497.915;   76.620;  -64.145;  175.261
498.199;   65.695; -341.157; -277.718
498.483;   55.432; -562.152; -508.725
498.767;  172.951;  301.850;  300.271
499.051;  170.411; -126.149; -100.732
499.335;   34.010; -693.149; -739.731
499.619;  -33.895; -381.129; -423.767
499.903;   44.260; -272.155;  -65.721
500.187;   49.248; -588.153; -316.724
500.471;   38.087; -796.152; -595.727
500.755;  118.309;   62.839;  -96.710
501.039;   40.861; -270.155; -357.721
501.323;  118.257;  -21.141;  264.254
501.607;   51.512; -447.163; -503.706
501.891;    2.621; -607.156; -512.718
502.174;  -23.794; -726.144; -585.741
502.458;   75.666;   89.849;  370.273
502.742;   41.556; -180.138; -191.751
503.026;   95.924; -412.147; -254.734
503.310;  140.747; -437.159; -375.713
503.593;  117.076; -464.147; -325.735
503.877;  124.771; -232.133; -156.760
504.161;  198.200;    2.847;  -50.724
504.444;  134.386; -841.158; -710.716
504.728;  392.580; -487.164; -522.704
505.012;  647.448; -257.150;  -76.729
505.295;  505.310; -417.161; -212.711
505.579;  483.028; -256.156; -496.719
505.862;  643.766; -555.145; -333.738
506.146;  637.550; -681.159; -758.714
506.429;  381.900;  568.841;  461.286
506.713;   46.995; -732.151; -667.728
506.996;  304.215;   90.846;  295.278
507.280;  295.375; -633.165; -474.703
507.563;  213.984; -469.155; -261.721
507.847;   90.623; -423.153; -112.724
508.130;   89.436; -665.161; -456.711
508.413;   94.857; -758.167; -577.700
508.697;  213.408; -151.167;   12.300
508.980;  125.925; -422.153; -312.724
509.263;    0.355; -466.155; -450.720
509.547;   31.723; -124.150;   82.271
509.830;   47.513; -172.160;  140.289
510.113;   94.602;  128.844;  298.281
510.396;   56.630; -530.152; -300.725
510.680;  236.918; -818.145; -812.738
510.963;  880.344;  184.846;  180.277
511.246;  778.805; -493.150; -357.730
511.529;  289.048; -482.145;  -83.739
511.812;  333.092; -250.134;   10.241
512.095;  242.817; -740.151; -396.728
512.378;   76.630; -317.147; -245.736
512.661;   26.813; -703.137; -623.753
512.944;   11.720; -750.142; -637.744
513.227;   72.936; -170.137; -171.752
513.510;   13.756; -479.144; -671.741
513.793;   40.562; -485.140; -435.747
514.076;  135.776;  -43.127;  -39.771
514.359;  113.440; -294.149; -135.732
514.642;   76.323; -442.142; -567.744
514.925;  690.935;  581.860;  561.253
515.208;  857.289; -498.134; -443.758
515.491;  580.352; -276.133; -182.761
515.773;  313.860; -410.143; -337.742
516.056; 1810.820;  249.864;  409.246
516.339; 2554.999; -754.136; -652.755
516.622; 2040.278; -518.150; -488.730
516.904; 1616.967;  882.857;  975.257
517.187;  775.834; -730.138; -523.752
517.470;  428.440; -568.143; -510.743
517.752;  398.051; -624.136; -470.756
518.035;  306.197; -708.139; -725.749
518.318;  324.049; -799.136; -744.755
518.600; 2068.481; -300.132; -325.762
518.883; 2922.172;  310.858;   88.256
519.165; 1439.952; -585.138; -426.751
519.448;  425.330;  -61.132;  -19.762
519.730;  220.933; -573.126; -415.773
520.013;  361.773;  588.867;  664.240
520.295; 1113.419;  -94.134;  -15.759
520.578; 2485.843; -335.131; -305.764
520.860; 2732.156; -254.132;   56.238
521.143; 1396.053; -763.135; -584.756
521.425;  484.621; -251.125; -279.775
521.707;  652.001; -622.127; -380.771
521.990; 1590.727; -199.127;  167.229
522.272; 1795.488; -116.140;   -4.748
522.554;  897.610; -237.143; -157.742
522.836;  442.767;  -24.134;   99.241
523.119;  268.598; -496.148; -189.734
523.401;  161.575; -448.130; -314.766
523.683;   82.689; -865.137; -693.753
523.965;  239.632;  408.862;  260.248
524.247;  242.742;   54.878;  170.220
524.529;  201.094; -451.134; -367.759
524.812;  337.152;   -3.130;  191.234
525.094;  741.757; -773.138; -631.751
525.376; 1199.630; -143.124;   78.223
525.658;  739.771; -441.136; -339.754
525.940;   14.265; -805.131; -671.764
526.222;   50.249; -188.136;  -88.755
526.504;  153.138; -190.131;   32.237
526.786;  272.596; -960.133; -647.760
527.068;  403.385; -124.123;  -67.778
527.349;  188.067; -865.137; -774.754
527.631;  142.255; -137.132;   22.238
527.913;  136.150; -664.127; -450.771
528.195;  125.239; -761.125; -639.774
528.477;  238.939;  -93.134;  -30.758
528.759;  118.152; -648.130; -522.766
529.040;   54.784; -569.123; -293.778
529.322;   47.017; -235.125;  -10.774
529.604;  169.729;  -47.130;   93.233
529.886;  188.383; -546.126; -302.773
530.167;  142.771;  232.870;  192.235
530.449;   47.255;    1.853;   63.265
530.731;   13.116; -572.122; -459.779
531.012;   57.936; -513.120; -216.784
531.294;   63.950; -118.116;  -43.792
531.575;  141.796;  290.875;  538.225
531.857;   54.359; -548.135; -266.757
532.138;   88.656; -113.141;   40.254
532.420;  189.505;  294.865;  403.244
532.701;  275.799; -722.133; -751.760
532.983;  414.902;  232.867;  182.239
533.264;  146.656; -243.126;  175.228
533.546;  -20.001; -491.136; -508.755
533.827;   61.220;  173.867;   -1.759
534.109;   71.984; -352.135;  -80.757
534.390;  117.459; -725.132; -582.762
534.671;  275.380; -270.135;  -82.756
534.953;  148.737; -751.123; -611.779
535.234;   15.160; -426.117; -255.789
535.515;  -75.505; -891.119; -735.785
535.796;  -10.678; -431.128; -193.770
536.078; -112.870;-1050.124; -904.777
536.359;   20.287;  -22.123;    3.221
536.640;  -15.634; -480.125; -197.774
536.921;  177.234;  225.871;  143.232
537.202;  360.954;  -87.138;  -16.751
537.483;  421.393;  251.869;  377.236
537.764;  148.996;   17.870;   98.235
538.045;  -36.362; -543.134; -371.758
538.326;  -28.964; -596.129; -447.768
538.607;   16.152; -686.127; -476.771
538.888;  161.503;   98.879;    5.218
539.169;  179.222; -704.122; -535.781
539.450;  338.483;  236.871;   16.233
539.731;  223.532; -361.121; -182.783
540.012;  131.061;  199.880;  412.216
540.293;  111.174;   82.876;  158.224
540.574;   24.520; -895.113; -717.796
540.855;  452.130;  435.879;  377.218
541.136;  532.070;   47.878;  139.220
541.416;  276.602; -161.130; -220.766
541.697;  172.513; -274.131; -170.763
541.978;  925.057; -270.135; -315.757
542.259; 1166.702; -211.127; -236.771
542.539;  586.569; -191.116; -186.790
542.820;  185.471;  461.875;  480.225
543.101;  143.644;  -52.145;  -77.738
543.381;   51.627; -638.127; -591.771
543.662;  260.624;  159.873; -254.771
543.942;  510.697; -751.127; -830.770
544.223;  944.846;  193.878;  161.219
544.504;  599.129; -275.124; -182.777
544.784;  521.283; -592.126; -408.773
545.065; 1465.823;  104.884; -254.791
545.345; 1788.045;  227.881;   14.215
545.626; 1124.245;  -14.113; -108.796
545.906;  768.995;   77.869;   98.235
546.186;  319.912;   92.874;  -95.773
546.467;  188.582;   99.877;  -95.778
546.747;  278.894;  264.884;  327.210
547.027;  327.453;   91.876;  111.223
547.308;  268.697; -376.127; -530.770
547.588;  346.362;  299.871;  371.232
547.868;  198.921;  458.870;  588.235
548.149;  189.055;  609.885;  593.207
548.429;  102.350; -347.127; -299.771
548.709;  164.636; -645.120; -461.784
548.989;  422.379;   84.882;   88.213
549.269; 1841.804;   10.868;  139.239
549.550; 4228.611;  215.877;  117.222
549.830; 3741.662; -758.111; -556.799
550.110;  730.670; -468.110; -320.801
550.390;  731.416; -128.122;  -56.779
550.670; 1002.015; -868.114; -783.795
550.950;  711.380; -509.121; -471.782
551.230;  179.701;  549.879;  460.218
551.510;    1.679; -381.121; -326.782
551.790;   22.527; -173.109; -127.803
552.070;  246.382;  940.877; 1181.223
552.350;  352.724; -492.119; -377.786
552.630;  508.874;   -2.121;   77.219
552.909;  312.148;  181.884;   73.209
553.189;  196.535;  -49.132;   33.237
553.469;  159.198; -703.119; -514.786
553.749;  166.828; -469.127; -357.772
554.029;  143.789;   33.883;  -24.790
554.308;  139.609; -154.115;  -37.794
554.588;   43.195; -196.128; -204.770
554.868;   57.880; -366.121;  -47.782
555.147;  122.481; -114.115;  -46.793
555.427;  532.750; -260.116; -250.792
555.707; 3383.679; -284.115; -200.793
555.986; 4131.066; -719.111; -538.800
556.266; 2115.092;   23.884;   72.210
556.546;  103.704; -888.121; -675.782
556.825;  212.313; -657.114; -556.794
557.105; 1559.443; -125.128;   17.230
557.384; 1796.447;  122.884;  187.209
557.664;  708.525; -717.116; -508.792
557.943;   87.380; -557.121; -411.782
558.222;  154.882; -345.118; -344.788
558.502;  259.708; -116.115;  -76.793
558.781;  459.203;  194.885;  499.208
559.061;  358.057; -232.118; -227.788
559.340;  250.112;  302.883;  353.211
559.619;  611.117;   93.884;  148.210
559.899;  878.414; -239.117; -266.789
560.178;  779.007; -778.115; -593.793
560.457; 2715.465; -623.117; -562.790
560.736; 3820.892; -472.111; -482.800
561.015; 2528.716; -500.128; -502.769
561.295;  347.072;  180.893;  215.193
561.574;  315.905;  119.885;  116.207
561.853;  460.632;  274.891;  303.197
562.132;  433.810;  -45.114;  182.206
562.411;  388.074;  396.879;  553.219
562.690;  109.478; -592.115; -458.792
562.969;  130.877;  472.888;  630.203
563.248;  480.747; 2966.878; 2487.219
563.527;  225.616; -290.111; -408.800
563.806;  324.125; -650.127; -521.771
564.085;  352.487; -297.105; -206.810
564.364;  197.592; -594.117; -405.790
564.643;  448.100; -276.121; -223.781
564.922; 1645.176;  221.890;  397.198
565.201; 1617.554; -640.109; -700.803
565.479;  695.377; -297.115; -219.792
565.758;  275.144; -810.128; -712.770
566.037;  417.655; -155.109; -100.803
566.316;  205.697; -286.116;  -28.791
566.595;   43.854;  -17.115;  -12.793
566.873;   87.843; -166.111;  -79.801
567.152;  -65.499; -490.113; -590.797
567.431;    3.593; -113.116;    6.210
567.709;   11.472; -344.107; -212.807
567.988;  219.588; -810.114; -769.794
568.266;  480.254; -160.115;  -68.793
568.545;  336.933; -644.100; -514.819
568.824;  502.401;  160.885;  356.208
569.102;  465.338; -351.114; -235.794
569.381;  190.825; -492.116; -407.792
569.659;  -44.752; -553.113; -553.796
569.938;   23.220; -743.122; -465.780
570.216;   94.783; -225.109; -225.804
570.494;  -24.409; -632.114; -572.795
570.773;   31.603;  202.879;  114.218
571.051;    2.660; -373.123; -357.778
571.330;   49.395; -221.113; -174.796
571.608;   20.576; -181.098; -173.823
571.886;  -68.715; -671.111; -581.799
572.164;  -72.395; -739.121; -621.782
572.443;  -31.959; -562.105; -512.811
572.721;  -28.259; -399.117; -289.790
572.999;  -30.641; -280.117; -168.788
573.277;  103.459;  379.894;  620.191
573.555;  225.311;   94.894;   37.190
573.834; 1140.784;  -86.117; -114.788
574.112; 1350.199;  880.893;  811.193
574.390;  422.742; -143.111;  -96.801
574.668;   -8.548;  -91.112;  -61.797
574.946;   -4.939; -165.106; -187.810
575.224;   -8.446;   71.891;  -16.803
575.502;  -23.380; -200.116; -204.791
575.780;  -75.972; -767.112; -829.798
576.058;  234.391; 1589.889; 1004.200
576.336;  -28.628; -210.110; -129.801
576.614;  -57.921; -511.112; -340.798
576.891;   35.959; -711.115; -823.794
577.169;  402.866; -158.108; -285.805
577.447;  512.699;  169.893;  202.193
577.725;  242.158;  629.888;  854.201
578.003;    8.331;  -71.112; -371.798
578.280;   91.324; -208.104; -242.812
578.558;   81.408; -450.115; -422.793
578.836;  152.616; -210.114; -145.795
579.114;   50.627; -630.112; -670.797
579.391;   75.961;   -6.117;  -18.789
579.669;  -76.891; -595.114; -704.794
579.947;  155.746; -326.107; -127.806
580.224;  279.446; -692.107; -524.806
580.502;  271.450;  127.893;   76.193
580.779;   21.941;  -42.117;   75.210
581.057;  -74.192; -584.109; -470.804
581.334;  -88.011; -726.102; -695.815
581.612;   38.587;   54.895;  511.190
581.889;  -28.373;  -83.101; -129.818
582.167;  -25.309; -298.099; -190.821
582.444; -113.003; -845.102; -814.817
582.721;  107.922;  657.899;  715.183
582.999;   47.313; -326.100; -167.821
583.276;  437.964; -812.123; -713.779
583.553;  606.517; -364.102; -294.816
583.831;  184.021; -607.104; -631.812
584.108;   37.289;  349.892;  174.195
584.385;    4.763; -122.102;  -98.815
584.662;  -66.406; -651.111; -828.801
584.940;   49.843;  204.889;  204.199
585.217;   -1.378;  -73.113; -303.796
585.494;   41.276;   71.890;  118.198
585.771;  175.634; -250.109; -354.804
586.048;  456.347; -196.113;  -76.796
586.325;  267.621; -721.110; -773.801
586.602;   74.825;  230.896;  213.188
586.879;  -37.815; -499.100; -580.820
587.156;   48.563; -156.105; -331.810
587.433;  -50.055; -701.102; -667.817
587.710;   64.079;  152.888;  234.202
587.987;  281.718; -264.105; -236.811
588.264;  743.106;  315.888;  387.202
588.541; 1216.802;  -61.104;   26.187
588.818; 2430.611;   72.892;  171.196
589.095; 2071.898; -163.104; -174.812
589.371;  343.657; -459.109; -414.804
589.648;    0.549; -581.107; -437.807
589.925;   30.717; -517.114; -621.795
590.202;    2.404; -741.112; -607.798
590.478;   88.545; -166.105;  -73.811
590.755;  229.517; -241.108; -132.806
591.032; 2123.523; -741.110; -699.802
591.308; 2998.815; -732.094; -790.831
591.585; 1525.423; -573.110; -560.802
591.862;  103.721;-1056.102; -950.817
592.138;   47.040; -475.108; -474.805
592.415;  126.226; -486.104; -495.813
592.691; 1310.498;  460.896;  518.188
592.968; 1672.453; -208.098; -123.824
593.244;  803.594; -695.116; -595.790
593.521;   50.497; -105.102;  -42.817
593.797;  -24.357; -810.122; -720.780
594.074;  279.990; -611.096; -588.826
594.350;  601.826;  828.905;  729.172
594.626;  269.019; -303.111; -283.801
594.903;   96.097; -643.101; -645.817
595.179;  168.554;  243.896;  418.187
595.455;   16.526; -136.107; -150.807
595.731;    7.806;  -19.103;  -38.814
596.008;  -36.912; -464.111; -434.800
596.284;   20.887; -187.100; -242.820
596.560;   40.221; -501.093; -493.833
596.836;  175.365; -173.105;  -70.810
597.112;  299.765; -582.108; -437.805
597.388;  248.213;  -49.097;  -48.826
597.665;  107.200;  437.887;  530.203
597.941;  -57.575; -572.089; -658.839
598.217;   20.601; -323.110; -293.802
598.493;  233.835;   61.891; -204.804
598.769;  445.332; -175.100;  -50.819
599.045;  254.068; -490.108; -562.806
599.321;   41.011; -193.100; -261.820
599.597;  109.010; -355.109; -476.804
599.872;  417.852;  409.896;  429.187
600.148;  317.614;  -61.097; -172.826
600.424;  250.098;   91.893;  202.193
600.700;  211.175; -170.107; -280.807
600.976;  101.959; -442.097; -464.825
601.252;  213.481; -226.109; -272.803
601.527;  178.528; -833.104; -840.813
601.803;  115.695; -453.105; -404.812
602.079;  158.982; -124.100; -118.819
602.354;  490.481; -620.092; -531.835
602.630;  718.397; -140.113; -482.796
602.906; 1985.077; -910.101; -863.818
603.181; 5817.224; -627.119; -534.786
603.457; 5014.162;   98.903; -278.826
603.733;  719.557; -605.120; -626.783
604.008;  822.562; -245.106; -164.810
604.284; 2680.023; -636.101; -580.817
604.559; 2372.008;   -3.112;  -42.799
604.835;  429.440; -163.105; -225.810
605.110;  340.067; -732.099; -892.821
605.385;  614.199;  224.907;  267.167
605.661;  540.704; -625.095; -729.829
605.936;  990.669; -664.108; -737.806
606.211;  843.962;  -17.103; -170.815
606.487;  168.787; -329.114; -376.794
606.762;   -4.551; -791.119; -745.786
607.037;  -17.060; -501.105; -433.810
607.313;  -64.853; -589.096; -574.828
607.588;   -6.039; -375.106; -137.810
607.863;   30.602;  -28.101; -143.818
608.138;  166.925;  513.890;  516.198
608.413;   17.070; -576.099; -592.822
608.688;   24.640; -203.108; -267.805
608.964;  177.356; -509.106; -218.809
609.239;  203.712; -107.105; -212.810
609.514;  217.045;  281.895;  240.188
609.789;  570.999; -187.104; -716.812
610.064;  764.221; -435.096; -609.827
610.339;  755.357; -855.109; -799.804
610.614; 1018.537; -131.100; -315.820
610.889;  564.070;  215.895;  107.188
611.163;    5.346; -407.104; -591.812
611.438;   59.538;   81.886; -167.794
611.713;   -4.627; -467.101; -499.817
611.988;   50.751; -144.101; -328.818
612.263;  -35.361; -771.102; -717.815
612.538;  185.172;  385.887;  251.204
612.812;  137.688; -832.100; -911.820
613.087;  114.150; -358.098; -338.823
613.362;  -52.850; -497.107; -557.807
613.637;   36.358;  261.897;  138.186
613.911;  -20.143; -256.092; -345.835
614.186;   94.924; -249.107; -292.807
614.460;  546.524; -842.081; -758.854
614.735;  669.948;  -55.087;  -17.843
615.010;  144.963;   43.912;  -82.841
615.284;  232.864;  360.892;  246.195
615.559;  315.206; -792.092; -955.835
615.833;  266.868;  -76.099;  -87.822
616.108;  -19.583; -225.090; -390.837
616.382;  130.500;  274.913;  402.156
616.656;  143.193; -241.090; -232.837
616.931;  436.469; -785.099; -700.822
617.205;  913.028; -973.104; -979.813
617.480;  849.744;  -91.125;    6.225
617.754;  136.466; -396.125; -128.774
618.028;    9.812; -369.129; -382.768
618.302;   46.088;   73.892;  -25.805
618.577;  -51.490; -371.103; -518.815
618.851;  -54.346; -399.109; -600.803
619.125;  -54.631; -335.134; -378.759
619.399;  -33.646; -244.104; -374.813
619.673;  -45.649; -330.115; -515.792
619.947;  -50.109; -333.114; -448.795
620.222;   -4.831; -198.110; -204.801
620.496;   -9.445;  -47.121;  -96.782
620.770;   17.447; -187.122;  -93.781
621.044;  173.388;  323.895;  346.190
621.318;  640.783; -653.120; -614.783
621.592;  586.381; -430.121; -409.783
621.866;  295.084; -476.112; -572.799
622.140;   15.770; -207.116; -356.791
622.413;   54.088;  138.889;  112.200
622.687;  -48.051; -746.101; -492.817
622.961;   16.138; -130.108; -143.805
623.235;  -71.061; -633.111; -661.800
623.509;  -98.705; -816.105; -848.811
623.783;   19.721;  -12.107;   48.193
624.056;  -17.291; -254.120; -280.783
624.330;   54.802;   63.888;   -3.797
624.604;   31.192; -271.116; -355.790
624.877;   54.849;  180.890;   26.198
625.151;   27.910; -249.114; -238.794
625.425;  -35.669; -150.103; -283.814
625.698;  -54.482; -367.119; -374.785
625.972; -103.374; -799.110; -765.802
626.245;   70.919;  685.884;  484.210
626.519;  -52.562; -426.120; -340.784
626.792;  -39.300; -192.107; -380.807
627.066;  -87.060; -485.122; -662.779
627.339;  -99.578; -736.110; -663.802
627.613;   32.912;  351.880;  148.216
627.886;   53.203;  187.891; -612.803
628.160;  -11.867;  312.880; -161.783
628.433;  -96.703; -695.125; -703.775
628.706;  -81.737; -517.120; -615.784
628.979;   14.628;  296.876;  117.223
629.253; -103.002; -785.119; -833.786
629.526;  311.131; -334.126; -253.772
629.799;  267.535; -641.123; -479.778
630.072;  142.989; -497.128; -516.769
630.346;  -81.806;-1115.116;-1080.790
630.619;  367.426; -467.107; -545.808
630.892;  562.164;  709.889;  593.200
631.165;  307.829;  790.896;  679.187
631.438;  -97.219;-1092.112;-1055.798
631.711;   54.438;  453.877;  257.221
631.984;  -64.511; -523.117; -624.789
632.257;  -63.514; -636.117; -681.789
632.530;  -40.182; -412.119; -433.785
632.803;   31.808; -109.115;    7.207
633.076;  -70.568; -360.123; -422.777
633.349;   22.893;  173.872;  121.231
633.622;  -51.083; -187.119; -240.785
633.895; -127.091; -903.120; -823.783
634.167;  -82.567; -496.126; -525.773
634.440;   -1.175;  -19.116; -137.792
634.713;  -10.053;  -22.119; -120.786
634.986;   82.858;  593.871;  453.233
635.258;  -75.768; -507.115; -597.793
635.531;  104.807;  742.882; -343.788
635.804;  -33.637; -303.117; -318.789
636.077;  -91.079; -830.116; -852.791
636.349;  -12.095; -586.115; -474.793
636.622;  367.656; 1695.874; 1392.228
636.894;  191.563; -474.120; -909.784
637.167;  112.725; -836.127; -789.771
637.439;   21.721; -278.128; -213.770
637.712;  -39.518; -312.126; -293.772
637.984;  -94.103; -635.116; -707.791
638.257;  348.082;  515.877;  488.222
638.529;  520.248; -881.125; -924.776
638.802;  228.039; -508.128; -449.769
639.074; -110.829; -927.122; -952.781
639.346; -121.365; -942.135; -930.757
639.619;   -4.454;  -79.142; -319.744
639.891;   -4.210;  -83.122; -168.779
640.163;  -67.508; -689.122; -756.780
640.435;   43.269;  273.878;  103.220
640.708;   11.495;  -72.122; -132.780
640.980;  -22.153; -366.122; -362.781
641.252;  171.924;  -25.121;  -71.781
641.524; 1649.301;  580.879;  573.219
641.796; 1699.328;-1094.121; -907.782
642.068;  301.404; -191.121; -300.782
642.340;  -66.844; -486.121; -566.783
642.613;   44.483;  294.880;  323.217
642.885;  -93.390; -787.120; -878.783
643.157;  -47.913; -810.120; -658.784
643.428;   56.563;  170.880;  218.216
643.700;  -80.560; -498.120; -425.784
643.972;  -32.833;  -16.119; -133.785
644.244;  -84.706; -474.119; -559.785
644.516;  -48.904; -250.119; -114.786
644.788;   56.922;  662.881;  548.214
645.060;  -22.526;  -12.119; -124.786
645.332; -104.999; -525.118; -535.787
645.603;   48.328;  479.882;  342.213
645.875;  -72.095; -334.118; -369.787
646.147;  172.706; 1487.882; 1242.212
646.418;  -63.367; -931.117; -918.788
646.690;   86.810; -714.117; -715.789
646.962;   22.687; -413.117; -451.789
647.233;   -7.236;   15.883;   11.211
647.505;  -92.260; -595.117; -475.790
647.776;   17.442;  328.884;  229.210
648.048;  -11.031; -248.116; -418.790
648.320;  -75.129; -752.116; -679.791
648.591; -160.002;-1055.116; -958.791
648.862;  -89.876; -505.116; -577.792
649.134;   10.176;  115.885;  198.208
649.405;  -50.047; -661.115; -618.792
649.677;  -49.620; -475.115; -598.793
649.948;  -17.943; -181.115; -296.793
650.219;   -3.317;  -37.115; -147.793
650.491;  -78.215; -431.114; -520.794
650.762; -108.588; -705.114; -731.794
651.033;  -75.086; -437.114; -424.795
651.304;  -95.634; -743.114; -728.795
651.576;  -67.208; -680.114; -645.795
651.847;  -24.656; -250.113; -140.796
652.118;  -35.904;  -32.113; -189.796
652.389;  -97.527; -639.113; -722.796
652.660;  -37.050; -147.113;  -89.797
652.931; -137.449; -897.112; -871.797
653.202;  -70.322; -382.112; -541.798
653.473;  -54.795; -633.112; -533.798
653.744;  121.907; -595.112; -590.798
654.015;  126.434; -356.112; -303.799
654.286;  -72.665; -642.111; -663.799
654.557;  -61.763; -586.111; -521.799
654.828; -167.486;-1114.111;-1088.800
655.099;  -69.209; -404.111; -291.800
655.370;  -90.182; -427.111; -543.801
655.641; -113.606; -656.110; -714.801
655.911;  -94.254; -618.110; -638.801
656.182;   61.123;  437.890;  387.198
656.453;  102.675;  830.890;  746.198
656.724;  -59.048; -466.110; -426.802
656.994;  -97.847; -553.109; -568.803
657.265;  -99.470; -862.109; -873.803
657.536;  -76.543; -500.109; -377.804
657.806; -102.216; -561.109; -593.804
658.077; -139.389; -866.109; -950.804
658.347;  -87.363; -523.108; -598.805
658.618; -108.911; -646.108; -694.805
658.888;  -19.984;  -41.108;  112.195
659.159;  -77.457; -432.108; -548.806
659.429;  -19.680; -292.108; -349.806
659.700;    7.646; -435.107; -390.807
659.970;  -22.427; -370.107; -359.807
660.241;  -25.125; -754.107; -921.807
660.511;  451.702; -147.107; -174.808
660.781;   66.479; -793.106; -748.808
661.052;  -44.120; -222.106; -381.808
661.322;  -23.418;   21.894;   -9.809
661.592;    8.559;  257.894;  148.191
661.862;  -78.789; -369.106; -382.810
662.133;  -97.762; -551.105; -502.810
662.403; -111.211; -770.105; -676.810
662.673;  -58.959; -256.105; -213.811
662.943; -105.107; -612.105; -551.811
663.213;  -12.205;  -85.105;  -81.811
663.483;  -70.178; -593.104; -568.812
663.753;  -43.127; -194.104; -152.812
664.023;  -15.950;   68.896;  -32.813
664.293;  -50.723; -319.104; -126.813
664.563;  -97.321; -694.104; -648.813
664.833; -114.294; -743.103; -608.814
665.103; -128.068; -730.103; -793.814
665.373; -110.666; -766.103; -806.814
665.643; -102.389; -863.103; -918.815
665.913;   11.988; -534.103; -714.815
666.182;  125.740; -685.102; -719.816
666.452;  242.116;  -22.102;  -89.816
666.722;  -44.757; -724.102; -784.816
666.992; -127.330; -948.102; -921.817
667.261;  -93.478; -824.102; -808.817
667.531;  179.199;  134.899;   45.183
667.801;  528.475; -440.101; -412.818
668.070;  233.877;  714.899;  697.182
668.340; -116.721; -883.101; -840.819
668.609;   90.906;  588.900;  301.181
668.879;  -91.242; -490.100; -558.819
669.149;  -80.216; -539.100; -516.820
669.418; -102.614; -698.100; -726.820
669.688;  -27.937; -482.100; -666.820
669.957;   45.565; -423.099; -546.821
670.226;  -34.958; -268.099; -331.821
670.496;  -89.182; -431.099; -635.822
670.765;  -80.355; -418.099; -501.822
671.034; -144.878; -872.099; -828.822
671.304;  -10.551;   55.902; -111.823
671.573; -162.124;-1085.098; -957.823
671.842;   53.752; -380.098; -294.823
672.112;   10.279; -692.098; -586.824
672.381;    1.206; -239.098; -214.824
672.650; -133.317;-1005.097;-1021.825
672.919;  -77.365; -631.097; -507.825
673.188;  -96.014; -681.097; -878.825
673.457; -143.837;-1101.097;-1143.826
673.726;  -79.710; -579.096; -646.826
673.995;  -48.733; -533.096; -479.826
674.265;  -23.831; -263.096; -333.827
674.534;   11.995; -183.096; -235.827
674.802;   -3.628; -618.096; -703.828
675.071;  831.724; -886.095; -801.828
675.340; 3416.376; -464.095; -339.828
675.609; 1131.328;  103.905;   82.171
675.878;   42.679; -949.095; -893.829
676.147;   28.081;  -26.095;   -8.829
676.416;   71.908; -210.094; -294.830
676.685;  641.310; 1000.906; -622.830
676.953;   88.387; -603.094; -452.831
677.222;  -26.437; -193.094; -273.831
677.491;  -37.310;  -24.094; -127.831
677.759;  -10.133;   11.907;  172.168
678.028;  -16.906; -279.093; -222.832
678.297;  -12.179;   71.907;  197.168
678.565; -151.053; -898.093; -944.833
678.834;  -59.701; -311.093; -268.833
679.102;  -79.099; -411.092; -391.834
679.371; -143.022; -898.092; -727.834
679.639; -142.370; -797.092; -786.834
679.908; -106.069; -794.092; -724.835
680.176; -153.467; -895.091; -941.835
680.445;  -72.590; -346.091; -352.835
680.713;  -34.413;  -58.091;  -23.836
680.982;  -82.286; -523.091; -525.836
681.250; -103.435; -578.091; -507.837
681.518;  -98.083; -534.090; -751.837
681.787;  -28.706; -204.090; -167.837
682.055;  -61.279; -490.090; -422.838
682.323; -145.077; -993.090; -992.838
682.591;   26.749; -216.090; -538.838
682.859;   64.651;    9.911;  -35.839
683.128;   10.778;  232.911;  497.161
683.396; -168.120;-1102.089;-1122.840
683.664;  -33.893; -241.089;   21.160
683.932;   -3.667;  144.911;  -76.840
684.200;  -70.490; -576.088; -320.841
684.468;  -33.413;  -73.088; -124.841
684.736;  -37.761; -214.088; -175.841
685.004; -127.959;-1024.088; -982.842
685.272;  -53.883; -880.088; -774.842
685.540;  -64.806; -499.087; -557.843
685.808;  -97.779; -651.087; -682.843
686.076;  -99.477; -894.087; -969.843
686.343;  -54.675; -601.087; -815.844
686.611;   26.226; -195.087; -224.844
686.879;  373.028; -530.086; -553.844
687.147; 2902.230; -483.086; -480.845
687.414;  820.632;  -12.086; -169.845
687.682;   -8.791; -658.086; -757.846
687.950;  272.410;  259.915;  263.154
688.217;   -1.913; -792.085; -760.846
688.485;  -17.236; -632.085; -636.847
688.753;  448.016;  -11.085; -102.847
689.020;  116.218; -820.085; -851.847
689.288;  -94.731; -853.084; -787.848
689.555;  -28.779; -195.084; -148.848
689.823;  -46.452; -241.084; -345.849
690.090;  -77.000; -546.084; -651.849
690.358; -147.123; -877.084; -897.849
690.625;    2.128;  120.917;   45.150
690.892;  -79.020; -403.083; -369.850
691.160;  -14.143;   72.917;  -35.850
691.427;    8.959;  141.917;  130.149
691.694; -136.439; -855.083; -929.851
691.962; -147.738;-1177.082;-1060.852
692.229;   16.764;  127.918;   56.148
692.496;   73.116;  130.918;  -49.852
692.763;    5.943; -164.082; -201.853
693.031;  -68.980; -739.082; -716.853
693.298;  -51.504; -509.081; -368.853
693.565;  268.848; -155.081; -163.854
693.832; 1123.375;   -5.081;   -9.854
694.099;  130.927; -643.081; -642.855
694.366;  -61.546; -882.081; -896.855
694.633;  -47.620; -920.080; -633.855
694.900;  722.332; 4367.920; -114.856
695.167;  376.134; -214.080; -380.856
695.434;   95.311; -646.080; -623.856
695.701;  194.013;  121.921;  -61.857
695.968;  409.389; -365.079; -361.857
696.234;  947.741; -415.079; -646.858
696.501;10164.343; -776.079; -614.858
696.768; 5326.570; -554.079; -617.858
697.035;  325.047; -632.078; -667.859
697.302;   26.523; -448.078; -552.859
697.568;    0.400; -458.078; -497.859
697.835;  -48.998; -683.078; -624.860
698.102;  -14.721; -498.078; -407.860
698.368;   77.106;  384.923;  396.139
698.635;  -30.843;  -47.077; -424.861
698.901;  -23.241; -240.077; -348.861
699.168;   54.011; -534.077; -456.862
699.435;   62.613;  -72.077;  -13.862
699.701; -105.410; -868.076; -764.862
699.968;   12.541;  144.924; -441.863
700.234;  -91.307; -783.076; -822.863
700.500;  -57.830; -448.076; -539.864
700.767;    4.297;   -1.075;   26.136
701.033; -124.651;-1015.075; -963.864
701.299;  -46.525; -450.075; -483.865
701.566;   94.152;  950.925;  763.135
701.832;   16.704;  -31.075;  -76.865
702.098;  -95.794;-1054.074;-1034.866
702.365;  -88.717;-1098.074;-1030.866
702.631;  -27.491;-1038.074;-1063.867
702.897; 1214.511; -765.074; -676.867
703.163; 2095.213;  348.926;  254.133
703.429;  149.140; -256.073; -273.868
703.695;  -46.308; -796.073; -792.868
703.961;   36.068; -214.073; -210.868
704.227;  -54.705; -630.073; -725.869
704.493;  123.522;  613.927;  510.131
704.759;  -25.326; -565.072; -540.870
705.025;   31.676; -203.072; -194.870
705.291;   -9.798; -666.072; -562.870
705.557;  196.954;  719.928;   34.129
705.823;   42.231; -742.072; -694.871
706.089;  153.608; -307.071; -326.871
706.355;  360.535; -315.071; -244.872
706.620; 5699.136; -776.071; -729.872
706.886; 7942.063; -309.071; -362.873
707.152;  729.990; -818.070; -973.873
707.418;  -11.733;-1153.070;-1186.873
707.683;   -0.856; -550.070; -530.874
707.949;  -41.655; -547.070; -578.874
708.215;    3.972; -129.070; -207.874
708.480;  -14.976; -520.069; -420.875
708.746;   75.751;   68.931;   28.125
709.011;  -69.697; -578.069; -612.876
709.277;  -81.121; -538.069; -543.876
709.542;  -60.094; -428.069; -387.876
709.808;   -4.992;  -59.068;   89.123
710.073;  -81.465; -577.068; -695.877
710.339;  -45.063; -242.068; -228.877
710.604;   55.938; -780.068; -845.878
710.869;  304.640; -277.068; -366.878
711.135;  -75.783; -715.067; -628.879
711.400;  -86.856; -507.067; -608.879
711.665;  -66.054; -404.067; -479.879
711.931;  -88.128; -661.067; -677.880
712.196; -128.876; -876.067; -954.880
712.461;   94.026; -402.066; -490.880
712.726;  105.553; -727.066; -771.881
712.991;  -81.620; -647.066; -664.881
713.256;  -52.919; -350.066; -332.882
713.521;  -58.142; -417.065; -381.882
713.787;  -55.390; -454.065; -472.882
714.052;   -3.463; -214.065; -400.883
714.317;  -97.061;-1045.065; -981.883
714.581; 1059.290; -374.065; -268.883
714.846; 1481.892; -822.064; -888.884
715.111;  135.944;  261.936;  257.116
715.376;  -29.829;  -86.064; -223.885
715.641;  -24.452; -365.064; -367.885
715.906;  274.224;   15.936; -551.885
716.171;  130.476;  221.937;  209.114
716.436;   31.803;  -78.063; -104.886
716.700; -117.545; -818.063; -692.886
716.965; -108.093; -794.063; -807.887
717.230;  -69.542; -339.063; -392.887
717.494;  -26.215;  -40.062; -134.888
717.759;  -93.488; -784.062; -640.888
718.024;   11.364;  269.938;  250.112
718.288;   80.041;  685.938;  395.111
718.553; -132.683; -803.062; -977.889
718.817; -142.781; -883.061; -899.889
719.082;  -24.304; -115.061; -125.890
719.346; -145.527;-1000.061; -947.890
719.611;  -39.925; -300.061; -255.891
719.875;  -96.224; -568.060; -537.891
720.140;  -65.772; -453.060; -603.891
720.404;   33.855; -136.060; -249.892
720.668;  732.107; -475.060; -411.892
720.933;  302.784;  146.940;  137.108
721.197; -108.915; -667.059; -600.893
721.461; -138.863; -851.059; -826.893
721.725;   -5.161;  -21.059; -250.894
721.990;  -60.809; -284.059; -204.894
722.254;  -13.532;  -26.059; -108.894
722.518;  -67.931; -286.058; -442.895
722.782; -114.954; -743.058; -594.895
723.046;  128.448;  614.942;  570.105
723.310;   17.500;  374.942;  210.104
723.574;  -98.948; -654.058; -614.896
723.838;  -99.072; -576.057; -642.897
724.102;  -40.695; -226.057; -239.897
724.366; -146.568;-1032.057; -978.897
724.630; -105.691; -749.057; -571.898
724.894;  -85.714; -722.057; -514.898
725.158;  -22.588;   38.944; -295.898
725.422;  -44.961; -394.056; -327.899
725.685;  -72.759; -441.056; -349.899
725.949;  -79.157; -566.056; -519.900
726.213;  -74.606; -732.056; -811.900
726.477;  130.571;-1020.055; -933.900
726.740;  138.273; -274.055; -104.901
727.004;  303.675; -384.055; -510.901
727.268; 3334.152; -442.055; -400.901
727.531;  972.853; -961.055; -775.902
727.795;  -47.570; -713.054; -673.902
728.059;  -56.318; -552.054; -557.903
728.322;  -77.941; -841.054; -669.903
728.586;    9.661; -692.054; -701.903
728.849;  -88.788; -695.053; -756.904
729.112; -115.111; -812.053; -912.904
729.376; -122.409; -959.053; -905.904
729.639;  -78.007; -536.053; -536.905
729.903; -104.705; -733.053; -699.905
730.166;  -46.654; -437.052; -399.906
730.429;  -24.627; -317.052; -468.906
730.693;  -73.300; -355.052; -894.906
730.956;  197.877;  810.948;  651.093
731.219;  645.954; -310.052; -103.907
731.482;   95.105;-1003.051; -894.907
731.745;   69.107; -794.051; -935.908
732.009;   37.509;  -30.051;   50.092
732.272; -104.339; -904.051; -771.909
732.535;  -43.012; -300.051; -310.909
732.798; -150.736;-1083.050;-1166.909
733.061;  -51.609; -430.050; -456.910
733.324;    2.768;   31.950; -180.910
733.587;   64.370;  290.950;  365.090
733.850;  -65.528; -973.049;-1050.911
734.113;   35.223;   33.951;   32.089
734.376;   -4.825; -328.049; -447.912
734.639;  205.952; 1188.951; 1011.088
734.901;   47.979; -180.049; -402.912
735.164;  449.006; -883.048; -837.913
735.427; 1201.832; -166.048; -355.913
735.690;  123.084; -205.048; -234.913
735.952;  -43.489; -923.048; -925.914
736.215;  -41.387;-1113.048;-1009.914
736.478;   35.415; -771.047; -774.915
736.740;  190.666;   33.953;  129.085
737.003;  582.643; -658.047; -672.915
737.266; 3673.745;  -94.047;   46.084
737.528;  405.347; -682.047; -660.916
737.791;  301.049; -316.046; -327.916
738.053;  768.325;  465.954;  649.083
738.316;10546.877; -162.046; -136.917
738.578; 7661.679; -770.046; -736.918
738.841;  444.681; -382.046; -446.918
739.103;  167.508; -875.045; -777.918
739.365;  500.159;   79.955;  -69.919
739.628;   -0.289; -884.045; -805.919
739.890;  -36.037; -758.045; -710.919
740.152;  -49.260; -692.044; -754.920
740.414;   -3.458; -408.044; -359.920
740.677;  -49.907; -785.044; -634.921
740.939;  -48.705; -587.044; -487.921
741.201;  230.172; -432.044; -572.921
741.463;   33.624; -689.043; -745.922
741.725;   12.951;  -21.043; -199.922
741.987;   53.652;  220.957;  116.078
742.249;  -16.071; -751.043; -859.923
742.511;  181.781; -703.043; -794.923
742.773;   17.683; -546.042; -546.924
743.035;  132.110;  796.958;  533.076
743.297;  -52.014; -963.042;-1013.924
743.559;  678.888; -278.042; -262.925
743.821;   56.640; -735.042; -744.925
744.083;   16.467;  -44.041; -149.925
744.345; -106.506; -869.041; -892.926
744.607;   38.395;   75.959;  122.074
744.868;  -60.853; -490.041; -554.927
745.130; -102.276; -994.041;-1008.927
745.392;   33.051;   -1.040;  -44.927
745.653;  -19.897; -411.040; -378.928
745.915;  149.854;  896.960;  631.072
746.177;   49.681;   35.960;  -43.928
746.438;   -6.292; -428.040; -543.929
746.700;  -52.140; -947.039; -988.929
746.961;    9.062; -659.039; -740.930
747.223;  136.338; -190.039;  -74.930
747.484;   73.640; -391.039; -471.930
747.746;  126.492;  -23.038; -106.931
748.007;  114.694; -647.038; -689.931
748.269;  275.146; -468.038; -440.931
748.530;  433.872; -852.038; -638.932
748.791;  253.099; -354.038; -420.932
749.053;  410.651;  286.963;  163.067
749.314;  441.978; -236.037; -169.933
749.575;  464.080; -945.037; -905.933
749.836;  800.456; -217.037;   86.066
750.098; 2240.658;  -60.037;  -21.934
750.359;34223.235;  414.964;  555.066
750.620; 9056.887; -121.036; -220.935
750.881;  966.614; -585.036; -513.935
751.142; 1271.015; -950.036; -938.936
751.403;15926.592; -789.036; -705.936
751.664; 7418.394;-1034.035; -999.936
751.925;  471.471; -175.035; -262.937
752.186;  257.373; -298.035; -278.937
752.447;  119.999; -590.035; -445.937
752.708;   49.951; -532.035; -648.938
752.969;    2.228; -566.034; -576.938
753.230;  -26.495; -777.034; -672.939
753.491;    0.082; -650.034; -631.939
753.751;   57.233;  109.966;   19.061
754.012;   86.260;  258.967;  181.060
754.273;   58.262; -174.033;  -71.940
754.534;   13.014; -487.033; -580.940
754.794;  -96.959; -926.033; -911.941
755.055;  141.817; 1051.967;  881.059
755.316;  -44.681; -700.032; -566.942
755.576;  -25.029; -606.032; -576.942
755.837;  -49.477; -527.032; -695.942
756.097;  -57.625; -530.032; -564.943
756.358;  -73.224; -725.032; -770.943
756.618;  -49.122; -705.031; -641.943
756.879;   -8.320; -254.031; -349.944
757.139; -110.668;-1098.031;-1116.944
757.400;  -53.166; -538.031; -553.945
757.660;  -28.215; -365.031; -401.945
757.920;    3.437; -266.030; -228.945
758.181;   -6.711; -468.030; -351.946
758.441;  -87.159; -870.030; -809.946
758.701;  -30.957; -308.030; -215.946
758.961;  -24.631; -220.030; -278.947
759.222;  -53.529; -574.029; -502.947
759.482;  -88.777; -683.029; -723.948
759.742;  -78.550; -706.029; -547.948
760.002;   16.002;  -83.029; -143.948
760.262;   28.528;   50.972;  182.051
760.522;  -43.495; -498.028; -574.949
760.782;  -46.043; -738.028; -612.949
761.042;  -26.116; -618.028; -573.950
761.302;   44.786;   55.972;  -18.950
761.562;   36.337; -164.027; -154.951
761.822;   78.964; -710.027; -551.951
762.082;  -50.709;-1104.027;-1093.951
762.342;   64.818; -328.027; -403.952
762.601;   79.495; -567.027; -506.952
762.861;  318.821; -281.026; -207.952
763.121;  392.648; -406.026; -411.953
763.381; 7066.125; -499.026; -485.953
763.640; 8086.052; -139.026; -307.954
763.900;  346.079; -242.026; -203.954
764.160;   71.355; -458.025; -491.954
764.419;  -11.468; -726.025; -782.955
764.679;  -74.066; -795.025; -726.955
764.939;  -12.489; -124.025; -210.955
765.198;  -72.362; -608.025; -563.956
765.458;  -66.736; -710.024; -612.956
765.717;  -77.709; -454.024; -590.957
765.976;  -42.357; -428.024; -411.957
766.236;  -69.980; -475.024; -610.957
766.495;   13.197;  260.977;   73.042
766.755; -110.127;-1090.023; -987.958
767.014;    5.825; -594.023; -665.958
767.273;  -55.198; -373.023; -397.959
767.533;  -42.521; -228.023; -307.959
767.792;  -37.569; -151.022; -188.960
768.051;  -58.468; -228.022; -276.960
768.310;  -84.541; -546.022; -650.960
768.569;   15.086; -161.022;    4.039
768.828;  -41.887; -285.022; -363.961
769.088; -117.710;-1050.021; -942.961
769.347;  -82.234; -755.021; -599.962
769.606;  -79.607; -876.021; -857.962
769.865; -118.330;-1016.021;-1033.963
770.124;   -1.253; -411.021; -336.963
770.383;  -61.201; -778.020; -910.963
770.641;    0.525; -398.020; -400.964
770.900;  -73.598; -953.020; -846.964
771.159;  -34.796; -851.020; -951.964
771.418;   10.881; -917.020; -779.965
771.677;  123.083; -224.019; -293.965
771.936;  151.309; -794.019; -865.966
772.194; 2185.136; -465.019; -437.966
772.453;11352.188; -213.019; -391.966
772.712;  784.290;  416.982;  329.033
772.970;  112.817;   32.982;   63.033
773.229;   83.143;  -22.018;  102.033
773.488;  -75.480; -814.018; -770.968
773.746;   55.022;  296.982;  335.032
774.005;    2.049;  190.983;  -22.969
774.263;   23.951;  243.983;  177.031
774.522;  -53.548; -422.017; -548.969
774.780;  -87.671; -484.017; -417.970
775.039;  -89.694; -551.017; -531.970
775.297;  -29.267; -135.016; -351.970
775.555; -100.340; -489.016; -612.971
775.814; -121.464; -618.016; -570.971
776.072; -135.462; -749.016; -740.971
776.330;  -87.985; -630.016; -520.972
776.589; -111.858; -703.015; -721.972
776.847; -123.531; -645.015; -624.973
777.105; -163.305;-1016.015;-1032.973
777.363;  -77.553; -459.015; -454.973
777.621; -134.251; -660.015; -717.974
777.879;  -20.224;  -42.014;   32.026
778.138;  -97.097; -554.014; -717.974
778.396;  -95.346; -585.014; -526.975
778.654; -166.169;-1015.014; -970.975
778.912;  -52.767; -269.014; -371.976
779.170; -138.965; -880.013; -803.976
779.427; -146.763; -922.013; -897.976
779.685; -143.787; -880.013; -832.977
779.943;  -64.035; -654.013; -593.977
780.201; -171.258; -964.012; -883.978
780.459; -108.431; -651.012; -610.978
780.717;  -85.229; -440.012; -390.978
780.974; -101.678; -449.012; -490.979
781.232;  -72.551; -358.012; -338.979
781.490;  -87.874; -551.011; -472.979
781.747;  -98.422; -555.011; -476.980
782.005;   19.455;  462.989;  254.020
782.263; -168.569; -542.011;-1004.981
782.520;  -78.267; -326.011; -501.981
782.778; -150.290;-1013.010;-1051.981
783.035; -171.988; -962.010; -938.982
783.293;  -64.086; -248.010; -206.982
783.550;  -54.660; -134.010; -198.982
783.808; -143.658; -764.010; -776.983
784.065; -156.781; -745.009; -874.983
784.322;  -56.104;   25.991;  -86.984
784.580; -136.802; -915.009; -771.984
784.837; -112.476; -392.009; -466.984
785.094; -133.274; -783.009; -762.985
785.352;  -79.172; -304.008; -404.985
785.609; -113.445; -934.008; -839.985
785.866;  -77.743; -345.008; -401.986
786.123;  -74.867; -639.008; -583.986
786.380; -114.440; -665.008; -604.987
786.637;  -37.738; -225.007; -380.987
786.895;  -24.611; -456.007; -543.987
787.152;  -47.159; -135.007; -267.988
787.409;  -44.883; -123.007; -225.988
787.666;  -91.506; -299.006; -378.988
787.923; -120.029; -616.006; -695.989
788.179;  -98.702; -551.006; -584.989
788.436; -109.325; -585.006; -585.990
788.693;  -43.774;  -92.006;  -87.990
788.950;   93.303; -125.005; -112.990
789.207;  186.530; -381.005; -372.991
789.464;  -62.093; -161.005; -301.991
789.720;   -7.541;  150.995;  110.009
789.977; -167.715;-1003.005; -671.992
790.234;  -36.588;   44.996;  -66.992
790.490; -157.661; -884.004;-1031.993
790.747;  -17.909;  -85.004;   22.007
791.004;  -30.482; -426.004; -348.993
791.260;  -84.406; -430.004; -560.994
791.517; -107.829; -843.003; -788.994
791.773;  -38.827; -379.003; -342.994
792.030; -121.450; -596.003; -660.995
792.286;  -84.223; -686.003; -636.995
792.543;  -33.597;  -74.002; -159.995
792.799;  -58.395; -584.002; -382.996
793.055; -169.093;-1179.002;-1210.996
793.312;  -93.016; -827.002; -816.997
793.568;  -68.964; -746.002; -599.997
793.824;   14.412; -226.001; -284.997
794.081;   12.939; -447.001; -508.998
794.337;   48.441; -664.001; -561.998
794.593; 1194.418; -319.001; -271.999
794.849; 6356.445; -746.001; -772.999
795.105;  336.496; -270.000; -261.999
795.361;   22.248; -490.000; -457.000
795.617;  -61.725; -875.000; -945.000
795.873;  -39.650; -360.000; -407.000
796.129;  -35.850; -368.000; -306.000
796.385;  -17.400; -124.000; -156.000
796.641;   63.925;  412.000;  550.000
796.897;  -69.900; -666.000; -635.000
797.153;   58.550;  453.000;  357.000
797.409;  -77.300; -785.000; -868.000
797.665;  -62.775; -625.000; -732.000
797.921;  -72.900; -775.000; -762.000
798.176;  -55.300; -744.000; -747.000
798.432;  -43.000; -824.000; -596.000
798.688;  -66.150;-1174.000;-1078.000
798.943;   79.175; -165.000; -147.000
799.199;   18.850;-1005.000; -959.000
799.455;  245.450;  369.000;  316.000
799.710;  137.125; -813.000; -380.000
799.966;  291.550; -162.000; -160.000
800.221;  466.675; -638.000; -721.000
800.477;10046.750; -743.000; -710.000
800.732; 9614.325; -773.000; -800.000
800.988;  651.975;  205.000;  -19.000
801.243; 1850.900; -454.000; -344.000
801.498; 8509.500; -814.000; -739.000
801.754;  526.925; -289.000; -163.000
802.009;  113.225; -257.000; -335.000
802.264;  -45.250; -967.000;-1033.000
802.520;   26.450;  222.000;   -3.000
802.775;  -44.025; -524.000; -359.000
803.030;   61.625;  395.000;  356.000
803.285; -109.650; -840.000; -903.000
803.540;  -56.300; -686.000; -699.000
803.795;  -43.375; -648.000; -583.000
804.051;  -28.775; -279.000; -346.000
804.306;   11.225;  168.000;  128.000
804.561;  134.575;  451.000;  362.000
804.816;  136.575;  714.000;  861.000
805.071;    8.350; -185.000; -280.000
805.325;  203.425; -257.000; -427.000
805.580; -109.900; -841.000; -877.000
805.835;  -24.300; -204.000; -297.000
806.090;  -75.775; -760.000; -676.000
806.345;   -8.150; -344.000; -264.000
806.600;  -44.550; -549.000; -632.000
806.854;  -38.925; -408.000; -538.000
807.109;   -8.875; -493.000; -577.000
807.364;   -1.175; -407.000; -328.000
807.618;   -5.425; -415.000; -381.000
807.873;   38.875; -470.000; -494.000
808.128;   92.025; -257.000; -518.000
808.382;  102.875; -224.000; -332.000
808.637;   72.525; -440.000; -511.000
808.891;  181.325; -257.000; -180.000
809.146;   89.375; -902.000; -794.000
809.400;  235.075; -848.000; -923.000
809.654;  307.775; -779.000; -551.000
809.909;  454.550; -841.000; -927.000
810.163; 5825.850; -813.000; -651.000
810.418;16158.375; -940.000; -861.000
810.672; 1013.225; -685.000; -690.000
810.926;  698.075; -993.000; -973.000
811.180; 1356.275; -439.000; -372.000
811.434;30985.175;  240.000;  135.000
811.689;13576.750; -231.000; -365.000
811.943;  649.325; -936.000; -953.000
812.197;  335.450; -893.000; -671.000
812.451;  131.725; -379.000; -514.000
812.705;  -15.175; -809.000; -619.000
812.959;   -7.400; -263.000; -388.000
813.213;   11.250; -283.000; -209.000
813.467;   68.775;  470.000;  253.000
813.721;  -84.600; -764.000; -792.000
813.975; -116.025; -826.000; -877.000
814.229;   44.650;  430.000;  353.000
814.482;  -72.075; -517.000; -566.000
814.736; -120.400; -766.000; -744.000
814.990; -123.725; -779.000; -872.000
815.244;  -44.300; -228.000; -285.000
815.497;  -92.000; -636.000; -601.000
815.751;  -20.325; -141.000;   82.000
816.005;  -87.325; -470.000; -586.000
816.258;  -65.325; -510.000; -363.000
816.512; -112.200; -693.000; -610.000
816.766;   -1.750;  121.000;  157.000
817.019;    2.475;  148.000;  149.000
817.273; -119.125;-1000.000; -802.000
817.526;  -31.525; -206.000; -173.000
817.779;  -62.425;-1049.000; -960.000
818.033;  -67.700; -693.000; -807.000
818.286; -121.300; -725.000; -792.000
818.540;  -99.625; -403.000; -403.000
818.793;  -71.225; -402.000; -489.000
819.046; -101.475; -582.000; -520.000
819.299;  -43.350; -157.000; -166.000
819.553; -112.300; -552.000; -592.000
819.806; -164.375;-1016.000; -838.000
820.059;  -75.800; -334.000; -354.000
820.312;   -0.275;  152.000;  185.000
820.565;   -2.400;  110.000;  -27.000
820.818;  -49.425;  -59.000; -173.000
821.071; -163.775;-1041.000; -957.000
821.324; -109.900; -536.000; -540.000
821.577; -102.000; -457.000; -483.000
821.830;  -64.825; -270.000; -172.000
822.083; -135.150; -733.000; -288.000
822.336;  -51.875; -261.000; -167.000
822.589; -128.725; -805.000; -688.000
822.842; -140.425; -875.000; -770.000
823.094; -163.200;-1076.000;-1114.000
823.347; -125.950; -925.000; -729.000
823.600;    9.750;  402.000;  187.000
823.853;  -46.625; -311.000; -267.000
824.105;  -72.325; -331.000; -575.000
824.358; -105.575; -617.000; -716.000
824.611;   27.450;  234.000;   40.000
824.863;  -59.025; -612.000; -591.000
825.116;   56.100;  -33.000;   27.000
825.368;   67.500; -366.000; -372.000
825.621;  149.175; -186.000; -240.000
825.873;   83.075; -704.000; -737.000
826.126;  544.400; -669.000; -641.000
826.378;11132.075; -389.000; -505.000
826.630; 2995.825; -890.000; -898.000
826.883;   53.500; -754.000; -693.000
827.135;   42.800; -279.000; -270.000
827.387;  -98.350; -893.000; -839.000
827.639;  -25.325;  -86.000;   32.000
827.892; -126.375; -742.000; -582.000
828.144; -146.725; -848.000; -804.000
828.396;  -32.625;  104.000;  -80.000
828.648; -102.450; -440.000; -333.000
828.900; -144.125; -702.000; -795.000
829.152; -126.000; -684.000; -683.000
829.404;  -77.175; -215.000; -267.000
829.656;  -49.200;  321.000;  214.000
829.908;  -21.775;  393.000;  229.000
830.160; -164.950;-1064.000;-1047.000
830.412;  -89.100; -481.000; -430.000
830.664; -120.600; -557.000; -665.000
830.916;  -58.850; -268.000; -206.000
831.167; -180.175;-1073.000; -951.000
831.419; -113.125; -623.000; -566.000
831.671; -147.475; -764.000; -809.000
831.923;  -87.750; -311.000; -447.000
832.174;  -72.625; -273.000; -331.000
832.426; -111.800; -493.000; -582.000
832.678; -180.300;-1043.000;-1091.000
832.929; -159.325; -947.000; -935.000
833.181;  -81.650; -575.000; -677.000
833.432;  -45.125;  -59.000; -186.000
833.684;  -23.350;  112.000;  -27.000
833.935; -111.050; -610.000; -566.000
834.187; -130.200; -829.000; -823.000
834.438;  -48.300;  -58.000;  -25.000
834.689;  -50.300; -255.000; -123.000
834.941;  -48.025; -343.000; -244.000
835.192; -107.800; -590.000; -533.000
835.443;  -90.075; -419.000; -506.000
835.695;  -14.300;  138.000;  -16.000
835.946;  -80.450; -608.000; -378.000
836.197; -103.650; -599.000; -622.000
836.448;  -84.850; -528.000; -395.000
836.699;  -54.650; -253.000; -341.000
836.950;   -6.525;   72.000;    7.000
837.201; -162.950;-1003.000; -987.000
837.452;  -62.375; -356.000; -170.000
837.703; -110.225; -791.000; -737.000
837.954;  -31.075; -205.000; -365.000
838.205;  -87.175;-1029.000;-1008.000
838.456;  149.250; -196.000; -282.000
838.707;    2.625; -423.000; -519.000
838.958;    1.775; -634.000; -647.000
839.209;  243.850;   18.000;   40.000
839.460;  109.100; -439.000; -201.000
839.710;  162.350; -135.000; -297.000
839.961;  403.100;  730.000;  612.000
840.212;  341.375; -382.000; -497.000
840.462; 1074.625; -328.000; -277.000
840.713;17138.475; -571.000; -536.000
840.964; 7547.425;  -62.000; -143.000
841.214;  475.250; -384.000; -624.000
841.465;  519.350; -214.000; -141.000
841.715;  454.050; -417.000; -380.000
841.966;  571.500; -746.000; -685.000
842.216; 7667.875; -330.000; -431.000
842.466;31798.025; -169.000; -313.000
842.717; 1906.075; -964.000; -952.000
842.967;  283.825; -635.000; -641.000
843.217;  250.025;   20.000;   28.000
843.468;   66.325; -104.000; -132.000
843.718;  -56.475; -718.000; -726.000
843.968;  -89.475; -837.000; -765.000
844.218;    1.025; -315.000; -262.000
844.469;  -40.000; -577.000; -561.000
844.719;  -98.625; -537.000; -682.000
844.969;  -99.325; -550.000; -580.000
845.219; -136.200; -814.000; -862.000
845.469;  -78.100; -392.000; -342.000
845.719; -148.150; -792.000; -884.000
845.969;  -16.975;  119.000;  174.000
846.219; -112.100; -738.000; -720.000
846.469;   14.500;  464.000;  432.000
846.718;  -59.450; -115.000;   31.000
846.968; -131.025; -827.000; -827.000
847.218;  -47.200; -224.000; -371.000
847.468; -100.500; -586.000; -555.000
847.718; -136.850; -827.000; -798.000
847.967; -131.125; -826.000; -915.000
848.217;  -74.950; -449.000; -569.000
848.467;  -66.350; -405.000; -376.000
848.716; -109.075; -708.000; -725.000
848.966;   -0.900; -372.000; -358.000
849.215;  -47.975; -428.000; -419.000
849.465; -108.400; -785.000; -615.000
849.714; -141.925;-1132.000;-1150.000
849.964;  -71.525; -551.000; -613.000
850.213;  -24.075; -393.000; -355.000
850.463;   70.950;  137.000;  340.000
850.712;    1.875; -542.000; -567.000
850.961;   24.975; -739.000; -678.000
851.211;   90.100; -513.000; -504.000
851.460;  173.175; -635.000; -650.000
851.709;  549.125;  -25.000;   18.000
851.958; 9735.200; -912.000; -750.000
852.208;13035.600; -859.000; -879.000
852.457;  483.325; -181.000;  -13.000
852.706;   64.325; -791.000; -823.000
852.955;   11.050; -507.000; -528.000
853.204;  -72.550; -521.000; -461.000
853.453;  -78.575; -418.000; -458.000
853.702; -128.975; -660.000; -750.000
853.951; -112.700; -532.000; -520.000
854.200; -107.175; -613.000; -562.000
854.449; -126.800; -695.000; -661.000
854.698;  -95.200; -340.000; -279.000
854.946;  -66.775; -181.000; -284.000
855.195; -148.850; -843.000; -868.000
855.444; -102.700; -395.000; -420.000
855.693; -126.350; -345.000; -432.000
855.941;  -98.375; -387.000; -516.000
856.190;  -70.725; -256.000; -382.000
856.439; -111.000; -652.000; -703.000
856.687;  -58.175;  -99.000;  -72.000
856.936; -117.300; -621.000; -323.000
857.184; -185.475;-1067.000;-1020.000
857.433; -113.150; -423.000; -512.000
857.681; -166.600; -989.000; -953.000
857.930;  -65.800; -282.000; -433.000
858.178; -169.250; -856.000; -929.000
858.427; -155.350; -802.000; -781.000
858.675; -120.150; -377.000; -544.000
858.923;  -97.750; -527.000; -819.000
859.172; -167.700;-1094.000;-1070.000
859.420;  -86.200; -339.000; -239.000
859.668; -143.125; -624.000; -628.000
859.916;  -25.725;  109.000;  115.000
860.164; -121.875; -699.000; -603.000
860.413;  207.400; -878.000; -696.000
860.661;  201.325; -709.000; -577.000
860.909;  -78.450; -339.000; -325.000
861.157;  -92.050; -277.000; -444.000
861.405; -126.675; -534.000; -670.000
861.653;   -0.300;  310.000;  310.000
861.901;  140.300; -543.000; -613.000
862.149;  -28.975; -801.000; -824.000
862.396;  -78.475; -297.000; -187.000
862.644;  -93.550; -368.000; -347.000
862.892;  -24.725;   98.000;  138.000
863.140; -121.025; -549.000; -530.000
863.388; -163.775; -815.000; -759.000
863.635; -131.425; -642.000; -601.000
863.883;   -9.800;  231.000;  190.000
864.131;  -95.175; -288.000; -357.000
864.378; -122.750; -675.000; -540.000
864.626;  -89.775; -347.000; -415.000
864.873; -107.950; -556.000; -505.000
865.121; -149.750; -714.000; -799.000
865.368;  -54.075; -173.000;   75.000
865.616;  -40.100;  -33.000;  -40.000
865.863;  -71.425; -462.000; -506.000
866.111; -120.325; -795.000; -824.000
866.358;   53.675; -426.000; -420.000
866.605; 2404.475;  -64.000; -804.000
866.853; 2650.450; -621.000; -537.000
867.100;  -27.425; -728.000; -775.000
867.347;  -88.000; -672.000; -611.000
867.594;  -93.375; -740.000; -714.000
867.841;   65.125;   97.000;   17.000
868.089; -144.775; -746.000; -698.000
868.336; -111.900; -477.000; -420.000
868.583; -147.825; -637.000; -741.000
868.830;  -58.575; -131.000; -170.000
869.077; -177.225; -859.000; -787.000
869.324; -127.175; -502.000; -458.000
869.571; -131.675; -398.000; -430.000
869.818; -114.125; -485.000; -439.000
870.065; -104.450; -439.000; -513.000
870.311; -104.475; -456.000; -542.000
870.558;  -98.875; -332.000; -311.000
870.805;  -86.550; -320.000; -384.000
871.052; -115.575; -494.000; -369.000
871.298;  -61.975; -204.000; -131.000
871.545;  -76.675; -151.000; -185.000
871.792;  -83.975; -173.000; -222.000
872.038;  -74.075;   43.000; -126.000
872.285; -131.875; -496.000; -387.000
872.532;  -91.925; -357.000; -387.000
872.778;    9.125;  556.000;  403.000
873.025; -104.850; -384.000; -359.000
873.271;   13.650;  501.000;  578.000
873.517;  -45.200; -133.000; -209.000
873.764;  -32.525; -193.000;  -80.000
874.010;  -67.725; -143.000; -230.000
874.257;  -33.150;  123.000;   90.000
874.503; -139.250; -579.000; -479.000
874.749;  -69.950;   31.000;  275.000
874.995;  -72.375;  -80.000;  -20.000
875.242; -122.850; -540.000; -478.000
875.488; -108.050; -414.000; -439.000
875.734;  -64.500; -106.000; -234.000
875.980;  100.375; -872.000;-1032.000
876.226;  327.750; -157.000; -255.000
876.472;  -10.225;  343.000;  237.000
876.718;  -42.100;  184.000;  158.000
876.964;  -53.500;   56.000;   55.000
877.210; -150.350; -547.000; -677.000
877.456; -135.125; -630.000; -557.000
877.702; -168.900; -821.000; -832.000
877.948; -109.125; -377.000; -497.000
878.193;   14.200;  361.000;  255.000
878.439; -103.050; -487.000; -472.000
878.685; -106.075; -272.000; -343.000
878.931; -138.400; -618.000; -676.000
879.176;  -82.575; -201.000; -201.000
879.422; -177.450; -933.000; -820.000
879.668;   53.450;   10.000;   79.000
879.913;  128.500;   53.000;  137.000
880.159;  -63.175; -112.000;  -17.000
880.404;  -74.950; -152.000; -162.000
880.650;  -42.800;   91.000;  141.000
880.895; -154.475; -670.000; -710.000
881.141; -126.875; -454.000; -428.000
881.386; -155.250; -503.000; -658.000
881.631;  -82.300; -311.000; -166.000
881.877;  -31.000;  112.000;  -13.000
882.122; -133.625; -684.000; -600.000
882.367;  -96.125; -136.000; -186.000
882.612;  -71.025;  -80.000; -176.000
882.858; -176.500; -877.000; -823.000
883.103;  -90.400; -297.000; -267.000
883.348; -158.850; -759.000; -852.000
883.593; -139.075; -677.000; -602.000
883.838;  -75.675; -311.000;  -24.000
884.083;   22.850;  353.000;  288.000
884.328;  -93.075; -564.000; -545.000
884.573;  -46.925; -196.000; -143.000
884.818;  147.600; -694.000; -531.000
885.063;  152.850; -348.000; -315.000
885.308;  -92.050; -475.000; -398.000
885.553;  -10.825;  245.000;  325.000
885.797; -125.975; -545.000; -615.000
886.042;  -50.100;    8.000;   58.000
886.287;  -90.675; -253.000; -211.000
886.532;  -48.275;   26.000;  204.000
886.776; -101.825; -407.000; -525.000
887.021; -134.625; -621.000; -574.000
887.265; -159.900; -685.000; -689.000
887.510; -126.375; -557.000; -496.000
887.755;  -95.600; -194.000; -164.000
887.999; -144.275; -552.000; -575.000
888.244;  -69.700;  -58.000;  161.000
888.488;  -14.475;  371.000;  393.000
888.732; -121.650; -368.000; -520.000
888.977; -132.125; -622.000; -567.000
889.221; -153.000; -683.000; -659.000
889.465; -124.150; -422.000; -566.000
889.710;  -74.325;  -56.000; -299.000
889.954;   -4.950;  579.000;  467.000
890.198; -145.375; -584.000; -707.000
890.442; -155.775; -716.000; -712.000
890.687; -169.850; -800.000; -753.000
890.931;  -99.175; -273.000; -210.000
891.175; -131.900; -502.000; -500.000
891.419;  -77.500; -105.000; -110.000
891.663; -104.625; -239.000; -112.000
891.907; -167.400; -801.000; -545.000
892.151; -178.000; -920.000; -815.000
892.395; -121.900; -274.000; -387.000
892.638;  -25.500;  408.000;  291.000
892.882; -188.650; -780.000; -867.000
893.126;   19.950;  758.000;  558.000
893.370;  -90.725; -167.000; -168.000
893.614; -150.900; -714.000; -715.000
893.857;  -96.775; -183.000; -197.000
894.101; -141.450; -527.000; -631.000
894.345;  -57.575;  300.000;  150.000
894.588;    6.900;  569.000;  380.000
894.832;  -88.500; -178.000;  -84.000
895.075; -101.675;   15.000;  -92.000
895.319; -124.500; -552.000; -420.000
895.563; -119.100; -413.000; -353.000
895.806; -152.400; -628.000; -741.000
896.049;  -75.125; -576.000; -368.000
896.293;   68.100;  527.000;  405.000
896.536;  -84.950; -465.000; -468.000
896.779;  -62.000; -149.000;   -1.000
897.023; -150.375; -751.000; -714.000
897.266;  -35.900;  325.000;  269.000
897.509; -176.025; -900.000; -901.000
897.752;  -43.625;  149.000;  171.000
897.996; -204.825; -972.000; -864.000
898.239;  -41.200;  168.000;  102.000
898.482; -121.425; -431.000; -453.000
898.725;  -41.225;  101.000;   53.000
898.968; -163.175; -609.000; -744.000
899.211; -117.175; -513.000; -361.000
899.454; -132.800; -633.000; -539.000
899.697;  -54.025;   90.000;  -43.000
899.940; -174.100; -761.000; -757.000
900.182; -120.950; -335.000; -405.000
900.425; -101.725; -150.000; -298.000
900.668;   -7.500;  491.000;  350.000
900.911; -117.175; -292.000; -345.000
901.154;  -45.975;  141.000;   -3.000
901.396; -140.450; -407.000; -412.000
901.639; -136.850; -430.000; -496.000
901.882; -193.675; -790.000; -809.000
902.124;  -88.875;  -29.000; -143.000
902.367; -115.600; -315.000; -361.000
902.609; -130.050; -476.000; -453.000
902.852;  -84.500; -108.000; -260.000
903.094; -114.900; -458.000; -337.000
903.337;  -73.500;  -26.000;   53.000
903.579; -112.975; -228.000; -441.000
903.821; -159.125; -597.000; -744.000
904.064;  -65.850;   85.000;  127.000
904.306;  -86.500; -126.000; -166.000
904.548; -106.550; -152.000; -366.000
904.790;  -96.300; -195.000; -340.000
905.033; -126.950; -625.000; -577.000
905.275; -114.600; -513.000; -524.000
905.517;   34.050;  468.000;  256.000
905.759;  -84.175; -667.000; -761.000
906.001;  -96.950; -322.000; -369.000
906.243;  -61.200; -162.000; -224.000
906.485;   79.400; -265.000; -207.000
906.727;   79.325; -499.000; -542.000
906.969;  -31.725;  -30.000; -135.000
907.211;   71.025; -316.000; -382.000
907.453;  229.425; -188.000; -237.000
907.695;   -7.425; -158.000; -385.000
907.936;   39.475;  818.000;  706.000
908.178;  -77.600;   92.000; -135.000
908.420;  -66.850; -111.000; -162.000
908.662; -145.375; -633.000; -682.000
908.903;  -78.625; -208.000; -123.000
909.145;  -69.650; -240.000; -305.000
909.386;    7.850;  315.000;  280.000
909.628;   42.950;  363.000;  397.000
909.870;  -10.475;   29.000;  264.000
910.111; -112.575; -809.000; -949.000
910.353;   14.000; -123.000; -161.000
910.594;    4.125; -574.000; -606.000
910.835;   79.750; -265.000; -326.000
911.077;  142.300; -503.000; -604.000
911.318;  267.700; -505.000; -471.000
911.559;  444.525; -577.000; -880.000
911.801; 1289.175; -284.000; -280.000
912.042; 9742.050;  -50.000; -159.000
912.283;26665.525;  404.000;  371.000
912.524; 4366.050; -396.000; -457.000
912.765;  500.300; -193.000;   79.000
913.006;  228.175; -307.000; -338.000
913.247;   51.050; -270.000; -290.000
913.488;  -14.250;  -43.000;   30.000
913.729;  -83.725; -373.000; -373.000
913.970;  -61.225;  -96.000; -292.000
914.211;  -69.725; -160.000; -198.000
914.452;  -74.825; -118.000;  -11.000
914.693;   -2.925;  510.000;  592.000
914.934;    4.550;  510.000;  440.000
915.175;  -64.625;   53.000;  -95.000
915.415;  -84.200; -137.000;   27.000
915.656;  -57.050;  -28.000;  192.000
915.897; -107.175; -252.000;  -82.000
916.137;  -71.975;   74.000;   -9.000
916.378; -138.425; -573.000; -517.000
916.619;  -86.025; -159.000;  -63.000
916.859;  -21.850;  303.000;  330.000
917.100;  123.175; 1655.000; 1070.000
917.340;   33.325;  930.000;  728.000
917.581;   45.400;  965.000;  789.000
917.821;  -48.100; -171.000;  143.000
918.061;   -2.200; -199.000;  -72.000
918.302;  -67.575; -152.000; -211.000
918.542;  -26.250;  -22.000;    3.000
918.782;   23.925;  369.000;  377.000
919.023;  118.400;  360.000;  427.000
919.263; 1689.750; 8131.000;  202.000
919.503; 1062.075; -137.000;  -54.000
919.743;  555.225;  390.000;  266.000
919.983;  228.700; -134.000;  -26.000
920.223;   63.550;  135.000;   14.000
920.463;  149.100;  631.000;  554.000
920.703;  135.650;   84.000;   39.000
920.943;  191.850; -110.000;   90.000
921.183;  241.875; -414.000; -405.000
921.423;  521.275;  307.000;  546.000
921.663;  732.000; -174.000; -257.000
921.903; 1576.300;  237.000;  173.000
922.143; 8626.600;  372.000;  389.000
922.383;34056.750;  158.000;  115.000
922.622;12358.675; -120.000;  -15.000
922.862; 1284.950;  796.000;  785.000
923.102;  489.050;  -51.000;   33.000
923.341;  200.725;   59.000;   74.000
923.581;   84.250;  450.000;  360.000
923.821;   33.200;  301.000;  398.000
924.060;   -0.250;  351.000;  193.000
924.300;  -49.425;  -16.000; -128.000
924.539;  -18.125;  584.000;  473.000
924.779;   12.200;  812.000;  597.000
925.018;  -53.650;  247.000;  353.000
925.257;   -4.350;  595.000;  666.000
925.497;  -47.250;  447.000;  412.000
925.736;  -73.775;  -35.000;  102.000
925.975;   -2.925;  687.000;  669.000
926.214;   14.200;  907.000;  850.000
926.454;    8.300;  706.000;  757.000
926.693;  -28.075;  419.000;  543.000
926.932;   32.175; 1021.000;  825.000
927.171;   57.875; 1107.000; 1044.000
927.410;   54.800; 1144.000;  967.000
927.649;   14.850;  924.000;  742.000
927.888;  -11.300;  590.000;  564.000
928.127;   -3.300;  680.000;  678.000
928.366;   25.875;  842.000;  826.000
928.605;   31.050;  831.000;  737.000
928.844;  218.725; 1451.000; 1393.000
929.083;  578.650;  770.000;  613.000
929.321;  313.400; 1335.000; 1359.000
929.560;   97.025; 1158.000; 1122.000
929.799;  -29.500;  574.000;  475.000
930.038;   88.600; 1025.000; 1394.000
930.276;  -43.000;  334.000;  397.000
930.515;   -5.325;  827.000;  681.000
930.753;  -30.575;  614.000;  589.000
930.992;   -7.575;  664.000;  717.000
931.230;   -8.650;  847.000;  847.000
931.469;  181.750; 2162.000;  892.000
931.707;   86.150;  840.000;  751.000
931.946;   58.350; 1278.000; 1344.000
932.184;   40.800; 1437.000; 1175.000
932.423;   59.175; 1265.000;  963.000
932.661;   81.300; 1296.000; 1428.000
932.899;   20.075;  987.000;  821.000
933.137;  -11.150;  754.000;  564.000
933.376;  136.200; 1664.000; 1335.000
933.614;  163.800; 1759.000; 1196.000
933.852;   68.750; 1357.000; 1171.000
934.090;  133.650; 1722.000; 1747.000
934.328;  104.725; 1252.000; 1457.000
934.566;  101.325; 1431.000; 1110.000
934.804;  145.350; 1263.000; 1309.000
935.042;  476.425; 1861.000; 1850.000
935.280; 1966.100; 2088.000; 2063.000
935.518; 1954.350; 2113.000; 2007.000
935.756;  418.625; 2481.000; 2316.000
935.994;  175.800; 1808.000; 1751.000
936.231;  336.925; 2890.000; 2950.000
936.469;  194.500; 2367.000; 2378.000
936.707;  157.625; 2220.000; 2167.000
936.945;  226.850; 2825.000; 2882.000
937.182;  193.450; 2679.000; 2741.000
937.420;  308.525; 3602.000; 3031.000
937.657;  409.825; 3365.000; 3478.000
937.895;  356.125; 3331.000; 3488.000
938.133;  302.325; 3540.000; 3528.000
938.370;  339.700; 3896.000; 4191.000
938.607;  415.150; 4488.000; 4205.000
938.845;  542.150; 5587.000; 5549.000
939.082;  480.550; 5387.000; 5177.000
939.320;  529.875; 5799.000; 5728.000
939.557;  650.125; 6549.000; 6491.000
939.794;  719.300; 7285.000; 7097.000
940.031;  898.150; 8421.000; 8368.000
940.269; 1098.025; 9552.000; 9107.000
940.506; 1117.025;10901.000;10507.000

