
Integration time [ms]: 100.000
Averaging Nr. [scans]: 40
Smoothing Nr. [pixels]: 0
Data measured with spectrometer [name]: 2101013U2
Wave   ;Sample   ;Dark     ;Reference
[nm]   ;[counts] ;[counts] ;[counts] 

394.013;   29.412; -450.257; -315.536
394.305;  159.285; -461.258; -419.536
394.596; 1099.982; -676.269; -527.514
394.887; 2801.523; -796.268; -654.518
395.178; 1085.029;  145.736;   11.476
395.470;   74.415; -210.263; -356.526
395.761;  154.363;  305.734;  394.479
396.052;  189.181; -545.284; -306.489
396.343;  215.026; -557.276; -454.503
396.634;   84.870; -200.279; -290.497
396.926;   86.571; -618.268; -565.517
397.217;  100.231;   11.725;  -17.504
397.508;   36.646; -366.273; -154.507
397.799;   24.295; -555.279; -571.497
398.090;   -8.936; -973.280; -902.495
398.381;  107.806;   11.708;  -11.473
398.672;  -22.268; -585.292; -742.473
398.963;   36.151; -348.279; -373.498
399.254;   87.741;   54.709; -209.475
399.545;  -33.815;-1017.266; -883.520
399.836;   52.040; -407.277; -343.501
400.127;   46.882; -205.295; -209.468
400.418;   39.116; -423.274; -392.506
400.709;   55.951; -359.281; -333.493
401.000;   46.345; -268.291; -309.476
401.290;  114.068;  225.698;  115.545
401.581;   60.864; -166.286; -228.485
401.872;   18.029; -542.298; -486.462
402.163;   56.649; -313.296; -252.467
402.454;   89.892; -123.291; -163.475
402.744;   51.891; -844.297; -813.465
403.035;  368.522; -226.293;  -86.471
403.326;  483.910; -366.292; -384.474
403.617;  355.548;  204.701;  165.539
403.907;  241.212; -593.283; -679.490
404.198; 2458.847; -545.307; -599.446
404.489; 6336.317; -618.283; -588.491
404.779; 2102.747; -618.302; -660.456
405.070;  226.500;  -67.304; -174.451
405.360;  341.974; -259.293; -238.472
405.651;  367.208;  125.699;   98.542
405.942;  167.484;  209.714;  127.516
406.232;  202.948; -432.285; -413.487
406.523;  408.817;  641.706;  758.530
406.813;   72.261; -579.286; -644.484
407.104;  302.354;  261.708;  144.527
407.394;  128.274; -604.299; -591.462
407.685;  139.823;  336.715;  222.513
407.975;   61.940; -400.283; -382.490
408.265;  116.131; -134.289; -190.478
408.556;   59.138; -472.291; -459.475
408.846;  182.568;  474.706;  429.530
409.137;   71.739;   -1.288; -216.480
409.427;   56.773; -193.285; -271.487
409.717;   35.300; -776.273; -692.508
410.007;  146.842;    4.715; -170.486
410.298;   70.134; -360.295; -342.469
410.588;   63.995; -495.285; -510.486
410.878;   28.376; -792.287; -873.482
411.168;  113.906; -481.298; -478.463
411.459;  110.110; -295.283; -242.489
411.749;   58.812; -609.292; -507.474
412.039;   61.388; -755.289; -386.480
412.329;  204.158;   40.722;  132.501
412.619;  172.161;  -62.286; -148.485
412.909;  351.534;  639.711;  594.521
413.199;  304.689; -130.280; -251.495
413.490;  386.349;  521.710;  352.523
413.780;  138.968;-1013.279; -913.496
414.070;  331.252;  -46.276;  235.497
414.360;  330.429; -729.278; -666.498
414.650;  402.172; -726.288; -688.482
414.940;  541.443; -538.280; -441.496
415.230;  928.819;   50.712;   74.519
415.520; 6148.656;  155.730;   66.486
415.809;24253.076; -305.281; -125.493
416.099;18936.792; -388.277; -229.501
416.389; 5356.739;  435.726;  236.494
416.679; 3187.219;   91.738;   85.473
416.969;  543.655; -527.287; -503.483
417.259;  593.820;  341.721;  171.503
417.549;  684.349;  522.718;  318.508
417.838; 1670.973; -205.268; -147.518
418.128; 5634.255;  650.710;  492.522
418.418; 4756.781; -491.272; -579.509
418.708; 3181.264;    9.726;  -48.506
418.997;11936.760; -474.275; -480.505
419.287;12585.871; -733.273; -790.507
419.577;12032.634; -160.283; -123.489
419.866;39299.015; -588.277; -498.501
420.156;40166.752; -242.270;  -55.513
420.446; 7219.236; -112.263;  -26.526
420.735;  785.371; -376.271; -446.512
421.025;  811.153; 1830.722;  315.502
421.314;  582.719; -203.271; -226.512
421.604; 1137.290;   89.732;  233.484
421.893;  661.565; -705.271; -602.511
422.183;  232.111; -487.263; -461.526
422.472;  362.267;  -36.271; -107.511
422.762;  405.366; -416.266; -379.521
423.051;  236.427; -916.276; -916.503
423.341;  291.473; -491.273; -439.507
423.630;  396.122; -121.265;   15.477
423.919;  379.209;   58.725;   49.495
424.209;  384.767;  -31.263;   56.473
424.498;  496.445;   68.732;  161.483
424.787; 1073.377; -535.267; -601.518
425.077; 3340.295;   34.735;   29.478
425.366; 4446.598; -734.262; -744.528
425.655;10114.673;  639.727;  259.493
425.945;22893.402; -313.247; -268.554
426.234;12783.120;  117.741;  300.467
426.523; 5115.900;  -86.259; -350.534
426.812; 7080.362;  107.734;  159.480
427.101;10451.962; -127.269; -323.515
427.390;13092.981;  -55.270;  -86.514
427.680; 2710.620; -624.257; -411.538
427.969;  449.931; -330.255; -301.540
428.258;  293.012; -385.257; -477.536
428.547;  511.560;  449.728;  397.490
428.836; 1038.297; -421.253; -398.543
429.125; 1524.802; -199.259;  -72.534
429.414;  746.845; -330.251; -294.548
429.703; 3178.545; -231.251; -213.548
429.992; 9558.374; -938.250; -828.549
430.281; 6315.679; -397.264; -331.524
430.570;  560.261;  -21.252;   32.454
430.859;  488.550;  279.741;  352.466
431.148;  400.998;  636.752;  631.446
431.437;  288.760;  391.748;  367.454
431.725;  150.763; -544.257; -481.536
432.014;  127.255; -845.253; -756.545
432.303;  335.524; -149.239; -105.569
432.592;  565.211; -460.263; -178.525
432.881; 1029.599; -601.248; -437.554
433.169; 6450.007; -343.255;  -61.540
433.458;12975.283;  445.765;  540.424
433.747; 5500.253; -397.261; -289.529
434.036;  808.775; -275.242; -280.564
434.324; 2088.686; -395.249; -379.551
434.613; 3731.168;   40.757;  159.437
434.902; 1216.889;  333.760;  439.433
435.190;  434.972;   75.761;  295.431
435.479;  259.375;  -52.245;   83.441
435.767;   85.683; -411.244; -427.561
436.056;  179.020; -340.242; -294.563
436.345;  358.266; -372.240; -223.568
436.633;  381.881;   60.750;  383.450
436.922;  254.293;  208.760;  414.432
437.210;  438.148; -194.236;    1.426
437.499; 1375.731; -583.235; -432.576
437.787; 1554.597; -339.236;  -10.574
438.075;  422.828;   56.761;  162.430
438.364;  539.081;  -44.238;  250.429
438.652;  323.386; -286.226; -138.592
438.941;  116.300;    3.770;  269.415
439.229;  -13.642; -665.252; -466.545
439.517;   40.839; -160.234;  -85.577
439.806;  -16.574; -501.225; -290.595
440.094;  177.847;  377.766;  650.421
440.382;  112.326; -653.233; -302.580
440.670;  147.280; -361.235; -285.576
440.959;   19.369; -347.223; -170.599
441.247;   69.561; -151.229; -109.587
441.535;   78.712; -266.235;   31.423
441.823;   30.744; -497.234; -305.578
442.111;  172.040;  173.771;  327.412
442.400;  412.649; -628.245; -335.559
442.688; 1047.121; -111.234; -620.579
442.976;  738.907; -786.213; -450.617
443.264;   79.258; -324.224; -364.597
443.552;  100.987; -258.226;   51.408
443.840;  150.436;  602.765;  876.423
444.128;  110.100;  265.767;  269.420
444.416;    9.318; -694.228; -312.588
444.704;   15.424; -465.219;  -92.605
444.992;   67.590;   -0.226;  240.407
445.280;   40.300; -517.230;  -94.585
445.568;   12.510; -694.212; -396.618
445.856;  277.858; -174.221;  357.398
446.143;  561.120;  -54.220;   -7.604
446.431;  498.547;  -25.228;  625.411
446.719;  213.993;  489.783;  675.391
447.007;  180.145;  481.769;  705.416
447.295;  170.541;  597.777;  871.402
447.583;   78.009; -464.229;  -34.587
447.870;  129.904; -434.221; -202.601
448.158;  336.324; -104.230;  129.415
448.446;  258.671; -800.219; -338.604
448.733;  136.985;   13.776;  269.403
449.021;  245.435;   60.788;  341.382
449.309;  172.550; -296.210;  208.379
449.596;  207.239;  128.783;   59.392
449.884;  145.223; -571.222; -325.600
450.172;  158.402; -756.227; -406.590
450.459;  470.465;  645.786;  780.387
450.747; 2506.713; -411.218; -147.608
451.034; 8014.373;  493.772;  889.411
451.322; 6661.468; -413.214; -170.614
451.609;  558.061;  292.777;  508.403
451.897;  620.063; -550.203; -183.634
452.184; 1850.641; -622.223; -400.598
452.472; 1758.271;   97.792;  269.375
452.759;  336.272;  512.781;  864.395
453.047;   82.958; -407.212; -125.617
453.334;   55.729; -732.219; -216.606
453.621;   54.745; -438.214; -161.615
453.909;  116.505;   13.796;  384.368
454.196;   97.801; -299.199; -123.641
454.483;  199.801;  317.798;  540.364
454.771;  119.674; -215.208;  196.374
455.058;   31.003; -316.207;  102.374
455.345;  116.331;   71.807;  344.347
455.632;  103.656; -128.207;  235.373
455.919;   56.198;  -82.196;  182.354
456.207;  -52.995; -774.198; -450.642
456.494;   -7.637; -475.200;  -66.639
456.781;   22.897; -399.202; -198.635
457.068;   52.063; -253.206;  -29.628
457.355;   -4.011; -698.206; -401.629
457.642;  -13.231; -552.205; -290.630
457.929;    4.822; -778.194; -417.651
458.216;   62.983; -575.212; -354.617
458.503;  247.627; -173.193;  -19.652
458.790;  253.222; -864.208; -630.625
459.077;  268.952;  -77.202;  110.364
459.364;  813.490; -350.195; -210.649
459.651; 1753.161;  -46.206;  220.372
459.938;  797.013; -864.209; -665.623
460.225;  138.080;  132.799;  276.363
460.512;  -45.005; -836.197; -688.645
460.799;   98.911;  -32.218;  320.392
461.086;   65.118; -370.200; -251.640
461.372;   31.655; -509.198; -279.642
461.659;   87.199; -165.196;  108.354
461.946;   55.550; -445.193;  -54.651
462.233;  239.765;  842.800;  888.361
462.519;  330.137; -814.201; -464.639
462.806; 1014.746; -768.197; -497.645
463.093;  908.696; -445.191;  -66.656
463.380;  -27.438; -920.186; -824.664
463.666;   50.323; -259.197;  -18.646
463.953;   92.960; -406.195; -243.648
464.239;  200.610; -173.195;  -77.648
464.526;  371.470;  413.806;  743.350
464.813;  319.958; -565.190; -304.658
465.099;  331.301;  606.807;  607.348
465.386;  302.255;  903.807;  921.348
465.672;    4.921; -694.197; -522.645
465.959;   18.600; -598.188; -520.662
466.245;   10.805; -468.193; -359.652
466.532;   79.857; -109.195;   63.352
466.818;   51.187; -357.186; -216.664
467.104;    1.352; -488.182; -415.672
467.391;  -38.016; -628.189; -459.658
467.677;   28.116; -289.186;    9.335
467.964;  -14.084; -682.189; -471.660
468.250;   54.118; -331.186; -160.665
468.536;   74.036;   90.811;  180.341
468.822;  -28.820; -821.184; -574.668
469.109;  144.583;  351.827;  471.311
469.395;  209.290;  729.808;  787.346
469.681;  195.564;   46.811;  156.341
469.967; 1295.243; -699.188; -382.660
470.254; 2795.076; -494.188; -306.662
470.540; 1803.973; -601.196; -476.646
470.826;  246.113; -488.181; -397.675
471.112;  323.159;  288.816;  113.331
471.398;   77.988; -253.183;  -58.670
471.684;   37.742; -626.177; -447.680
471.970;   -5.333; -918.180; -981.675
472.256;   22.289; -521.192; -441.654
472.542;   19.619; -499.171; -434.691
472.828;   21.698; -743.182; -607.672
473.114;   15.888; -380.166; -283.700
473.400;    6.333; -504.175; -293.684
473.686;   23.144; -452.166; -400.701
473.972;   45.973; -230.174; -131.687
474.258;  -37.817; -925.173; -843.689
474.544;  218.108; -183.178;   -2.679
474.830;  335.685;  -65.175;   45.316
475.116;  525.234; -123.190; -196.658
475.401;  722.994; -558.180; -467.676
475.687;  212.018; -725.180; -718.676
475.973;   -9.344; -673.181; -770.673
476.259;  249.937;  736.825;  764.315
476.544;  354.925; -539.176; -437.682
476.830;  886.790; -398.172; -322.690
477.116;  761.223; -430.177; -336.682
477.401;  164.294;  346.820;  358.324
477.687;  -16.917; -289.175; -405.684
477.973;   36.035;   21.819;   28.326
478.258;   -3.486; -448.163; -348.706
478.544;   50.774;   21.815;   61.334
478.829;  -73.500; -818.171; -738.692
479.115;  -44.335; -749.172; -651.690
479.401;  -16.832; -444.174; -449.686
479.686;   34.593; -253.180;  -74.676
479.972;  -36.286; -886.178; -776.680
480.257;   41.614; -258.166;  -65.700
480.542;   -6.697; -614.170; -469.693
480.828;  251.057; 1288.824; 1392.317
481.113;  -41.896; -464.176; -426.683
481.399;   -5.787; -236.161; -202.711
481.684;  -68.886; -620.166; -462.700
481.969;   22.652; -158.159;  -73.713
482.255;  -13.261; -439.169; -285.695
482.540;    2.364; -569.178; -441.680
482.825;   -1.343; -395.187; -404.663
483.110;  104.492;  -85.169; -105.696
483.396;  203.348; -840.157; -652.718
483.681;  531.648;  543.826;  730.313
483.966;  165.146; -696.160; -700.712
484.251;   -1.503; -404.174; -310.687
484.536;   -8.801; -356.165; -378.703
484.822;    8.025; -205.173; -218.687
485.107;  -23.288; -599.152; -502.726
485.392;  135.305;  662.836;  541.296
485.677;   84.152;  354.832;  163.302
485.962;  114.971;  160.843;  270.283
486.247;   90.897;  -14.162;   -8.707
486.532;   55.290; -178.166; -325.701
486.817;  169.333;  381.839;  431.291
487.102;  107.945; -453.154; -514.722
487.387;  712.625; -637.156; -652.718
487.672; 1256.410; -154.164;  -38.705
487.957;  796.090; -394.160; -286.711
488.241;  231.803; -290.150; -314.729
488.526;  791.088; -280.152; -148.726
488.811; 1278.866; -881.177; -818.680
489.096;  958.122; -666.154; -702.723
489.381;  507.284;    3.847;  162.275
489.666;  416.563; -428.161; -510.710
489.950;  198.150;  558.846;  627.277
490.235;  -31.277; -480.151; -458.728
490.520;  -41.238; -756.161; -723.710
490.804;  -54.923; -827.156; -736.719
491.089;   10.519; -469.149; -299.732
491.374;   36.059; -132.164;  -75.704
491.658;    2.931; -817.147; -717.735
491.943;  138.767; -657.152; -609.727
492.227;  251.365; -178.155;  -38.721
492.512;   51.870; -294.157; -341.717
492.797;  -62.862; -713.149; -716.731
493.081;  -56.767; -588.147; -598.735
493.366;  -33.511; -751.161; -635.711
493.650;  210.636;  831.859;  917.254
493.935;   39.480; -648.147; -447.734
494.219;  -58.126; -778.142; -687.743
494.503;  -36.817; -585.150; -487.730
494.788;   40.362;   46.842;   74.285
495.072;  110.980;  184.850;  434.271
495.356;  154.522; -463.148; -343.733
495.641;  434.190; -812.146; -736.736
495.925;  407.807; -976.156; -903.719
496.209;   34.993; -599.149; -451.732
496.494;  -54.301; -763.142; -544.744
496.778;    5.370; -364.154; -360.722
497.062;  -63.193; -819.156; -627.719
497.346;  -28.808; -869.160; -640.711
497.631;  155.451;  580.852;  560.266
497.915;   80.225;  -64.145;  175.261
498.199;   53.823; -341.157; -277.718
498.483;   29.611; -562.152; -508.725
498.767;  210.781;  301.850;  300.271
499.051;  212.216; -126.149; -100.732
499.335;   35.614; -693.149; -739.731
499.619;  -21.562; -381.129; -423.767
499.903;   12.639; -272.155;  -65.721
500.187;   24.327; -588.153; -316.724
500.471;    7.216; -796.152; -595.727
500.755;  101.287;   62.839;  -96.710
501.039;   12.390; -270.155; -357.721
501.323;   87.713;  -21.141;  264.254
501.607;    7.065; -447.163; -503.706
501.891;   -2.825; -607.156; -512.718
502.174;  -55.013; -726.144; -585.741
502.458;   77.620;   89.849;  370.273
502.742;   49.237; -180.138; -191.751
503.026;  118.079; -412.147; -254.734
503.310;  186.501; -437.159; -375.713
503.593;  139.881; -464.147; -325.735
503.877;  106.327; -232.133; -156.760
504.161;  165.954;    2.847;  -50.724
504.444;  122.989; -841.158; -710.716
504.728;  494.333; -487.164; -522.704
505.012;  761.153; -257.150;  -76.729
505.295;  559.238; -417.161; -212.711
505.579;  558.032; -256.156; -496.719
505.862;  815.172; -555.145; -333.738
506.146;  783.303; -681.159; -758.714
506.429;  449.079;  568.841;  461.286
506.713;   65.825; -732.151; -667.728
506.996;  340.919;   90.846;  295.278
507.280;  352.603; -633.165; -474.703
507.563;  256.763; -469.155; -261.721
507.847;   94.178; -423.153; -112.724
508.130;   94.214; -665.161; -456.711
508.413;  136.060; -758.167; -577.700
508.697;  268.010; -151.167;   12.300
508.980;  162.479; -422.153; -312.724
509.263;    3.334; -466.155; -450.720
509.547;   35.552; -124.150;   82.271
509.830;   57.891; -172.160;  140.289
510.113;   77.881;  128.844;  298.281
510.396;   27.585; -530.152; -300.725
510.680;  113.148; -818.145; -812.738
510.963;  480.249;  184.846;  180.277
511.246;  402.735; -493.150; -357.730
511.529;  283.028; -482.145;  -83.739
511.812;  398.924; -250.134;   10.241
512.095;  290.022; -740.151; -396.728
512.378;   83.135; -317.147; -245.736
512.661;   29.295; -703.137; -623.753
512.944;   24.826; -750.142; -637.744
513.227;   67.592; -170.137; -171.752
513.510;   22.137; -479.144; -671.741
513.793;   38.718; -485.140; -435.747
514.076;  134.559;  -43.127;  -39.771
514.359;  114.544; -294.149; -135.732
514.642;   87.429; -442.142; -567.744
514.925;  798.091;  581.860;  561.253
515.208; 1078.545; -498.134; -443.758
515.491;  710.334; -276.133; -182.761
515.773;  393.265; -410.143; -337.742
516.056; 2222.701;  249.864;  409.246
516.339; 2955.530; -754.136; -652.755
516.622; 1841.158; -518.150; -488.730
516.904; 1011.247;  882.857;  975.257
517.187;  445.266; -730.138; -523.752
517.470;  372.946; -568.143; -510.743
517.752;  477.658; -624.136; -470.756
518.035;  379.853; -708.139; -725.749
518.318;  407.280; -799.136; -744.755
518.600; 2649.138; -300.132; -325.762
518.883; 3614.828;  310.858;   88.256
519.165; 1764.733; -585.138; -426.751
519.448;  389.387;  -61.132;  -19.762
519.730;  175.916; -573.126; -415.773
520.013;  287.830;  588.867;  664.240
520.295;  655.676;  -94.134;  -15.759
520.578; 1444.176; -335.131; -305.764
520.860; 1668.488; -254.132;   56.238
521.143;  900.435; -763.135; -584.756
521.425;  475.704; -251.125; -279.775
521.707;  716.434; -622.127; -380.771
521.990; 1899.759; -199.127;  167.229
522.272; 2198.819; -116.140;   -4.748
522.554;  930.941; -237.143; -157.742
522.836;  321.349;  -24.134;   99.241
523.119;  203.478; -496.148; -189.734
523.401;  151.182; -448.130; -314.766
523.683;   87.895; -865.137; -693.753
523.965;  322.564;  408.862;  260.248
524.247;  301.550;   54.878;  170.220
524.529;  211.176; -451.134; -367.759
524.812;  363.684;   -3.130;  191.234
525.094;  914.063; -773.138; -631.751
525.376; 1453.163; -143.124;   78.223
525.658;  906.777; -441.136; -339.754
525.940;   42.422; -805.131; -671.764
526.222;   35.981; -188.136;  -88.755
526.504;   92.970; -190.131;   32.237
526.786;  123.903; -960.133; -647.760
527.068;  245.694; -124.123;  -67.778
527.349;   92.099; -865.137; -774.754
527.631;  114.487; -137.132;   22.238
527.913;  157.958; -664.127; -450.771
528.195;  193.022; -761.125; -639.774
528.477;  257.946;  -93.134;  -30.758
528.759;  165.084; -648.130; -522.766
529.040;   82.992; -569.123; -293.778
529.322;   56.900; -235.125;  -10.774
529.604;  130.311;  -47.130;   93.233
529.886;   89.091; -546.126; -302.773
530.167;  118.678;  232.870;  192.235
530.449;   59.085;    1.853;   63.265
530.731;   26.049; -572.122; -459.779
531.012;   85.520; -513.120; -216.784
531.294;   98.909; -118.116;  -43.792
531.575;  161.779;  290.875;  538.225
531.857;   60.740; -548.135; -266.757
532.138;   82.787; -113.141;   40.254
532.420;  163.112;  294.865;  403.244
532.701;  188.155; -722.133; -751.760
532.983;  305.509;  232.867;  182.239
533.264;  110.864; -243.126;  175.228
533.546;  -26.444; -491.136; -508.755
533.827;   28.327;  173.867;   -1.759
534.109;   38.690; -352.135;  -80.757
534.390;   85.591; -725.132; -582.762
534.671;  239.911; -270.135;  -82.756
534.953;  142.345; -751.123; -611.779
535.234;   40.744; -426.117; -255.789
535.515;  -77.546; -891.119; -735.785
535.796;   -6.771; -431.128; -193.770
536.078; -112.637;-1050.124; -904.777
536.359;   20.321;  -22.123;    3.221
536.640;  -32.501; -480.125; -197.774
536.921;  148.267;  225.871;  143.232
537.202;  386.010;  -87.138;  -16.751
537.483;  491.325;  251.869;  377.236
537.764;  199.528;   17.870;   98.235
538.045;  -27.455; -543.134; -371.758
538.326;  -45.107; -596.129; -447.768
538.607;   32.685; -686.127; -476.771
538.888;  196.361;   98.879;    5.218
539.169;  199.556; -704.122; -535.781
539.450;  341.366;  236.871;   16.233
539.731;  227.490; -361.121; -182.783
540.012;  119.395;  199.880;  412.216
540.293;   83.232;   82.876;  158.224
540.574;    6.330; -895.113; -717.796
540.855;  453.414;  435.879;  377.218
541.136;  509.353;   47.878;  139.220
541.416;  320.310; -161.130; -220.766
541.697;  219.421; -274.131; -170.763
541.978; 1118.514; -270.135; -315.757
542.259; 1394.035; -211.127; -236.771
542.539;  671.803; -191.116; -186.790
542.820;  200.529;  461.875;  480.225
543.101;  122.800;  -52.145;  -77.738
543.381;   35.484; -638.127; -591.771
543.662;  273.632;  159.873; -254.771
543.942;  596.530; -751.127; -830.770
544.223; 1140.105;  193.878;  161.219
544.504;  732.738; -275.124; -182.777
544.784;  636.941; -592.126; -408.773
545.065; 1735.407;  104.884; -254.791
545.345; 2060.079;  227.881;   14.215
545.626; 1371.129;  -14.113; -108.796
545.906;  945.303;   77.869;   98.235
546.186;  393.745;   92.874;  -95.773
546.467;  210.515;   99.877;  -95.778
546.747;  337.828;  264.884;  327.210
547.027;  413.911;   91.876;  111.223
547.308;  344.504; -376.127; -530.770
547.588;  413.469;  299.871;  371.232
547.868;  213.829;  458.870;  588.235
548.149;  230.839;  609.885;  593.207
548.429;  153.808; -347.127; -299.771
548.709;  221.370; -645.120; -461.784
548.989;  523.013;   84.882;   88.213
549.269; 2300.486;   10.868;  139.239
549.550; 5154.219;  215.877;  117.222
549.830; 4640.072; -758.111; -556.799
550.110;  937.030; -468.110; -320.801
550.390;  888.575; -128.122;  -56.779
550.670; 1213.250; -868.114; -783.795
550.950;  868.013; -509.121; -471.782
551.230;  198.360;  549.879;  460.218
551.510;    8.212; -381.121; -326.782
551.790;   39.738; -173.109; -127.803
552.070;  278.915;  940.877; 1181.223
552.350;  438.358; -492.119; -377.786
552.630;  635.382;   -2.121;   77.219
552.909;  386.307;  181.884;   73.209
553.189;  254.167;  -49.132;   33.237
553.469;  216.757; -703.119; -514.786
553.749;  227.561; -469.127; -357.772
554.029;  181.723;   33.883;  -24.790
554.308;  166.043; -154.115;  -37.794
554.588;   70.528; -196.128; -204.770
554.868;   92.664; -366.121;  -47.782
555.147;  161.766; -114.115;  -46.793
555.427;  676.635; -260.116; -250.792
555.707; 4170.589; -284.115; -200.793
555.986; 5057.850; -719.111; -538.800
556.266; 2706.702;   23.884;   72.210
556.546;  136.362; -888.121; -675.782
556.825;  290.623; -657.114; -556.794
557.105; 1946.576; -125.128;   17.230
557.384; 2213.231;  122.884;  187.209
557.664;  884.584; -717.116; -508.792
557.943;  148.138; -557.121; -411.782
558.222;  193.466; -345.118; -344.788
558.502;  294.292; -116.115;  -76.793
558.781;  531.513;  194.885;  499.208
559.061;  447.566; -232.118; -227.788
559.340;  313.371;  302.883;  353.211
559.619;  779.902;   93.884;  148.210
559.899; 1114.398; -239.117; -266.789
560.178; 1010.892; -778.115; -593.793
560.457; 3410.650; -623.117; -562.790
560.736; 4685.177; -472.111; -482.800
561.015; 3154.774; -500.128; -502.769
561.295;  427.707;  180.893;  215.193
561.574;  381.664;  119.885;  116.207
561.853;  534.392;  274.891;  303.197
562.132;  520.869;  -45.114;  182.206
562.411;  464.183;  396.879;  553.219
562.690;  155.187; -592.115; -458.792
562.969;  153.686;  472.888;  630.203
563.248;  519.380; 2966.878; 2487.219
563.527;  289.726; -290.111; -408.800
563.806;  431.333; -650.127; -521.771
564.085;  430.698; -297.105; -206.810
564.364;  272.401; -594.117; -405.790
564.643;  556.058; -276.121; -223.781
564.922; 2032.686;  221.890;  397.198
565.201; 2025.464; -640.109; -700.803
565.479;  898.461; -297.115; -219.792
565.758;  344.001; -810.128; -712.770
566.037;  518.491; -155.109; -100.803
566.316;  255.657; -286.116;  -28.791
566.595;   52.214;  -17.115;  -12.793
566.873;  108.078; -166.111;  -79.801
567.152;  -52.414; -490.113; -590.797
567.431;   16.528; -113.116;    6.210
567.709;   29.108; -344.107; -212.807
567.988;  278.973; -810.114; -769.794
568.266;  574.689; -160.115;  -68.793
568.545;  418.920; -644.100; -514.819
568.824;  640.710;  160.885;  356.208
569.102;  606.622; -351.114; -235.794
569.381;  268.760; -492.116; -407.792
569.659;  -33.418; -553.113; -553.796
569.938;   46.279; -743.122; -465.780
570.216;  117.243; -225.109; -225.804
570.494;  -27.349; -632.114; -572.795
570.773;   25.137;  202.879;  114.218
571.051;    8.518; -373.123; -357.778
571.330;   78.330; -221.113; -174.796
571.608;   46.762; -181.098; -173.823
571.886;  -67.630; -671.111; -581.799
572.164;  -58.811; -739.121; -621.782
572.443;  -37.749; -562.105; -512.811
572.721;  -31.900; -399.117; -289.790
572.999;  -23.107; -280.117; -168.788
573.277;   96.195;  379.894;  620.191
573.555;  307.772;   94.894;   37.190
573.834; 1495.693;  -86.117; -114.788
574.112; 1711.285;  880.893;  811.193
574.390;  518.802; -143.111;  -96.801
574.668;    1.287;  -91.112;  -61.797
574.946;  -11.703; -165.106; -187.810
575.224;    7.389;   71.891;  -16.803
575.502;  -16.271; -200.116; -204.791
575.780;  -79.262; -767.112; -829.798
576.058;  216.226; 1589.889; 1004.200
576.336;  -14.468; -210.110; -129.801
576.614;  -49.787; -511.112; -340.798
576.891;   58.468; -711.115; -823.794
577.169;  523.776; -158.108; -285.805
577.447;  616.559;  169.893;  202.193
577.725;  276.318;  629.888;  854.201
578.003;   20.291;  -71.112; -371.798
578.280;  102.535; -208.104; -242.812
578.558;   73.017; -450.115; -422.793
578.836;  128.000; -210.114; -145.795
579.114;   33.712; -630.112; -670.797
579.391;   74.395;   -6.117;  -18.789
579.669;  -72.456; -595.114; -704.794
579.947;  185.831; -326.107; -127.806
580.224;  345.681; -692.107; -524.806
580.502;  353.310;  127.893;   76.193
580.779;   30.801;  -42.117;   75.210
581.057;  -52.782; -584.109; -470.804
581.334; -100.250; -726.102; -695.815
581.612;   39.323;   54.895;  511.190
581.889;  -29.262;  -83.101; -129.818
582.167;  -37.297; -298.099; -190.821
582.444;  -97.867; -845.102; -814.817
582.721;  117.959;  657.899;  715.183
582.999;   68.175; -326.100; -167.821
583.276;  583.472; -812.123; -713.779
583.553;  747.878; -364.102; -294.816
583.831;  263.782; -607.104; -631.812
584.108;   66.824;  349.892;  174.195
584.385;   21.924; -122.102;  -98.815
584.662;  -67.871; -651.111; -828.801
584.940;   42.128;  204.889;  204.199
585.217;  -30.518;  -73.113; -303.796
585.494;   45.512;   71.890;  118.198
585.771;  222.919; -250.109; -354.804
586.048;  546.907; -196.113;  -76.796
586.325;  326.806; -721.110; -773.801
586.602;  108.711;  230.896;  213.188
586.879;   -5.454; -499.100; -580.820
587.156;   54.599; -156.105; -331.810
587.433;  -29.969; -701.102; -667.817
587.710;   80.964;  152.888;  234.202
587.987;  307.654; -264.105; -236.811
588.264;  814.765;  315.888;  387.202
588.541; 1409.138;  -61.104;   26.187
588.818; 2788.696;   72.892;  171.196
589.095; 2411.884; -163.104; -174.812
589.371;  404.692; -459.109; -414.804
589.648;   11.460; -581.107; -437.807
589.925;   48.726; -517.114; -621.795
590.202;   28.563; -741.112; -607.798
590.478;  104.906; -166.105;  -73.811
590.755;  288.177; -241.108; -132.806
591.032; 2681.983; -741.110; -699.802
591.308; 3613.202; -732.094; -790.831
591.585; 1929.483; -573.110; -560.802
591.862;  152.957;-1056.102; -950.817
592.138;   77.750; -475.108; -474.805
592.415;  163.011; -486.104; -495.813
592.691; 1540.009;  460.896;  518.188
592.968; 1951.489; -208.098; -123.824
593.244;  948.953; -695.116; -595.790
593.521;   82.283; -105.102;  -42.817
593.797;  -17.174; -810.122; -720.780
594.074;  349.377; -611.096; -588.826
594.350;  700.413;  828.905;  729.172
594.626;  316.604; -303.111; -283.801
594.903;  124.608; -643.101; -645.817
595.179;  200.865;  243.896;  418.187
595.455;   14.036; -136.107; -150.807
595.731;    7.617;  -19.103;  -38.814
596.008;  -32.177; -464.111; -434.800
596.284;   32.899; -187.100; -242.820
596.560;   77.184; -501.093; -493.833
596.836;  223.401; -173.105;  -70.810
597.112;  363.126; -582.108; -437.805
597.388;  304.775;  -49.097;  -48.826
597.665;  118.059;  437.887;  530.203
597.941;  -67.462; -572.089; -658.839
598.217;   28.186; -323.110; -293.802
598.493;  287.196;   61.891; -204.804
598.769;  555.568; -175.100;  -50.819
599.045;  328.429; -490.108; -562.806
599.321;   64.548; -193.100; -261.820
599.597;  162.270; -355.109; -476.804
599.872;  533.113;  409.896;  429.187
600.148;  387.726;  -61.097; -172.826
600.424;  332.959;   91.893;  202.193
600.700;  255.911; -170.107; -280.807
600.976;  142.246; -442.097; -464.825
601.252;  273.342; -226.109; -272.803
601.527;  234.464; -833.104; -840.813
601.803;  157.631; -453.105; -404.812
602.079;  208.968; -124.100; -118.819
602.354;  608.869; -620.092; -531.835
602.630;  866.057; -140.113; -482.796
602.906; 2531.513; -910.101; -863.818
603.181; 7125.132; -627.119; -534.786
603.457; 6067.399;   98.903; -278.826
603.733;  927.191; -605.120; -626.783
604.008; 1040.598; -245.106; -164.810
604.284; 3207.410; -636.101; -580.817
604.559; 2772.593;   -3.112;  -42.799
604.835;  513.375; -163.105; -225.810
605.110;  447.078; -732.099; -892.821
605.385;  721.737;  224.907;  267.167
605.661;  715.116; -625.095; -729.829
605.936; 1236.529; -664.108; -737.806
606.211; 1049.223;  -17.103; -170.815
606.487;  223.596; -329.114; -376.794
606.762;   25.758; -791.119; -745.786
607.037;   -2.424; -501.105; -433.810
607.313;  -55.466; -589.096; -574.828
607.588;   12.422; -375.106; -137.810
607.863;   50.588;  -28.101; -143.818
608.138;  192.960;  513.890;  516.198
608.413;   48.607; -576.099; -592.822
608.688;   56.725; -203.108; -267.805
608.964;  206.441; -509.106; -218.809
609.239;  274.848; -107.105; -212.810
609.514;  270.356;  281.895;  240.188
609.789;  683.260; -187.104; -716.812
610.064;  913.883; -435.096; -609.827
610.339;  966.017; -855.109; -799.804
610.614; 1279.923; -131.100; -315.820
610.889;  708.031;  215.895;  107.188
611.163;   50.007; -407.104; -591.812
611.438;   83.797;   81.886; -167.794
611.713;   12.535; -467.101; -499.817
611.988;   66.762; -144.101; -328.818
612.263;  -14.900; -771.102; -717.815
612.538;  228.231;  385.887;  251.204
612.812;  191.224; -832.100; -911.820
613.087;  159.737; -358.098; -338.823
613.362;  -49.839; -497.107; -557.807
613.637;   54.519;  261.897;  138.186
613.911;  -15.856; -256.092; -345.835
614.186;  150.684; -249.107; -292.807
614.460;  741.138; -842.081; -758.854
614.735;  843.962;  -55.087;  -17.843
615.010;  176.951;   43.912;  -82.841
615.284;  264.525;  360.892;  246.195
615.559;  386.218; -792.092; -955.835
615.833;  322.305;  -76.099;  -87.822
616.108;    5.030; -225.090; -390.837
616.382;  156.413;  274.913;  402.156
616.656;  174.905; -241.090; -232.837
616.931;  546.731; -785.099; -700.822
617.205; 1118.764; -973.104; -979.813
617.480; 1032.727;  -91.125;    6.225
617.754;  188.799; -396.125; -128.774
618.028;   31.520; -369.129; -382.768
618.302;   80.773;   73.892;  -25.805
618.577;  -42.579; -371.103; -518.815
618.851;  -54.486; -399.109; -600.803
619.125;  -39.349; -335.134; -378.759
619.399;  -41.410; -244.104; -374.813
619.673;  -39.614; -330.115; -515.792
619.947;  -34.375; -333.114; -448.795
620.222;    5.979; -198.110; -204.801
620.496;    8.639;  -47.121;  -96.782
620.770;   35.230; -187.122;  -93.781
621.044;  215.549;  323.895;  346.190
621.318;  767.892; -653.120; -614.783
621.592;  722.914; -430.121; -409.783
621.866;  393.394; -476.112; -572.799
622.140;   27.954; -207.116; -356.791
622.413;   66.148;  138.889;  112.200
622.687;  -38.640; -746.101; -492.817
622.961;   28.998; -130.108; -143.805
623.235;  -62.651; -633.111; -661.800
623.509; -108.919; -816.105; -848.811
623.783;    6.282;  -12.107;   48.193
624.056;  -13.857; -254.120; -280.783
624.330;   50.237;   63.888;   -3.797
624.604;   74.326; -271.116; -355.790
624.877;   78.984;  180.890;   26.198
625.151;   44.970; -249.114; -238.794
625.425;  -42.158; -150.103; -283.814
625.698;  -47.748; -367.119; -374.785
625.972;  -98.939; -799.110; -765.802
626.245;   83.753;  685.884;  484.210
626.519;  -46.128; -426.120; -340.784
626.792;  -27.789; -192.107; -380.807
627.066;  -93.827; -485.122; -662.779
627.339;  -92.293; -736.110; -663.802
627.613;   49.745;  351.880;  148.216
627.886;  -53.237;  187.891; -612.803
628.160;  -25.959;  312.880; -161.783
628.433;  -89.270; -695.125; -703.775
628.706;  -83.803; -517.120; -615.784
628.979;   31.511;  296.876;  117.223
629.253;  -86.718; -785.119; -833.786
629.526;  408.664; -334.126; -253.772
629.799;  362.718; -641.123; -479.778
630.072;  196.671; -497.128; -516.769
630.346;  -60.122;-1115.116;-1080.790
630.619;  497.762; -467.107; -545.808
630.892;  650.549;  709.889;  593.200
631.165;  358.565;  790.896;  679.187
631.438;  -76.009;-1092.112;-1055.798
631.711;   64.596;  453.877;  257.221
631.984;  -53.952; -523.117; -624.789
632.257;  -63.580; -636.117; -681.789
632.530;  -48.898; -412.119; -433.785
632.803;   32.443; -109.115;    7.207
633.076;  -62.235; -360.123; -422.777
633.349;   19.500;  173.872;  121.231
633.622;  -40.974; -187.119; -240.785
633.895; -124.507; -903.120; -823.783
634.167;  -66.509; -496.126; -525.773
634.440;  -14.066;  -19.116; -137.792
634.713;    4.956;  -22.119; -120.786
634.986;   98.290;  593.871;  453.233
635.258;  -76.834; -507.115; -597.793
635.531;   94.666;  742.882; -343.788
635.804;  -30.653; -303.117; -318.789
636.077;  -95.520; -830.116; -852.791
636.349;    0.839; -586.115; -474.793
636.622;  410.113; 1695.874; 1392.228
636.894;  262.497; -474.120; -909.784
637.167;  158.982; -836.127; -789.771
637.439;   23.379; -278.128; -213.770
637.712;  -48.335; -312.126; -293.772
637.984;  -87.894; -635.116; -707.791
638.257;  390.165;  515.877;  488.222
638.529;  556.156; -881.125; -924.776
638.802;  261.971; -508.128; -449.769
639.074; -104.395; -927.122; -952.781
639.346; -117.883; -942.135; -930.757
639.619;    5.152;  -79.142; -319.744
639.891;   -5.352;  -83.122; -168.779
640.163;  -79.425; -689.122; -756.780
640.435;   44.777;  273.878;  103.220
640.708;    8.004;  -72.122; -132.780
640.980;  -14.369; -366.122; -362.781
641.252;  207.933;  -25.121;  -71.781
641.524; 1836.359;  580.879;  573.219
641.796; 1844.411;-1094.121; -907.782
642.068;  346.638; -191.121; -300.782
642.340;  -65.235; -486.121; -566.783
642.613;   32.467;  294.880;  323.217
642.885;  -94.082; -787.120; -878.783
643.157;  -48.180; -810.120; -658.784
643.428;   66.897;  170.880;  218.216
643.700;  -78.401; -498.120; -425.784
643.972;  -46.199;  -16.119; -133.785
644.244;  -94.372; -474.119; -559.785
644.516;  -48.046; -250.119; -114.786
644.788;   70.206;  662.881;  548.214
645.060;  -18.642;  -12.119; -124.786
645.332; -100.965; -525.118; -535.787
645.603;   20.887;  479.882;  342.213
645.875;  -55.311; -334.118; -369.787
646.147;  172.490; 1487.882; 1242.212
646.418;  -56.308; -931.117; -918.788
646.690;  168.394; -714.117; -715.789
646.962;   58.646; -413.117; -451.789
647.233;   -6.452;   15.883;   11.211
647.505;  -98.150; -595.117; -475.790
647.776;   25.426;  328.884;  229.210
648.048;   -8.947; -248.116; -418.790
648.320;  -66.295; -752.116; -679.791
648.591; -146.293;-1055.116; -958.791
648.862;  -89.016; -505.116; -577.792
649.134;   20.661;  115.885;  198.208
649.405;  -43.913; -661.115; -618.792
649.677;  -60.511; -475.115; -598.793
649.948;   -9.259; -181.115; -296.793
650.219;   -9.057;  -37.115; -147.793
650.491;  -92.380; -431.114; -520.794
650.762; -114.929; -705.114; -731.794
651.033;  -85.052; -437.114; -424.795
651.304;  -88.800; -743.114; -728.795
651.576;  -66.998; -680.114; -645.795
651.847;  -28.046; -250.113; -140.796
652.118;  -22.219;  -32.113; -189.796
652.389; -106.468; -639.113; -722.796
652.660;  -30.616; -147.113;  -89.797
652.931; -149.914; -897.112; -871.797
653.202;  -86.112; -382.112; -541.798
653.473;  -58.710; -633.112; -533.798
653.744;  140.717; -595.112; -590.798
654.015;  150.843; -356.112; -303.799
654.286;  -72.405; -642.111; -663.799
654.557;  -55.078; -586.111; -521.799
654.828; -159.176;-1114.111;-1088.800
655.099;  -81.799; -404.111; -291.800
655.370;  -92.872; -427.111; -543.801
655.641; -118.396; -656.110; -714.801
655.911; -118.169; -618.110; -638.801
656.182;   50.508;  437.890;  387.198
656.453;   96.285;  830.890;  746.198
656.724;  -78.413; -466.110; -426.802
656.994;  -92.036; -553.109; -568.803
657.265; -118.610; -862.109; -873.803
657.536;  -94.358; -500.109; -377.804
657.806; -107.931; -561.109; -593.804
658.077; -143.254; -866.109; -950.804
658.347;  -85.152; -523.108; -598.805
658.618; -117.000; -646.108; -694.805
658.888;  -13.224;  -41.108;  112.195
659.159;  -75.972; -432.108; -548.806
659.429;   -4.670; -292.108; -349.806
659.700;   16.007; -435.107; -390.807
659.970;   -2.116; -370.107; -359.807
660.241;   17.885; -754.107; -921.807
660.511;  522.687; -147.107; -174.808
660.781;   88.914; -793.106; -748.808
661.052;  -30.959; -222.106; -381.808
661.322;  -22.107;   21.894;   -9.809
661.592;   12.420;  257.894;  148.191
661.862;  -91.729; -369.106; -382.810
662.133;  -97.027; -551.105; -502.810
662.403; -124.075; -770.105; -676.810
662.673;  -60.248; -256.105; -213.811
662.943; -106.096; -612.105; -551.811
663.213;    4.656;  -85.105;  -81.811
663.483;  -83.693; -593.104; -568.812
663.753;  -36.541; -194.104; -152.812
664.023;   -8.389;   68.896;  -32.813
664.293;  -50.737; -319.104; -126.813
664.563; -126.810; -694.104; -648.813
664.833; -123.108; -743.103; -608.814
665.103; -144.707; -730.103; -793.814
665.373; -113.555; -766.103; -806.814
665.643;  -86.003; -863.103; -918.815
665.913;   49.674; -534.103; -714.815
666.182;  146.526; -685.102; -719.816
666.452;  291.403;  -22.102;  -89.816
666.722;   -7.896; -724.102; -784.816
666.992; -130.169; -948.102; -921.817
667.261; -115.667; -824.102; -808.817
667.531;  198.235;  134.899;   45.183
667.801;  526.612; -440.101; -412.818
668.070;  248.313;  714.899;  697.182
668.340; -104.610; -883.101; -840.819
668.609;  109.967;  588.900;  301.181
668.879;  -76.581; -490.100; -558.819
669.149;  -70.679; -539.100; -516.820
669.418; -105.452; -698.100; -726.820
669.688;  -19.401; -482.100; -666.820
669.957;   70.201; -423.099; -546.821
670.226;  -10.247; -268.099; -331.821
670.496;  -78.670; -431.099; -635.822
670.765;  -76.518; -418.099; -501.822
671.034; -137.966; -872.099; -828.822
671.304;  -15.790;   55.902; -111.823
671.573; -164.638;-1085.098; -957.823
671.842;   79.389; -380.098; -294.823
672.112;   45.491; -692.098; -586.824
672.381;    2.818; -239.098; -214.824
672.650; -138.905;-1005.097;-1021.825
672.919;  -90.679; -631.097; -507.825
673.188;  -90.302; -681.097; -878.825
673.457; -147.500;-1101.097;-1143.826
673.726;  -74.148; -579.096; -646.826
673.995;  -24.746; -533.096; -479.826
674.265;  -27.519; -263.096; -333.827
674.534;   15.382; -183.096; -235.827
674.802;   10.884; -618.096; -703.828
675.071; 1123.911; -886.095; -801.828
675.340; 4126.263; -464.095; -339.828
675.609; 1388.815;  103.905;   82.171
675.878;   81.966; -949.095; -893.829
676.147;   57.643;  -26.095;   -8.829
676.416;   99.870; -210.094; -294.830
676.685;  790.572; 1000.906; -622.830
676.953;  124.174; -603.094; -452.831
677.222;  -36.474; -193.094; -273.831
677.491;  -19.073;  -24.094; -127.831
677.759;   -7.746;   11.907;  172.168
678.028;   -8.519; -279.093; -222.832
678.297;   -0.292;   71.907;  197.168
678.565; -160.740; -898.093; -944.833
678.834;  -54.513; -311.093; -268.833
679.102;  -81.262; -411.092; -391.834
679.371; -132.035; -898.092; -727.834
679.639; -139.558; -797.092; -786.834
679.908; -103.481; -794.092; -724.835
680.176; -153.704; -895.091; -941.835
680.445;  -66.252; -346.091; -352.835
680.713;   -4.451;  -58.091;  -23.836
680.982;  -89.749; -523.091; -525.836
681.250; -109.697; -578.091; -507.837
681.518;  -95.545; -534.090; -751.837
681.787;  -12.068; -204.090; -167.837
682.055;  -60.391; -490.090; -422.838
682.323; -130.515; -993.090; -992.838
682.591;   41.937; -216.090; -538.838
682.859;   79.464;    9.911;  -35.839
683.128;   25.991;  232.911;  497.161
683.396; -151.207;-1102.089;-1122.840
683.664;  -32.131; -241.089;   21.160
683.932;   10.096;  144.911;  -76.840
684.200;  -78.377; -576.088; -320.841
684.468;  -27.800;  -73.088; -124.841
684.736;  -28.698; -214.088; -175.841
685.004; -123.121;-1024.088; -982.842
685.272;  -37.945; -880.088; -774.842
685.540;  -62.343; -499.087; -557.843
685.808;  -81.516; -651.087; -682.843
686.076; -105.114; -894.087; -969.843
686.343;  -62.387; -601.087; -815.844
686.611;   45.140; -195.087; -224.844
686.879;  521.916; -530.086; -553.844
687.147; 3465.768; -483.086; -480.845
687.414;  982.370;  -12.086; -169.845
687.682;   17.297; -658.086; -757.846
687.950;  321.924;  259.915;  263.154
688.217;   11.401; -792.085; -760.846
688.485;    1.577; -632.085; -636.847
688.753;  570.779;  -11.085; -102.847
689.020;  194.081; -820.085; -851.847
689.288; -101.567; -853.084; -787.848
689.555;  -36.965; -195.084; -148.848
689.823;  -44.963; -241.084; -345.849
690.090;  -76.587; -546.084; -651.849
690.358; -157.235; -877.084; -897.849
690.625;   19.542;  120.917;   45.150
690.892;  -75.256; -403.083; -369.850
691.160;  -26.204;   72.917;  -35.850
691.427;    7.448;  141.917;  130.149
691.694; -129.101; -855.083; -929.851
691.962; -155.374;-1177.082;-1060.852
692.229;   18.753;  127.918;   56.148
692.496;   87.955;  130.918;  -49.852
692.763;    9.982; -164.082; -201.853
693.031;  -74.542; -739.082; -716.853
693.298;  -40.965; -509.081; -368.853
693.565;  338.587; -155.081; -163.854
693.832; 1345.114;   -5.081;   -9.854
694.099;  158.391; -643.081; -642.855
694.366;  -52.207; -882.081; -896.855
694.633;  -60.531; -920.080; -633.855
694.900;  783.596; 4367.920; -114.856
695.167;  436.073; -214.080; -380.856
695.434;   95.925; -646.080; -623.856
695.701;  189.827;  121.921;  -61.857
695.968;  497.604; -365.079; -361.857
696.234; 1041.505; -415.079; -646.858
696.501;10237.832; -776.079; -614.858
696.768; 5045.309; -554.079; -617.858
697.035;  301.461; -632.078; -667.859
697.302;   19.838; -448.078; -552.859
697.568;   -8.860; -458.078; -497.859
697.835;  -48.884; -683.078; -624.860
698.102;  -22.257; -498.078; -407.860
698.368;   67.745;  384.923;  396.139
698.635;  -45.353;  -47.077; -424.861
698.901;  -13.151; -240.077; -348.861
699.168;   85.126; -534.077; -456.862
699.435;   69.352;  -72.077;  -13.862
699.701;  -97.146; -868.076; -764.862
699.968;  -59.344;  144.924; -441.863
700.234; -103.492; -783.076; -822.863
700.500;  -52.690; -448.076; -539.864
700.767;    5.711;   -1.075;   26.136
701.033; -119.262;-1015.075; -963.864
701.299;  -51.485; -450.075; -483.865
701.566;  124.142;  950.925;  763.135
701.832;   34.144;  -31.075;  -76.865
702.098;  -95.804;-1054.074;-1034.866
702.365;  -84.678;-1098.074;-1030.866
702.631;  -16.576;-1038.074;-1063.867
702.897; 1439.526; -765.074; -676.867
703.163; 2255.628;  348.926;  254.133
703.429;  155.905; -256.073; -273.868
703.695;  -37.818; -796.073; -792.868
703.961;   29.433; -214.073; -210.868
704.227;  -63.565; -630.073; -725.869
704.493;  142.262;  613.927;  510.131
704.759;  -23.411; -565.072; -540.870
705.025;   42.716; -203.072; -194.870
705.291;  -13.657; -666.072; -562.870
705.557;  197.694;  719.928;   34.129
705.823;   26.571; -742.072; -694.871
706.089;  133.698; -307.071; -326.871
706.355;  346.150; -315.071; -244.872
706.620; 5377.652; -776.071; -729.872
706.886; 7381.129; -309.071; -362.873
707.152;  703.555; -818.070; -973.873
707.418;  -23.718;-1153.070;-1186.873
707.683;   10.409; -550.070; -530.874
707.949;  -49.814; -547.070; -578.874
708.215;  -11.662; -129.070; -207.874
708.480;  -24.211; -520.069; -420.875
708.746;  104.641;   68.931;   28.125
709.011;  -74.932; -578.069; -612.876
709.277;  -58.855; -538.069; -543.876
709.542;  -50.378; -428.069; -387.876
709.808;    9.374;  -59.068;   89.123
710.073;  -78.800; -577.068; -695.877
710.339;  -19.498; -242.068; -228.877
710.604;   88.279; -780.068; -845.878
710.869;  330.456; -277.068; -366.878
711.135;  -73.642; -715.067; -628.879
711.400;  -78.665; -507.067; -608.879
711.665;  -52.814; -404.067; -479.879
711.931;  -84.512; -661.067; -677.880
712.196; -120.510; -876.067; -954.880
712.461;  140.017; -402.066; -490.880
712.726;  132.819; -727.066; -771.881
712.991;  -86.904; -647.066; -664.881
713.256;  -46.928; -350.066; -332.882
713.521;  -52.126; -417.065; -381.882
713.787;  -54.724; -454.065; -472.882
714.052;  -23.897; -214.065; -400.883
714.317; -108.470;-1045.065; -981.883
714.581; 1002.107; -374.065; -268.883
714.846; 1297.283; -822.064; -888.884
715.111;  147.860;  261.936;  257.116
715.376;  -32.313;  -86.064; -223.885
715.641;  -13.686; -365.064; -367.885
715.906;  310.916;   15.936; -551.885
716.171;  156.392;  221.937;  209.114
716.436;   36.369;  -78.063; -104.886
716.700;  -99.279; -818.063; -692.886
716.965; -120.377; -794.063; -807.887
717.230;  -62.475; -339.063; -392.887
717.494;  -39.248;  -40.062; -134.888
717.759;  -94.397; -784.062; -640.888
718.024;    3.280;  269.938;  250.112
718.288;   77.257;  685.938;  395.111
718.553; -141.241; -803.062; -977.889
718.817; -143.314; -883.061; -899.889
719.082;  -17.462; -115.061; -125.890
719.346; -140.811;-1000.061; -947.890
719.611;  -56.134; -300.061; -255.891
719.875; -101.182; -568.060; -537.891
720.140;  -69.755; -453.060; -603.891
720.404;   44.272; -136.060; -249.892
720.668;  899.724; -475.060; -411.892
720.933;  342.875;  146.940;  137.108
721.197;  -99.923; -667.059; -600.893
721.461; -130.871; -851.059; -826.893
721.725;  -15.194;  -21.059; -250.894
721.990;  -50.842; -284.059; -204.894
722.254;  -27.940;  -26.059; -108.894
722.518;  -64.089; -286.058; -442.895
722.782; -102.862; -743.058; -594.895
723.046;  133.765;  614.942;  570.105
723.310;   15.742;  374.942;  210.104
723.574; -104.706; -654.058; -614.896
723.838; -101.129; -576.057; -642.897
724.102;  -36.828; -226.057; -239.897
724.366; -147.776;-1032.057; -978.897
724.630; -114.274; -749.057; -571.898
724.894;  -77.347; -722.057; -514.898
725.158;   -1.745;   38.944; -295.898
725.422;  -43.794; -394.056; -327.899
725.685;  -50.142; -441.056; -349.899
725.949;  -90.765; -566.056; -519.900
726.213;  -70.063; -732.056; -811.900
726.477;  201.189;-1020.055; -933.900
726.740;  160.266; -274.055; -104.901
727.004;  342.642; -384.055; -510.901
727.268; 3283.744; -442.055; -400.901
727.531;  835.121; -961.055; -775.902
727.795;  -56.277; -713.054; -673.902
728.059;  -51.425; -552.054; -557.903
728.322;  -75.648; -841.054; -669.903
728.586;   34.378; -692.054; -701.903
728.849;  -80.695; -695.053; -756.904
729.112; -126.368; -812.053; -912.904
729.376; -122.041; -959.053; -905.904
729.639;  -75.689; -536.053; -536.905
729.903; -112.762; -733.053; -699.905
730.166;  -51.361; -437.052; -399.906
730.429;  -12.784; -317.052; -468.906
730.693;  -76.607; -355.052; -894.906
730.956;  218.495;  810.948;  651.093
731.219;  705.347; -310.052; -103.907
731.482;  130.174;-1003.051; -894.907
731.745;  109.150; -794.051; -935.908
732.009;   31.652;  -30.051;   50.092
732.272;  -95.946; -904.051; -771.909
732.535;  -49.344; -300.051; -310.909
732.798; -155.917;-1083.050;-1166.909
733.061;  -55.516; -430.050; -456.910
733.324;   -0.414;   31.950; -180.910
733.587;   73.013;  290.950;  365.090
733.850;  -71.385; -973.049;-1050.911
734.113;   24.717;   33.951;   32.089
734.376;    2.394; -328.049; -447.912
734.639;  225.570; 1188.951; 1011.088
734.901;   69.572; -180.049; -402.912
735.164;  567.574; -883.048; -837.913
735.427; 1297.401; -166.048; -355.913
735.690;  122.503; -205.048; -234.913
735.952;  -48.270; -923.048; -925.914
736.215;  -23.994;-1113.048;-1009.914
736.478;   42.508; -771.047; -774.915
736.740;  236.610;   33.953;  129.085
737.003;  761.987; -658.047; -672.915
737.266; 4224.689;  -94.047;   46.084
737.528;  446.216; -682.047; -660.916
737.791;  307.517; -316.046; -327.916
738.053;  793.944;  465.954;  649.083
738.316;10965.371; -162.046; -136.917
738.578; 7138.898; -770.046; -736.918
738.841;  430.200; -382.046; -446.918
739.103;  179.802; -875.045; -777.918
739.365;  515.003;   79.955;  -69.919
739.628;   -4.595; -884.045; -805.919
739.890;  -33.393; -758.045; -710.919
740.152;  -55.741; -692.044; -754.920
740.414;  -26.014; -408.044; -359.920
740.677;  -47.263; -785.044; -634.921
740.939;  -34.836; -587.044; -487.921
741.201;  288.616; -432.044; -572.921
741.463;   46.418; -689.043; -745.922
741.725;   -3.405;  -21.043; -199.922
741.987;   56.447;  220.957;  116.078
742.249;    4.898; -751.043; -859.923
742.511;  226.275; -703.043; -794.923
742.773;   11.827; -546.042; -546.924
743.035;  138.129;  796.958;  533.076
743.297;  -34.444; -963.042;-1013.924
743.559;  766.433; -278.042; -262.925
743.821;   69.209; -735.042; -744.925
744.083;   17.661;  -44.041; -149.925
744.345;  -95.662; -869.041; -892.926
744.607;   37.865;   75.959;  122.074
744.868;  -59.058; -490.041; -554.927
745.130; -103.431; -994.041;-1008.927
745.392;   33.970;   -1.040;  -44.927
745.653;  -14.428; -411.040; -378.928
745.915;  155.974;  896.960;  631.072
746.177;   51.651;   35.960;  -43.928
746.438;   -6.297; -428.040; -543.929
746.700;  -47.170; -947.039; -988.929
746.961;   -2.344; -659.039; -740.930
747.223;  145.408; -190.039;  -74.930
747.484;   93.460; -391.039; -471.930
747.746;  144.462;  -23.038; -106.931
748.007;  124.364; -647.038; -689.931
748.269;  310.365; -468.038; -440.931
748.530;  494.817; -852.038; -638.932
748.791;  260.169; -354.038; -420.932
749.053;  455.071;  286.963;  163.067
749.314;  459.298; -236.037; -169.933
749.575;  505.475; -945.037; -905.933
749.836;  862.751; -217.037;   86.066
750.098; 2678.553;  -60.037;  -21.934
750.359;38077.155;  414.964;  555.066
750.620; 8948.382; -121.036; -220.935
750.881; 1070.684; -585.036; -513.935
751.142; 1409.861; -950.036; -938.936
751.403;17326.037; -789.036; -705.936
751.664; 7031.964;-1034.035; -999.936
751.925;  507.441; -175.035; -262.937
752.186;  269.893; -298.035; -278.937
752.447;  121.020; -590.035; -445.937
752.708;   42.272; -532.035; -648.938
752.969;    8.123; -566.034; -576.938
753.230;   -0.850; -777.034; -672.939
753.491;    7.277; -650.034; -631.939
753.751;   59.779;  109.966;   19.061
754.012;   94.731;  258.967;  181.060
754.273;   50.833; -174.033;  -71.940
754.534;   19.434; -487.033; -580.940
754.794;  -94.914; -926.033; -911.941
755.055;  161.063; 1051.967;  881.059
755.316;  -50.910; -700.032; -566.942
755.576;  -32.183; -606.032; -576.942
755.837;  -49.006; -527.032; -695.942
756.097;  -41.080; -530.032; -564.943
756.358;  -80.378; -725.032; -770.943
756.618;  -47.526; -705.031; -641.943
756.879;   11.951; -254.031; -349.944
757.139; -110.097;-1098.031;-1116.944
757.400;  -47.921; -538.031; -553.945
757.660;  -13.419; -365.031; -401.945
757.920;   12.758; -266.030; -228.945
758.181;  -19.240; -468.030; -351.946
758.441;  -92.563; -870.030; -809.946
758.701;  -26.161; -308.030; -215.946
758.961;  -16.060; -220.030; -278.947
759.222;  -46.183; -574.029; -502.947
759.482;  -76.481; -683.029; -723.948
759.742;  -89.054; -706.029; -547.948
760.002;    5.423;  -83.029; -143.948
760.262;   33.975;   50.972;  182.051
760.522;  -34.074; -498.028; -574.949
760.782;  -54.297; -738.028; -612.949
761.042;  -24.820; -618.028; -573.950
761.302;   52.457;   55.972;  -18.950
761.562;   50.359; -164.027; -154.951
761.822;  102.161; -710.027; -551.951
762.082;  -52.113;-1104.027;-1093.951
762.342;   74.614; -328.027; -403.952
762.601;   66.516; -567.027; -506.952
762.861;  399.968; -281.026; -207.952
763.121;  436.345; -406.026; -411.953
763.381; 7723.422; -499.026; -485.953
763.640; 7829.398; -139.026; -307.954
763.900;  349.475; -242.026; -203.954
764.160;   65.652; -458.025; -491.954
764.419;  -11.071; -726.025; -782.955
764.679;  -68.419; -795.025; -726.955
764.939;  -16.768; -124.025; -210.955
765.198;  -85.816; -608.025; -563.956
765.458;  -65.739; -710.024; -612.956
765.717;  -83.687; -454.024; -590.957
765.976;  -52.535; -428.024; -411.957
766.236;  -74.908; -475.024; -610.957
766.495;   30.643;  260.977;   73.042
766.755;  -94.030;-1090.023; -987.958
767.014;   14.697; -594.023; -665.958
767.273;  -56.926; -373.023; -397.959
767.533;  -43.599; -228.023; -307.959
767.792;  -30.097; -151.022; -188.960
768.051;  -46.521; -228.022; -276.960
768.310;  -89.669; -546.022; -650.960
768.569;   20.458; -161.022;    4.039
768.828;  -34.040; -285.022; -363.961
769.088; -117.563;-1050.021; -942.961
769.347;  -81.186; -755.021; -599.962
769.606;  -89.885; -876.021; -857.962
769.865; -113.733;-1016.021;-1033.963
770.124;    6.219; -411.021; -336.963
770.383;  -53.054; -778.020; -910.963
770.641;    2.623; -398.020; -400.964
770.900;  -70.500; -953.020; -846.964
771.159;  -58.574; -851.020; -951.964
771.418;  -30.722; -917.020; -779.965
771.677;  114.880; -224.019; -293.965
771.936;  127.032; -794.019; -865.966
772.194; 2310.934; -465.019; -437.966
772.453;10461.610; -213.019; -391.966
772.712;  715.362;  416.982;  329.033
772.970;  101.239;   32.982;   63.033
773.229;   88.441;  -22.018;  102.033
773.488;  -94.582; -814.018; -770.968
773.746;   57.420;  296.982;  335.032
774.005;  -10.054;  190.983;  -22.969
774.263;   11.173;  243.983;  177.031
774.522;  -87.400; -422.017; -548.969
774.780;  -76.323; -484.017; -417.970
775.039;  -95.471; -551.017; -531.970
775.297;  -28.219; -135.016; -351.970
775.555; -104.493; -489.016; -612.971
775.814; -109.316; -618.016; -570.971
776.072; -129.489; -749.016; -740.971
776.330;  -95.262; -630.016; -520.972
776.589; -120.385; -703.015; -721.972
776.847; -125.733; -645.015; -624.973
777.105; -164.357;-1016.015;-1032.973
777.363;  -83.930; -459.015; -454.973
777.621; -139.803; -660.015; -717.974
777.879;  -15.451;  -42.014;   32.026
778.138; -103.674; -554.014; -717.974
778.396; -102.522; -585.014; -526.975
778.654; -175.746;-1015.014; -970.975
778.912;  -62.469; -269.014; -371.976
779.170; -144.342; -880.013; -803.976
779.427; -150.665; -922.013; -897.976
779.685; -139.988; -880.013; -832.977
779.943;  -82.737; -654.013; -593.977
780.201; -173.860; -964.012; -883.978
780.459; -109.258; -651.012; -610.978
780.717; -100.281; -440.012; -390.978
780.974; -108.754; -449.012; -490.979
781.232;  -86.152; -358.012; -338.979
781.490;  -68.676; -551.011; -472.979
781.747; -117.049; -555.011; -476.980
782.005;   12.553;  462.989;  254.020
782.263; -160.945; -542.011;-1004.981
782.520;  -91.868; -326.011; -501.981
782.778; -166.016;-1013.010;-1051.981
783.035; -171.915; -962.010; -938.982
783.293;  -74.938; -248.010; -206.982
783.550;  -60.761; -134.010; -198.982
783.808; -126.459; -764.010; -776.983
784.065; -157.582; -745.009; -874.983
784.322;  -46.305;   25.991;  -86.984
784.580; -140.004; -915.009; -771.984
784.837;  -93.277; -392.009; -466.984
785.094; -131.475; -783.009; -762.985
785.352;  -58.873; -304.008; -404.985
785.609; -113.746; -934.008; -839.985
785.866;  -92.394; -345.008; -401.986
786.123;  -64.568; -639.008; -583.986
786.380; -110.291; -665.008; -604.987
786.637;  -39.239; -225.007; -380.987
786.895;  -14.787; -456.007; -543.987
787.152;  -30.385; -135.007; -267.988
787.409;  -48.483; -123.007; -225.988
787.666;  -92.782; -299.006; -378.988
787.923; -117.755; -616.006; -695.989
788.179; -103.853; -551.006; -584.989
788.436; -102.501; -585.006; -585.990
788.693;  -25.799;  -92.006;  -87.990
788.950;  176.202; -125.005; -112.990
789.207;  239.429; -381.005; -372.991
789.464;  -49.619; -161.005; -301.991
789.720;   -5.967;  150.995;  110.009
789.977; -176.315;-1003.005; -671.992
790.234;  -29.263;   44.996;  -66.992
790.490; -146.012; -884.004;-1031.993
790.747;  -18.535;  -85.004;   22.007
791.004;  -21.333; -426.004; -348.993
791.260;  -80.881; -430.004; -560.994
791.517;  -98.979; -843.003; -788.994
791.773;  -37.952; -379.003; -342.994
792.030; -112.251; -596.003; -660.995
792.286;  -98.849; -686.003; -636.995
792.543;  -30.772;  -74.002; -159.995
792.799;  -45.695; -584.002; -382.996
793.055; -168.693;-1179.002;-1210.996
793.312;  -88.741; -827.002; -816.997
793.568;  -59.065; -746.002; -599.997
793.824;    9.287; -226.001; -284.997
794.081;   17.739; -447.001; -508.998
794.337;   61.316; -664.001; -561.998
794.593; 1458.218; -319.001; -271.999
794.849; 6486.045; -746.001; -772.999
795.105;  304.096; -270.000; -261.999
795.361;   22.948; -490.000; -457.000
795.617;  -66.025; -875.000; -945.000
795.873;  -48.825; -360.000; -407.000
796.129;  -46.075; -368.000; -306.000
796.385;  -14.900; -124.000; -156.000
796.641;   65.350;  412.000;  550.000
796.897;  -80.400; -666.000; -635.000
797.153;   65.425;  453.000;  357.000
797.409; -100.150; -785.000; -868.000
797.665;  -89.900; -625.000; -732.000
797.921;  -90.250; -775.000; -762.000
798.176;  -55.950; -744.000; -747.000
798.432;  -59.125; -824.000; -596.000
798.688;  -97.625;-1174.000;-1078.000
798.943;   80.850; -165.000; -147.000
799.199;  -16.850;-1005.000; -959.000
799.455;  232.150;  369.000;  316.000
799.710;  107.850; -813.000; -380.000
799.966;  275.000; -162.000; -160.000
800.221;  478.600; -638.000; -721.000
800.477;10883.125; -743.000; -710.000
800.732; 8601.450; -773.000; -800.000
800.988;  597.200;  205.000;  -19.000
801.243; 1815.700; -454.000; -344.000
801.498; 7020.700; -814.000; -739.000
801.754;  379.900; -289.000; -163.000
802.009;   72.650; -257.000; -335.000
802.264;  -79.050; -967.000;-1033.000
802.520;    7.200;  222.000;   -3.000
802.775;  -51.400; -524.000; -359.000
803.030;   61.725;  395.000;  356.000
803.285; -116.775; -840.000; -903.000
803.540;  -53.200; -686.000; -699.000
803.795;  -47.125; -648.000; -583.000
804.051;  -35.750; -279.000; -346.000
804.306;   19.050;  168.000;  128.000
804.561;  143.825;  451.000;  362.000
804.816;  127.650;  714.000;  861.000
805.071;   15.200; -185.000; -280.000
805.325;  222.475; -257.000; -427.000
805.580; -106.375; -841.000; -877.000
805.835;  -16.625; -204.000; -297.000
806.090;  -75.550; -760.000; -676.000
806.345;  -20.925; -344.000; -264.000
806.600;  -24.425; -549.000; -632.000
806.854;  -41.350; -408.000; -538.000
807.109;  -16.475; -493.000; -577.000
807.364;   -9.925; -407.000; -328.000
807.618;    1.175; -415.000; -381.000
807.873;   58.475; -470.000; -494.000
808.128;  105.225; -257.000; -518.000
808.382;  100.075; -224.000; -332.000
808.637;   67.950; -440.000; -511.000
808.891;  173.200; -257.000; -180.000
809.146;  107.575; -902.000; -794.000
809.400;  266.725; -848.000; -923.000
809.654;  328.000; -779.000; -551.000
809.909;  501.375; -841.000; -927.000
810.163; 7478.775; -813.000; -651.000
810.418;17294.675; -940.000; -861.000
810.672; 1027.475; -685.000; -690.000
810.926;  722.025; -993.000; -973.000
811.180; 1450.850; -439.000; -372.000
811.434;31857.850;  240.000;  135.000
811.689;11405.400; -231.000; -365.000
811.943;  571.775; -936.000; -953.000
812.197;  305.425; -893.000; -671.000
812.451;  102.925; -379.000; -514.000
812.705;  -12.475; -809.000; -619.000
812.959;   -6.775; -263.000; -388.000
813.213;    2.250; -283.000; -209.000
813.467;   55.125;  470.000;  253.000
813.721; -102.875; -764.000; -792.000
813.975; -115.525; -826.000; -877.000
814.229;   47.800;  430.000;  353.000
814.482;  -71.600; -517.000; -566.000
814.736; -111.775; -766.000; -744.000
814.990; -134.050; -779.000; -872.000
815.244;  -46.625; -228.000; -285.000
815.497; -102.275; -636.000; -601.000
815.751;  -16.175; -141.000;   82.000
816.005;  -80.450; -470.000; -586.000
816.258;  -56.075; -510.000; -363.000
816.512; -108.425; -693.000; -610.000
816.766;   12.200;  121.000;  157.000
817.019;   35.700;  148.000;  149.000
817.273; -120.450;-1000.000; -802.000
817.526;  -41.400; -206.000; -173.000
817.779;  -23.300;-1049.000; -960.000
818.033;  -66.450; -693.000; -807.000
818.286; -107.125; -725.000; -792.000
818.540;  -79.725; -403.000; -403.000
818.793;  -69.800; -402.000; -489.000
819.046; -111.475; -582.000; -520.000
819.299;  -22.375; -157.000; -166.000
819.553; -109.600; -552.000; -592.000
819.806; -158.700;-1016.000; -838.000
820.059;  -62.850; -334.000; -354.000
820.312;   29.425;  152.000;  185.000
820.565;  -16.775;  110.000;  -27.000
820.818;  -42.950;  -59.000; -173.000
821.071; -174.625;-1041.000; -957.000
821.324; -109.150; -536.000; -540.000
821.577; -106.150; -457.000; -483.000
821.830;  -56.375; -270.000; -172.000
822.083; -135.625; -733.000; -288.000
822.336;  -47.075; -261.000; -167.000
822.589; -143.400; -805.000; -688.000
822.842; -135.400; -875.000; -770.000
823.094; -194.475;-1076.000;-1114.000
823.347; -129.375; -925.000; -729.000
823.600;   10.225;  402.000;  187.000
823.853;  -52.800; -311.000; -267.000
824.105;  -77.450; -331.000; -575.000
824.358;  -97.175; -617.000; -716.000
824.611;   37.425;  234.000;   40.000
824.863;  -51.675; -612.000; -591.000
825.116;   33.225;  -33.000;   27.000
825.368;   95.650; -366.000; -372.000
825.621;  138.400; -186.000; -240.000
825.873;   81.900; -704.000; -737.000
826.126;  645.950; -669.000; -641.000
826.378;11938.225; -389.000; -505.000
826.630; 2496.975; -890.000; -898.000
826.883;   41.450; -754.000; -693.000
827.135;   52.325; -279.000; -270.000
827.387; -115.925; -893.000; -839.000
827.639;  -24.400;  -86.000;   32.000
827.892; -132.850; -742.000; -582.000
828.144; -156.400; -848.000; -804.000
828.396;  -33.050;  104.000;  -80.000
828.648; -110.525; -440.000; -333.000
828.900; -146.900; -702.000; -795.000
829.152; -109.750; -684.000; -683.000
829.404;  -64.850; -215.000; -267.000
829.656;  -46.200;  321.000;  214.000
829.908;  -18.875;  393.000;  229.000
830.160; -169.400;-1064.000;-1047.000
830.412;  -88.000; -481.000; -430.000
830.664; -131.775; -557.000; -665.000
830.916;  -76.900; -268.000; -206.000
831.167; -180.700;-1073.000; -951.000
831.419; -105.050; -623.000; -566.000
831.671; -152.225; -764.000; -809.000
831.923;  -73.500; -311.000; -447.000
832.174;  -74.100; -273.000; -331.000
832.426; -114.075; -493.000; -582.000
832.678; -186.975;-1043.000;-1091.000
832.929; -151.525; -947.000; -935.000
833.181;  -67.575; -575.000; -677.000
833.432;  -45.150;  -59.000; -186.000
833.684;  -25.950;  112.000;  -27.000
833.935; -120.275; -610.000; -566.000
834.187; -131.100; -829.000; -823.000
834.438;  -43.575;  -58.000;  -25.000
834.689;  -51.775; -255.000; -123.000
834.941;  -52.100; -343.000; -244.000
835.192; -100.575; -590.000; -533.000
835.443;  -87.100; -419.000; -506.000
835.695;  -17.675;  138.000;  -16.000
835.946;  -96.475; -608.000; -378.000
836.197; -116.475; -599.000; -622.000
836.448;  -84.575; -528.000; -395.000
836.699;  -51.175; -253.000; -341.000
836.950;  -20.850;   72.000;    7.000
837.201; -154.300;-1003.000; -987.000
837.452;  -44.725; -356.000; -170.000
837.703; -111.175; -791.000; -737.000
837.954;  -35.275; -205.000; -365.000
838.205;  -82.300;-1029.000;-1008.000
838.456;  176.550; -196.000; -282.000
838.707;    7.575; -423.000; -519.000
838.958;   25.400; -634.000; -647.000
839.209;  297.300;   18.000;   40.000
839.460;  123.675; -439.000; -201.000
839.710;  174.275; -135.000; -297.000
839.961;  421.350;  730.000;  612.000
840.212;  356.625; -382.000; -497.000
840.462; 1209.125; -328.000; -277.000
840.713;18554.575; -571.000; -536.000
840.964; 6649.100;  -62.000; -143.000
841.214;  493.150; -384.000; -624.000
841.465;  585.125; -214.000; -141.000
841.715;  533.100; -417.000; -380.000
841.966;  699.325; -746.000; -685.000
842.216;10442.125; -330.000; -431.000
842.466;35749.950; -169.000; -313.000
842.717; 1733.750; -964.000; -952.000
842.967;  336.525; -635.000; -641.000
843.217;  271.750;   20.000;   28.000
843.468;   83.000; -104.000; -132.000
843.718;  -22.900; -718.000; -726.000
843.968;  -85.700; -837.000; -765.000
844.218;   29.225; -315.000; -262.000
844.469;  -39.125; -577.000; -561.000
844.719; -102.825; -537.000; -682.000
844.969;  -93.175; -550.000; -580.000
845.219; -153.450; -814.000; -862.000
845.469;  -87.625; -392.000; -342.000
845.719; -137.925; -792.000; -884.000
845.969;   -6.325;  119.000;  174.000
846.219; -116.150; -738.000; -720.000
846.469;   29.400;  464.000;  432.000
846.718;  -47.200; -115.000;   31.000
846.968; -143.475; -827.000; -827.000
847.218;  -46.275; -224.000; -371.000
847.468;    2.300; -586.000; -555.000
847.718; -152.775; -827.000; -798.000
847.967; -118.575; -826.000; -915.000
848.217;  -88.700; -449.000; -569.000
848.467;  -61.575; -405.000; -376.000
848.716; -118.875; -708.000; -725.000
848.966;   13.125; -372.000; -358.000
849.215;  -80.000; -428.000; -419.000
849.465;  -96.575; -785.000; -615.000
849.714; -147.900;-1132.000;-1150.000
849.964;  -64.200; -551.000; -613.000
850.213;  -20.300; -393.000; -355.000
850.463;   85.225;  137.000;  340.000
850.712;    0.550; -542.000; -567.000
850.961;   19.775; -739.000; -678.000
851.211;   85.525; -513.000; -504.000
851.460;  148.400; -635.000; -650.000
851.709;  590.200;  -25.000;   18.000
851.958;10916.750; -912.000; -750.000
852.208;11948.150; -859.000; -879.000
852.457;  433.450; -181.000;  -13.000
852.706;   68.650; -791.000; -823.000
852.955;   19.475; -507.000; -528.000
853.204;  -68.475; -521.000; -461.000
853.453;  -81.725; -418.000; -458.000
853.702; -143.125; -660.000; -750.000
853.951; -105.675; -532.000; -520.000
854.200; -112.125; -613.000; -562.000
854.449; -133.650; -695.000; -661.000
854.698; -109.000; -340.000; -279.000
854.946;  -63.425; -181.000; -284.000
855.195; -164.950; -843.000; -868.000
855.444;  -92.925; -395.000; -420.000
855.693; -115.750; -345.000; -432.000
855.941; -106.000; -387.000; -516.000
856.190;  -43.125; -256.000; -382.000
856.439; -118.900; -652.000; -703.000
856.687;  -69.575;  -99.000;  -72.000
856.936; -104.475; -621.000; -323.000
857.184; -184.250;-1067.000;-1020.000
857.433; -102.800; -423.000; -512.000
857.681; -167.475; -989.000; -953.000
857.930;  -76.675; -282.000; -433.000
858.178; -182.625; -856.000; -929.000
858.427; -154.200; -802.000; -781.000
858.675; -135.550; -377.000; -544.000
858.923; -116.400; -527.000; -819.000
859.172; -176.875;-1094.000;-1070.000
859.420;  -82.475; -339.000; -239.000
859.668; -138.225; -624.000; -628.000
859.916;  -18.400;  109.000;  115.000
860.164; -119.450; -699.000; -603.000
860.413;  333.525; -878.000; -696.000
860.661;  221.775; -709.000; -577.000
860.909;  -82.300; -339.000; -325.000
861.157;  -88.700; -277.000; -444.000
861.405; -117.525; -534.000; -670.000
861.653;   13.675;  310.000;  310.000
861.901;  209.675; -543.000; -613.000
862.149;  -18.050; -801.000; -824.000
862.396;  -95.725; -297.000; -187.000
862.644;  -95.525; -368.000; -347.000
862.892;  -32.500;   98.000;  138.000
863.140; -128.075; -549.000; -530.000
863.388; -157.000; -815.000; -759.000
863.635; -143.300; -642.000; -601.000
863.883;  -23.150;  231.000;  190.000
864.131; -102.600; -288.000; -357.000
864.378; -135.300; -675.000; -540.000
864.626; -103.000; -347.000; -415.000
864.873; -134.750; -556.000; -505.000
865.121; -142.800; -714.000; -799.000
865.368;  -42.400; -173.000;   75.000
865.616;  -48.400;  -33.000;  -40.000
865.863;  -68.775; -462.000; -506.000
866.111; -110.250; -795.000; -824.000
866.358;   21.325; -426.000; -420.000
866.605; 2203.350;  -64.000; -804.000
866.853; 1997.025; -621.000; -537.000
867.100;  -58.550; -728.000; -775.000
867.347; -101.000; -672.000; -611.000
867.594;  -98.500; -740.000; -714.000
867.841;   94.075;   97.000;   17.000
868.089; -148.775; -746.000; -698.000
868.336; -104.875; -477.000; -420.000
868.583; -139.275; -637.000; -741.000
868.830;  -46.750; -131.000; -170.000
869.077; -175.225; -859.000; -787.000
869.324; -126.000; -502.000; -458.000
869.571; -148.025; -398.000; -430.000
869.818; -124.925; -485.000; -439.000
870.065; -109.825; -439.000; -513.000
870.311; -116.175; -456.000; -542.000
870.558; -107.275; -332.000; -311.000
870.805;  -83.075; -320.000; -384.000
871.052; -109.375; -494.000; -369.000
871.298;  -50.250; -204.000; -131.000
871.545;  -80.175; -151.000; -185.000
871.792;  -89.100; -173.000; -222.000
872.038;  -79.000;   43.000; -126.000
872.285; -143.550; -496.000; -387.000
872.532; -118.000; -357.000; -387.000
872.778;   19.175;  556.000;  403.000
873.025; -103.500; -384.000; -359.000
873.271;   36.450;  501.000;  578.000
873.517;  -12.500; -133.000; -209.000
873.764;  -33.350; -193.000;  -80.000
874.010;  -71.275; -143.000; -230.000
874.257;  -46.500;  123.000;   90.000
874.503; -130.875; -579.000; -479.000
874.749;  -82.850;   31.000;  275.000
874.995;  -67.300;  -80.000;  -20.000
875.242; -120.575; -540.000; -478.000
875.488; -105.350; -414.000; -439.000
875.734;  -56.275; -106.000; -234.000
875.980;  234.975; -872.000;-1032.000
876.226;  371.075; -157.000; -255.000
876.472;   -5.425;  343.000;  237.000
876.718;  -49.100;  184.000;  158.000
876.964;  -50.025;   56.000;   55.000
877.210; -161.200; -547.000; -677.000
877.456; -132.925; -630.000; -557.000
877.702; -179.750; -821.000; -832.000
877.948; -113.925; -377.000; -497.000
878.193;   32.550;  361.000;  255.000
878.439;  -90.575; -487.000; -472.000
878.685;  -98.975; -272.000; -343.000
878.931; -138.100; -618.000; -676.000
879.176;  -79.675; -201.000; -201.000
879.422; -176.200; -933.000; -820.000
879.668;   72.225;   10.000;   79.000
879.913;  142.100;   53.000;  137.000
880.159;  -52.050; -112.000;  -17.000
880.404;  -72.275; -152.000; -162.000
880.650;  -41.025;   91.000;  141.000
880.895; -175.225; -670.000; -710.000
881.141; -120.150; -454.000; -428.000
881.386; -155.975; -503.000; -658.000
881.631;  -84.600; -311.000; -166.000
881.877;  -35.375;  112.000;  -13.000
882.122; -140.200; -684.000; -600.000
882.367;  -84.725; -136.000; -186.000
882.612;  -75.650;  -80.000; -176.000
882.858; -186.050; -877.000; -823.000
883.103;  -99.850; -297.000; -267.000
883.348; -162.800; -759.000; -852.000
883.593; -153.850; -677.000; -602.000
883.838;  -55.350; -311.000;  -24.000
884.083;   27.775;  353.000;  288.000
884.328; -106.075; -564.000; -545.000
884.573;  -49.775; -196.000; -143.000
884.818;  220.850; -694.000; -531.000
885.063;  167.300; -348.000; -315.000
885.308; -109.350; -475.000; -398.000
885.553;   -8.175;  245.000;  325.000
885.797; -138.275; -545.000; -615.000
886.042;  -48.850;    8.000;   58.000
886.287; -101.350; -253.000; -211.000
886.532;  -50.800;   26.000;  204.000
886.776; -100.675; -407.000; -525.000
887.021; -138.450; -621.000; -574.000
887.265; -162.250; -685.000; -689.000
887.510; -142.400; -557.000; -496.000
887.755;  -96.850; -194.000; -164.000
887.999; -131.700; -552.000; -575.000
888.244;  -67.925;  -58.000;  161.000
888.488;    6.750;  371.000;  393.000
888.732; -125.825; -368.000; -520.000
888.977; -138.875; -622.000; -567.000
889.221; -176.475; -683.000; -659.000
889.465; -123.050; -422.000; -566.000
889.710;  -93.000;  -56.000; -299.000
889.954;    0.300;  579.000;  467.000
890.198; -157.450; -584.000; -707.000
890.442; -164.850; -716.000; -712.000
890.687; -171.700; -800.000; -753.000
890.931;  -94.000; -273.000; -210.000
891.175; -145.000; -502.000; -500.000
891.419;  -79.275; -105.000; -110.000
891.663;  -87.450; -239.000; -112.000
891.907; -158.350; -801.000; -545.000
892.151; -184.050; -920.000; -815.000
892.395; -113.975; -274.000; -387.000
892.638;  -22.775;  408.000;  291.000
892.882; -178.550; -780.000; -867.000
893.126;    4.175;  758.000;  558.000
893.370;  -92.975; -167.000; -168.000
893.614; -143.500; -714.000; -715.000
893.857; -100.425; -183.000; -197.000
894.101; -135.950; -527.000; -631.000
894.345;  -45.325;  300.000;  150.000
894.588;   26.400;  569.000;  380.000
894.832;  -92.100; -178.000;  -84.000
895.075;  -97.450;   15.000;  -92.000
895.319; -127.350; -552.000; -420.000
895.563; -111.025; -413.000; -353.000
895.806; -141.125; -628.000; -741.000
896.049;  -60.725; -576.000; -368.000
896.293;  110.875;  527.000;  405.000
896.536;  -72.075; -465.000; -468.000
896.779;  -54.100; -149.000;   -1.000
897.023; -150.925; -751.000; -714.000
897.266;  -24.625;  325.000;  269.000
897.509; -183.500; -900.000; -901.000
897.752;  -33.600;  149.000;  171.000
897.996; -201.300; -972.000; -864.000
898.239;  -43.625;  168.000;  102.000
898.482; -133.875; -431.000; -453.000
898.725;  -37.175;  101.000;   53.000
898.968; -148.075; -609.000; -744.000
899.211; -101.625; -513.000; -361.000
899.454; -129.900; -633.000; -539.000
899.697;  -73.550;   90.000;  -43.000
899.940; -163.900; -761.000; -757.000
900.182; -111.775; -335.000; -405.000
900.425;  -99.300; -150.000; -298.000
900.668;  -19.525;  491.000;  350.000
900.911; -114.900; -292.000; -345.000
901.154;  -42.300;  141.000;   -3.000
901.396; -142.200; -407.000; -412.000
901.639; -130.525; -430.000; -496.000
901.882; -179.275; -790.000; -809.000
902.124;  -94.400;  -29.000; -143.000
902.367; -131.375; -315.000; -361.000
902.609; -124.325; -476.000; -453.000
902.852;  -86.925; -108.000; -260.000
903.094; -129.950; -458.000; -337.000
903.337;  -65.150;  -26.000;   53.000
903.579; -114.100; -228.000; -441.000
903.821; -155.350; -597.000; -744.000
904.064;  -69.300;   85.000;  127.000
904.306;  -86.575; -126.000; -166.000
904.548; -108.925; -152.000; -366.000
904.790; -104.750; -195.000; -340.000
905.033; -132.200; -625.000; -577.000
905.275; -125.200; -513.000; -524.000
905.517;   46.650;  468.000;  256.000
905.759;  -71.575; -667.000; -761.000
906.001;  -95.200; -322.000; -369.000
906.243;  -67.050; -162.000; -224.000
906.485;  154.425; -265.000; -207.000
906.727;   92.900; -499.000; -542.000
906.969;  -23.850;  -30.000; -135.000
907.211;  129.050; -316.000; -382.000
907.453;  290.425; -188.000; -237.000
907.695;    0.825; -158.000; -385.000
907.936;   55.275;  818.000;  706.000
908.178;  -59.700;   92.000; -135.000
908.420;  -68.350; -111.000; -162.000
908.662; -135.900; -633.000; -682.000
908.903;  -94.950; -208.000; -123.000
909.145;  -73.225; -240.000; -305.000
909.386;   11.025;  315.000;  280.000
909.628;   35.150;  363.000;  397.000
909.870;    4.950;   29.000;  264.000
910.111; -101.225; -809.000; -949.000
910.353;   10.250; -123.000; -161.000
910.594;   -3.250; -574.000; -606.000
910.835;   75.325; -265.000; -326.000
911.077;  150.050; -503.000; -604.000
911.318;  291.025; -505.000; -471.000
911.559;  449.675; -577.000; -880.000
911.801; 1375.675; -284.000; -280.000
912.042;11097.575;  -50.000; -159.000
912.283;26322.575;  404.000;  371.000
912.524; 3595.500; -396.000; -457.000
912.765;  449.900; -193.000;   79.000
913.006;  230.450; -307.000; -338.000
913.247;   28.800; -270.000; -290.000
913.488;  -19.400;  -43.000;   30.000
913.729;  -76.850; -373.000; -373.000
913.970;  -64.200;  -96.000; -292.000
914.211;  -69.475; -160.000; -198.000
914.452;  -72.150; -118.000;  -11.000
914.693;   14.100;  510.000;  592.000
914.934;    6.125;  510.000;  440.000
915.175;  -68.800;   53.000;  -95.000
915.415;  -80.275; -137.000;   27.000
915.656;  -69.925;  -28.000;  192.000
915.897; -104.025; -252.000;  -82.000
916.137;  -75.175;   74.000;   -9.000
916.378; -140.725; -573.000; -517.000
916.619;  -91.750; -159.000;  -63.000
916.859;  -33.325;  303.000;  330.000
917.100;  144.600; 1655.000; 1070.000
917.340;   40.625;  930.000;  728.000
917.581;   66.625;  965.000;  789.000
917.821;  -17.450; -171.000;  143.000
918.061;   -0.550; -199.000;  -72.000
918.302;  -61.850; -152.000; -211.000
918.542;  -20.825;  -22.000;    3.000
918.782;   16.275;  369.000;  377.000
919.023;  145.675;  360.000;  427.000
919.263; 1830.275; 8131.000;  202.000
919.503; 1090.550; -137.000;  -54.000
919.743;  647.825;  390.000;  266.000
919.983;  270.275; -134.000;  -26.000
920.223;   64.075;  135.000;   14.000
920.463;  144.975;  631.000;  554.000
920.703;  118.100;   84.000;   39.000
920.943;  148.925; -110.000;   90.000
921.183;  225.850; -414.000; -405.000
921.423;  491.425;  307.000;  546.000
921.663;  728.775; -174.000; -257.000
921.903; 1581.300;  237.000;  173.000
922.143; 8932.925;  372.000;  389.000
922.383;32897.000;  158.000;  115.000
922.622; 9891.200; -120.000;  -15.000
922.862; 1105.625;  796.000;  785.000
923.102;  431.525;  -51.000;   33.000
923.341;  155.450;   59.000;   74.000
923.581;   68.100;  450.000;  360.000
923.821;   32.800;  301.000;  398.000
924.060;   -1.800;  351.000;  193.000
924.300;  -57.600;  -16.000; -128.000
924.539;  -29.325;  584.000;  473.000
924.779;   12.100;  812.000;  597.000
925.018;  -44.325;  247.000;  353.000
925.257;   -1.325;  595.000;  666.000
925.497;  -43.650;  447.000;  412.000
925.736;  -68.025;  -35.000;  102.000
925.975;  -10.150;  687.000;  669.000
926.214;   43.825;  907.000;  850.000
926.454;   17.800;  706.000;  757.000
926.693;  -39.450;  419.000;  543.000
926.932;   38.775; 1021.000;  825.000
927.171;   69.325; 1107.000; 1044.000
927.410;   51.375; 1144.000;  967.000
927.649;   29.600;  924.000;  742.000
927.888;   -6.025;  590.000;  564.000
928.127;   14.075;  680.000;  678.000
928.366;   24.650;  842.000;  826.000
928.605;   51.675;  831.000;  737.000
928.844;  243.900; 1451.000; 1393.000
929.083;  617.450;  770.000;  613.000
929.321;  304.225; 1335.000; 1359.000
929.560;   88.275; 1158.000; 1122.000
929.799;  -40.750;  574.000;  475.000
930.038;   85.125; 1025.000; 1394.000
930.276;  -45.450;  334.000;  397.000
930.515;    3.975;  827.000;  681.000
930.753;  -18.175;  614.000;  589.000
930.992;  -14.475;  664.000;  717.000
931.230;   -1.850;  847.000;  847.000
931.469;  171.300; 2162.000;  892.000
931.707;   65.150;  840.000;  751.000
931.946;   64.425; 1278.000; 1344.000
932.184;   58.675; 1437.000; 1175.000
932.423;   63.050; 1265.000;  963.000
932.661;   94.400; 1296.000; 1428.000
932.899;   16.550;  987.000;  821.000
933.137;    9.325;  754.000;  564.000
933.376;  159.925; 1664.000; 1335.000
933.614;  171.925; 1759.000; 1196.000
933.852;   46.225; 1357.000; 1171.000
934.090;  140.650; 1722.000; 1747.000
934.328;  102.175; 1252.000; 1457.000
934.566;   97.175; 1431.000; 1110.000
934.804;  142.200; 1263.000; 1309.000
935.042;  443.125; 1861.000; 1850.000
935.280; 1711.075; 2088.000; 2063.000
935.518; 1482.750; 2113.000; 2007.000
935.756;  338.050; 2481.000; 2316.000
935.994;  149.125; 1808.000; 1751.000
936.231;  354.050; 2890.000; 2950.000
936.469;  199.250; 2367.000; 2378.000
936.707;  157.150; 2220.000; 2167.000
936.945;  215.900; 2825.000; 2882.000
937.182;  207.150; 2679.000; 2741.000
937.420;  304.650; 3602.000; 3031.000
937.657;  433.825; 3365.000; 3478.000
937.895;  349.250; 3331.000; 3488.000
938.133;  323.250; 3540.000; 3528.000
938.370;  349.150; 3896.000; 4191.000
938.607;  392.950; 4488.000; 4205.000
938.845;  551.650; 5587.000; 5549.000
939.082;  491.125; 5387.000; 5177.000
939.320;  559.350; 5799.000; 5728.000
939.557;  652.675; 6549.000; 6491.000
939.794;  731.375; 7285.000; 7097.000
940.031;  929.825; 8421.000; 8368.000
940.269; 1135.125; 9552.000; 9107.000
940.506; 1133.525;10901.000;10507.000

