
Integration time [ms]: 100.000
Averaging Nr. [scans]: 40
Smoothing Nr. [pixels]: 0
Data measured with spectrometer [name]: 2101013U2
Wave   ;Sample   ;Dark     ;Reference
[nm]   ;[counts] ;[counts] ;[counts] 

394.013;   40.469; -450.257; -315.536
394.305;  172.017; -461.258; -419.536
394.596; 1615.266; -676.269; -527.514
394.887; 4205.486; -796.268; -654.518
395.178; 1494.899;  145.736;   11.476
395.470;   76.537; -210.263; -356.526
395.761;  146.479;  305.734;  394.479
396.052;  113.638; -545.284; -306.489
396.343;   93.148; -557.276; -454.503
396.634;   51.785; -200.279; -290.497
396.926;   23.158; -618.268; -565.517
397.217;   73.229;   11.725;  -17.504
397.508;   29.973; -366.273; -154.507
397.799;   33.285; -555.279; -571.497
398.090;   11.403; -973.280; -902.495
398.381;   60.346;   11.708;  -11.473
398.672;  -27.627; -585.292; -742.473
398.963;   35.968; -348.279; -373.498
399.254;   78.009;   54.709; -209.475
399.545;  -20.575;-1017.266; -883.520
399.836;   58.685; -407.277; -343.501
400.127;   56.317; -205.295; -209.468
400.418;   29.466; -423.274; -392.506
400.709;   29.512; -359.281; -333.493
401.000;   53.764; -268.291; -309.476
401.290;  110.815;  225.698;  115.545
401.581;   57.217; -166.286; -228.485
401.872;   35.033; -542.298; -486.462
402.163;   50.783; -313.296; -252.467
402.454;  103.060; -123.291; -163.475
402.744;   41.147; -844.297; -813.465
403.035;  245.936; -226.293;  -86.471
403.326;  323.251; -366.292; -384.474
403.617;  328.851;  204.701;  165.539
403.907;  363.570; -593.283; -679.490
404.198; 3613.384; -545.307; -599.446
404.489; 9239.126; -618.283; -588.491
404.779; 2583.419; -618.302; -660.456
405.070;  280.993;  -67.304; -174.451
405.360;  490.488; -259.293; -238.472
405.651;  468.508;  125.699;   98.542
405.942;  164.036;  209.714;  127.516
406.232;   91.029; -432.285; -413.487
406.523;  236.929;  641.706;  758.530
406.813;   34.589; -579.286; -644.484
407.104;  207.670;  261.708;  144.527
407.394;   66.178; -604.299; -591.462
407.685;  142.628;  336.715;  222.513
407.975;   59.049; -400.283; -382.490
408.265;  107.977; -134.289; -190.478
408.556;   49.006; -472.291; -459.475
408.846;  181.630;  474.706;  429.530
409.137;  119.737;   -1.288; -216.480
409.427;   71.653; -193.285; -271.487
409.717;   42.352; -776.273; -692.508
410.007;  142.096;    4.715; -170.486
410.298;  110.895; -360.295; -342.469
410.588;   98.875; -495.285; -510.486
410.878;   50.951; -792.287; -873.482
411.168;  130.036; -481.298; -478.463
411.459;  131.518; -295.283; -242.489
411.749;  104.579; -609.292; -507.474
412.039;   83.110; -755.289; -386.480
412.329;  229.351;   40.722;  132.501
412.619;  214.114;  -62.286; -148.485
412.909;  389.381;  639.711;  594.521
413.199;  332.328; -130.280; -251.495
413.490;  395.894;  521.710;  352.523
413.780;  213.833;-1013.279; -913.496
414.070;  393.600;  -46.276;  235.497
414.360;  405.722; -729.278; -666.498
414.650;  537.446; -726.288; -688.482
414.940;  726.333; -538.280; -441.496
415.230; 1241.242;   50.712;   74.519
415.520; 8652.840;  155.730;   66.486
415.809;34786.037; -305.281; -125.493
416.099;26119.213; -388.277; -229.501
416.389; 7839.514;  435.726;  236.494
416.679; 4518.067;   91.738;   85.473
416.969;  780.357; -527.287; -503.483
417.259;  653.011;  341.721;  171.503
417.549;  915.985;  522.718;  318.508
417.838; 2397.136; -205.268; -147.518
418.128; 8334.401;  650.710;  492.522
418.418; 6842.185; -491.272; -579.509
418.708; 4555.514;    9.726;  -48.506
418.997;17903.009; -474.275; -480.505
419.287;18250.822; -733.273; -790.507
419.577;17863.392; -160.283; -123.489
419.866;57185.785; -588.277; -498.501
420.156;55474.535; -242.270;  -55.513
420.446; 9200.483; -112.263;  -26.526
420.735;  910.928; -376.271; -446.512
421.025;  927.496; 1830.722;  315.502
421.314;  569.100; -203.271; -226.512
421.604;  722.927;   89.732;  233.484
421.893;  444.271; -705.271; -602.511
422.183;  298.383; -487.263; -461.526
422.472;  412.823;  -36.271; -107.511
422.762;  421.258; -416.266; -379.521
423.051;  277.950; -916.276; -916.503
423.341;  329.750; -491.273; -439.507
423.630;  410.890; -121.265;   15.477
423.919;  446.508;   58.725;   49.495
424.209;  491.040;  -31.263;   56.473
424.498;  649.308;   68.732;  161.483
424.787; 1494.165; -535.267; -601.518
425.077; 4363.588;   34.735;   29.478
425.366; 4804.321; -734.262; -744.528
425.655;13672.950;  639.727;  259.493
425.945;35095.454; -313.247; -268.554
426.234;18440.099;  117.741;  300.467
426.523; 7397.730;  -86.259; -350.534
426.812; 9961.153;  107.734;  159.480
427.101;15138.372; -127.269; -323.515
427.390;17639.490;  -55.270;  -86.514
427.680; 2547.029; -624.257; -411.538
427.969;  529.918; -330.255; -301.540
428.258;  381.169; -385.257; -477.536
428.547;  512.265;  449.728;  397.490
428.836;  727.987; -421.253; -398.543
429.125; 1014.033; -199.259;  -72.534
429.414;  795.740; -330.251; -294.548
429.703; 4574.240; -231.251; -213.548
429.992;14132.369; -938.250; -828.549
430.281; 8912.799; -397.264; -331.524
430.570;  617.203;  -21.252;   32.454
430.859;  434.655;  279.741;  352.466
431.148;  439.699;  636.752;  631.446
431.437;  339.803;  391.748;  367.454
431.725;  233.621; -544.257; -481.536
432.014;  223.971; -845.253; -756.545
432.303;  433.291; -149.239; -105.569
432.592;  595.307; -460.263; -178.525
432.881; 1434.250; -601.248; -437.554
433.169; 9633.294; -343.255;  -61.540
433.458;19567.283;  445.765;  540.424
433.747; 7623.303; -397.261; -289.529
434.036;  957.212; -275.242; -280.564
434.324; 2931.910; -395.249; -379.551
434.613; 5350.179;   40.757;  159.437
434.902; 1521.954;  333.760;  439.433
435.190;  308.915;   75.761;  295.431
435.479;  182.132;  -52.245;   83.441
435.767;   95.316; -411.244; -427.561
436.056;  219.957; -340.242; -294.563
436.345;  500.307; -372.240; -223.568
436.633;  465.654;   60.750;  383.450
436.922;  201.335;  208.760;  414.432
437.210;  225.170; -194.236;    1.426
437.499;  527.780; -583.235; -432.576
437.787;  605.995; -339.236;  -10.574
438.075;  185.272;   56.761;  162.430
438.364;  218.250;  -44.238;  250.429
438.652;  112.903; -286.226; -138.592
438.941;   77.809;    3.770;  269.415
439.229;  -21.450; -665.252; -466.545
439.517;   37.840; -160.234;  -85.577
439.806;   -3.903; -501.225; -290.595
440.094;  145.775;  377.766;  650.421
440.382;   42.354; -653.233; -302.580
440.670;   46.030; -361.235; -285.576
440.959;    7.968; -347.223; -170.599
441.247;   46.348; -151.229; -109.587
441.535;   55.163; -266.235;   31.423
441.823;    3.446; -497.234; -305.578
442.111;  159.678;  173.771;  327.412
442.400;  302.281; -628.245; -335.559
442.688;  564.699; -111.234; -620.579
442.976;  262.800; -786.213; -450.617
443.264;   35.680; -324.224; -364.597
443.552;   64.079; -258.226;   51.408
443.840;  143.787;  602.765;  876.423
444.128;   96.153;  265.767;  269.420
444.416;   -1.744; -694.228; -312.588
444.704;   19.029; -465.219;  -92.605
444.992;   38.107;   -0.226;  240.407
445.280;   26.610; -517.230;  -94.585
445.568;   -2.695; -694.212; -396.618
445.856;  149.035; -174.221;  357.398
446.143;  274.600;  -54.220;   -7.604
446.431;  251.510;  -25.228;  625.411
446.719;  163.753;  489.783;  675.391
447.007;  154.003;  481.769;  705.416
447.295;  162.364;  597.777;  871.402
447.583;   89.270; -464.229;  -34.587
447.870;  118.881; -434.221; -202.601
448.158;  250.408; -104.230;  129.415
448.446;  148.301; -800.219; -338.604
448.733;  134.607;   13.776;  269.403
449.021;  195.504;   60.788;  341.382
449.309;  180.872; -296.210;  208.379
449.596;  238.723;  128.783;   59.392
449.884;  205.098; -571.222; -325.600
450.172;  276.467; -756.227; -406.590
450.459;  643.055;  645.786;  780.387
450.747; 3812.996; -411.218; -147.608
451.034;12279.562;  493.772;  889.411
451.322; 9864.158; -413.214; -170.614
451.609;  768.658;  292.777;  508.403
451.897;  921.949; -550.203; -183.634
452.184; 2756.415; -622.223; -400.598
452.472; 2421.673;   97.792;  269.375
452.759;  350.152;  512.781;  864.395
453.047;   95.876; -407.212; -125.617
453.334;   57.661; -732.219; -216.606
453.621;   35.636; -438.214; -161.615
453.909;  104.489;   13.796;  384.368
454.196;  101.870; -299.199; -123.641
454.483;  243.590;  317.798;  540.364
454.771;  138.577; -215.208;  196.374
455.058;   60.656; -316.207;  102.374
455.345;  149.062;   71.807;  344.347
455.632;  133.985; -128.207;  235.373
455.919;   61.272;  -82.196;  182.354
456.207;  -24.800; -774.198; -450.642
456.494;    5.705; -475.200;  -66.639
456.781;   31.160; -399.202; -198.635
457.068;   62.618; -253.206;  -29.628
457.355;   17.969; -698.206; -401.629
457.642;   14.276; -552.205; -290.630
457.929;   38.376; -778.194; -417.651
458.216;  114.876; -575.212; -354.617
458.503;  410.707; -173.193;  -19.652
458.790;  440.049; -864.208; -630.625
459.077;  398.641;  -77.202;  110.364
459.364; 1190.793; -350.195; -210.649
459.651; 2572.466;  -46.206;  220.372
459.938; 1164.013; -864.209; -665.623
460.225;  136.245;  132.799;  276.363
460.512;  -44.881; -836.197; -688.645
460.799;  128.120;  -32.218;  320.392
461.086;  100.460; -370.200; -251.640
461.372;   22.026; -509.198; -279.642
461.659;   62.249; -165.196;  108.354
461.946;   33.155; -445.193;  -54.651
462.233;  221.332;  842.800;  888.361
462.519;  488.929; -814.201; -464.639
462.806; 1501.669; -768.197; -497.645
463.093; 1302.130; -445.191;  -66.656
463.380;   11.181; -920.186; -824.664
463.666;   65.597; -259.197;  -18.646
463.953;  131.236; -406.195; -243.648
464.239;  292.461; -173.195;  -77.648
464.526;  396.474;  413.806;  743.350
464.813;  329.994; -565.190; -304.658
465.099;  333.981;  606.807;  607.348
465.386;  284.011;  903.807;  921.348
465.672;   20.020; -694.197; -522.645
465.959;   48.166; -598.188; -520.662
466.245;  -10.439; -468.193; -359.652
466.532;   64.309; -109.195;   63.352
466.818;   13.780; -357.186; -216.664
467.104;    0.379; -488.182; -415.672
467.391;  -13.053; -628.189; -459.658
467.677;   22.060; -289.186;    9.335
467.964;    0.605; -682.189; -471.660
468.250;   43.813; -331.186; -160.665
468.536;   80.123;   90.811;  180.341
468.822;  -11.172; -821.184; -574.668
469.109;  143.778;  351.827;  471.311
469.395;  196.673;  729.808;  787.346
469.681;  238.802;   46.811;  156.341
469.967; 1817.883; -699.188; -382.660
470.254; 4063.117; -494.188; -306.662
470.540; 2524.897; -601.196; -476.646
470.826;  382.243; -488.181; -397.675
471.112;  429.157;  288.816;  113.331
471.398;  100.512; -253.183;  -58.670
471.684;   36.452; -626.177; -447.680
471.970;   35.548; -918.180; -981.675
472.256;   48.747; -521.192; -441.654
472.542;   24.541; -499.171; -434.691
472.828;   32.549; -743.182; -607.672
473.114;   36.094; -380.166; -283.700
473.400;   15.898; -504.175; -293.684
473.686;   46.427; -452.166; -400.701
473.972;   57.240; -230.174; -131.687
474.258;  -17.272; -925.173; -843.689
474.544;  325.992; -183.178;   -2.679
474.830;  499.150;  -65.175;   45.316
475.116;  826.121; -123.190; -196.658
475.401; 1104.475; -558.180; -467.676
475.687;  297.824; -725.180; -718.676
475.973;   -8.291; -673.181; -770.673
476.259;  248.827;  736.825;  764.315
476.544;  533.587; -539.176; -437.682
476.830; 1381.961; -398.172; -322.690
477.116; 1190.611; -430.177; -336.682
477.401;  175.850;  346.820;  358.324
477.687;   -7.377; -289.175; -405.684
477.973;   52.763;   21.819;   28.326
478.258;    5.577; -448.163; -348.706
478.544;   33.569;   21.815;   61.334
478.829;  -52.427; -818.171; -738.692
479.115;  -45.039; -749.172; -651.690
479.401;    2.235; -444.174; -449.686
479.686;   58.848; -253.180;  -74.676
479.972;   10.124; -886.178; -776.680
480.257;   57.971; -258.166;  -65.700
480.542;   30.903; -614.170; -469.693
480.828;  238.146; 1288.824; 1392.317
481.113;  -22.582; -464.176; -426.683
481.399;    0.931; -236.161; -202.711
481.684;  -51.605; -620.166; -462.700
481.969;   32.747; -158.159;  -73.713
482.255;    7.066; -439.169; -285.695
482.540;   23.574; -569.178; -441.680
482.825;   30.350; -395.187; -404.663
483.110;  145.120;  -85.169; -105.696
483.396;  369.299; -840.157; -652.718
483.681;  779.816;  543.826;  730.313
483.966;  312.015; -696.160; -700.712
484.251;    7.064; -404.174; -310.687
484.536;   15.708; -356.165; -378.703
484.822;   36.668; -205.173; -218.687
485.107;  -23.205; -599.152; -502.726
485.392;  116.490;  662.836;  541.296
485.677;   76.732;  354.832;  163.302
485.962;  100.721;  160.843;  270.283
486.247;  103.262;  -14.162;   -8.707
486.532;   79.897; -178.166; -325.701
486.817;  194.499;  381.839;  431.291
487.102;  169.224; -453.154; -514.722
487.387; 1064.351; -637.156; -652.718
487.672; 1953.547; -154.164;  -38.705
487.957; 1203.758; -394.160; -286.711
488.241;  322.616; -290.150; -314.729
488.526; 1184.372; -280.152; -148.726
488.811; 1980.176; -881.177; -818.680
489.096; 1386.978; -666.154; -702.723
489.381;  723.442;    3.847;  162.275
489.666;  652.306; -428.161; -510.710
489.950;  202.306;  558.846;  627.277
490.235;  -17.441; -480.151; -458.728
490.520;  -32.846; -756.161; -723.710
490.804;  -28.147; -827.156; -736.719
491.089;   40.635; -469.149; -299.732
491.374;   47.220; -132.164;  -75.704
491.658;  -17.226; -817.147; -717.735
491.943;  114.252; -657.152; -609.727
492.227;  223.044; -178.155;  -38.721
492.512;   27.045; -294.157; -341.717
492.797;  -48.973; -713.149; -716.731
493.081;  -41.073; -588.147; -598.735
493.366;  -29.269; -751.161; -635.711
493.650;  221.367;  831.859;  917.254
493.935;   95.323; -648.147; -447.734
494.219;  -19.149; -778.142; -687.743
494.503;  -23.229; -585.150; -487.730
494.788;   53.285;   46.842;   74.285
495.072;  126.567;  184.850;  434.271
495.356;  248.689; -463.148; -343.733
495.641;  529.385; -812.146; -736.736
495.925;  463.559; -976.156; -903.719
496.209;   15.559; -599.149; -451.732
496.494;  -24.448; -763.142; -544.744
496.778;   14.575; -364.154; -360.722
497.062;  -50.316; -819.156; -627.719
497.346;   29.260; -869.160; -640.711
497.631;  180.593;  580.852;  560.266
497.915;  102.748;  -64.145;  175.261
498.199;   38.299; -341.157; -277.718
498.483;   49.270; -562.152; -508.725
498.767;  246.694;  301.850;  300.271
499.051;  275.981; -126.149; -100.732
499.335;   62.979; -693.149; -739.731
499.619;  -21.685; -381.129; -423.767
499.903;   21.068; -272.155;  -65.721
500.187;   36.533; -588.153; -316.724
500.471;   23.876; -796.152; -595.727
500.755;   96.655;   62.839;  -96.710
501.039;    7.743; -270.155; -357.721
501.323;   59.369;  -21.141;  264.254
501.607;   14.177; -447.163; -503.706
501.891;    3.375; -607.156; -512.718
502.174;  -24.713; -726.144; -585.741
502.458;   76.531;   89.849;  370.273
502.742;   52.473; -180.138; -191.751
503.026;  184.197; -412.147; -254.734
503.310;  317.021; -437.159; -375.713
503.593;  201.000; -464.147; -325.735
503.877;  127.197; -232.133; -156.760
504.161;  196.736;    2.847;  -50.724
504.444;  173.138; -841.158; -710.716
504.728;  763.844; -487.164; -522.704
505.012; 1099.665; -257.150;  -76.729
505.295;  820.956; -417.161; -212.711
505.579;  815.684; -256.156; -496.719
505.862; 1264.268; -555.145; -333.738
506.146; 1251.724; -681.159; -758.714
506.429;  575.925;  568.841;  461.286
506.713;  140.861; -732.151; -667.728
506.996;  492.374;   90.846;  295.278
507.280;  537.038; -633.165; -474.703
507.563;  384.291; -469.155; -261.721
507.847;  170.484; -423.153; -112.724
508.130;  160.007; -665.161; -456.711
508.413;  243.291; -758.167; -577.700
508.697;  413.566; -151.167;   12.300
508.980;  269.536; -422.153; -312.724
509.263;   31.912; -466.155; -450.720
509.547;   50.739; -124.150;   82.271
509.830;   50.285; -172.160;  140.289
510.113;   88.108;  128.844;  298.281
510.396;   74.343; -530.152; -300.725
510.680;   52.870; -818.145; -812.738
510.963;  202.354;  184.846;  180.277
511.246;  131.074; -493.150; -357.730
511.529;  310.726; -482.145;  -83.739
511.812;  606.743; -250.134;   10.241
512.095;  476.758; -740.151; -396.728
512.378;  107.804; -317.147; -245.736
512.661;   85.332; -703.137; -623.753
512.944;   95.854; -750.142; -637.744
513.227;  119.154; -170.137; -171.752
513.510;   66.912; -479.144; -671.741
513.793;   55.999; -485.140; -435.747
514.076;  170.915;  -43.127;  -39.771
514.359;  176.560; -294.149; -135.732
514.642;  143.182; -442.142; -567.744
514.925; 1140.097;  581.860;  561.253
515.208; 1643.039; -498.134; -443.758
515.491; 1057.405; -276.133; -182.761
515.773;  601.841; -410.143; -337.742
516.056; 3324.790;  249.864;  409.246
516.339; 4332.970; -754.136; -652.755
516.622; 2023.796; -518.150; -488.730
516.904;  568.425;  882.857;  975.257
517.187;  226.677; -730.138; -523.752
517.470;  429.848; -568.143; -510.743
517.752;  724.923; -624.136; -470.756
518.035;  597.612; -708.139; -725.749
518.318;  651.120; -799.136; -744.755
518.600; 4043.310; -300.132; -325.762
518.883; 5508.132;  310.858;   88.256
519.165; 2516.494; -585.138; -426.751
519.448;  438.809;  -61.132;  -19.762
519.730;  218.375; -573.126; -415.773
520.013;  252.176;  588.867;  664.240
520.295;  323.095;  -94.134;  -15.759
520.578;  676.475; -335.131; -305.764
520.860;  891.560; -254.132;   56.238
521.143;  669.951; -763.135; -584.756
521.425;  594.565; -251.125; -279.775
521.707; 1002.891; -622.127; -380.771
521.990; 2836.992; -199.127;  167.229
522.272; 3256.151; -116.140;   -4.748
522.554; 1201.692; -237.143; -157.742
522.836;  255.767;  -24.134;   99.241
523.119;  202.046; -496.148; -189.734
523.401;  188.659; -448.130; -314.766
523.683;  163.983; -865.137; -693.753
523.965;  429.525;  408.862;  260.248
524.247;  434.616;   54.878;  170.220
524.529;  318.795; -451.134; -367.759
524.812;  480.336;   -3.130;  191.234
525.094; 1372.349; -773.138; -631.751
525.376; 2202.101; -143.124;   78.223
525.658; 1345.917; -441.136; -339.754
525.940;   96.896; -805.131; -671.764
526.222;   45.846; -188.136;  -88.755
526.504;   69.969; -190.131;   32.237
526.786;   31.798; -960.133; -647.760
527.068;  113.083; -124.123;  -67.778
527.349;   14.837; -865.137; -774.754
527.631;  123.384; -137.132;   22.238
527.913;  238.190; -664.127; -450.771
528.195;  321.882; -761.125; -639.774
528.477;  384.439;  -93.134;  -30.758
528.759;  278.861; -648.130; -522.766
529.040;  172.157; -569.123; -293.778
529.322;   99.510; -235.125;  -10.774
529.604;  105.763;  -47.130;   93.233
529.886;   60.624; -546.126; -302.773
530.167;   89.753;  232.870;  192.235
530.449;   47.829;    1.853;   63.265
530.731;   73.840; -572.122; -459.779
531.012;  143.216; -513.120; -216.784
531.294;  148.588; -118.116;  -43.792
531.575;  211.990;  290.875;  538.225
531.857;  144.083; -548.135; -266.757
532.138;  113.792; -113.141;   40.254
532.420;  131.353;  294.865;  403.244
532.701;   94.551; -722.133; -751.760
532.983;  192.830;  232.867;  182.239
533.264;   51.322; -243.126;  175.228
533.546;  -26.004; -491.136; -508.755
533.827;   31.872;  173.867;   -1.759
534.109;   32.082; -352.135;  -80.757
534.390;   90.689; -725.132; -582.762
534.671;  312.603; -270.135;  -82.756
534.953;  213.460; -751.123; -611.779
535.234;   73.820; -426.117; -255.789
535.515;  -36.724; -891.119; -735.785
535.796;   -3.090; -431.128; -193.770
536.078;  -83.549;-1050.124; -904.777
536.359;   15.661;  -22.123;    3.221
536.640;   -7.716; -480.125; -197.774
536.921;  174.970;  225.871;  143.232
537.202;  565.845;  -87.138;  -16.751
537.483;  690.900;  251.869;  377.236
537.764;  275.353;   17.870;   98.235
538.045;  -25.187; -543.134; -371.758
538.326;   -4.778; -596.129; -447.768
538.607;   84.442; -686.127; -476.771
538.888;  268.430;   98.879;    5.218
539.169;  312.073; -704.122; -535.781
539.450;  420.219;  236.871;   16.233
539.731;  284.909; -361.121; -182.783
540.012;  158.591;  199.880;  412.216
540.293;  110.494;   82.876;  158.224
540.574;   -2.387; -895.113; -717.796
540.855;  526.783;  435.879;  377.218
541.136;  665.670;   47.878;  139.220
541.416;  397.812; -161.130; -220.766
541.697;  306.119; -274.131; -170.763
541.978; 1676.630; -270.135; -315.757
542.259; 2108.317; -211.127; -236.771
542.539;  969.306; -191.116; -186.790
542.820;  208.240;  461.875;  480.225
543.101;  139.997;  -52.145;  -77.738
543.381;   37.166; -638.127; -591.771
543.662;  368.989;  159.873; -254.771
543.942;  988.861; -751.127; -830.770
544.223; 1682.897;  193.878;  161.219
544.504; 1113.551; -275.124; -182.777
544.784;  903.024; -592.126; -408.773
545.065; 2555.960;  104.884; -254.791
545.345; 2990.926;  227.881;   14.215
545.626; 1979.062;  -14.113; -108.796
545.906; 1429.753;   77.869;   98.235
546.186;  604.980;   92.874;  -95.773
546.467;  322.879;   99.877;  -95.778
546.747;  492.855;  264.884;  327.210
547.027;  599.949;   91.876;  111.223
547.308;  566.160; -376.127; -530.770
547.588;  582.623;  299.871;  371.232
547.868;  241.379;  458.870;  588.235
548.149;  256.694;  609.885;  593.207
548.429;  253.140; -347.127; -299.771
548.709;  405.765; -645.120; -461.784
548.989;  761.963;   84.882;   88.213
549.269; 3334.933;   10.868;  139.239
549.550; 7793.334;  215.877;  117.222
549.830; 6967.559; -758.111; -556.799
550.110; 1343.868; -468.110; -320.801
550.390; 1322.941; -128.122;  -56.779
550.670; 1959.382; -868.114; -783.795
550.950; 1313.232; -509.121; -471.782
551.230;  268.578;  549.879;  460.218
551.510;   34.456; -381.121; -326.782
551.790;   69.953; -173.109; -127.803
552.070;  347.854;  940.877; 1181.223
552.350;  706.831; -492.119; -377.786
552.630;  988.400;   -2.121;   77.219
552.909;  557.786;  181.884;   73.209
553.189;  403.015;  -49.132;   33.237
553.469;  369.980; -703.119; -514.786
553.749;  364.069; -469.127; -357.772
554.029;  279.975;   33.883;  -24.790
554.308;  255.549; -154.115;  -37.794
554.588;  136.759; -196.128; -204.770
554.868;  158.308; -366.121;  -47.782
555.147;  291.946; -114.115;  -46.793
555.427;  979.989; -260.116; -250.792
555.707; 6195.993; -284.115; -200.793
555.986; 7757.113; -719.111; -538.800
556.266; 3922.379;   23.884;   72.210
556.546;  246.731; -888.121; -675.782
556.825;  440.655; -657.114; -556.794
557.105; 2904.431; -125.128;   17.230
557.384; 3471.109;  122.884;  187.209
557.664; 1335.688; -717.116; -508.792
557.943;  244.782; -557.121; -411.782
558.222;  338.316; -345.118; -344.788
558.502;  439.048; -116.115;  -76.793
558.781;  757.367;  194.885;  499.208
559.061;  671.516; -232.118; -227.788
559.340;  473.597;  302.883;  353.211
559.619; 1184.979;   93.884;  148.210
559.899; 1743.724; -239.117; -266.789
560.178; 1516.097; -778.115; -593.793
560.457; 4868.201; -623.117; -562.790
560.736; 6928.640; -472.111; -482.800
561.015; 4497.429; -500.128; -502.769
561.295;  545.527;  180.893;  215.193
561.574;  455.944;  119.885;  116.207
561.853;  708.483;  274.891;  303.197
562.132;  812.325;  -45.114;  182.206
562.411;  668.825;  396.879;  553.219
562.690;  276.342; -592.115; -458.792
562.969;  180.546;  472.888;  630.203
563.248;  536.698; 2966.878; 2487.219
563.527;  463.764; -290.111; -408.800
563.806;  665.915; -650.127; -521.771
564.085;  704.721; -297.105; -206.810
564.364;  460.353; -594.117; -405.790
564.643;  813.726; -276.121; -223.781
564.922; 3000.176;  221.890;  397.198
565.201; 3149.855; -640.109; -700.803
565.479; 1307.965; -297.115; -219.792
565.758;  582.382; -810.128; -712.770
566.037;  779.357; -155.109; -100.803
566.316;  392.710; -286.116;  -28.791
566.595;   84.619;  -17.115;  -12.793
566.873;  116.541; -166.111;  -79.801
567.152;  -22.505; -490.113; -590.797
567.431;   36.755; -113.116;    6.210
567.709;   48.427; -344.107; -212.807
567.988;  492.004; -810.114; -769.794
568.266;  892.118; -160.115;  -68.793
568.545;  628.553; -644.100; -514.819
568.824;  938.964;  160.885;  356.208
569.102;  966.854; -351.114; -235.794
569.381;  430.763; -492.116; -407.792
569.659;  -13.109; -553.113; -553.796
569.938;  118.745; -743.122; -465.780
570.216;  191.510; -225.109; -225.804
570.494;   39.058; -632.114; -572.795
570.773;   35.631;  202.879;  114.218
571.051;   39.407; -373.123; -357.778
571.330;  113.188; -221.113; -174.796
571.608;   94.050; -181.098; -173.823
571.886;  -39.118; -671.111; -581.799
572.164;  -11.517; -739.121; -621.782
572.443;   -8.350; -562.105; -512.811
572.721;   -8.724; -399.117; -289.790
572.999;  -12.481; -280.117; -168.788
573.277;  117.792;  379.894;  620.191
573.555;  448.195;   94.894;   37.190
573.834; 2243.768;  -86.117; -114.788
574.112; 2538.405;  880.893;  811.193
574.390;  785.390; -143.111;  -96.801
574.668;   40.572;  -91.112;  -61.797
574.946;   21.670; -165.106; -187.810
575.224;   23.130;   71.891;  -16.803
575.502;    8.707; -200.116; -204.791
575.780;  -66.577; -767.112; -829.798
576.058;  171.264; 1589.889; 1004.200
576.336;    1.471; -210.110; -129.801
576.614;  -45.101; -511.112; -340.798
576.891;  171.124; -711.115; -823.794
577.169;  849.470; -158.108; -285.805
577.447;  915.305;  169.893;  202.193
577.725;  371.054;  629.888;  854.201
578.003;   38.976;  -71.112; -371.798
578.280;  133.436; -208.104; -242.812
578.558;  118.473; -450.115; -422.793
578.836;  162.308; -210.114; -145.795
579.114;  103.371; -630.112; -670.797
579.391;   92.120;   -6.117;  -18.789
579.669;  -38.300; -595.114; -704.794
579.947;  301.276; -326.107; -127.806
580.224;  594.350; -692.107; -524.806
580.502;  506.031;  127.893;   76.193
580.779;   49.128;  -42.117;   75.210
581.057;  -51.890; -584.109; -470.804
581.334;  -69.446; -726.102; -695.815
581.612;   46.771;   54.895;  511.190
581.889;  -14.230;  -83.101; -129.818
582.167;  -18.187; -298.099; -190.821
582.444;  -82.861; -845.102; -814.817
582.721;  104.914;  657.899;  715.183
582.999;   97.209; -326.100; -167.821
583.276;  940.988; -812.123; -713.779
583.553; 1243.133; -364.102; -294.816
583.831;  466.957; -607.104; -631.812
584.108;   78.517;  349.892;  174.195
584.385;   64.228; -122.102;  -98.815
584.662;  -21.608; -651.111; -828.801
584.940;   56.091;  204.889;  204.199
585.217;    0.091;  -73.113; -303.796
585.494;   55.477;   71.890;  118.198
585.771;  344.161; -250.109; -354.804
586.048;  811.365; -196.113;  -76.796
586.325;  555.370; -721.110; -773.801
586.602;  145.112;  230.896;  213.188
586.879;   28.255; -499.100; -580.820
587.156;  112.722; -156.105; -331.810
587.433;   12.161; -701.102; -667.817
587.710;  101.099;  152.888;  234.202
587.987;  451.278; -264.105; -236.811
588.264; 1186.351;  315.888;  387.202
588.541; 1973.689;  -61.104;   26.187
588.818; 4041.964;   72.892;  171.196
589.095; 3493.059; -163.104; -174.812
589.371;  584.784; -459.109; -414.804
589.648;   68.355; -581.107; -437.807
589.925;  100.209; -517.114; -621.795
590.202;   92.649; -741.112; -607.798
590.478;  167.406; -166.105;  -73.811
590.755;  423.821; -241.108; -132.806
591.032; 3899.598; -741.110; -699.802
591.308; 5503.398; -732.094; -790.831
591.585; 2796.522; -573.110; -560.802
591.862;  318.638;-1056.102; -950.817
592.138;  148.093; -475.108; -474.805
592.415;  261.913; -486.104; -495.813
592.691; 2180.910;  460.896;  518.188
592.968; 2939.777; -208.098; -123.824
593.244; 1421.980; -695.116; -595.790
593.521;  130.513; -105.102;  -42.817
593.797;   54.492; -810.122; -720.780
594.074;  560.942; -611.096; -588.826
594.350;  988.806;  828.905;  729.172
594.626;  494.742; -303.111; -283.801
594.903;  236.264; -643.101; -645.817
595.179;  301.342;  243.896;  418.187
595.455;   46.282; -136.107; -150.807
595.731;   11.494;  -19.103;  -38.814
596.008;  -10.515; -464.111; -434.800
596.284;   94.508; -187.100; -242.820
596.560;  144.906; -501.093; -493.833
596.836;  328.199; -173.105;  -70.810
597.112;  608.094; -582.108; -437.805
597.388;  453.215;  -49.097;  -48.826
597.665;  167.294;  437.887;  530.203
597.941;  -26.883; -572.089; -658.839
598.217;   63.901; -323.110; -293.802
598.493;  421.288;   61.891; -204.804
598.769;  840.651; -175.100;  -50.819
599.045;  528.548; -490.108; -562.806
599.321;  123.257; -193.100; -261.820
599.597;  256.287; -355.109; -476.804
599.872;  747.589;  409.896;  429.187
600.148;  593.392;  -61.097; -172.826
600.424;  470.704;   91.893;  202.193
600.700;  398.106; -170.107; -280.807
600.976;  242.960; -442.097; -464.825
601.252;  417.733; -226.109; -272.803
601.527;  424.416; -833.104; -840.813
601.803;  266.106; -453.105; -404.812
602.079;  295.676; -124.100; -118.819
602.354;  926.143; -620.092; -531.835
602.630; 1333.666; -140.113; -482.796
602.906; 3474.395; -910.101; -863.818
603.181;10592.830; -627.119; -534.786
603.457; 8920.189;   98.903; -278.826
603.733; 1349.610; -605.120; -626.783
604.008; 1429.371; -245.106; -164.810
604.284; 4834.966; -636.101; -580.817
604.559; 4141.429;   -3.112;  -42.799
604.835;  774.999; -163.105; -225.810
605.110;  713.438; -732.099; -892.821
605.385; 1069.060;  224.907;  267.167
605.661; 1092.884; -625.095; -729.829
605.936; 1973.873; -664.108; -737.806
606.211; 1605.777;  -17.103; -170.815
606.487;  373.353; -329.114; -376.794
606.762;   99.206; -791.119; -745.786
607.037;   30.124; -501.105; -433.810
607.313;  -18.899; -589.096; -574.828
607.588;   35.520; -375.106; -137.810
607.863;   75.270;  -28.101; -143.818
608.138;  269.450;  513.890;  516.198
608.413;  123.318; -576.099; -592.822
608.688;  134.018; -203.108; -267.805
608.964;  355.013; -509.106; -218.809
609.239;  433.121; -107.105; -212.810
609.514;  372.506;  281.895;  240.188
609.789; 1083.386; -187.104; -716.812
610.064; 1401.149; -435.096; -609.827
610.339; 1433.184; -855.109; -799.804
610.614; 1994.382; -131.100; -315.820
610.889; 1068.131;  215.895;  107.188
611.163;  132.807; -407.104; -591.812
611.438;  152.729;   81.886; -167.794
611.713;   77.666; -467.101; -499.817
611.988;  142.719; -144.101; -328.818
612.263;   47.554; -771.102; -717.815
612.538;  297.540;  385.887;  251.204
612.812;  359.409; -832.100; -911.820
613.087;  264.949; -358.098; -338.823
613.362;   -8.818; -497.107; -557.807
613.637;   59.397;  261.897;  138.186
613.911;   29.594; -256.092; -345.835
614.186;  237.129; -249.107; -292.807
614.460; 1187.933; -842.081; -758.854
614.735; 1318.620;  -55.087;  -17.843
615.010;  277.708;   43.912;  -82.841
615.284;  367.943;  360.892;  246.195
615.559;  658.092; -792.092; -955.835
615.833;  457.466;  -76.099;  -87.822
616.108;   47.832; -225.090; -390.837
616.382;  211.722;  274.913;  402.156
616.656;  281.257; -241.090; -232.837
616.931;  832.291; -785.099; -700.822
617.205; 1705.041; -973.104; -979.813
617.480; 1560.988;  -91.125;    6.225
617.754;  297.835; -396.125; -128.774
618.028;   87.424; -369.129; -382.768
618.302;  126.966;   73.892;  -25.805
618.577;   -4.676; -371.103; -518.815
618.851;  -36.771; -399.109; -600.803
619.125;  -22.405; -335.134; -378.759
619.399;  -14.908; -244.104; -374.813
619.673;  -28.535; -330.115; -515.792
619.947;  -10.318; -333.114; -448.795
620.222;   18.293; -198.110; -204.801
620.496;   30.183;  -47.121;  -96.782
620.770;   51.048; -187.122;  -93.781
621.044;  304.872;  323.895;  346.190
621.318; 1194.286; -653.120; -614.783
621.592; 1089.609; -430.121; -409.783
621.866;  648.655; -476.112; -572.799
622.140;   72.332; -207.116; -356.791
622.413;  100.060;  138.889;  112.200
622.687;   -5.559; -746.101; -492.817
622.961;   30.866; -130.108; -143.805
623.235;  -18.264; -633.111; -661.800
623.509;  -75.445; -816.105; -848.811
623.783;   23.252;  -12.107;   48.193
624.056;   11.587; -254.120; -280.783
624.330;   77.222;   63.888;   -3.797
624.604;  124.528; -271.116; -355.790
624.877;  117.849;  180.890;   26.198
625.151;  108.001; -249.114; -238.794
625.425;  -17.356; -150.103; -283.814
625.698;  -29.951; -367.119; -374.785
625.972;  -71.073; -799.110; -765.802
626.245;   96.405;  685.884;  484.210
626.519;  -31.133; -426.120; -340.784
626.792;  -13.319; -192.107; -380.807
627.066;  -76.511; -485.122; -662.779
627.339;  -70.453; -736.110; -663.802
627.613;   47.341;  351.880;  148.216
627.886;   87.104;  187.891; -612.803
628.160;   10.236;  312.880; -161.783
628.433;  -65.559; -695.125; -703.775
628.706;  -61.683; -517.120; -615.784
628.979;   49.399;  296.876;  117.223
629.253;  -45.520; -785.119; -833.786
629.526;  624.672; -334.126; -253.772
629.799;  649.833; -641.123; -479.778
630.072;  332.101; -497.128; -516.769
630.346;   16.980;-1115.116;-1080.790
630.619;  757.207; -467.107; -545.808
630.892;  968.837;  709.889;  593.200
631.165;  471.616;  790.896;  679.187
631.438;   -8.349;-1092.112;-1055.798
631.711;   80.712;  453.877;  257.221
631.984;  -34.150; -523.117; -624.789
632.257;  -35.880; -636.117; -681.789
632.530;  -24.576; -412.119; -433.785
632.803;   36.424; -109.115;    7.207
633.076;  -62.746; -360.123; -422.777
633.349;   19.631;  173.872;  121.231
633.622;  -30.652; -187.119; -240.785
633.895; -103.188; -903.120; -823.783
634.167;  -44.275; -496.126; -525.773
634.440;   12.488;  -19.116; -137.792
634.713;   14.428;  -22.119; -120.786
634.986;  112.893;  593.871;  453.233
635.258;  -64.679; -507.115; -597.793
635.531;   97.690;  742.882; -343.788
635.804;  -18.302; -303.117; -318.789
636.077;  -86.992; -830.116; -852.791
636.349;   63.794; -586.115; -474.793
636.622;  458.521; 1695.874; 1392.228
636.894;  421.143; -474.120; -909.784
637.167;  318.564; -836.127; -789.771
637.439;   78.810; -278.128; -213.770
637.712;  -21.027; -312.126; -293.772
637.984;  -51.991; -635.116; -707.791
638.257;  492.729;  515.877;  488.222
638.529;  914.517; -881.125; -924.776
638.802;  419.551; -508.128; -449.769
639.074;  -88.578; -927.122; -952.781
639.346;  -88.315; -942.135; -930.757
639.619;    8.080;  -79.142; -319.744
639.891;    1.139;  -83.122; -168.779
640.163;  -69.059; -689.122; -756.780
640.435;   48.868;  273.878;  103.220
640.708;   21.371;  -72.122; -132.780
640.980;    5.873; -366.122; -362.781
641.252;  245.550;  -25.121;  -71.781
641.524; 2465.327;  580.879;  573.219
641.796; 2705.255;-1094.121; -907.782
642.068;  485.682; -191.121; -300.782
642.340;  -39.991; -486.121; -566.783
642.613;   51.561;  294.880;  323.217
642.885;  -82.537; -787.120; -878.783
643.157;   -1.309; -810.120; -658.784
643.428;   70.843;  170.880;  218.216
643.700;  -54.205; -498.120; -425.784
643.972;  -24.578;  -16.119; -133.785
644.244;  -78.275; -474.119; -559.785
644.516;  -53.073; -250.119; -114.786
644.788;   63.729;  662.881;  548.214
645.060;   -0.969;  -12.119; -124.786
645.332;  -94.666; -525.118; -535.787
645.603;   27.536;  479.882;  342.213
645.875;  -66.612; -334.118; -369.787
646.147;  143.190; 1487.882; 1242.212
646.418;  -13.408; -931.117; -918.788
646.690;  323.145; -714.117; -715.789
646.962;  133.697; -413.117; -451.789
647.233;   -9.351;   15.883;   11.211
647.505;  -90.824; -595.117; -475.790
647.776;   16.704;  328.884;  229.210
648.048;   27.906; -248.116; -418.790
648.320;  -29.692; -752.116; -679.791
648.591; -127.515;-1055.116; -958.791
648.862;  -81.338; -505.116; -577.792
649.134;   14.465;  115.885;  198.208
649.405;   -1.983; -661.115; -618.792
649.677;  -20.931; -475.115; -598.793
649.948;   32.371; -181.115; -296.793
650.219;    9.024;  -37.115; -147.793
650.491;  -79.974; -431.114; -520.794
650.762; -105.847; -705.114; -731.794
651.033;  -78.895; -437.114; -424.795
651.304;  -50.193; -743.114; -728.795
651.576;  -31.790; -680.114; -645.795
651.847;  -26.688; -250.113; -140.796
652.118;  -18.936;  -32.113; -189.796
652.389; -102.034; -639.113; -722.796
652.660;  -29.881; -147.113;  -89.797
652.931; -123.029; -897.112; -871.797
653.202;  -81.677; -382.112; -541.798
653.473;  -45.500; -633.112; -533.798
653.744;  302.028; -595.112; -590.798
654.015;  257.080; -356.112; -303.799
654.286;  -40.293; -642.111; -663.799
654.557;   -6.441; -586.111; -521.799
654.828; -128.714;-1114.111;-1088.800
655.099;  -75.911; -404.111; -291.800
655.370;  -91.984; -427.111; -543.801
655.641; -103.457; -656.110; -714.801
655.911;  -94.805; -618.110; -638.801
656.182;   51.698;  437.890;  387.198
656.453;   93.800;  830.890;  746.198
656.724;  -50.923; -466.110; -426.802
656.994;  -65.771; -553.109; -568.803
657.265;  -72.019; -862.109; -873.803
657.536;  -65.241; -500.109; -377.804
657.806;  -91.339; -561.109; -593.804
658.077; -117.387; -866.109; -950.804
658.347;  -72.585; -523.108; -598.805
658.618; -113.682; -646.108; -694.805
658.888;  -22.180;  -41.108;  112.195
659.159;  -76.278; -432.108; -548.806
659.429;   26.949; -292.108; -349.806
659.700;   66.826; -435.107; -390.807
659.970;   36.579; -370.107; -359.807
660.241;   95.081; -754.107; -921.807
660.511;  818.758; -147.107; -174.808
660.781;  216.285; -793.106; -748.808
661.052;  -33.487; -222.106; -381.808
661.322;  -20.610;   21.894;   -9.809
661.592;   23.292;  257.894;  148.191
661.862;  -67.306; -369.106; -382.810
662.133;  -77.728; -551.105; -502.810
662.403; -105.451; -770.105; -676.810
662.673;  -58.274; -256.105; -213.811
662.943;  -90.872; -612.105; -551.811
663.213;   24.130;  -85.105;  -81.811
663.483;  -62.167; -593.104; -568.812
663.753;  -31.265; -194.104; -152.812
664.023;   -9.913;   68.896;  -32.813
664.293;  -58.636; -319.104; -126.813
664.563; -101.683; -694.104; -648.813
664.833;  -94.381; -743.103; -608.814
665.103; -116.029; -730.103; -793.814
665.373;  -82.702; -766.103; -806.814
665.643;  -27.525; -863.103; -918.815
665.913;  121.578; -534.103; -714.815
666.182;  269.955; -685.102; -719.816
666.452;  445.607;  -22.102;  -89.816
666.722;   45.134; -724.102; -784.816
666.992; -114.938; -948.102; -921.817
667.261;  -66.036; -824.102; -808.817
667.531;  284.791;  134.899;   45.183
667.801;  852.818; -440.101; -412.818
668.070;  317.770;  714.899;  697.182
668.340;  -64.052; -883.101; -840.819
668.609;  112.475;  588.900;  301.181
668.879;  -48.898; -490.100; -558.819
669.149;  -49.471; -539.100; -516.820
669.418;  -84.543; -698.100; -726.820
669.688;   23.609; -482.100; -666.820
669.957;  169.711; -423.099; -546.821
670.226;  -13.412; -268.099; -331.821
670.496;  -71.859; -431.099; -635.822
670.765;  -69.607; -418.099; -501.822
671.034; -125.080; -872.099; -828.822
671.304;    0.447;   55.902; -111.823
671.573; -124.276;-1085.098; -957.823
671.842;  149.127; -380.098; -294.823
672.112;  110.029; -692.098; -586.824
672.381;   43.306; -239.098; -214.824
672.650; -106.717;-1005.097;-1021.825
672.919;  -69.714; -631.097; -507.825
673.188;  -76.162; -681.097; -878.825
673.457; -115.010;-1101.097;-1143.826
673.726;  -46.108; -579.096; -646.826
673.995;   -6.806; -533.096; -479.826
674.265;   18.197; -263.096; -333.827
674.534;   61.399; -183.096; -235.827
674.802;   70.126; -618.096; -703.828
675.071; 1440.128; -886.095; -801.828
675.340; 6216.731; -464.095; -339.828
675.609; 2039.458;  103.905;   82.171
675.878;  196.835; -949.095; -893.829
676.147;   76.537;  -26.095;   -8.829
676.416;  138.939; -210.094; -294.830
676.685; 1044.492; 1000.906; -622.830
676.953;  228.294; -603.094; -452.831
677.222;   10.871; -193.094; -273.831
677.491;   -7.852;  -24.094; -127.831
677.759;   18.226;   11.907;  172.168
678.028;    1.953; -279.093; -222.832
678.297;   16.505;   71.907;  197.168
678.565; -114.968; -898.093; -944.833
678.834;  -35.565; -311.093; -268.833
679.102;  -71.688; -411.092; -391.834
679.371; -126.211; -898.092; -727.834
679.639; -117.159; -797.092; -786.834
679.908; -105.757; -794.092; -724.835
680.176; -138.754; -895.091; -941.835
680.445;  -57.002; -346.091; -352.835
680.713;  -17.775;  -58.091;  -23.836
680.982;  -78.123; -523.091; -525.836
681.250;  -97.420; -578.091; -507.837
681.518;  -74.918; -534.090; -751.837
681.787;    5.909; -204.090; -167.837
682.055;  -48.739; -490.090; -422.838
682.323; -133.062; -993.090; -992.838
682.591;   69.616; -216.090; -538.838
682.859;  158.918;    9.911;  -35.839
683.128;   28.145;  232.911;  497.161
683.396; -164.978;-1102.089;-1122.840
683.664;  -17.250; -241.089;   21.160
683.932;   10.352;  144.911;  -76.840
684.200;  -64.371; -576.088; -320.841
684.468;  -18.119;  -73.088; -124.841
684.736;   -6.492; -214.088; -175.841
685.004;  -79.564;-1024.088; -982.842
685.272;   21.988; -880.088; -774.842
685.540;  -45.010; -499.087; -557.843
685.808;  -66.183; -651.087; -682.843
686.076;  -70.555; -894.087; -969.843
686.343;  -20.453; -601.087; -815.844
686.611;   92.624; -195.087; -224.844
686.879;  625.576; -530.086; -553.844
687.147; 5023.629; -483.086; -480.845
687.414; 1493.706;  -12.086; -169.845
687.682;   79.983; -658.086; -757.846
687.950;  459.785;  259.915;  263.154
688.217;   98.912; -792.085; -760.846
688.485;   42.415; -632.085; -636.847
688.753;  844.667;  -11.085; -102.847
689.020;  372.269; -820.085; -851.847
689.288;  -76.479; -853.084; -787.848
689.555;   -2.701; -195.084; -148.848
689.823;  -21.874; -241.084; -345.849
690.090;  -60.522; -546.084; -651.849
690.358; -120.445; -877.084; -897.849
690.625;   24.632;  120.917;   45.150
690.892;  -73.165; -403.083; -369.850
691.160;  -13.713;   72.917;  -35.850
691.427;   19.864;  141.917;  130.149
691.694;  -99.934; -855.083; -929.851
691.962; -121.806;-1177.082;-1060.852
692.229;   33.696;  127.918;   56.148
692.496;  127.548;  130.918;  -49.852
692.763;   44.675; -164.082; -201.853
693.031;  -45.723; -739.082; -716.853
693.298;   10.380; -509.081; -368.853
693.565;  434.857; -155.081; -163.854
693.832; 2046.009;   -5.081;   -9.854
694.099;  277.111; -643.081; -642.855
694.366;   -1.811; -882.081; -896.855
694.633;  -22.159; -920.080; -633.855
694.900;  757.068; 4367.920; -114.856
695.167;  638.870; -214.080; -380.856
695.434;  190.048; -646.080; -623.856
695.701;  248.875;  121.921;  -61.857
695.968;  692.477; -365.079; -361.857
696.234; 1180.329; -415.079; -646.858
696.501;12236.931; -776.079; -614.858
696.768; 6819.684; -554.079; -617.858
697.035;  428.411; -632.078; -667.859
697.302;   89.363; -448.078; -552.859
697.568;   40.165; -458.078; -497.859
697.835;  -18.607; -683.078; -624.860
698.102;   -4.080; -498.078; -407.860
698.368;   91.972;  384.923;  396.139
698.635;  -11.126;  -47.077; -424.861
698.901;  -16.524; -240.077; -348.861
699.168;  143.379; -534.077; -456.862
699.435;  136.531;  -72.077;  -13.862
699.701;  -79.567; -868.076; -764.862
699.968;   27.285;  144.924; -441.863
700.234;  -65.412; -783.076; -822.863
700.500;  -49.260; -448.076; -539.864
700.767;   29.117;   -1.075;   26.136
701.033; -110.306;-1015.075; -963.864
701.299;  -30.529; -450.075; -483.865
701.566;  125.074;  950.925;  763.135
701.832;   38.226;  -31.075;  -76.865
702.098;  -61.197;-1054.074;-1034.866
702.365;  -32.270;-1098.074;-1030.866
702.631;   30.333;-1038.074;-1063.867
702.897; 1803.260; -765.074; -676.867
703.163; 3303.912;  348.926;  254.133
703.429;  277.114; -256.073; -273.868
703.695;   -4.883; -796.073; -792.868
703.961;   37.694; -214.073; -210.868
704.227;  -14.704; -630.073; -725.869
704.493;  164.923;  613.927;  510.131
704.759;   14.800; -565.072; -540.870
705.025;   68.603; -203.072; -194.870
705.291;   18.055; -666.072; -562.870
705.557;  219.807;  719.928;   34.129
705.823;   71.409; -742.072; -694.871
706.089;  199.412; -307.071; -326.871
706.355;  426.464; -315.071; -244.872
706.620; 6145.391; -776.071; -729.872
706.886;10256.718; -309.071; -362.873
707.152; 1100.245; -818.070; -973.873
707.418;   38.273;-1153.070;-1186.873
707.683;   55.100; -550.070; -530.874
707.949;  -25.198; -547.070; -578.874
708.215;   21.379; -129.070; -207.874
708.480;    0.432; -520.069; -420.875
708.746;  155.184;   68.931;   28.125
709.011;  -44.039; -578.069; -612.876
709.277;  -49.587; -538.069; -543.876
709.542;  -27.460; -428.069; -387.876
709.808;   19.468;  -59.068;   89.123
710.073;  -63.180; -577.068; -695.877
710.339;   -3.453; -242.068; -228.877
710.604;  132.899; -780.068; -845.878
710.869;  503.452; -277.068; -366.878
711.135;  -38.021; -715.067; -628.879
711.400;  -68.794; -507.067; -608.879
711.665;  -52.692; -404.067; -479.879
711.931;  -70.939; -661.067; -677.880
712.196; -102.587; -876.067; -954.880
712.461;  186.990; -402.066; -490.880
712.726;  319.467; -727.066; -771.881
712.991;  -58.106; -647.066; -664.881
713.256;  -35.553; -350.066; -332.882
713.521;  -35.301; -417.065; -381.882
713.787;  -51.274; -454.065; -472.882
714.052;   -3.472; -214.065; -400.883
714.317;  -59.494;-1045.065; -981.883
714.581; 1254.558; -374.065; -268.883
714.846; 2064.060; -822.064; -888.884
715.111;  197.262;  261.936;  257.116
715.376;  -19.661;  -86.064; -223.885
715.641;   20.692; -365.064; -367.885
715.906;  458.944;   15.936; -551.885
716.171;  206.696;  221.937;  209.114
716.436;   81.173;  -78.063; -104.886
716.700;  -75.174; -818.063; -692.886
716.965; -112.272; -794.063; -807.887
717.230;  -55.295; -339.063; -392.887
717.494;  -16.993;  -40.062; -134.888
717.759;  -49.866; -784.062; -640.888
718.024;   13.062;  269.938;  250.112
718.288;   89.389;  685.938;  395.111
718.553; -117.984; -803.062; -977.889
718.817; -128.057; -883.061; -899.889
719.082;  -19.629; -115.061; -125.890
719.346; -122.402;-1000.061; -947.890
719.611;  -43.800; -300.061; -255.891
719.875;  -68.548; -568.060; -537.891
720.140;  -38.870; -453.060; -603.891
720.404;   94.507; -136.060; -249.892
720.668; 1258.459; -475.060; -411.892
720.933;  551.986;  146.940;  137.108
721.197;  -68.987; -667.059; -600.893
721.461; -106.734; -851.059; -826.893
721.725;  -14.482;  -21.059; -250.894
721.990;  -35.555; -284.059; -204.894
722.254;  -18.528;  -26.059; -108.894
722.518;  -62.325; -286.058; -442.895
722.782;  -81.723; -743.058; -594.895
723.046;  169.429;  614.942;  570.105
723.310;   18.881;  374.942;  210.104
723.574;  -80.592; -654.058; -614.896
723.838;  -81.089; -576.057; -642.897
724.102;  -44.562; -226.057; -239.897
724.366; -115.710;-1032.057; -978.897
724.630;  -79.208; -749.057; -571.898
724.894;  -57.005; -722.057; -514.898
725.158;    5.947;   38.944; -295.898
725.422;  -38.826; -394.056; -327.899
725.685;  -36.149; -441.056; -349.899
725.949;  -57.347; -566.056; -519.900
726.213;  -42.419; -732.056; -811.900
726.477;  320.283;-1020.055; -933.900
726.740;  269.635; -274.055; -104.901
727.004;  433.887; -384.055; -510.901
727.268; 4318.190; -442.055; -400.901
727.531; 1454.667; -961.055; -775.902
727.795;   -5.581; -713.054; -673.902
728.059;  -25.204; -552.054; -557.903
728.322;  -40.051; -841.054; -669.903
728.586;  103.726; -692.054; -701.903
728.849;  -38.347; -695.053; -756.904
729.112;  -98.595; -812.053; -912.904
729.376;  -95.718; -959.053; -905.904
729.639;  -60.615; -536.053; -536.905
729.903;  -91.688; -733.053; -699.905
730.166;  -39.611; -437.052; -399.906
730.429;   -0.659; -317.052; -468.906
730.693;  -38.031; -355.052; -894.906
730.956;  218.271;  810.948;  651.093
731.219; 1033.298; -310.052; -103.907
731.482;  242.225;-1003.051; -894.907
731.745;  249.627; -794.051; -935.908
732.009;   44.880;  -30.051;   50.092
732.272;  -71.993; -904.051; -771.909
732.535;  -26.741; -300.051; -310.909
732.798; -124.264;-1083.050;-1166.909
733.061;  -41.961; -430.050; -456.910
733.324;   25.416;   31.950; -180.910
733.587;   91.418;  290.950;  365.090
733.850;  -33.605; -973.049;-1050.911
734.113;   65.872;   33.951;   32.089
734.376;   36.450; -328.049; -447.912
734.639;  253.202; 1188.951; 1011.088
734.901;  124.504; -180.049; -402.912
735.164;  715.656; -883.048; -837.913
735.427; 2069.334; -166.048; -355.913
735.690;  206.261; -205.048; -234.913
735.952;   40.313; -923.048; -925.914
736.215;   56.265;-1113.048;-1009.914
736.478;  118.768; -771.047; -774.915
736.740;  329.795;   33.953;  129.085
737.003;  878.122; -658.047; -672.915
737.266; 6135.674;  -94.047;   46.084
737.528;  736.876; -682.047; -660.916
737.791;  489.404; -316.046; -327.916
738.053;  980.356;  465.954;  649.083
738.316;13102.158; -162.046; -136.917
738.578;11307.485; -770.046; -736.918
738.841;  677.013; -382.046; -446.918
739.103;  304.890; -875.045; -777.918
739.365;  782.467;   79.955;  -69.919
739.628;   64.694; -884.045; -805.919
739.890;   42.946; -758.045; -710.919
740.152;   -9.676; -692.044; -754.920
740.414;   32.351; -408.044; -359.920
740.677;   -2.022; -785.044; -634.921
740.939;    8.705; -587.044; -487.921
741.201;  418.383; -432.044; -572.921
741.463;  152.010; -689.043; -745.922
741.725;   45.462;  -21.043; -199.922
741.987;   88.889;  220.957;  116.078
742.249;   56.016; -751.043; -859.923
742.511;  365.794; -703.043; -794.923
742.773;   92.421; -546.042; -546.924
743.035;  168.573;  796.958;  533.076
743.297;    8.000; -963.042;-1013.924
743.559; 1063.003; -278.042; -262.925
743.821;  209.405; -735.042; -744.925
744.083;   53.107;  -44.041; -149.925
744.345;  -62.741; -869.041; -892.926
744.607;   57.187;   75.959;  122.074
744.868;  -31.886; -490.041; -554.927
745.130;  -60.534; -994.041;-1008.927
745.392;   77.968;   -1.040;  -44.927
745.653;   31.995; -411.040; -378.928
745.915;  182.248;  896.960;  631.072
746.177;  105.200;   35.960;  -43.928
746.438;   54.577; -428.040; -543.929
746.700;   20.529; -947.039; -988.929
746.961;   67.832; -659.039; -740.930
747.223;  230.484; -190.039;  -74.930
747.484;  182.011; -391.039; -471.930
747.746;  235.163;  -23.038; -106.931
748.007;  235.115; -647.038; -689.931
748.269;  444.843; -468.038; -440.931
748.530;  800.495; -852.038; -638.932
748.791;  413.922; -354.038; -420.932
749.053;  638.874;  286.963;  163.067
749.314;  695.902; -236.037; -169.933
749.575;  826.554; -945.037; -905.933
749.836; 1274.731; -217.037;   86.066
750.098; 3121.233;  -60.037;  -21.934
750.359;49957.910;  414.964;  555.066
750.620;15786.238; -121.036; -220.935
750.881; 1555.540; -585.036; -513.935
751.142; 1982.867; -950.036; -938.936
751.403;21146.669; -789.036; -705.936
751.664;11742.222;-1034.035; -999.936
751.925;  760.874; -175.035; -262.937
752.186;  446.276; -298.035; -278.937
752.447;  250.828; -590.035; -445.937
752.708;  131.081; -532.035; -648.938
752.969;   86.658; -566.034; -576.938
753.230;   64.335; -777.034; -672.939
753.491;   77.587; -650.034; -631.939
753.751;  116.139;  109.966;   19.061
754.012;  134.292;  258.967;  181.060
754.273;  103.544; -174.033;  -71.940
754.534;   79.821; -487.033; -580.940
754.794;  -48.152; -926.033; -911.941
755.055;  168.076; 1051.967;  881.059
755.316;  -11.397; -700.032; -566.942
755.576;   24.830; -606.032; -576.942
755.837;   -6.293; -527.032; -695.942
756.097;    1.884; -530.032; -564.943
756.358;  -45.363; -725.032; -770.943
756.618;   -9.661; -705.031; -641.943
756.879;   41.341; -254.031; -349.944
757.139;  -69.732;-1098.031;-1116.944
757.400;  -23.629; -538.031; -553.945
757.660;   13.698; -365.031; -401.945
757.920;   44.850; -266.030; -228.945
758.181;   18.402; -468.030; -351.946
758.441;  -62.246; -870.030; -809.946
758.701;    4.982; -308.030; -215.946
758.961;    0.659; -220.030; -278.947
759.222;  -13.189; -574.029; -502.947
759.482;  -50.412; -683.029; -723.948
759.742;  -51.734; -706.029; -547.948
760.002;   11.868;  -83.029; -143.948
760.262;   51.445;   50.972;  182.051
760.522;  -19.678; -498.028; -574.949
760.782;  -32.450; -738.028; -612.949
761.042;  -22.398; -618.028; -573.950
761.302;   68.954;   55.972;  -18.950
761.562;   58.056; -164.027; -154.951
761.822;  150.358; -710.027; -551.951
762.082;  -10.964;-1104.027;-1093.951
762.342;   86.213; -328.027; -403.952
762.601;  100.740; -567.027; -506.952
762.861;  462.017; -281.026; -207.952
763.121;  413.170; -406.026; -411.953
763.381; 6546.847; -499.026; -485.953
763.640; 9107.174; -139.026; -307.954
763.900;  388.626; -242.026; -203.954
764.160;  106.353; -458.025; -491.954
764.419;    8.531; -726.025; -782.955
764.679;  -65.492; -795.025; -726.955
764.939;   -2.290; -124.025; -210.955
765.198;  -69.838; -608.025; -563.956
765.458;  -70.935; -710.024; -612.956
765.717;  -69.733; -454.024; -590.957
765.976;  -53.581; -428.024; -411.957
766.236;  -63.329; -475.024; -610.957
766.495;   24.948;  260.977;   73.042
766.755;  -41.774;-1090.023; -987.958
767.014;   67.703; -594.023; -665.958
767.273;  -44.670; -373.023; -397.959
767.533;  -28.918; -228.023; -307.959
767.792;  -13.690; -151.022; -188.960
768.051;  -56.963; -228.022; -276.960
768.310;  -83.386; -546.022; -650.960
768.569;   -0.384; -161.022;    4.039
768.828;  -31.356; -285.022; -363.961
769.088;  -87.954;-1050.021; -942.961
769.347;  -76.852; -755.021; -599.962
769.606;  -81.950; -876.021; -857.962
769.865; -113.198;-1016.021;-1033.963
770.124;   14.755; -411.021; -336.963
770.383;  -19.668; -778.020; -910.963
770.641;   39.009; -398.020; -400.964
770.900;  -56.414; -953.020; -846.964
771.159;  -10.986; -851.020; -951.964
771.418;    5.616; -917.020; -779.965
771.677;  164.568; -224.019; -293.965
771.936;  194.220; -794.019; -865.966
772.194; 1970.697; -465.019; -437.966
772.453;13078.575; -213.019; -391.966
772.712; 1069.452;  416.982;  329.033
772.970;  144.154;   32.982;   63.033
773.229;   93.831;  -22.018;  102.033
773.488;  -66.816; -814.018; -770.968
773.746;   44.186;  296.982;  335.032
774.005;    2.763;  190.983;  -22.969
774.263;   29.440;  243.983;  177.031
774.522;  -43.358; -422.017; -548.969
774.780;  -75.630; -484.017; -417.970
775.039;  -88.678; -551.017; -531.970
775.297;  -22.751; -135.016; -351.970
775.555; -100.849; -489.016; -612.971
775.814; -104.346; -618.016; -570.971
776.072; -106.019; -749.016; -740.971
776.330;  -92.392; -630.016; -520.972
776.589; -117.715; -703.015; -721.972
776.847; -116.612; -645.015; -624.973
777.105; -162.885;-1016.015;-1032.973
777.363;  -68.758; -459.015; -454.973
777.621; -129.731; -660.015; -717.974
777.879;  -27.304;  -42.014;   32.026
778.138;  -86.376; -554.014; -717.974
778.396;  -99.049; -585.014; -526.975
778.654; -154.722;-1015.014; -970.975
778.912;  -49.870; -269.014; -371.976
779.170; -118.392; -880.013; -803.976
779.427; -117.190; -922.013; -897.976
779.685; -123.788; -880.013; -832.977
779.943;  -45.761; -654.013; -593.977
780.201; -135.559; -964.012; -883.978
780.459;  -99.956; -651.012; -610.978
780.717;  -73.429; -440.012; -390.978
780.974;  -95.152; -449.012; -490.979
781.232;  -73.175; -358.012; -338.979
781.490;  -44.772; -551.011; -472.979
781.747;  -87.720; -555.011; -476.980
782.005;   22.707;  462.989;  254.020
782.263; -157.366; -542.011;-1004.981
782.520;  -81.489; -326.011; -501.981
782.778; -152.036;-1013.010;-1051.981
783.035; -147.184; -962.010; -938.982
783.293;  -73.207; -248.010; -206.982
783.550;  -49.805; -134.010; -198.982
783.808; -124.502; -764.010; -776.983
784.065; -154.800; -745.009; -874.983
784.322;  -44.098;   25.991;  -86.984
784.580; -119.271; -915.009; -771.984
784.837;  -98.018; -392.009; -466.984
785.094; -110.591; -783.009; -762.985
785.352;  -59.939; -304.008; -404.985
785.609;  -43.687; -934.008; -839.985
785.866;  -75.135; -345.008; -401.986
786.123;  -27.532; -639.008; -583.986
786.380;  -89.080; -665.008; -604.987
786.637;  -36.553; -225.007; -380.987
786.895;   30.974; -456.007; -543.987
787.152;  -35.998; -135.007; -267.988
787.409;  -43.221; -123.007; -225.988
787.666;  -50.969; -299.006; -378.988
787.923; -106.692; -616.006; -695.989
788.179;  -77.965; -551.006; -584.989
788.436;  -96.987; -585.006; -585.990
788.693;  -29.310;  -92.006;  -87.990
788.950;  206.892; -125.005; -112.990
789.207;  435.744; -381.005; -372.991
789.464;  -40.153; -161.005; -301.991
789.720;  -12.526;  150.995;  110.009
789.977; -147.274;-1003.005; -671.992
790.234;  -40.897;   44.996;  -66.992
790.490; -149.845; -884.004;-1031.993
790.747;  -24.217;  -85.004;   22.007
791.004;    3.960; -426.004; -348.993
791.260;  -56.438; -430.004; -560.994
791.517;  -87.461; -843.003; -788.994
791.773;  -15.058; -379.003; -342.994
792.030; -102.256; -596.003; -660.995
792.286;  -77.929; -686.003; -636.995
792.543;   -0.552;  -74.002; -159.995
792.799;  -49.174; -584.002; -382.996
793.055; -144.122;-1179.002;-1210.996
793.312;  -76.595; -827.002; -816.997
793.568;  -42.343; -746.002; -599.997
793.824;   22.309; -226.001; -284.997
794.081;   38.737; -447.001; -508.998
794.337;   86.639; -664.001; -561.998
794.593; 1098.366; -319.001; -271.999
794.849; 7389.043; -746.001; -772.999
795.105;  482.371; -270.000; -261.999
795.361;   38.448; -490.000; -457.000
795.617;  -34.850; -875.000; -945.000
795.873;  -22.375; -360.000; -407.000
796.129;  -25.600; -368.000; -306.000
796.385;   -2.675; -124.000; -156.000
796.641;   71.925;  412.000;  550.000
796.897;  -68.375; -666.000; -635.000
797.153;   64.875;  453.000;  357.000
797.409;  -71.800; -785.000; -868.000
797.665;  -54.800; -625.000; -732.000
797.921;  -46.700; -775.000; -762.000
798.176;  -26.825; -744.000; -747.000
798.432;  -25.800; -824.000; -596.000
798.688;  -41.725;-1174.000;-1078.000
798.943;  110.075; -165.000; -147.000
799.199;   42.250;-1005.000; -959.000
799.455;  263.750;  369.000;  316.000
799.710;  201.550; -813.000; -380.000
799.966;  404.400; -162.000; -160.000
800.221;  590.125; -638.000; -721.000
800.477;11294.575; -743.000; -710.000
800.732;13570.900; -773.000; -800.000
800.988;  802.800;  205.000;  -19.000
801.243; 1472.275; -454.000; -344.000
801.498; 8168.325; -814.000; -739.000
801.754;  573.725; -289.000; -163.000
802.009;  105.200; -257.000; -335.000
802.264;  -15.825; -967.000;-1033.000
802.520;   44.100;  222.000;   -3.000
802.775;  -25.075; -524.000; -359.000
803.030;   53.050;  395.000;  356.000
803.285;  -96.050; -840.000; -903.000
803.540;  -24.100; -686.000; -699.000
803.795;    5.700; -648.000; -583.000
804.051;  -28.525; -279.000; -346.000
804.306;   26.950;  168.000;  128.000
804.561;  194.075;  451.000;  362.000
804.816;  140.025;  714.000;  861.000
805.071;   42.800; -185.000; -280.000
805.325;  356.700; -257.000; -427.000
805.580;  -58.275; -841.000; -877.000
805.835;   -3.000; -204.000; -297.000
806.090;  -53.650; -760.000; -676.000
806.345;   11.275; -344.000; -264.000
806.600;    2.800; -549.000; -632.000
806.854;   -2.975; -408.000; -538.000
807.109;   11.300; -493.000; -577.000
807.364;   19.500; -407.000; -328.000
807.618;   24.350; -415.000; -381.000
807.873;   95.075; -470.000; -494.000
808.128;  140.400; -257.000; -518.000
808.382;  149.150; -224.000; -332.000
808.637;  117.250; -440.000; -511.000
808.891;  218.225; -257.000; -180.000
809.146;  158.800; -902.000; -794.000
809.400;  340.825; -848.000; -923.000
809.654;  422.850; -779.000; -551.000
809.909;  605.275; -841.000; -927.000
810.163; 6750.300; -813.000; -651.000
810.418;24003.275; -940.000; -861.000
810.672; 1468.425; -685.000; -690.000
810.926;  766.750; -993.000; -973.000
811.180; 1284.875; -439.000; -372.000
811.434;27103.575;  240.000;  135.000
811.689;15084.525; -231.000; -365.000
811.943;  782.375; -936.000; -953.000
812.197;  353.425; -893.000; -671.000
812.451;  149.900; -379.000; -514.000
812.705;    0.550; -809.000; -619.000
812.959;   10.075; -263.000; -388.000
813.213;   14.350; -283.000; -209.000
813.467;   66.300;  470.000;  253.000
813.721;  -90.675; -764.000; -792.000
813.975;  -95.625; -826.000; -877.000
814.229;   58.200;  430.000;  353.000
814.482;  -42.950; -517.000; -566.000
814.736;  -95.025; -766.000; -744.000
814.990; -124.000; -779.000; -872.000
815.244;  -33.600; -228.000; -285.000
815.497;  -80.100; -636.000; -601.000
815.751;    1.150; -141.000;   82.000
816.005;  -78.800; -470.000; -586.000
816.258;  -49.425; -510.000; -363.000
816.512;  -92.425; -693.000; -610.000
816.766;   18.975;  121.000;  157.000
817.019;   39.325;  148.000;  149.000
817.273;  -83.700;-1000.000; -802.000
817.526;  -26.675; -206.000; -173.000
817.779;   29.675;-1049.000; -960.000
818.033;   -7.050; -693.000; -807.000
818.286; -107.850; -725.000; -792.000
818.540;  -72.925; -403.000; -403.000
818.793;  -63.175; -402.000; -489.000
819.046;  -96.675; -582.000; -520.000
819.299;  -30.975; -157.000; -166.000
819.553; -103.600; -552.000; -592.000
819.806; -138.775;-1016.000; -838.000
820.059;  -63.250; -334.000; -354.000
820.312;   26.875;  152.000;  185.000
820.565;  -22.825;  110.000;  -27.000
820.818;  -41.925;  -59.000; -173.000
821.071; -156.550;-1041.000; -957.000
821.324;  -94.225; -536.000; -540.000
821.577;  -96.225; -457.000; -483.000
821.830;  -58.250; -270.000; -172.000
822.083; -105.550; -733.000; -288.000
822.336;  -35.450; -261.000; -167.000
822.589; -126.275; -805.000; -688.000
822.842; -122.350; -875.000; -770.000
823.094; -163.075;-1076.000;-1114.000
823.347; -121.275; -925.000; -729.000
823.600;   22.375;  402.000;  187.000
823.853;  -40.350; -311.000; -267.000
824.105;  -58.875; -331.000; -575.000
824.358;  -83.250; -617.000; -716.000
824.611;   61.200;  234.000;   40.000
824.863;  -10.475; -612.000; -591.000
825.116;   75.350;  -33.000;   27.000
825.368;  153.175; -366.000; -372.000
825.621;  253.400; -186.000; -240.000
825.873;  169.950; -704.000; -737.000
826.126;  663.325; -669.000; -641.000
826.378;14052.750; -389.000; -505.000
826.630; 5028.750; -890.000; -898.000
826.883;  146.025; -754.000; -693.000
827.135;  107.825; -279.000; -270.000
827.387;  -76.825; -893.000; -839.000
827.639;  -14.850;  -86.000;   32.000
827.892; -106.450; -742.000; -582.000
828.144; -130.600; -848.000; -804.000
828.396;  -38.125;  104.000;  -80.000
828.648;  -99.250; -440.000; -333.000
828.900; -139.075; -702.000; -795.000
829.152; -102.200; -684.000; -683.000
829.404;  -49.750; -215.000; -267.000
829.656;    8.375;  321.000;  214.000
829.908;  -12.250;  393.000;  229.000
830.160; -165.525;-1064.000;-1047.000
830.412;  -72.075; -481.000; -430.000
830.664; -101.975; -557.000; -665.000
830.916;  -65.500; -268.000; -206.000
831.167; -174.200;-1073.000; -951.000
831.419;  -96.925; -623.000; -566.000
831.671; -146.225; -764.000; -809.000
831.923;  -75.175; -311.000; -447.000
832.174;  -64.875; -273.000; -331.000
832.426;  -93.925; -493.000; -582.000
832.678; -176.100;-1043.000;-1091.000
832.929; -150.150; -947.000; -935.000
833.181;  -17.450; -575.000; -677.000
833.432;  -32.250;  -59.000; -186.000
833.684;  -21.350;  112.000;  -27.000
833.935;  -98.300; -610.000; -566.000
834.187; -125.475; -829.000; -823.000
834.438;  -32.850;  -58.000;  -25.000
834.689;  -52.750; -255.000; -123.000
834.941;  -44.875; -343.000; -244.000
835.192;  -82.925; -590.000; -533.000
835.443;  -83.175; -419.000; -506.000
835.695;  -11.850;  138.000;  -16.000
835.946;  -75.725; -608.000; -378.000
836.197;  -91.000; -599.000; -622.000
836.448;  -75.800; -528.000; -395.000
836.699;  -45.050; -253.000; -341.000
836.950;   28.225;   72.000;    7.000
837.201; -134.500;-1003.000; -987.000
837.452;  -19.650; -356.000; -170.000
837.703;  -91.325; -791.000; -737.000
837.954;   -9.825; -205.000; -365.000
838.205;  -58.400;-1029.000;-1008.000
838.456;  288.650; -196.000; -282.000
838.707;   66.550; -423.000; -519.000
838.958;   59.975; -634.000; -647.000
839.209;  417.575;   18.000;   40.000
839.460;  208.375; -439.000; -201.000
839.710;  243.750; -135.000; -297.000
839.961;  561.625;  730.000;  612.000
840.212;  462.525; -382.000; -497.000
840.462; 1318.825; -328.000; -277.000
840.713;20575.650; -571.000; -536.000
840.964;11613.600;  -62.000; -143.000
841.214;  750.250; -384.000; -624.000
841.465;  757.825; -214.000; -141.000
841.715;  707.350; -417.000; -380.000
841.966;  862.625; -746.000; -685.000
842.216; 8952.650; -330.000; -431.000
842.466;45798.250; -169.000; -313.000
842.717; 3788.325; -964.000; -952.000
842.967;  462.575; -635.000; -641.000
843.217;  412.425;   20.000;   28.000
843.468;  112.250; -104.000; -132.000
843.718;   14.775; -718.000; -726.000
843.968;  -49.900; -837.000; -765.000
844.218;   52.400; -315.000; -262.000
844.469;   12.300; -577.000; -561.000
844.719;  -88.300; -537.000; -682.000
844.969;  -77.150; -550.000; -580.000
845.219; -136.950; -814.000; -862.000
845.469;  -62.425; -392.000; -342.000
845.719; -131.975; -792.000; -884.000
845.969;   -6.350;  119.000;  174.000
846.219; -112.550; -738.000; -720.000
846.469;   42.200;  464.000;  432.000
846.718;  -44.100; -115.000;   31.000
846.968; -107.100; -827.000; -827.000
847.218;  -36.475; -224.000; -371.000
847.468;    6.700; -586.000; -555.000
847.718; -132.350; -827.000; -798.000
847.967; -105.125; -826.000; -915.000
848.217;  -79.575; -449.000; -569.000
848.467;  -45.700; -405.000; -376.000
848.716;  -93.750; -708.000; -725.000
848.966;   35.300; -372.000; -358.000
849.215;  -33.175; -428.000; -419.000
849.465;  -66.650; -785.000; -615.000
849.714; -113.525;-1132.000;-1150.000
849.964;  -23.900; -551.000; -613.000
850.213;   18.975; -393.000; -355.000
850.463;  113.975;  137.000;  340.000
850.712;   51.325; -542.000; -567.000
850.961;   77.750; -739.000; -678.000
851.211;  183.500; -513.000; -504.000
851.460;  256.475; -635.000; -650.000
851.709;  691.700;  -25.000;   18.000
851.958;11464.300; -912.000; -750.000
852.208;19631.025; -859.000; -879.000
852.457;  841.325; -181.000;  -13.000
852.706;  155.100; -791.000; -823.000
852.955;   96.225; -507.000; -528.000
853.204;  -43.625; -521.000; -461.000
853.453;  -53.125; -418.000; -458.000
853.702; -111.050; -660.000; -750.000
853.951;  -96.075; -532.000; -520.000
854.200; -107.150; -613.000; -562.000
854.449; -119.300; -695.000; -661.000
854.698;  -91.700; -340.000; -279.000
854.946;  -63.075; -181.000; -284.000
855.195; -133.200; -843.000; -868.000
855.444;  -80.350; -395.000; -420.000
855.693; -132.950; -345.000; -432.000
855.941;  -97.575; -387.000; -516.000
856.190;  -53.550; -256.000; -382.000
856.439; -107.100; -652.000; -703.000
856.687;  -53.200;  -99.000;  -72.000
856.936; -112.775; -621.000; -323.000
857.184; -180.075;-1067.000;-1020.000
857.433; -104.975; -423.000; -512.000
857.681; -153.425; -989.000; -953.000
857.930;  -56.050; -282.000; -433.000
858.178; -157.725; -856.000; -929.000
858.427; -133.325; -802.000; -781.000
858.675; -105.775; -377.000; -544.000
858.923;  -94.000; -527.000; -819.000
859.172; -164.850;-1094.000;-1070.000
859.420;  -71.375; -339.000; -239.000
859.668; -136.500; -624.000; -628.000
859.916;  -24.475;  109.000;  115.000
860.164; -106.150; -699.000; -603.000
860.413;  418.350; -878.000; -696.000
860.661;  523.975; -709.000; -577.000
860.909;  -63.575; -339.000; -325.000
861.157;  -68.250; -277.000; -444.000
861.405; -106.650; -534.000; -670.000
861.653;   18.825;  310.000;  310.000
861.901;  286.375; -543.000; -613.000
862.149;  138.000; -801.000; -824.000
862.396;  -77.700; -297.000; -187.000
862.644;  -94.150; -368.000; -347.000
862.892;  -39.250;   98.000;  138.000
863.140; -120.625; -549.000; -530.000
863.388; -145.200; -815.000; -759.000
863.635; -124.625; -642.000; -601.000
863.883;  -12.875;  231.000;  190.000
864.131;  -91.400; -288.000; -357.000
864.378; -131.650; -675.000; -540.000
864.626;  -95.750; -347.000; -415.000
864.873; -103.975; -556.000; -505.000
865.121; -134.225; -714.000; -799.000
865.368;  -56.650; -173.000;   75.000
865.616;  -24.150;  -33.000;  -40.000
865.863;  -54.325; -462.000; -506.000
866.111; -103.625; -795.000; -824.000
866.358;   45.900; -426.000; -420.000
866.605; 2220.525;  -64.000; -804.000
866.853; 3219.800; -621.000; -537.000
867.100;   12.525; -728.000; -775.000
867.347;  -72.600; -672.000; -611.000
867.594;  -65.125; -740.000; -714.000
867.841;  163.200;   97.000;   17.000
868.089; -130.000; -746.000; -698.000
868.336; -104.525; -477.000; -420.000
868.583; -136.150; -637.000; -741.000
868.830;  -53.075; -131.000; -170.000
869.077; -156.350; -859.000; -787.000
869.324; -120.625; -502.000; -458.000
869.571; -114.025; -398.000; -430.000
869.818; -123.900; -485.000; -439.000
870.065; -103.700; -439.000; -513.000
870.311; -114.350; -456.000; -542.000
870.558; -106.200; -332.000; -311.000
870.805;  -78.175; -320.000; -384.000
871.052; -106.700; -494.000; -369.000
871.298;  -41.725; -204.000; -131.000
871.545;  -63.600; -151.000; -185.000
871.792;  -81.275; -173.000; -222.000
872.038;  -66.925;   43.000; -126.000
872.285; -107.900; -496.000; -387.000
872.532;  -90.650; -357.000; -387.000
872.778;   12.950;  556.000;  403.000
873.025;  -90.950; -384.000; -359.000
873.271;    8.050;  501.000;  578.000
873.517;  -11.725; -133.000; -209.000
873.764;   -1.675; -193.000;  -80.000
874.010;  -53.225; -143.000; -230.000
874.257;  -42.300;  123.000;   90.000
874.503; -120.250; -579.000; -479.000
874.749;  -62.550;   31.000;  275.000
874.995;  -73.825;  -80.000;  -20.000
875.242; -111.225; -540.000; -478.000
875.488; -111.200; -414.000; -439.000
875.734;  -32.900; -106.000; -234.000
875.980;  295.225; -872.000;-1032.000
876.226;  704.950; -157.000; -255.000
876.472;   26.075;  343.000;  237.000
876.718;  -36.800;  184.000;  158.000
876.964;  -47.000;   56.000;   55.000
877.210; -111.500; -547.000; -677.000
877.456; -137.975; -630.000; -557.000
877.702; -158.725; -821.000; -832.000
877.948; -115.050; -377.000; -497.000
878.193;    7.950;  361.000;  255.000
878.439;  -75.125; -487.000; -472.000
878.685;  -76.725; -272.000; -343.000
878.931; -142.150; -618.000; -676.000
879.176;  -75.100; -201.000; -201.000
879.422; -164.650; -933.000; -820.000
879.668;   49.450;   10.000;   79.000
879.913;  263.600;   53.000;  137.000
880.159;  -34.600; -112.000;  -17.000
880.404;  -58.750; -152.000; -162.000
880.650;  -38.050;   91.000;  141.000
880.895; -146.175; -670.000; -710.000
881.141; -115.250; -454.000; -428.000
881.386; -153.225; -503.000; -658.000
881.631;  -72.425; -311.000; -166.000
881.877;  -23.300;  112.000;  -13.000
882.122; -129.300; -684.000; -600.000
882.367;  -92.725; -136.000; -186.000
882.612;  -67.400;  -80.000; -176.000
882.858; -166.250; -877.000; -823.000
883.103;  -83.950; -297.000; -267.000
883.348; -153.775; -759.000; -852.000
883.593; -129.600; -677.000; -602.000
883.838;  -53.975; -311.000;  -24.000
884.083;   50.500;  353.000;  288.000
884.328;  -92.725; -564.000; -545.000
884.573;  -47.600; -196.000; -143.000
884.818;  278.900; -694.000; -531.000
885.063;  414.625; -348.000; -315.000
885.308;  -81.225; -475.000; -398.000
885.553;   -8.925;  245.000;  325.000
885.797; -132.625; -545.000; -615.000
886.042;  -52.375;    8.000;   58.000
886.287;  -90.250; -253.000; -211.000
886.532;  -54.575;   26.000;  204.000
886.776; -101.150; -407.000; -525.000
887.021; -140.775; -621.000; -574.000
887.265; -147.475; -685.000; -689.000
887.510; -127.400; -557.000; -496.000
887.755;  -90.775; -194.000; -164.000
887.999; -127.525; -552.000; -575.000
888.244;  -52.725;  -58.000;  161.000
888.488;    1.000;  371.000;  393.000
888.732; -123.200; -368.000; -520.000
888.977; -115.475; -622.000; -567.000
889.221; -139.250; -683.000; -659.000
889.465; -111.500; -422.000; -566.000
889.710;  -74.950;  -56.000; -299.000
889.954;   -4.450;  579.000;  467.000
890.198; -134.075; -584.000; -707.000
890.442; -141.225; -716.000; -712.000
890.687; -160.900; -800.000; -753.000
890.931;  -88.550; -273.000; -210.000
891.175; -122.525; -502.000; -500.000
891.419;  -79.625; -105.000; -110.000
891.663;  -92.750; -239.000; -112.000
891.907; -167.825; -801.000; -545.000
892.151; -167.650; -920.000; -815.000
892.395; -100.700; -274.000; -387.000
892.638;  -25.275;  408.000;  291.000
892.882; -180.925; -780.000; -867.000
893.126;   15.525;  758.000;  558.000
893.370;  -90.575; -167.000; -168.000
893.614; -152.050; -714.000; -715.000
893.857;  -90.400; -183.000; -197.000
894.101; -132.350; -527.000; -631.000
894.345;  -53.125;  300.000;  150.000
894.588;    7.925;  569.000;  380.000
894.832;  -67.475; -178.000;  -84.000
895.075;  -80.550;   15.000;  -92.000
895.319; -120.775; -552.000; -420.000
895.563; -111.550; -413.000; -353.000
895.806; -145.050; -628.000; -741.000
896.049;  -26.725; -576.000; -368.000
896.293;  153.600;  527.000;  405.000
896.536;  -32.525; -465.000; -468.000
896.779;  -41.450; -149.000;   -1.000
897.023; -133.675; -751.000; -714.000
897.266;  -18.875;  325.000;  269.000
897.509; -174.750; -900.000; -901.000
897.752;  -40.025;  149.000;  171.000
897.996; -188.525; -972.000; -864.000
898.239;  -53.550;  168.000;  102.000
898.482; -125.400; -431.000; -453.000
898.725;  -31.725;  101.000;   53.000
898.968; -131.700; -609.000; -744.000
899.211;  -91.450; -513.000; -361.000
899.454; -106.950; -633.000; -539.000
899.697;  -66.350;   90.000;  -43.000
899.940; -155.700; -761.000; -757.000
900.182;  -99.500; -335.000; -405.000
900.425;  -94.900; -150.000; -298.000
900.668;  -22.525;  491.000;  350.000
900.911; -107.550; -292.000; -345.000
901.154;  -49.575;  141.000;   -3.000
901.396; -128.425; -407.000; -412.000
901.639; -143.125; -430.000; -496.000
901.882; -170.600; -790.000; -809.000
902.124;  -82.250;  -29.000; -143.000
902.367; -125.150; -315.000; -361.000
902.609; -131.575; -476.000; -453.000
902.852;  -93.575; -108.000; -260.000
903.094; -111.775; -458.000; -337.000
903.337;  -65.225;  -26.000;   53.000
903.579; -112.375; -228.000; -441.000
903.821; -166.450; -597.000; -744.000
904.064;  -58.925;   85.000;  127.000
904.306;  -95.225; -126.000; -166.000
904.548; -104.375; -152.000; -366.000
904.790;  -87.050; -195.000; -340.000
905.033; -116.825; -625.000; -577.000
905.275; -126.025; -513.000; -524.000
905.517;   54.275;  468.000;  256.000
905.759;  -18.525; -667.000; -761.000
906.001;  -78.250; -322.000; -369.000
906.243;  -47.825; -162.000; -224.000
906.485;  178.550; -265.000; -207.000
906.727;  291.275; -499.000; -542.000
906.969;    3.100;  -30.000; -135.000
907.211;  209.350; -316.000; -382.000
907.453;  486.250; -188.000; -237.000
907.695;  102.750; -158.000; -385.000
907.936;   54.800;  818.000;  706.000
908.178;  -53.000;   92.000; -135.000
908.420;  -59.700; -111.000; -162.000
908.662; -129.075; -633.000; -682.000
908.903;  -65.125; -208.000; -123.000
909.145;  -63.250; -240.000; -305.000
909.386;    0.975;  315.000;  280.000
909.628;   23.675;  363.000;  397.000
909.870;   18.200;   29.000;  264.000
910.111;  -82.800; -809.000; -949.000
910.353;   33.725; -123.000; -161.000
910.594;   14.325; -574.000; -606.000
910.835;   93.100; -265.000; -326.000
911.077;  170.275; -503.000; -604.000
911.318;  305.850; -505.000; -471.000
911.559;  472.825; -577.000; -880.000
911.801; 1244.500; -284.000; -280.000
912.042; 8926.050;  -50.000; -159.000
912.283;28777.750;  404.000;  371.000
912.524; 6041.425; -396.000; -457.000
912.765;  634.150; -193.000;   79.000
913.006;  272.325; -307.000; -338.000
913.247;   83.575; -270.000; -290.000
913.488;    4.525;  -43.000;   30.000
913.729;  -50.575; -373.000; -373.000
913.970;  -61.400;  -96.000; -292.000
914.211;  -69.800; -160.000; -198.000
914.452;  -56.775; -118.000;  -11.000
914.693;   13.325;  510.000;  592.000
914.934;    3.925;  510.000;  440.000
915.175;  -54.425;   53.000;  -95.000
915.415;  -67.550; -137.000;   27.000
915.656;  -46.675;  -28.000;  192.000
915.897;  -90.150; -252.000;  -82.000
916.137;  -65.325;   74.000;   -9.000
916.378; -117.425; -573.000; -517.000
916.619;  -65.100; -159.000;  -63.000
916.859;  -31.800;  303.000;  330.000
917.100;  129.550; 1655.000; 1070.000
917.340;   48.975;  930.000;  728.000
917.581;   61.700;  965.000;  789.000
917.821;   -6.450; -171.000;  143.000
918.061;   71.325; -199.000;  -72.000
918.302;  -44.650; -152.000; -211.000
918.542;   -6.325;  -22.000;    3.000
918.782;   63.450;  369.000;  377.000
919.023;  164.925;  360.000;  427.000
919.263; 1881.250; 8131.000;  202.000
919.503; 1792.300; -137.000;  -54.000
919.743;  940.225;  390.000;  266.000
919.983;  524.550; -134.000;  -26.000
920.223;  132.450;  135.000;   14.000
920.463;  185.125;  631.000;  554.000
920.703;  174.850;   84.000;   39.000
920.943;  241.825; -110.000;   90.000
921.183;  312.300; -414.000; -405.000
921.423;  638.550;  307.000;  546.000
921.663;  920.225; -174.000; -257.000
921.903; 1851.925;  237.000;  173.000
922.143; 9482.300;  372.000;  389.000
922.383;40207.050;  158.000;  115.000
922.622;18487.700; -120.000;  -15.000
922.862; 1878.775;  796.000;  785.000
923.102;  658.175;  -51.000;   33.000
923.341;  305.325;   59.000;   74.000
923.581;  134.975;  450.000;  360.000
923.821;   55.600;  301.000;  398.000
924.060;   26.000;  351.000;  193.000
924.300;  -34.300;  -16.000; -128.000
924.539;    4.300;  584.000;  473.000
924.779;   23.725;  812.000;  597.000
925.018;  -55.775;  247.000;  353.000
925.257;    5.225;  595.000;  666.000
925.497;  -38.675;  447.000;  412.000
925.736;  -56.725;  -35.000;  102.000
925.975;    1.725;  687.000;  669.000
926.214;   33.250;  907.000;  850.000
926.454;   13.900;  706.000;  757.000
926.693;  -16.275;  419.000;  543.000
926.932;   44.075; 1021.000;  825.000
927.171;   73.000; 1107.000; 1044.000
927.410;   61.775; 1144.000;  967.000
927.649;   31.850;  924.000;  742.000
927.888;  -11.400;  590.000;  564.000
928.127;    2.700;  680.000;  678.000
928.366;   37.300;  842.000;  826.000
928.605;   63.250;  831.000;  737.000
928.844;  273.925; 1451.000; 1393.000
929.083;  823.200;  770.000;  613.000
929.321;  510.850; 1335.000; 1359.000
929.560;  118.500; 1158.000; 1122.000
929.799;  -22.375;  574.000;  475.000
930.038;   87.700; 1025.000; 1394.000
930.276;  -41.750;  334.000;  397.000
930.515;   17.500;  827.000;  681.000
930.753;  -26.575;  614.000;  589.000
930.992;   -9.625;  664.000;  717.000
931.230;    3.525;  847.000;  847.000
931.469;  169.850; 2162.000;  892.000
931.707;   81.100;  840.000;  751.000
931.946;   71.325; 1278.000; 1344.000
932.184;   46.400; 1437.000; 1175.000
932.423;   53.775; 1265.000;  963.000
932.661;   99.925; 1296.000; 1428.000
932.899;   55.550;  987.000;  821.000
933.137;   10.675;  754.000;  564.000
933.376;  186.600; 1664.000; 1335.000
933.614;  193.525; 1759.000; 1196.000
933.852;   74.475; 1357.000; 1171.000
934.090;  136.350; 1722.000; 1747.000
934.328;  113.175; 1252.000; 1457.000
934.566;   97.425; 1431.000; 1110.000
934.804;  165.300; 1263.000; 1309.000
935.042;  505.900; 1861.000; 1850.000
935.280; 1991.825; 2088.000; 2063.000
935.518; 2390.575; 2113.000; 2007.000
935.756;  511.600; 2481.000; 2316.000
935.994;  211.450; 1808.000; 1751.000
936.231;  407.050; 2890.000; 2950.000
936.469;  200.400; 2367.000; 2378.000
936.707;  178.700; 2220.000; 2167.000
936.945;  234.300; 2825.000; 2882.000
937.182;  218.925; 2679.000; 2741.000
937.420;  306.875; 3602.000; 3031.000
937.657;  445.150; 3365.000; 3478.000
937.895;  397.625; 3331.000; 3488.000
938.133;  316.375; 3540.000; 3528.000
938.370;  332.375; 3896.000; 4191.000
938.607;  388.250; 4488.000; 4205.000
938.845;  515.650; 5587.000; 5549.000
939.082;  483.975; 5387.000; 5177.000
939.320;  541.975; 5799.000; 5728.000
939.557;  644.975; 6549.000; 6491.000
939.794;  715.375; 7285.000; 7097.000
940.031;  910.775; 8421.000; 8368.000
940.269; 1203.100; 9552.000; 9107.000
940.506; 1177.275;10901.000;10507.000

