
Integration time [ms]: 100.000
Averaging Nr. [scans]: 40
Smoothing Nr. [pixels]: 0
Data measured with spectrometer [name]: 2101013U2
Wave   ;Sample   ;Dark     ;Reference
[nm]   ;[counts] ;[counts] ;[counts] 

394.013;   44.278; -450.257; -315.536
394.305;  200.475; -461.258; -419.536
394.596; 1092.022; -676.269; -527.514
394.887; 2692.063; -796.268; -654.518
395.178; 1044.294;  145.736;   11.476
395.470;   77.955; -210.263; -356.526
395.761;  208.228;  305.734;  394.479
396.052;  276.795; -545.284; -306.489
396.343;  268.241; -557.276; -454.503
396.634;  107.734; -200.279; -290.497
396.926;  102.186; -618.268; -565.517
397.217;  119.820;   11.725;  -17.504
397.508;   39.636; -366.273; -154.507
397.799;   45.559; -555.279; -571.497
398.090;    6.629; -973.280; -902.495
398.381;  119.070;   11.708;  -11.473
398.672;  -12.779; -585.292; -742.473
398.963;   55.915; -348.279; -373.498
399.254;  119.180;   54.709; -209.475
399.545;  -22.475;-1017.266; -883.520
399.836;   66.805; -407.277; -343.501
400.127;   53.721; -205.295; -209.468
400.418;   49.456; -423.274; -392.506
400.709;   59.516; -359.281; -333.493
401.000;   65.434; -268.291; -309.476
401.290;   97.707;  225.698;  115.545
401.581;   81.978; -166.286; -228.485
401.872;   16.943; -542.298; -486.462
402.163;   64.163; -313.296; -252.467
402.454;  105.206; -123.291; -163.475
402.744;   64.805; -844.297; -813.465
403.035;  464.186; -226.293;  -86.471
403.326;  584.999; -366.292; -384.474
403.617;  393.437;  204.701;  165.539
403.907;  261.676; -593.283; -679.490
404.198; 2387.311; -545.307; -599.446
404.489; 6281.731; -618.283; -588.491
404.779; 2116.285; -618.302; -660.456
405.070;  234.164;  -67.304; -174.451
405.360;  334.738; -259.293; -238.472
405.651;  370.772;  125.699;   98.542
405.942;  200.298;  209.714;  127.516
406.232;  268.588; -432.285; -413.487
406.523;  475.931;  641.706;  758.530
406.813;   96.550; -579.286; -644.484
407.104;  346.769;  261.708;  144.527
407.394;  165.313; -604.299; -591.462
407.685;  161.237;  336.715;  222.513
407.975;   66.230; -400.283; -382.490
408.265;  119.870; -134.289; -190.478
408.556;   85.453; -472.291; -459.475
408.846;  173.382;  474.706;  429.530
409.137;  100.929;   -1.288; -216.480
409.427;   47.588; -193.285; -271.487
409.717;   54.665; -776.273; -692.508
410.007;  138.031;    4.715; -170.486
410.298;   95.224; -360.295; -342.469
410.588;   71.285; -495.285; -510.486
410.878;   39.940; -792.287; -873.482
411.168;   95.895; -481.298; -478.463
411.459;  122.849; -295.283; -242.489
411.749;   72.026; -609.292; -507.474
412.039;   59.702; -755.289; -386.480
412.329;  204.623;   40.722;  132.501
412.619;  206.976;  -62.286; -148.485
412.909;  373.198;  639.711;  594.521
413.199;  325.554; -130.280; -251.495
413.490;  399.939;  521.710;  352.523
413.780;  146.483;-1013.279; -913.496
414.070;  334.592;  -46.276;  235.497
414.360;  381.194; -729.278; -666.498
414.650;  423.486; -726.288; -688.482
414.940;  537.532; -538.280; -441.496
415.230;  932.658;   50.712;   74.519
415.520; 6096.496;  155.730;   66.486
415.809;24013.790; -305.281; -125.493
416.099;18739.982; -388.277; -229.501
416.389; 5165.104;  435.726;  236.494
416.679; 3069.534;   91.738;   85.473
416.969;  528.644; -527.287; -503.483
417.259;  604.085;  341.721;  171.503
417.549;  684.364;  522.718;  318.508
417.838; 1645.013; -205.268; -147.518
418.128; 5444.969;  650.710;  492.522
418.418; 4615.196; -491.272; -579.509
418.708; 3121.104;    9.726;  -48.506
418.997;11580.349; -474.275; -480.505
419.287;12129.436; -733.273; -790.507
419.577;11501.124; -160.283; -123.489
419.866;37794.155; -588.277; -498.501
420.156;39003.692; -242.270;  -55.513
420.446; 7111.826; -112.263;  -26.526
420.735;  881.486; -376.271; -446.512
421.025;  864.118; 1830.722;  315.502
421.314;  665.909; -203.271; -226.512
421.604; 1427.531;   89.732;  233.484
421.893;  822.330; -705.271; -602.511
422.183;  219.452; -487.263; -461.526
422.472;  390.257;  -36.271; -107.511
422.762;  449.806; -416.266; -379.521
423.051;  255.267; -916.276; -916.503
423.341;  318.787; -491.273; -439.507
423.630;  431.512; -121.265;   15.477
423.919;  392.924;   58.725;   49.495
424.209;  391.157;  -31.263;   56.473
424.498;  509.560;   68.732;  161.483
424.787; 1088.117; -535.267; -601.518
425.077; 3381.710;   34.735;   29.478
425.366; 4715.113; -734.262; -744.528
425.655; 9846.338;  639.727;  259.493
425.945;21493.743; -313.247; -268.554
426.234;11975.786;  117.741;  300.467
426.523; 5077.016;  -86.259; -350.534
426.812; 7005.377;  107.734;  159.480
427.101;10239.277; -127.269; -323.515
427.390;12876.171;  -55.270;  -86.514
427.680; 2940.711; -624.257; -411.538
427.969;  486.822; -330.255; -301.540
428.258;  333.052; -385.257; -477.536
428.547;  551.775;  449.728;  397.490
428.836; 1236.688; -421.253; -398.543
429.125; 1772.143; -199.259;  -72.534
429.414;  811.086; -330.251; -294.548
429.703; 3142.036; -231.251; -213.548
429.992; 9333.814; -938.250; -828.549
430.281; 6189.869; -397.264; -331.524
430.570;  591.576;  -21.252;   32.454
430.859;  580.690;  279.741;  352.466
431.148;  460.864;  636.752;  631.446
431.437;  298.351;  391.748;  367.454
431.725;  151.454; -544.257; -481.536
432.014;  131.945; -845.253; -756.545
432.303;  403.090; -149.239; -105.569
432.592;  604.176; -460.263; -178.525
432.881; 1082.990; -601.248; -437.554
433.169; 6182.247; -343.255;  -61.540
433.458;12576.574;  445.765;  540.424
433.747; 5315.543; -397.261; -289.529
434.036;  918.141; -275.242; -280.564
434.324; 2102.727; -395.249; -379.551
434.613; 3623.709;   40.757;  159.437
434.902; 1229.030;  333.760;  439.433
435.190;  554.414;   75.761;  295.431
435.479;  319.491;  -52.245;   83.441
435.767;  114.549; -411.244; -427.561
436.056;  209.036; -340.242; -294.563
436.345;  359.907; -372.240; -223.568
436.633;  387.197;   60.750;  383.450
436.922;  276.760;  208.760;  414.432
437.210;  602.864; -194.236;    1.426
437.499; 1900.497; -583.235; -432.576
437.787; 2113.888; -339.236;  -10.574
438.075;  537.469;   56.761;  162.430
438.364;  733.422;  -44.238;  250.429
438.652;  429.602; -286.226; -138.592
438.941;  144.691;    3.770;  269.415
439.229;   18.698; -665.252; -466.545
439.517;   42.680; -160.234;  -85.577
439.806;   -0.457; -501.225; -290.595
440.094;  179.963;  377.766;  650.421
440.382;  181.092; -653.233; -302.580
440.670;  200.247; -361.235; -285.576
440.959;   30.911; -347.223; -170.599
441.247;   76.903; -151.229; -109.587
441.535;  105.454; -266.235;   31.423
441.823;   36.135; -497.234; -305.578
442.111;  197.807;  173.771;  327.412
442.400;  530.040; -628.245; -335.559
442.688; 1409.538; -111.234; -620.579
442.976; 1010.624; -786.213; -450.617
443.264;  103.950; -324.224; -364.597
443.552;  108.528; -258.226;   51.408
443.840;  164.627;  602.765;  876.423
444.128;  118.391;  265.767;  269.420
444.416;   18.784; -694.228; -312.588
444.704;   10.665; -465.219;  -92.605
444.992;   78.406;   -0.226;  240.407
445.280;   48.717; -517.230;  -94.585
445.568;   55.103; -694.212; -396.618
445.856;  351.649; -174.221;  357.398
446.143;  759.887;  -54.220;   -7.604
446.431;  642.988;  -25.228;  625.411
446.719;  252.210;  489.783;  675.391
447.007;  179.361;  481.769;  705.416
447.295;  191.008;  597.777;  871.402
447.583;   91.150; -464.229;  -34.587
447.870;  149.971; -434.221; -202.601
448.158;  414.740; -104.230;  129.415
448.446;  319.538; -800.219; -338.604
448.733;  169.751;   13.776;  269.403
449.021;  271.852;   60.788;  341.382
449.309;  183.417; -296.210;  208.379
449.596;  215.631;  128.783;   59.392
449.884;  155.165; -571.222; -325.600
450.172;  159.019; -756.227; -406.590
450.459;  442.832;  645.786;  780.387
450.747; 2369.180; -411.218; -147.608
451.034; 7623.689;  493.772;  889.411
451.322; 6277.885; -413.214; -170.614
451.609;  538.728;  292.777;  508.403
451.897;  596.606; -550.203; -183.634
452.184; 1782.283; -622.223; -400.598
452.472; 1725.614;   97.792;  269.375
452.759;  350.238;  512.781;  864.395
453.047;  120.675; -407.212; -125.617
453.334;   65.096; -732.219; -216.606
453.621;   69.313; -438.214; -161.615
453.909;  117.398;   13.796;  384.368
454.196;  110.643; -299.199; -123.641
454.483;  202.469;  317.798;  540.364
454.771;  123.042; -215.208;  196.374
455.058;   44.570; -316.207;  102.374
455.345;  116.974;   71.807;  344.347
455.632;   89.773; -128.207;  235.373
455.919;   46.116;  -82.196;  182.354
456.207;  -60.102; -774.198; -450.642
456.494;   -0.894; -475.200;  -66.639
456.781;   -2.511; -399.202; -198.635
457.068;   69.230; -253.206;  -29.628
457.355;   -9.794; -698.206; -401.629
457.642;   -0.238; -552.205; -290.630
457.929;    7.540; -778.194; -417.651
458.216;   48.550; -575.212; -354.617
458.503;  242.219; -173.193;  -19.652
458.790;  221.490; -864.208; -630.625
459.077;  255.844;  -77.202;  110.364
459.364;  806.558; -350.195; -210.649
459.651; 1678.703;  -46.206;  220.372
459.938;  801.905; -864.209; -665.623
460.225;  153.573;  132.799;  276.363
460.512;  -34.987; -836.197; -688.645
460.799;  105.128;  -32.218;  320.392
461.086;   70.885; -370.200; -251.640
461.372;   38.848; -509.198; -279.642
461.659;  126.367; -165.196;  108.354
461.946;   53.368; -445.193;  -54.651
462.233;  263.408;  842.800;  888.361
462.519;  342.905; -814.201; -464.639
462.806; 1010.514; -768.197; -497.645
463.093;  897.939; -445.191;  -66.656
463.380;  -18.470; -920.186; -824.664
463.666;   57.715; -259.197;  -18.646
463.953;  109.152; -406.195; -243.648
464.239;  198.027; -173.195;  -77.648
464.526;  410.663;  413.806;  743.350
464.813;  335.175; -565.190; -304.658
465.099;  372.694;  606.807;  607.348
465.386;  341.048;  903.807;  921.348
465.672;   17.939; -694.197; -522.645
465.959;   20.144; -598.188; -520.662
466.245;   20.948; -468.193; -359.652
466.532;   89.750; -109.195;   63.352
466.818;   71.355; -357.186; -216.664
467.104;    0.446; -488.182; -415.672
467.391;  -21.898; -628.189; -459.658
467.677;   44.509; -289.186;    9.335
467.964;   18.709; -682.189; -471.660
468.250;   68.136; -331.186; -160.665
468.536;   78.079;   90.811;  180.341
468.822;  -27.802; -821.184; -574.668
469.109;  147.977;  351.827;  471.311
469.395;  191.108;  729.808;  787.346
469.681;  211.857;   46.811;  156.341
469.967; 1241.436; -699.188; -382.660
470.254; 2712.369; -494.188; -306.662
470.540; 1753.641; -601.196; -476.646
470.826;  243.907; -488.181; -397.675
471.112;  319.802;  288.816;  113.331
471.398;  100.807; -253.183;  -58.670
471.684;   51.060; -626.177; -447.680
471.970;   -0.440; -918.180; -981.675
472.256;   23.807; -521.192; -441.654
472.542;   17.163; -499.171; -434.691
472.828;    9.091; -743.182; -607.672
473.114;   39.056; -380.166; -283.700
473.400;    6.902; -504.175; -293.684
473.686;   30.063; -452.166; -400.701
473.972;   48.616; -230.174; -131.687
474.258;  -37.373; -925.173; -843.689
474.544;  197.627; -183.178;   -2.679
474.830;  315.128;  -65.175;   45.316
475.116;  497.727; -123.190; -196.658
475.401;  649.013; -558.180; -467.676
475.687;  188.812; -725.180; -718.676
475.973;    6.324; -673.181; -770.673
476.259;  253.356;  736.825;  764.315
476.544;  372.193; -539.176; -437.682
476.830;  830.634; -398.172; -322.690
477.116;  722.367; -430.177; -336.682
477.401;  138.362;  346.820;  358.324
477.687;   -8.673; -289.175; -405.684
477.973;   40.228;   21.819;   28.326
478.258;    2.958; -448.163; -348.706
478.544;   40.092;   21.815;   61.334
478.829;  -51.132; -818.171; -738.692
479.115;  -48.017; -749.172; -651.690
479.401;   -5.088; -444.174; -449.686
479.686;   45.036; -253.180;  -74.676
479.972;  -29.568; -886.178; -776.680
480.257;   34.508; -258.166;  -65.700
480.542;   -8.728; -614.170; -469.693
480.828;  233.275; 1288.824; 1392.317
481.113;  -24.952; -464.176; -426.683
481.399;   -7.268; -236.161; -202.711
481.684;  -54.293; -620.166; -462.700
481.969;   22.371; -158.159;  -73.713
482.255;    0.108; -439.169; -285.695
482.540;   -2.868; -569.178; -441.680
482.825;   11.775; -395.187; -404.663
483.110;  105.936;  -85.169; -105.696
483.396;  180.818; -840.157; -652.718
483.681;  495.217;  543.826;  730.313
483.966;  171.890; -696.160; -700.712
484.251;    3.366; -404.174; -310.687
484.536;    3.218; -356.165; -378.703
484.822;   14.519; -205.173; -218.687
485.107;  -33.769; -599.152; -502.726
485.392;  129.849;  662.836;  541.296
485.677;   88.671;  354.832;  163.302
485.962;  103.065;  160.843;  270.283
486.247;   87.341;  -14.162;   -8.707
486.532;   41.509; -178.166; -325.701
486.817;  169.552;  381.839;  431.291
487.102;  124.914; -453.154; -514.722
487.387;  670.819; -637.156; -652.718
487.672; 1155.329; -154.164;  -38.705
487.957;  765.909; -394.160; -286.711
488.241;  200.698; -290.150; -314.729
488.526;  725.982; -280.152; -148.726
488.811; 1179.859; -881.177; -818.680
489.096;  872.017; -666.154; -702.723
489.381;  511.679;    3.847;  162.275
489.666;  390.407; -428.161; -510.710
489.950;  183.620;  558.846;  627.277
490.235;  -19.132; -480.151; -458.728
490.520;  -50.219; -756.161; -723.710
490.804;  -50.929; -827.156; -736.719
491.089;   -8.261; -469.149; -299.732
491.374;   43.803; -132.164;  -75.704
491.658;  -13.375; -817.147; -717.735
491.943;  166.937; -657.152; -609.727
492.227;  254.260; -178.155;  -38.721
492.512;   42.965; -294.157; -341.717
492.797;  -67.893; -713.149; -716.731
493.081;  -55.997; -588.147; -598.735
493.366;  -37.417; -751.161; -635.711
493.650;  207.356;  831.859;  917.254
493.935;   37.549; -648.147; -447.734
494.219;  -30.782; -778.142; -687.743
494.503;  -38.498; -585.150; -487.730
494.788;   39.481;   46.842;   74.285
495.072;  103.524;  184.850;  434.271
495.356;  177.617; -463.148; -343.733
495.641;  458.859; -812.146; -736.736
495.925;  449.201; -976.156; -903.719
496.209;   42.638; -599.149; -451.732
496.494;  -30.656; -763.142; -544.744
496.778;   12.464; -364.154; -360.722
497.062;  -56.124; -819.156; -627.719
497.346;  -45.364; -869.160; -640.711
497.631;  143.320;  580.852;  560.266
497.915;   73.695;  -64.145;  175.261
498.199;   53.568; -341.157; -277.718
498.483;   33.931; -562.152; -508.725
498.767;  200.675;  301.850;  300.271
499.051;  187.536; -126.149; -100.732
499.335;   26.034; -693.149; -739.731
499.619;  -33.042; -381.129; -423.767
499.903;   24.083; -272.155;  -65.721
500.187;   35.046; -588.153; -316.724
500.471;   18.261; -796.152; -595.727
500.755;  100.456;   62.839;  -96.710
501.039;   16.584; -270.155; -357.721
501.323;   89.433;  -21.141;  264.254
501.607;   36.534; -447.163; -503.706
501.891;  -14.656; -607.156; -512.718
502.174;  -15.869; -726.144; -585.741
502.458;   72.040;   89.849;  370.273
502.742;   45.607; -180.138; -191.751
503.026;   96.749; -412.147; -254.734
503.310;  175.070; -437.159; -375.713
503.593;  107.551; -464.147; -325.735
503.877;  126.898; -232.133; -156.760
504.161;  172.974;    2.847;  -50.724
504.444;  142.383; -841.158; -710.716
504.728;  459.202; -487.164; -522.704
505.012;  711.722; -257.150;  -76.729
505.295;  555.332; -417.161; -212.711
505.579;  532.826; -256.156; -496.719
505.862;  765.566; -555.145; -333.738
506.146;  731.872; -681.159; -758.714
506.429;  414.448;  568.841;  461.286
506.713;   67.294; -732.151; -667.728
506.996;  310.663;   90.846;  295.278
507.280;  333.972; -633.165; -474.703
507.563;  251.607; -469.155; -261.721
507.847;   94.922; -423.153; -112.724
508.130;   98.608; -665.161; -456.711
508.413;  126.429; -758.167; -577.700
508.697;  237.379; -151.167;   12.300
508.980;  139.423; -422.153; -312.724
509.263;   -0.072; -466.155; -450.720
509.547;   36.047; -124.150;   82.271
509.830;   51.360; -172.160;  140.289
510.113;   88.376;  128.844;  298.281
510.396;   34.754; -530.152; -300.725
510.680;  169.818; -818.145; -812.738
510.963;  642.318;  184.846;  180.277
511.246;  542.430; -493.150; -357.730
511.529;  264.448; -482.145;  -83.739
511.812;  382.794; -250.134;   10.241
512.095;  268.266; -740.151; -396.728
512.378;   71.655; -317.147; -245.736
512.661;   11.390; -703.137; -623.753
512.944;   41.195; -750.142; -637.744
513.227;   75.387; -170.137; -171.752
513.510;   24.781; -479.144; -671.741
513.793;   36.162; -485.140; -435.747
514.076;  114.654;  -43.127;  -39.771
514.359;  109.439; -294.149; -135.732
514.642;   79.248; -442.142; -567.744
514.925;  733.786;  581.860;  561.253
515.208; 1003.790; -498.134; -443.758
515.491;  648.229; -276.133; -182.761
515.773;  377.985; -410.143; -337.742
516.056; 2090.796;  249.864;  409.246
516.339; 2795.125; -754.136; -652.755
516.622; 1932.452; -518.150; -488.730
516.904; 1264.442;  882.857;  975.257
517.187;  588.161; -730.138; -523.752
517.470;  402.266; -568.143; -510.743
517.752;  427.328; -624.136; -470.756
518.035;  363.948; -708.139; -725.749
518.318;  385.600; -799.136; -744.755
518.600; 2408.983; -300.132; -325.762
518.883; 3312.173;  310.858;   88.256
519.165; 1614.053; -585.138; -426.751
519.448;  396.583;  -61.132;  -19.762
519.730;  193.011; -573.126; -415.773
520.013;  306.325;  588.867;  664.240
520.295;  852.571;  -94.134;  -15.759
520.578; 1876.446; -335.131; -305.764
520.860; 2116.408; -254.132;   56.238
521.143; 1115.755; -763.135; -584.756
521.425;  481.649; -251.125; -279.775
521.707;  669.329; -622.127; -380.771
521.990; 1767.030; -199.127;  167.229
522.272; 2035.239; -116.140;   -4.748
522.554;  931.936; -237.143; -157.742
522.836;  385.594;  -24.134;   99.241
523.119;  232.923; -496.148; -189.734
523.401;  144.553; -448.130; -314.766
523.683;   95.665; -865.137; -693.753
523.965;  255.409;  408.862;  260.248
524.247;  268.696;   54.878;  170.220
524.529;  186.996; -451.134; -367.759
524.812;  348.804;   -3.130;  191.234
525.094;  853.833; -773.138; -631.751
525.376; 1345.859; -143.124;   78.223
525.658;  840.747; -441.136; -339.754
525.940;   37.617; -805.131; -671.764
526.222;   43.426; -188.136;  -88.755
526.504;  125.065; -190.131;   32.237
526.786;  189.598; -960.133; -647.760
527.068;  304.614; -124.123;  -67.778
527.349;  133.444; -865.137; -774.754
527.631;  132.557; -137.132;   22.238
527.913;  132.453; -664.127; -450.771
528.195;  162.017; -761.125; -639.774
528.477;  250.741;  -93.134;  -30.758
528.759;  126.229; -648.130; -522.766
529.040;   58.288; -569.123; -293.778
529.322;   47.920; -235.125;  -10.774
529.604;  132.507;  -47.130;   93.233
529.886;  133.661; -546.126; -302.773
530.167;  130.698;  232.870;  192.235
530.449;   48.554;    1.853;   63.265
530.731;   14.520; -572.122; -459.779
531.012;   66.541; -513.120; -216.784
531.294;   77.705; -118.116;  -43.792
531.575;  164.199;  290.875;  538.225
531.857;   49.460; -548.135; -266.757
532.138;  108.957; -113.141;   40.254
532.420;  181.682;  294.865;  403.244
532.701;  218.476; -722.133; -751.760
532.983;  348.279;  232.867;  182.239
533.264;  129.984; -243.126;  175.228
533.546;  -31.624; -491.136; -508.755
533.827;   62.147;  173.867;   -1.759
534.109;   35.185; -352.135;  -80.757
534.390;  110.736; -725.132; -582.762
534.671;  251.306; -270.135;  -82.756
534.953;  136.241; -751.123; -611.779
535.234;   23.465; -426.117; -255.789
535.515;  -74.126; -891.119; -735.785
535.796;  -15.651; -431.128; -193.770
536.078; -111.467;-1050.124; -904.777
536.359;   14.291;  -22.123;    3.221
536.640;   -7.031; -480.125; -197.774
536.921;  164.487;  225.871;  143.232
537.202;  375.805;  -87.138;  -16.751
537.483;  467.420;  251.869;  377.236
537.764;  186.223;   17.870;   98.235
538.045;  -37.135; -543.134; -371.758
538.326;  -19.236; -596.129; -447.768
538.607;   33.905; -686.127; -476.771
538.888;  169.607;   98.879;    5.218
539.169;  186.376; -704.122; -535.781
539.450;  343.961;  236.871;   16.233
539.731;  229.211; -361.121; -182.783
540.012;  138.591;  199.880;  412.216
540.293;   88.178;   82.876;  158.224
540.574;    9.951; -895.113; -717.796
540.855;  453.659;  435.879;  377.218
541.136;  527.299;   47.878;  139.220
541.416;  286.755; -161.130; -220.766
541.697;  201.241; -274.131; -170.763
541.978; 1020.959; -270.135; -315.757
542.259; 1290.480; -211.127; -236.771
542.539;  634.574; -191.116; -186.790
542.820;  203.424;  461.875;  480.225
543.101;  129.619;  -52.145;  -77.738
543.381;   34.355; -638.127; -591.771
543.662;  272.377;  159.873; -254.771
543.942;  600.850; -751.127; -830.770
544.223; 1036.050;  193.878;  161.219
544.504;  689.758; -275.124; -182.777
544.784;  585.786; -592.126; -408.773
545.065; 1651.328;  104.884; -254.791
545.345; 1969.549;  227.881;   14.215
545.626; 1312.000;  -14.113; -108.796
545.906;  884.998;   77.869;   98.235
546.186;  364.666;   92.874;  -95.773
546.467;  209.336;   99.877;  -95.778
546.747;  352.074;  264.884;  327.210
547.027;  367.331;   91.876;  111.223
547.308;  311.750; -376.127; -530.770
547.588;  393.364;  299.871;  371.232
547.868;  213.449;  458.870;  588.235
548.149;  193.460;  609.885;  593.207
548.429;  140.203; -347.127; -299.771
548.709;  186.640; -645.120; -461.784
548.989;  468.959;   84.882;   88.213
549.269; 2091.781;   10.868;  139.239
549.550; 4749.465;  215.877;  117.222
549.830; 4292.993; -758.111; -556.799
550.110;  861.026; -468.110; -320.801
550.390;  838.970; -128.122;  -56.779
550.670; 1138.821; -868.114; -783.795
550.950;  798.909; -509.121; -471.782
551.230;  205.880;  549.879;  460.218
551.510;   -8.467; -381.121; -326.782
551.790;   45.759; -173.109; -127.803
552.070;  264.210;  940.877; 1181.223
552.350;  411.753; -492.119; -377.786
552.630;  583.703;   -2.121;   77.219
552.909;  366.003;  181.884;   73.209
553.189;  236.038;  -49.132;   33.237
553.469;  184.928; -703.119; -514.786
553.749;  199.931; -469.127; -357.772
554.029;  150.369;   33.883;  -24.790
554.308;  146.039; -154.115;  -37.794
554.588;   73.973; -196.128; -204.770
554.868;   58.135; -366.121;  -47.782
555.147;  142.486; -114.115;  -46.793
555.427;  621.605; -260.116; -250.792
555.707; 3893.359; -284.115; -200.793
555.986; 4652.746; -719.111; -538.800
556.266; 2486.997;   23.884;   72.210
556.546;  107.833; -888.121; -675.782
556.825;  267.219; -657.114; -556.794
557.105; 1797.196; -125.128;   17.230
557.384; 2086.152;  122.884;  187.209
557.664;  800.605; -717.116; -508.792
557.943;  128.409; -557.121; -411.782
558.222;  175.562; -345.118; -344.788
558.502;  277.563; -116.115;  -76.793
558.781;  498.783;  194.885;  499.208
559.061;  410.812; -232.118; -227.788
559.340;  297.317;  302.883;  353.211
559.619;  721.997;   93.884;  148.210
559.899; 1023.194; -239.117; -266.789
560.178;  962.162; -778.115; -593.793
560.457; 3132.295; -623.117; -562.790
560.736; 4352.448; -472.111; -482.800
561.015; 2903.819; -500.128; -502.769
561.295;  393.528;  180.893;  215.193
561.574;  334.360;  119.885;  116.207
561.853;  505.288;  274.891;  303.197
562.132;  479.265;  -45.114;  182.206
562.411;  450.003;  396.879;  553.219
562.690;  127.508; -592.115; -458.792
562.969;  148.632;  472.888;  630.203
563.248;  525.626; 2966.878; 2487.219
563.527;  279.572; -290.111; -408.800
563.806;  388.378; -650.127; -521.771
564.085;  413.994; -297.105; -206.810
564.364;  249.797; -594.117; -405.790
564.643;  525.804; -276.121; -223.781
564.922; 1868.907;  221.890;  397.198
565.201; 1864.710; -640.109; -700.803
565.479;  799.607; -297.115; -219.792
565.758;  332.122; -810.128; -712.770
566.037;  463.611; -155.109; -100.803
566.316;  232.527; -286.116;  -28.791
566.595;   62.534;  -17.115;  -12.793
566.873;   97.499; -166.111;  -79.801
567.152;  -61.118; -490.113; -590.797
567.431;    7.798; -113.116;    6.210
567.709;   22.254; -344.107; -212.807
567.988;  261.618; -810.114; -769.794
568.266;  524.284; -160.115;  -68.793
568.545;  377.241; -644.100; -514.819
568.824;  601.706;  160.885;  356.208
569.102;  540.318; -351.114; -235.794
569.381;  221.355; -492.116; -407.792
569.659;  -32.547; -553.113; -553.796
569.938;   29.049; -743.122; -465.780
570.216;  109.239; -225.109; -225.804
570.494;  -16.429; -632.114; -572.795
570.773;   41.982;  202.879;  114.218
571.051;    2.963; -373.123; -357.778
571.330;   67.076; -221.113; -174.796
571.608;   23.634; -181.098; -173.823
571.886;  -67.984; -671.111; -581.799
572.164;  -77.365; -739.121; -621.782
572.443;  -53.878; -562.105; -512.811
572.721;  -34.230; -399.117; -289.790
572.999;  -21.461; -280.117; -168.788
573.277;   88.391;  379.894;  620.191
573.555;  292.718;   94.894;   37.190
573.834; 1346.638;  -86.117; -114.788
574.112; 1578.631;  880.893;  811.193
574.390;  483.998; -143.111;  -96.801
574.668;    7.558;  -91.112;  -61.797
574.946;  -19.382; -165.106; -187.810
575.224;   13.385;   71.891;  -16.803
575.502;  -25.225; -200.116; -204.791
575.780;  -87.141; -767.112; -829.798
576.058;  202.972; 1589.889; 1004.200
576.336;  -23.722; -210.110; -129.801
576.614;  -47.816; -511.112; -340.798
576.891;   44.989; -711.115; -823.794
577.169;  464.497; -158.108; -285.805
577.447;  576.230;  169.893;  202.193
577.725;  266.914;  629.888;  854.201
578.003;    9.237;  -71.112; -371.798
578.280;   92.806; -208.104; -242.812
578.558;   63.113; -450.115; -422.793
578.836;  119.846; -210.114; -145.795
579.114;   54.507; -630.112; -670.797
579.391;   64.140;   -6.117;  -18.789
579.669;  -87.985; -595.114; -704.794
579.947;  167.702; -326.107; -127.806
580.224;  300.277; -692.107; -524.806
580.502;  316.531;  127.893;   76.193
580.779;   19.921;  -42.117;   75.210
581.057;  -79.786; -584.109; -470.804
581.334;  -86.804; -726.102; -695.815
581.612;   42.169;   54.895;  511.190
581.889;  -28.515;  -83.101; -129.818
582.167;  -33.176; -298.099; -190.821
582.444;  -97.521; -845.102; -814.817
582.721;  102.680;  657.899;  715.183
582.999;   49.296; -326.100; -167.821
583.276;  509.968; -812.123; -713.779
583.553;  707.374; -364.102; -294.816
583.831;  222.978; -607.104; -631.812
584.108;   76.695;  349.892;  174.195
584.385;   20.546; -122.102;  -98.815
584.662;  -64.476; -651.111; -828.801
584.940;   29.799;  204.889;  204.199
585.217;  -10.697;  -73.113; -303.796
585.494;   37.283;   71.890;  118.198
585.771;  206.440; -250.109; -354.804
586.048;  494.752; -196.113;  -76.796
586.325;  317.052; -721.110; -773.801
586.602;  107.482;  230.896;  213.188
586.879;  -20.007; -499.100; -580.820
587.156;   51.320; -156.105; -331.810
587.433;  -46.148; -701.102; -667.817
587.710;   74.410;  152.888;  234.202
587.987;  298.300; -264.105; -236.811
588.264;  782.811;  315.888;  387.202
588.541; 1386.984;  -61.104;   26.187
588.818; 2666.442;   72.892;  171.196
589.095; 2314.080; -163.104; -174.812
589.371;  380.013; -459.109; -414.804
589.648;    9.981; -581.107; -437.807
589.925;   26.472; -517.114; -621.795
590.202;   17.484; -741.112; -607.798
590.478;   81.302; -166.105;  -73.811
590.755;  270.723; -241.108; -132.806
591.032; 2467.254; -741.110; -699.802
591.308; 3380.299; -732.094; -790.831
591.585; 1767.529; -573.110; -560.802
591.862;  158.404;-1056.102; -950.817
592.138;   56.746; -475.108; -474.805
592.415;  149.633; -486.104; -495.813
592.691; 1475.230;  460.896;  518.188
592.968; 1875.386; -208.098; -123.824
593.244;  891.248; -695.116; -595.790
593.521;   72.479; -105.102;  -42.817
593.797;  -14.504; -810.122; -720.780
594.074;  324.348; -611.096; -588.826
594.350;  646.860;  828.905;  729.172
594.626;  301.549; -303.111; -283.801
594.903;   92.729; -643.101; -645.817
595.179;  206.111;  243.896;  418.187
595.455;    6.782; -136.107; -150.807
595.731;   -1.762;  -19.103;  -38.814
596.008;  -44.706; -464.111; -434.800
596.284;   34.145; -187.100; -242.820
596.560;   53.830; -501.093; -493.833
596.836;  208.847; -173.105;  -70.810
597.112;  342.497; -582.108; -437.805
597.388;  292.421;  -49.097;  -48.826
597.665;  114.430;  437.887;  530.203
597.941;  -70.990; -572.089; -658.839
598.217;   16.357; -323.110; -293.802
598.493;  245.467;   61.891; -204.804
598.769;  492.864; -175.100;  -50.819
599.045;  294.175; -490.108; -562.806
599.321;   56.244; -193.100; -261.820
599.597;  139.041; -355.109; -476.804
599.872;  465.959;  409.896;  429.187
600.148;  365.548;  -61.097; -172.826
600.424;  309.030;   91.893;  202.193
600.700;  243.782; -170.107; -280.807
600.976;  122.467; -442.097; -464.825
601.252;  239.788; -226.109; -272.803
601.527;  204.585; -833.104; -840.813
601.803;  146.877; -453.105; -404.812
602.079;  175.564; -124.100; -118.819
602.354;  561.315; -620.092; -531.835
602.630;  824.003; -140.113; -482.796
602.906; 2339.735; -910.101; -863.818
603.181; 6640.478; -627.119; -534.786
603.457; 5647.695;   98.903; -278.826
603.733;  825.587; -605.120; -626.783
604.008;  978.894; -245.106; -164.810
604.284; 3024.806; -636.101; -580.817
604.559; 2629.788;   -3.112;  -42.799
604.835;  483.672; -163.105; -225.810
605.110;  413.449; -732.099; -892.821
605.385;  696.133;  224.907;  267.167
605.661;  662.187; -625.095; -729.829
605.936; 1148.750; -664.108; -737.806
606.211;  983.195;  -17.103; -170.815
606.487;  206.117; -329.114; -376.794
606.762;   16.078; -791.119; -745.786
607.037;  -32.553; -501.105; -433.810
607.313;  -55.994; -589.096; -574.828
607.588;   -5.807; -375.106; -137.810
607.863;   54.209;  -28.101; -143.818
608.138;  169.631;  513.890;  516.198
608.413;   21.828; -576.099; -592.822
608.688;   53.246; -203.108; -267.805
608.964;  188.962; -509.106; -218.809
609.239;  233.969; -107.105; -212.810
609.514;  280.652;  281.895;  240.188
609.789;  657.356; -187.104; -716.812
610.064;  861.179; -435.096; -609.827
610.339;  868.788; -855.109; -799.804
610.614; 1154.669; -131.100; -315.820
610.889;  657.852;  215.895;  107.188
611.163;   37.778; -407.104; -591.812
611.438;   77.418;   81.886; -167.794
611.713;    9.056; -467.101; -499.817
611.988;   59.733; -144.101; -328.818
612.263;  -29.079; -771.102; -717.815
612.538;  205.602;  385.887;  251.204
612.812;  172.421; -832.100; -911.820
613.087;  125.108; -358.098; -338.823
613.362;  -54.593; -497.107; -557.807
613.637;   47.041;  261.897;  138.186
613.911;   -7.309; -256.092; -345.835
614.186;  122.405; -249.107; -292.807
614.460;  652.335; -842.081; -758.854
614.735;  766.983;  -55.087;  -17.843
615.010;  181.948;   43.912;  -82.841
615.284;  239.296;  360.892;  246.195
615.559;  350.290; -792.092; -955.835
615.833;  291.301;  -76.099;  -87.822
616.108;   10.002; -225.090; -390.837
616.382;  138.860;  274.913;  402.156
616.656;  153.852; -241.090; -232.837
616.931;  483.877; -785.099; -700.822
617.205; 1036.411; -973.104; -979.813
617.480;  961.222;  -91.125;    6.225
617.754;  164.395; -396.125; -128.774
618.028;   21.990; -369.129; -382.768
618.302;   59.719;   73.892;  -25.805
618.577;  -40.858; -371.103; -518.815
618.851;  -69.415; -399.109; -600.803
619.125;  -50.179; -335.134; -378.759
619.399;  -34.089; -244.104; -374.813
619.673;  -48.319; -330.115; -515.792
619.947;  -36.304; -333.114; -448.795
620.222;  -15.375; -198.110; -204.801
620.496;    0.109;  -47.121;  -96.782
620.770;    1.376; -187.122;  -93.781
621.044;  209.670;  323.895;  346.190
621.318;  736.787; -653.120; -614.783
621.592;  647.160; -430.121; -409.783
621.866;  356.214; -476.112; -572.799
622.140;   16.400; -207.116; -356.791
622.413;   61.144;  138.889;  112.200
622.687;  -43.494; -746.101; -492.817
622.961;   16.244; -130.108; -143.805
623.235;  -57.906; -633.111; -661.800
623.509; -104.698; -816.105; -848.811
623.783;   16.678;  -12.107;   48.193
624.056;  -23.312; -254.120; -280.783
624.330;   44.583;   63.888;   -3.797
624.604;   53.572; -271.116; -355.790
624.877;   83.030;  180.890;   26.198
625.151;   42.016; -249.114; -238.794
625.425;  -36.012; -150.103; -283.814
625.698;  -56.702; -367.119; -374.785
625.972;  -93.593; -799.110; -765.802
626.245;   67.849;  685.884;  484.210
626.519;  -46.058; -426.120; -340.784
626.792;  -31.743; -192.107; -380.807
627.066;  -89.256; -485.122; -662.779
627.339; -110.297; -736.110; -663.802
627.613;   40.691;  351.880;  148.216
627.886;  -54.916;  187.891; -612.803
628.160;  -11.063;  312.880; -161.783
628.433;  -86.050; -695.125; -703.775
628.706;  -82.883; -517.120; -615.784
628.979;   22.482;  296.876;  117.223
629.253;  -75.973; -785.119; -833.786
629.526;  362.709; -334.126; -253.772
629.799;  350.714; -641.123; -479.778
630.072;  157.042; -497.128; -516.769
630.346;  -62.301;-1115.116;-1080.790
630.619;  455.933; -467.107; -545.808
630.892;  624.195;  709.889;  593.200
631.165;  330.186;  790.896;  679.187
631.438;  -80.964;-1092.112;-1055.798
631.711;   50.517;  453.877;  257.221
631.984;  -49.506; -523.117; -624.789
632.257;  -70.510; -636.117; -681.789
632.530;  -53.327; -412.119; -433.785
632.803;   23.914; -109.115;    7.207
633.076;  -65.065; -360.123; -422.777
633.349;   14.846;  173.872;  121.231
633.622;  -29.878; -187.119; -240.785
633.895; -140.287; -903.120; -823.783
634.167;  -71.913; -496.126; -525.773
634.440;   -4.820;  -19.116; -137.792
634.713;    0.851;  -22.119; -120.786
634.986;   84.536;  593.871;  453.233
635.258;  -72.963; -507.115; -597.793
635.531;  116.711;  742.882; -343.788
635.804;  -24.682; -303.117; -318.789
636.077; -100.274; -830.116; -852.791
636.349;   -7.590; -586.115; -474.793
636.622;  392.309; 1695.874; 1392.228
636.894;  241.468; -474.120; -909.784
637.167;  134.553; -836.127; -789.771
637.439;   35.549; -278.128; -213.770
637.712;  -55.290; -312.126; -293.772
637.984;  -80.773; -635.116; -707.791
638.257;  388.561;  515.877;  488.222
638.529;  552.651; -881.125; -924.776
638.802;  247.066; -508.128; -449.769
639.074; -115.400; -927.122; -952.781
639.346; -130.688; -942.135; -930.757
639.619;    9.122;  -79.142; -319.744
639.891;  -12.881;  -83.122; -168.779
640.163;  -70.429; -689.122; -756.780
640.435;   21.448;  273.878;  103.220
640.708;   22.524;  -72.122; -132.780
640.980;  -24.149; -366.122; -362.781
641.252;  212.453;  -25.121;  -71.781
641.524; 1777.530;  580.879;  573.219
641.796; 1780.582;-1094.121; -907.782
642.068;  323.484; -191.121; -300.782
642.340;  -38.265; -486.121; -566.783
642.613;   30.862;  294.880;  323.217
642.885;  -98.761; -787.120; -878.783
643.157;  -43.309; -810.120; -658.784
643.428;   63.568;  170.880;  218.216
643.700;  -69.205; -498.120; -425.784
643.972;  -37.204;  -16.119; -133.785
644.244; -106.577; -474.119; -559.785
644.516;  -65.250; -250.119; -114.786
644.788;   61.852;  662.881;  548.214
645.060;  -15.046;  -12.119; -124.786
645.332; -113.644; -525.118; -535.787
645.603;   37.157;  479.882;  342.213
645.875;  -86.116; -334.118; -369.787
646.147;  170.036; 1487.882; 1242.212
646.418;  -64.337; -931.117; -918.788
646.690;  129.040; -714.117; -715.789
646.962;   26.392; -413.117; -451.789
647.233;    4.493;   15.883;   11.211
647.505; -108.730; -595.117; -475.790
647.776;   30.872;  328.884;  229.210
648.048;   -3.701; -248.116; -418.790
648.320;  -74.849; -752.116; -679.791
648.591; -157.197;-1055.116; -958.791
648.862;  -87.646; -505.116; -577.792
649.134;   15.681;  115.885;  198.208
649.405;  -46.992; -661.115; -618.792
649.677;  -59.065; -475.115; -598.793
649.948;  -10.338; -181.115; -296.793
650.219;  -20.161;  -37.115; -147.793
650.491;  -92.285; -431.114; -520.794
650.762; -128.458; -705.114; -731.794
651.033;  -83.556; -437.114; -424.795
651.304; -104.604; -743.114; -728.795
651.576;  -66.327; -680.114; -645.795
651.847;  -42.975; -250.113; -140.796
652.118;  -37.349;  -32.113; -189.796
652.389; -120.797; -639.113; -722.796
652.660;  -18.270; -147.113;  -89.797
652.931; -144.243; -897.112; -871.797
653.202;  -80.441; -382.112; -541.798
653.473;  -57.814; -633.112; -533.798
653.744;  160.162; -595.112; -590.798
654.015;  128.314; -356.112; -303.799
654.286;  -71.684; -642.111; -663.799
654.557;  -59.957; -586.111; -521.799
654.828; -158.005;-1114.111;-1088.800
655.099;  -98.153; -404.111; -291.800
655.370;  -87.752; -427.111; -543.801
655.641; -120.650; -656.110; -714.801
655.911; -107.173; -618.110; -638.801
656.182;   46.054;  437.890;  387.198
656.453;   91.831;  830.890;  746.198
656.724;  -79.242; -466.110; -426.802
656.994; -100.741; -553.109; -568.803
657.265; -113.039; -862.109; -873.803
657.536;  -88.762; -500.109; -377.804
657.806; -114.535; -561.109; -593.804
658.077; -134.783; -866.109; -950.804
658.347; -101.731; -523.108; -598.805
658.618; -120.379; -646.108; -694.805
658.888;  -24.203;  -41.108;  112.195
659.159;  -74.276; -432.108; -548.806
659.429;  -16.499; -292.108; -349.806
659.700;    6.778; -435.107; -390.807
659.970;  -17.095; -370.107; -359.807
660.241;   13.107; -754.107; -921.807
660.511;  493.683; -147.107; -174.808
660.781;   86.860; -793.106; -748.808
661.052;  -52.413; -222.106; -381.808
661.322;  -18.861;   21.894;   -9.809
661.592;   28.866;  257.894;  148.191
661.862;  -82.032; -369.106; -382.810
662.133; -106.831; -551.105; -502.810
662.403; -113.229; -770.105; -676.810
662.673;  -52.752; -256.105; -213.811
662.943; -101.400; -612.105; -551.811
663.213;   -1.748;  -85.105;  -81.811
663.483;  -76.021; -593.104; -568.812
663.753;  -51.020; -194.104; -152.812
664.023;  -25.993;   68.896;  -32.813
664.293;  -59.041; -319.104; -126.813
664.563; -104.589; -694.104; -648.813
664.833; -125.187; -743.103; -608.814
665.103; -128.935; -730.103; -793.814
665.373; -116.934; -766.103; -806.814
665.643;  -81.907; -863.103; -918.815
665.913;   32.520; -534.103; -714.815
666.182;  135.922; -685.102; -719.816
666.452;  268.899;  -22.102;  -89.816
666.722;  -34.374; -724.102; -784.816
666.992; -133.573; -948.102; -921.817
667.261;  -91.021; -824.102; -808.817
667.531;  212.256;  134.899;   45.183
667.801;  558.808; -440.101; -412.818
668.070;  233.035;  714.899;  697.182
668.340;  -98.663; -883.101; -840.819
668.609;   90.488;  588.900;  301.181
668.879;  -75.835; -490.100; -558.819
669.149;  -79.108; -539.100; -516.820
669.418;  -96.331; -698.100; -726.820
669.688;  -32.304; -482.100; -666.820
669.957;   66.298; -423.099; -546.821
670.226;  -25.801; -268.099; -331.821
670.496; -101.174; -431.099; -635.822
670.765;  -80.122; -418.099; -501.822
671.034; -139.545; -872.099; -828.822
671.304;  -10.668;   55.902; -111.823
671.573; -156.916;-1085.098; -957.823
671.842;   80.135; -380.098; -294.823
672.112;    0.012; -692.098; -586.824
672.381;  -11.411; -239.098; -214.824
672.650; -134.784;-1005.097;-1021.825
672.919;  -92.207; -631.097; -507.825
673.188;  -86.005; -681.097; -878.825
673.457; -163.829;-1101.097;-1143.826
673.726;  -71.452; -579.096; -646.826
673.995;  -48.450; -533.096; -479.826
674.265;   -9.798; -263.096; -333.827
674.534;    5.779; -183.096; -235.827
674.802;    5.706; -618.096; -703.828
675.071; 1011.307; -886.095; -801.828
675.340; 3852.409; -464.095; -339.828
675.609; 1276.236;  103.905;   82.171
675.878;   84.988; -949.095; -893.829
676.147;   23.640;  -26.095;   -8.829
676.416;  108.167; -210.094; -294.830
676.685;  731.343; 1000.906; -622.830
676.953;  117.195; -603.094; -452.831
677.222;  -45.928; -193.094; -273.831
677.491;  -24.751;  -24.094; -127.831
677.759;   -4.649;   11.907;  172.168
678.028;  -21.022; -279.093; -222.832
678.297;   -4.171;   71.907;  197.168
678.565; -138.419; -898.093; -944.833
678.834;  -60.092; -311.093; -268.833
679.102;  -70.790; -411.092; -391.834
679.371; -158.163; -898.092; -727.834
679.639; -125.086; -797.092; -786.834
679.908; -125.559; -794.092; -724.835
680.176; -163.908; -895.091; -941.835
680.445;  -66.381; -346.091; -352.835
680.713;  -15.879;  -58.091;  -23.836
680.982;  -95.452; -523.091; -525.836
681.250;  -94.250; -578.091; -507.837
681.518;  -96.273; -534.090; -751.837
681.787;  -22.897; -204.090; -167.837
682.055;  -64.670; -490.090; -422.838
682.323; -147.943; -993.090; -992.838
682.591;   33.159; -216.090; -538.838
682.859;   81.036;    9.911;  -35.839
683.128;   14.213;  232.911;  497.161
683.396; -177.711;-1102.089;-1122.840
683.664;  -27.434; -241.089;   21.160
683.932;    0.593;  144.911;  -76.840
684.200;  -82.155; -576.088; -320.841
684.468;  -28.478;  -73.088; -124.841
684.736;  -34.601; -214.088; -175.841
685.004; -112.425;-1024.088; -982.842
685.272;  -64.073; -880.088; -774.842
685.540;  -66.396; -499.087; -557.843
685.808;  -91.194; -651.087; -682.843
686.076; -116.342; -894.087; -969.843
686.343;  -57.965; -601.087; -815.844
686.611;   51.836; -195.087; -224.844
686.879;  462.338; -530.086; -553.844
687.147; 3265.040; -483.086; -480.845
687.414;  917.142;  -12.086; -169.845
687.682;    8.469; -658.086; -757.846
687.950;  303.371;  259.915;  263.154
688.217;    4.847; -792.085; -760.846
688.485;  -14.301; -632.085; -636.847
688.753;  525.376;  -11.085; -102.847
689.020;  142.653; -820.085; -851.847
689.288; -118.345; -853.084; -787.848
689.555;  -30.818; -195.084; -148.848
689.823;  -50.192; -241.084; -345.849
690.090;  -95.040; -546.084; -651.849
690.358; -156.813; -877.084; -897.849
690.625;   -1.636;  120.917;   45.150
690.892;  -65.734; -403.083; -369.850
691.160;   -8.732;   72.917;  -35.850
691.427;   17.644;  141.917;  130.149
691.694; -139.254; -855.083; -929.851
691.962; -141.877;-1177.082;-1060.852
692.229;   18.300;  127.918;   56.148
692.496;   87.077;  130.918;  -49.852
692.763;   17.804; -164.082; -201.853
693.031;  -61.545; -739.082; -716.853
693.298;  -44.068; -509.081; -368.853
693.565;  310.534; -155.081; -163.854
693.832; 1266.811;   -5.081;   -9.854
694.099;  134.663; -643.081; -642.855
694.366;  -59.435; -882.081; -896.855
694.633;  -58.184; -920.080; -633.855
694.900;  768.143; 4367.920; -114.856
695.167;  434.920; -214.080; -380.856
695.434;  105.697; -646.080; -623.856
695.701;  195.874;  121.921;  -61.857
695.968;  440.951; -365.079; -361.857
696.234; 1043.477; -415.079; -646.858
696.501;10528.204; -776.079; -614.858
696.768; 5181.931; -554.079; -617.858
697.035;  314.133; -632.078; -667.859
697.302;   36.210; -448.078; -552.859
697.568;   10.937; -458.078; -497.859
697.835;  -43.112; -683.078; -624.860
698.102;  -21.985; -498.078; -407.860
698.368;   71.867;  384.923;  396.139
698.635;  -53.306;  -47.077; -424.861
698.901;  -11.754; -240.077; -348.861
699.168;   65.873; -534.077; -456.862
699.435;   75.475;  -72.077;  -13.862
699.701; -111.474; -868.076; -764.862
699.968;  -47.522;  144.924; -441.863
700.234; -118.845; -783.076; -822.863
700.500;  -59.393; -448.076; -539.864
700.767;  -18.391;   -1.075;   26.136
701.033; -128.389;-1015.075; -963.864
701.299;  -57.288; -450.075; -483.865
701.566;  113.639;  950.925;  763.135
701.832;   17.066;  -31.075;  -76.865
702.098;  -86.957;-1054.074;-1034.866
702.365;  -91.830;-1098.074;-1030.866
702.631;  -29.103;-1038.074;-1063.867
702.897; 1390.448; -765.074; -676.867
703.163; 2201.825;  348.926;  254.133
703.429;  155.902; -256.073; -273.868
703.695;  -26.421; -796.073; -792.868
703.961;   24.906; -214.073; -210.868
704.227;  -50.792; -630.073; -725.869
704.493;  140.759;  613.927;  510.131
704.759;  -33.489; -565.072; -540.870
705.025;   31.463; -203.072; -194.870
705.291;  -16.535; -666.072; -562.870
705.557;  190.092;  719.928;   34.129
705.823;   43.444; -742.072; -694.871
706.089;  131.945; -307.071; -326.871
706.355;  363.372; -315.071; -244.872
706.620; 5696.949; -776.071; -729.872
706.886; 7764.851; -309.071; -362.873
707.152;  714.028; -818.070; -973.873
707.418;  -22.670;-1153.070;-1186.873
707.683;    4.781; -550.070; -530.874
707.949;  -44.917; -547.070; -578.874
708.215;    3.610; -129.070; -207.874
708.480;  -24.763; -520.069; -420.875
708.746;   91.889;   68.931;   28.125
709.011;  -64.834; -578.069; -612.876
709.277;  -69.558; -538.069; -543.876
709.542;  -44.906; -428.069; -387.876
709.808;   -2.629;  -59.068;   89.123
710.073;  -78.277; -577.068; -695.877
710.339;  -19.875; -242.068; -228.877
710.604;   86.227; -780.068; -845.878
710.869;  321.653; -277.068; -366.878
711.135;  -55.770; -715.067; -628.879
711.400;  -82.568; -507.067; -608.879
711.665;  -78.241; -404.067; -479.879
711.931; -104.564; -661.067; -677.880
712.196; -120.137; -876.067; -954.880
712.461;  117.864; -402.066; -490.880
712.726;  148.341; -727.066; -771.881
712.991;  -86.232; -647.066; -664.881
713.256;  -42.280; -350.066; -332.882
713.521;  -61.803; -417.065; -381.882
713.787;  -50.301; -454.065; -472.882
714.052;  -26.300; -214.065; -400.883
714.317;  -92.598;-1045.065; -981.883
714.581; 1065.829; -374.065; -268.883
714.846; 1416.806; -822.064; -888.884
715.111;  147.783;  261.936;  257.116
715.376;  -18.740;  -86.064; -223.885
715.641;  -19.664; -365.064; -367.885
715.906;  306.188;   15.936; -551.885
716.171;  133.265;  221.937;  209.114
716.436;   37.617;  -78.063; -104.886
716.700; -115.581; -818.063; -692.886
716.965; -128.879; -794.063; -807.887
717.230;  -70.203; -339.063; -392.887
717.494;  -20.426;  -40.062; -134.888
717.759; -100.049; -784.062; -640.888
718.024;    7.553;  269.938;  250.112
718.288;   54.405;  685.938;  395.111
718.553; -140.318; -803.062; -977.889
718.817; -142.241; -883.061; -899.889
719.082;  -34.915; -115.061; -125.890
719.346; -146.388;-1000.061; -947.890
719.611;  -45.886; -300.061; -255.891
719.875;  -97.159; -568.060; -537.891
720.140;  -67.957; -453.060; -603.891
720.404;   38.545; -136.060; -249.892
720.668;  871.296; -475.060; -411.892
720.933;  306.348;  146.940;  137.108
721.197;  -90.725; -667.059; -600.893
721.461; -137.498; -851.059; -826.893
721.725;   -9.246;  -21.059; -250.894
721.990;  -49.969; -284.059; -204.894
722.254;  -33.218;  -26.059; -108.894
722.518;  -90.191; -286.058; -442.895
722.782;  -77.739; -743.058; -594.895
723.046;  127.613;  614.942;  570.105
723.310;   22.015;  374.942;  210.104
723.574; -101.183; -654.058; -614.896
723.838; -103.632; -576.057; -642.897
724.102;  -38.180; -226.057; -239.897
724.366; -140.803;-1032.057; -978.897
724.630;  -93.451; -749.057; -571.898
724.894;  -83.099; -722.057; -514.898
725.158;   -9.872;   38.944; -295.898
725.422;  -53.671; -394.056; -327.899
725.685;  -67.194; -441.056; -349.899
725.949;  -76.692; -566.056; -519.900
726.213;  -71.465; -732.056; -811.900
726.477;  167.687;-1020.055; -933.900
726.740;  129.014; -274.055; -104.901
727.004;  339.565; -384.055; -510.901
727.268; 3359.067; -442.055; -400.901
727.531;  887.494; -961.055; -775.902
727.795;  -50.579; -713.054; -673.902
728.059;  -70.077; -552.054; -557.903
728.322;  -81.725; -841.054; -669.903
728.586;   33.726; -692.054; -701.903
728.849; -102.297; -695.053; -756.904
729.112; -116.095; -812.053; -912.904
729.376; -130.568; -959.053; -905.904
729.639;  -75.941; -536.053; -536.905
729.903; -123.914; -733.053; -699.905
730.166;  -49.213; -437.052; -399.906
730.429;  -27.736; -317.052; -468.906
730.693;  -61.609; -355.052; -894.906
730.956;  234.068;  810.948;  651.093
731.219;  695.495; -310.052; -103.907
731.482;  116.697;-1003.051; -894.907
731.745;   93.648; -794.051; -935.908
732.009;   21.200;  -30.051;   50.092
732.272; -105.998; -904.051; -771.909
732.535;  -57.896; -300.051; -310.909
732.798; -158.294;-1083.050;-1166.909
733.061;  -62.967; -430.050; -456.910
733.324;    8.859;   31.950; -180.910
733.587;   59.661;  290.950;  365.090
733.850;  -87.362; -973.049;-1050.911
734.113;   29.790;   33.951;   32.089
734.376;    8.042; -328.049; -447.912
734.639;  227.494; 1188.951; 1011.088
734.901;   85.420; -180.049; -402.912
735.164;  529.022; -883.048; -837.913
735.427; 1285.599; -166.048; -355.913
735.690;  117.451; -205.048; -234.913
735.952;  -40.047; -923.048; -925.914
736.215;  -32.770;-1113.048;-1009.914
736.478;   42.006; -771.047; -774.915
736.740;  213.008;   33.953;  129.085
737.003;  713.485; -658.047; -672.915
737.266; 4023.037;  -94.047;   46.084
737.528;  436.089; -682.047; -660.916
737.791;  315.191; -316.046; -327.916
738.053;  830.818;  465.954;  649.083
738.316;11213.844; -162.046; -136.917
738.578; 7489.521; -770.046; -736.918
738.841;  441.673; -382.046; -446.918
739.103;  171.725; -875.045; -777.918
739.365;  495.902;   79.955;  -69.919
739.628;   -8.221; -884.045; -805.919
739.890;  -35.420; -758.045; -710.919
740.152;  -39.343; -692.044; -754.920
740.414;  -26.241; -408.044; -359.920
740.677;  -54.039; -785.044; -634.921
740.939;  -64.462; -587.044; -487.921
741.201;  264.140; -432.044; -572.921
741.463;   36.841; -689.043; -745.922
741.725;   11.468;  -21.043; -199.922
741.987;   45.095;  220.957;  116.078
742.249;    0.197; -751.043; -859.923
742.511;  206.924; -703.043; -794.923
742.773;   13.351; -546.042; -546.924
743.035;  132.902;  796.958;  533.076
743.297;  -50.071; -963.042;-1013.924
743.559;  720.831; -278.042; -262.925
743.821;   53.933; -735.042; -744.925
744.083;   24.385;  -44.041; -149.925
744.345;  -87.413; -869.041; -892.926
744.607;   38.538;   75.959;  122.074
744.868;  -69.560; -490.041; -554.927
745.130; -110.833; -994.041;-1008.927
745.392;   41.519;   -1.040;  -44.927
745.653;  -15.954; -411.040; -378.928
745.915;  157.673;  896.960;  631.072
746.177;   54.524;   35.960;  -43.928
746.438;   10.051; -428.040; -543.929
746.700;  -51.172; -947.039; -988.929
746.961;   -0.595; -659.039; -740.930
747.223;  141.732; -190.039;  -74.930
747.484;   77.509; -391.039; -471.930
747.746;  150.160;  -23.038; -106.931
748.007;  108.187; -647.038; -689.931
748.269;  302.314; -468.038; -440.931
748.530;  468.241; -852.038; -638.932
748.791;  249.468; -354.038; -420.932
749.053;  445.245;  286.963;  163.067
749.314;  455.746; -236.037; -169.933
749.575;  509.173; -945.037; -905.933
749.836;  836.125; -217.037;   86.066
750.098; 2543.702;  -60.037;  -21.934
750.359;37145.679;  414.964;  555.066
750.620; 8930.956; -121.036; -220.935
750.881; 1050.557; -585.036; -513.935
751.142; 1357.934; -950.036; -938.936
751.403;17232.286; -789.036; -705.936
751.664; 7156.663;-1034.035; -999.936
751.925;  481.140; -175.035; -262.937
752.186;  287.417; -298.035; -278.937
752.447;  126.043; -590.035; -445.937
752.708;   49.495; -532.035; -648.938
752.969;   -5.428; -566.034; -576.938
753.230;  -15.501; -777.034; -672.939
753.491;  -12.799; -650.034; -631.939
753.751;   64.328;  109.966;   19.061
754.012;   87.804;  258.967;  181.060
754.273;   44.956; -174.033;  -71.940
754.534;    2.783; -487.033; -580.940
754.794;  -91.590; -926.033; -911.941
755.055;  138.162; 1051.967;  881.059
755.316;  -43.411; -700.032; -566.942
755.576;  -35.860; -606.032; -576.942
755.837;  -41.958; -527.032; -695.942
756.097;  -47.331; -530.032; -564.943
756.358;  -66.929; -725.032; -770.943
756.618;  -54.377; -705.031; -641.943
756.879;    7.550; -254.031; -349.944
757.139; -123.699;-1098.031;-1116.944
757.400;  -58.747; -538.031; -553.945
757.660;  -18.170; -365.031; -401.945
757.920;   20.532; -266.030; -228.945
758.181;  -27.291; -468.030; -351.946
758.441;  -95.689; -870.030; -809.946
758.701;  -37.862; -308.030; -215.946
758.961;  -17.886; -220.030; -278.947
759.222;  -46.309; -574.029; -502.947
759.482;  -91.332; -683.029; -723.948
759.742;  -97.605; -706.029; -547.948
760.002;   14.222;  -83.029; -143.948
760.262;   20.549;   50.972;  182.051
760.522;  -37.975; -498.028; -574.949
760.782;  -53.698; -738.028; -612.949
761.042;  -31.371; -618.028; -573.950
761.302;   47.131;   55.972;  -18.950
761.562;   51.308; -164.027; -154.951
761.822;   76.835; -710.027; -551.951
762.082;  -43.089;-1104.027;-1093.951
762.342;   74.138; -328.027; -403.952
762.601;   85.015; -567.027; -506.952
762.861;  357.842; -281.026; -207.952
763.121;  421.069; -406.026; -411.953
763.381; 7777.096; -499.026; -485.953
763.640; 7963.922; -139.026; -307.954
763.900;  352.674; -242.026; -203.954
764.160;   86.876; -458.025; -491.954
764.419;  -21.572; -726.025; -782.955
764.679;  -74.395; -795.025; -726.955
764.939;  -13.943; -124.025; -210.955
765.198;  -80.567; -608.025; -563.956
765.458;  -81.340; -710.024; -612.956
765.717;  -80.263; -454.024; -590.957
765.976;  -59.186; -428.024; -411.957
766.236;  -75.409; -475.024; -610.957
766.495;   21.468;  260.977;   73.042
766.755;  -91.656;-1090.023; -987.958
767.014;    2.996; -594.023; -665.958
767.273;  -56.727; -373.023; -397.959
767.533;  -47.850; -228.023; -307.959
767.792;  -34.698; -151.022; -188.960
768.051;  -65.771; -228.022; -276.960
768.310;  -94.945; -546.022; -650.960
768.569;  -22.568; -161.022;    4.039
768.828;  -39.341; -285.022; -363.961
769.088; -123.714;-1050.021; -942.961
769.347;  -91.037; -755.021; -599.962
769.606; -107.835; -876.021; -857.962
769.865; -123.184;-1016.021;-1033.963
770.124;   -7.632; -411.021; -336.963
770.383;  -48.980; -778.020; -910.963
770.641;   -3.753; -398.020; -400.964
770.900;  -64.401; -953.020; -846.964
771.159;  -55.774; -851.020; -951.964
771.418;  -14.273; -917.020; -779.965
771.677;  126.404; -224.019; -293.965
771.936;  143.781; -794.019; -865.966
772.194; 2396.858; -465.019; -437.966
772.453;11042.585; -213.019; -391.966
772.712;  761.237;  416.982;  329.033
772.970;  120.813;   32.982;   63.033
773.229;   68.090;  -22.018;  102.033
773.488;  -80.133; -814.018; -770.968
773.746;   53.794;  296.982;  335.032
774.005;   -1.529;  190.983;  -22.969
774.263;    8.123;  243.983;  177.031
774.522;  -92.901; -422.017; -548.969
774.780;  -78.324; -484.017; -417.970
775.039;  -77.147; -551.017; -531.970
775.297;  -22.395; -135.016; -351.970
775.555;  -98.093; -489.016; -612.971
775.814; -117.741; -618.016; -570.971
776.072; -117.465; -749.016; -740.971
776.330; -104.363; -630.016; -520.972
776.589; -133.886; -703.015; -721.972
776.847; -133.884; -645.015; -624.973
777.105; -160.482;-1016.015;-1032.973
777.363;  -96.880; -459.015; -454.973
777.621; -143.603; -660.015; -717.974
777.879;  -35.552;  -42.014;   32.026
778.138; -103.625; -554.014; -717.974
778.396; -112.523; -585.014; -526.975
778.654; -178.496;-1015.014; -970.975
778.912;  -64.869; -269.014; -371.976
779.170; -135.617; -880.013; -803.976
779.427; -147.241; -922.013; -897.976
779.685; -140.514; -880.013; -832.977
779.943;  -91.862; -654.013; -593.977
780.201; -159.685; -964.012; -883.978
780.459; -120.108; -651.012; -610.978
780.717;  -78.406; -440.012; -390.978
780.974; -114.555; -449.012; -490.979
781.232;  -79.653; -358.012; -338.979
781.490;  -94.251; -551.011; -472.979
781.747;  -92.849; -555.011; -476.980
782.005;   23.328;  462.989;  254.020
782.263; -169.870; -542.011;-1004.981
782.520;  -88.169; -326.011; -501.981
782.778; -159.442;-1013.010;-1051.981
783.035; -172.740; -962.010; -938.982
783.293;  -63.838; -248.010; -206.982
783.550;  -63.661; -134.010; -198.982
783.808; -128.659; -764.010; -776.983
784.065; -171.608; -745.009; -874.983
784.322;  -33.256;   25.991;  -86.984
784.580; -145.729; -915.009; -771.984
784.837; -108.752; -392.009; -466.984
785.094; -146.675; -783.009; -762.985
785.352;  -72.798; -304.008; -404.985
785.609; -101.522; -934.008; -839.985
785.866;  -74.095; -345.008; -401.986
786.123;  -71.868; -639.008; -583.986
786.380; -113.441; -665.008; -604.987
786.637;  -50.289; -225.007; -380.987
786.895;  -24.187; -456.007; -543.987
787.152;  -45.911; -135.007; -267.988
787.409;  -54.034; -123.007; -225.988
787.666;  -94.982; -299.006; -378.988
787.923; -109.755; -616.006; -695.989
788.179; -108.678; -551.006; -584.989
788.436; -103.901; -585.006; -585.990
788.693;  -40.525;  -92.006;  -87.990
788.950;  139.952; -125.005; -112.990
789.207;  197.629; -381.005; -372.991
789.464;  -58.044; -161.005; -301.991
789.720;  -10.867;  150.995;  110.009
789.977; -163.115;-1003.005; -671.992
790.234;  -39.564;   44.996;  -66.992
790.490; -159.712; -884.004;-1031.993
790.747;  -26.210;  -85.004;   22.007
791.004;  -32.233; -426.004; -348.993
791.260;  -83.556; -430.004; -560.994
791.517; -110.879; -843.003; -788.994
791.773;  -56.603; -379.003; -342.994
792.030; -110.976; -596.003; -660.995
792.286;  -99.524; -686.003; -636.995
792.543;  -28.822;  -74.002; -159.995
792.799;  -48.595; -584.002; -382.996
793.055; -157.943;-1179.002;-1210.996
793.312; -107.017; -827.002; -816.997
793.568;  -60.490; -746.002; -599.997
793.824;   -3.913; -226.001; -284.997
794.081;   18.089; -447.001; -508.998
794.337;   62.066; -664.001; -561.998
794.593; 1426.543; -319.001; -271.999
794.849; 6552.519; -746.001; -772.999
795.105;  316.696; -270.000; -261.999
795.361;   21.823; -490.000; -457.000
795.617;  -57.325; -875.000; -945.000
795.873;  -51.625; -360.000; -407.000
796.129;  -34.675; -368.000; -306.000
796.385;  -19.150; -124.000; -156.000
796.641;   72.500;  412.000;  550.000
796.897;  -80.900; -666.000; -635.000
797.153;   70.050;  453.000;  357.000
797.409; -113.425; -785.000; -868.000
797.665;  -65.750; -625.000; -732.000
797.921;  -95.800; -775.000; -762.000
798.176;  -57.900; -744.000; -747.000
798.432;  -60.525; -824.000; -596.000
798.688;  -73.500;-1174.000;-1078.000
798.943;   79.300; -165.000; -147.000
799.199;   -1.275;-1005.000; -959.000
799.455;  238.125;  369.000;  316.000
799.710;  135.225; -813.000; -380.000
799.966;  303.250; -162.000; -160.000
800.221;  488.025; -638.000; -721.000
800.477;10981.725; -743.000; -710.000
800.732; 8971.350; -773.000; -800.000
800.988;  625.725;  205.000;  -19.000
801.243; 1916.225; -454.000; -344.000
801.498; 7735.625; -814.000; -739.000
801.754;  448.825; -289.000; -163.000
802.009;   85.825; -257.000; -335.000
802.264;  -45.650; -967.000;-1033.000
802.520;   32.925;  222.000;   -3.000
802.775;  -30.325; -524.000; -359.000
803.030;   38.625;  395.000;  356.000
803.285; -114.675; -840.000; -903.000
803.540;  -63.450; -686.000; -699.000
803.795;  -54.100; -648.000; -583.000
804.051;  -38.075; -279.000; -346.000
804.306;   26.925;  168.000;  128.000
804.561;  151.250;  451.000;  362.000
804.816;  129.925;  714.000;  861.000
805.071;   -4.375; -185.000; -280.000
805.325;  220.000; -257.000; -427.000
805.580; -105.225; -841.000; -877.000
805.835;  -28.075; -204.000; -297.000
806.090;  -77.950; -760.000; -676.000
806.345;  -29.175; -344.000; -264.000
806.600;  -18.100; -549.000; -632.000
806.854;  -34.025; -408.000; -538.000
807.109;  -20.925; -493.000; -577.000
807.364;    1.275; -407.000; -328.000
807.618;  -27.050; -415.000; -381.000
807.873;   51.300; -470.000; -494.000
808.128;   84.350; -257.000; -518.000
808.382;  131.175; -224.000; -332.000
808.637;   69.575; -440.000; -511.000
808.891;  169.725; -257.000; -180.000
809.146;   88.825; -902.000; -794.000
809.400;  259.900; -848.000; -923.000
809.654;  320.950; -779.000; -551.000
809.909;  493.750; -841.000; -927.000
810.163; 7014.700; -813.000; -651.000
810.418;16824.375; -940.000; -861.000
810.672; 1023.700; -685.000; -690.000
810.926;  726.125; -993.000; -973.000
811.180; 1472.600; -439.000; -372.000
811.434;32920.925;  240.000;  135.000
811.689;12207.900; -231.000; -365.000
811.943;  611.475; -936.000; -953.000
812.197;  309.525; -893.000; -671.000
812.451;  127.550; -379.000; -514.000
812.705;  -26.900; -809.000; -619.000
812.959;  -15.050; -263.000; -388.000
813.213;   -9.125; -283.000; -209.000
813.467;   62.300;  470.000;  253.000
813.721; -108.525; -764.000; -792.000
813.975; -121.750; -826.000; -877.000
814.229;   46.725;  430.000;  353.000
814.482;  -75.700; -517.000; -566.000
814.736; -109.800; -766.000; -744.000
814.990; -118.400; -779.000; -872.000
815.244;  -49.975; -228.000; -285.000
815.497;  -96.050; -636.000; -601.000
815.751;  -18.500; -141.000;   82.000
816.005;  -96.250; -470.000; -586.000
816.258;  -79.750; -510.000; -363.000
816.512;  -99.650; -693.000; -610.000
816.766;   -8.275;  121.000;  157.000
817.019;   13.400;  148.000;  149.000
817.273; -133.175;-1000.000; -802.000
817.526;  -28.300; -206.000; -173.000
817.779;  -54.650;-1049.000; -960.000
818.033;  -72.875; -693.000; -807.000
818.286; -123.525; -725.000; -792.000
818.540;  -91.600; -403.000; -403.000
818.793;  -96.875; -402.000; -489.000
819.046; -106.525; -582.000; -520.000
819.299;  -45.475; -157.000; -166.000
819.553; -106.000; -552.000; -592.000
819.806; -172.425;-1016.000; -838.000
820.059;  -69.450; -334.000; -354.000
820.312;   17.950;  152.000;  185.000
820.565;  -22.700;  110.000;  -27.000
820.818;  -52.225;  -59.000; -173.000
821.071; -175.425;-1041.000; -957.000
821.324; -115.500; -536.000; -540.000
821.577; -105.500; -457.000; -483.000
821.830;  -81.550; -270.000; -172.000
822.083; -135.425; -733.000; -288.000
822.336;  -48.925; -261.000; -167.000
822.589; -141.975; -805.000; -688.000
822.842; -154.525; -875.000; -770.000
823.094; -186.700;-1076.000;-1114.000
823.347; -142.400; -925.000; -729.000
823.600;    9.775;  402.000;  187.000
823.853;  -61.575; -311.000; -267.000
824.105;  -67.475; -331.000; -575.000
824.358; -119.850; -617.000; -716.000
824.611;   27.975;  234.000;   40.000
824.863;  -47.025; -612.000; -591.000
825.116;   21.250;  -33.000;   27.000
825.368;   76.400; -366.000; -372.000
825.621;  153.400; -186.000; -240.000
825.873;   75.350; -704.000; -737.000
826.126;  637.550; -669.000; -641.000
826.378;11848.275; -389.000; -505.000
826.630; 2634.550; -890.000; -898.000
826.883;   48.250; -754.000; -693.000
827.135;   50.850; -279.000; -270.000
827.387; -114.875; -893.000; -839.000
827.639;  -29.050;  -86.000;   32.000
827.892; -129.675; -742.000; -582.000
828.144; -153.800; -848.000; -804.000
828.396;  -37.300;  104.000;  -80.000
828.648; -101.850; -440.000; -333.000
828.900; -167.875; -702.000; -795.000
829.152; -117.875; -684.000; -683.000
829.404;  -76.875; -215.000; -267.000
829.656;  -10.400;  321.000;  214.000
829.908;  -25.425;  393.000;  229.000
830.160; -173.225;-1064.000;-1047.000
830.412;  -95.500; -481.000; -430.000
830.664; -129.225; -557.000; -665.000
830.916;  -88.225; -268.000; -206.000
831.167; -182.850;-1073.000; -951.000
831.419; -125.700; -623.000; -566.000
831.671; -151.175; -764.000; -809.000
831.923;  -96.525; -311.000; -447.000
832.174;  -82.825; -273.000; -331.000
832.426; -131.200; -493.000; -582.000
832.678; -184.750;-1043.000;-1091.000
832.929; -173.925; -947.000; -935.000
833.181;  -66.725; -575.000; -677.000
833.432;  -53.725;  -59.000; -186.000
833.684;  -28.900;  112.000;  -27.000
833.935; -127.400; -610.000; -566.000
834.187; -135.300; -829.000; -823.000
834.438;  -49.725;  -58.000;  -25.000
834.689;  -60.050; -255.000; -123.000
834.941;  -74.875; -343.000; -244.000
835.192;  -96.400; -590.000; -533.000
835.443; -120.300; -419.000; -506.000
835.695;  -22.275;  138.000;  -16.000
835.946;  -96.250; -608.000; -378.000
836.197; -102.375; -599.000; -622.000
836.448; -108.150; -528.000; -395.000
836.699;  -63.775; -253.000; -341.000
836.950;   -7.825;   72.000;    7.000
837.201; -147.675;-1003.000; -987.000
837.452;  -57.775; -356.000; -170.000
837.703; -118.400; -791.000; -737.000
837.954;  -37.025; -205.000; -365.000
838.205;  -84.550;-1029.000;-1008.000
838.456;  167.500; -196.000; -282.000
838.707;   -4.100; -423.000; -519.000
838.958;    1.025; -634.000; -647.000
839.209;  292.800;   18.000;   40.000
839.460;  102.125; -439.000; -201.000
839.710;  172.100; -135.000; -297.000
839.961;  423.025;  730.000;  612.000
840.212;  336.325; -382.000; -497.000
840.462; 1185.825; -328.000; -277.000
840.713;18628.300; -571.000; -536.000
840.964; 6855.750;  -62.000; -143.000
841.214;  499.475; -384.000; -624.000
841.465;  558.500; -214.000; -141.000
841.715;  500.250; -417.000; -380.000
841.966;  639.375; -746.000; -685.000
842.216; 9656.750; -330.000; -431.000
842.466;33997.700; -169.000; -313.000
842.717; 1706.850; -964.000; -952.000
842.967;  302.350; -635.000; -641.000
843.217;  273.050;   20.000;   28.000
843.468;   60.750; -104.000; -132.000
843.718;  -42.050; -718.000; -726.000
843.968; -109.450; -837.000; -765.000
844.218;   18.650; -315.000; -262.000
844.469;  -51.375; -577.000; -561.000
844.719;  -94.125; -537.000; -682.000
844.969;  -94.775; -550.000; -580.000
845.219; -150.550; -814.000; -862.000
845.469;  -81.225; -392.000; -342.000
845.719; -148.325; -792.000; -884.000
845.969;   -9.525;  119.000;  174.000
846.219; -121.950; -738.000; -720.000
846.469;   16.325;  464.000;  432.000
846.718;  -44.925; -115.000;   31.000
846.968; -156.400; -827.000; -827.000
847.218;  -62.375; -224.000; -371.000
847.468;   -2.750; -586.000; -555.000
847.718; -156.075; -827.000; -798.000
847.967; -144.700; -826.000; -915.000
848.217;  -86.400; -449.000; -569.000
848.467;  -67.850; -405.000; -376.000
848.716; -107.275; -708.000; -725.000
848.966;    0.900; -372.000; -358.000
849.215;  -59.525; -428.000; -419.000
849.465; -115.600; -785.000; -615.000
849.714; -149.025;-1132.000;-1150.000
849.964;  -74.025; -551.000; -613.000
850.213;  -27.800; -393.000; -355.000
850.463;   80.175;  137.000;  340.000
850.712;   -0.150; -542.000; -567.000
850.961;   18.850; -739.000; -678.000
851.211;   90.125; -513.000; -504.000
851.460;  166.025; -635.000; -650.000
851.709;  598.250;  -25.000;   18.000
851.958;10959.900; -912.000; -750.000
852.208;12365.225; -859.000; -879.000
852.457;  446.150; -181.000;  -13.000
852.706;   60.475; -791.000; -823.000
852.955;   11.075; -507.000; -528.000
853.204;  -74.450; -521.000; -461.000
853.453;  -99.925; -418.000; -458.000
853.702; -129.075; -660.000; -750.000
853.951; -112.175; -532.000; -520.000
854.200; -111.850; -613.000; -562.000
854.449; -142.850; -695.000; -661.000
854.698;  -95.600; -340.000; -279.000
854.946;  -75.375; -181.000; -284.000
855.195; -150.950; -843.000; -868.000
855.444;  -95.300; -395.000; -420.000
855.693; -124.675; -345.000; -432.000
855.941; -108.200; -387.000; -516.000
856.190;  -56.100; -256.000; -382.000
856.439; -129.800; -652.000; -703.000
856.687;  -60.475;  -99.000;  -72.000
856.936; -119.875; -621.000; -323.000
857.184; -200.775;-1067.000;-1020.000
857.433; -119.925; -423.000; -512.000
857.681; -172.825; -989.000; -953.000
857.930;  -72.850; -282.000; -433.000
858.178; -180.000; -856.000; -929.000
858.427; -166.050; -802.000; -781.000
858.675; -118.575; -377.000; -544.000
858.923; -124.900; -527.000; -819.000
859.172; -189.275;-1094.000;-1070.000
859.420; -101.075; -339.000; -239.000
859.668; -139.400; -624.000; -628.000
859.916;  -33.325;  109.000;  115.000
860.164; -141.300; -699.000; -603.000
860.413;  293.225; -878.000; -696.000
860.661;  207.225; -709.000; -577.000
860.909;  -86.700; -339.000; -325.000
861.157;  -86.025; -277.000; -444.000
861.405; -124.050; -534.000; -670.000
861.653;   10.725;  310.000;  310.000
861.901;  182.925; -543.000; -613.000
862.149;  -18.400; -801.000; -824.000
862.396;  -96.125; -297.000; -187.000
862.644;  -87.550; -368.000; -347.000
862.892;  -37.950;   98.000;  138.000
863.140; -113.875; -549.000; -530.000
863.388; -169.025; -815.000; -759.000
863.635; -136.850; -642.000; -601.000
863.883;  -18.525;  231.000;  190.000
864.131;  -97.700; -288.000; -357.000
864.378; -143.250; -675.000; -540.000
864.626; -112.800; -347.000; -415.000
864.873; -128.500; -556.000; -505.000
865.121; -148.775; -714.000; -799.000
865.368;  -60.250; -173.000;   75.000
865.616;  -54.750;  -33.000;  -40.000
865.863;  -93.725; -462.000; -506.000
866.111; -110.725; -795.000; -824.000
866.358;   35.250; -426.000; -420.000
866.605; 2394.825;  -64.000; -804.000
866.853; 2278.775; -621.000; -537.000
867.100;  -44.650; -728.000; -775.000
867.347; -109.800; -672.000; -611.000
867.594;  -76.025; -740.000; -714.000
867.841;   86.150;   97.000;   17.000
868.089; -152.650; -746.000; -698.000
868.336; -118.000; -477.000; -420.000
868.583; -147.575; -637.000; -741.000
868.830;  -51.175; -131.000; -170.000
869.077; -172.025; -859.000; -787.000
869.324; -134.750; -502.000; -458.000
869.571; -142.500; -398.000; -430.000
869.818; -136.000; -485.000; -439.000
870.065; -107.150; -439.000; -513.000
870.311; -131.950; -456.000; -542.000
870.558; -110.600; -332.000; -311.000
870.805;  -90.600; -320.000; -384.000
871.052; -114.125; -494.000; -369.000
871.298;  -59.900; -204.000; -131.000
871.545;  -72.750; -151.000; -185.000
871.792;  -91.900; -173.000; -222.000
872.038;  -77.475;   43.000; -126.000
872.285; -123.050; -496.000; -387.000
872.532; -105.975; -357.000; -387.000
872.778;    6.725;  556.000;  403.000
873.025;  -99.375; -384.000; -359.000
873.271;   16.850;  501.000;  578.000
873.517;  -30.425; -133.000; -209.000
873.764;  -41.025; -193.000;  -80.000
874.010;  -74.350; -143.000; -230.000
874.257;  -42.525;  123.000;   90.000
874.503; -133.950; -579.000; -479.000
874.749;  -92.825;   31.000;  275.000
874.995;  -53.800;  -80.000;  -20.000
875.242; -138.125; -540.000; -478.000
875.488; -115.675; -414.000; -439.000
875.734;  -62.850; -106.000; -234.000
875.980;  186.325; -872.000;-1032.000
876.226;  337.350; -157.000; -255.000
876.472;  -21.000;  343.000;  237.000
876.718;  -49.700;  184.000;  158.000
876.964;  -56.975;   56.000;   55.000
877.210; -175.425; -547.000; -677.000
877.456; -137.600; -630.000; -557.000
877.702; -182.050; -821.000; -832.000
877.948; -109.650; -377.000; -497.000
878.193;    4.950;  361.000;  255.000
878.439;  -92.250; -487.000; -472.000
878.685; -100.325; -272.000; -343.000
878.931; -134.675; -618.000; -676.000
879.176;  -82.650; -201.000; -201.000
879.422; -191.325; -933.000; -820.000
879.668;   64.150;   10.000;   79.000
879.913;  149.950;   53.000;  137.000
880.159;  -71.025; -112.000;  -17.000
880.404;  -72.300; -152.000; -162.000
880.650;  -34.225;   91.000;  141.000
880.895; -158.575; -670.000; -710.000
881.141; -129.400; -454.000; -428.000
881.386; -147.175; -503.000; -658.000
881.631;  -96.425; -311.000; -166.000
881.877;  -24.925;  112.000;  -13.000
882.122; -147.025; -684.000; -600.000
882.367;  -85.050; -136.000; -186.000
882.612;  -82.975;  -80.000; -176.000
882.858; -178.875; -877.000; -823.000
883.103; -102.075; -297.000; -267.000
883.348; -163.500; -759.000; -852.000
883.593; -141.000; -677.000; -602.000
883.838;  -56.025; -311.000;  -24.000
884.083;   24.525;  353.000;  288.000
884.328;  -87.600; -564.000; -545.000
884.573;  -58.200; -196.000; -143.000
884.818;  198.825; -694.000; -531.000
885.063;  145.375; -348.000; -315.000
885.308; -118.075; -475.000; -398.000
885.553;  -21.800;  245.000;  325.000
885.797; -145.875; -545.000; -615.000
886.042;  -64.125;    8.000;   58.000
886.287;  -93.275; -253.000; -211.000
886.532;  -63.750;   26.000;  204.000
886.776; -110.025; -407.000; -525.000
887.021; -152.300; -621.000; -574.000
887.265; -163.850; -685.000; -689.000
887.510; -146.950; -557.000; -496.000
887.755; -101.550; -194.000; -164.000
887.999; -144.700; -552.000; -575.000
888.244;  -68.775;  -58.000;  161.000
888.488;   -5.025;  371.000;  393.000
888.732; -134.200; -368.000; -520.000
888.977; -136.925; -622.000; -567.000
889.221; -170.725; -683.000; -659.000
889.465; -142.125; -422.000; -566.000
889.710;  -82.975;  -56.000; -299.000
889.954;   -5.925;  579.000;  467.000
890.198; -148.775; -584.000; -707.000
890.442; -156.525; -716.000; -712.000
890.687; -175.150; -800.000; -753.000
890.931;  -93.175; -273.000; -210.000
891.175; -134.725; -502.000; -500.000
891.419;  -82.450; -105.000; -110.000
891.663;  -86.950; -239.000; -112.000
891.907; -168.475; -801.000; -545.000
892.151; -177.675; -920.000; -815.000
892.395; -125.775; -274.000; -387.000
892.638;  -26.225;  408.000;  291.000
892.882; -183.975; -780.000; -867.000
893.126;    3.525;  758.000;  558.000
893.370;  -85.200; -167.000; -168.000
893.614; -158.400; -714.000; -715.000
893.857; -102.025; -183.000; -197.000
894.101; -130.475; -527.000; -631.000
894.345;  -58.200;  300.000;  150.000
894.588;   -1.475;  569.000;  380.000
894.832;  -99.975; -178.000;  -84.000
895.075;  -92.425;   15.000;  -92.000
895.319; -126.450; -552.000; -420.000
895.563; -121.225; -413.000; -353.000
895.806; -151.200; -628.000; -741.000
896.049;  -65.400; -576.000; -368.000
896.293;   96.650;  527.000;  405.000
896.536;  -91.275; -465.000; -468.000
896.779;  -60.750; -149.000;   -1.000
897.023; -147.700; -751.000; -714.000
897.266;  -33.800;  325.000;  269.000
897.509; -187.150; -900.000; -901.000
897.752;  -53.175;  149.000;  171.000
897.996; -205.725; -972.000; -864.000
898.239;  -53.400;  168.000;  102.000
898.482; -128.175; -431.000; -453.000
898.725;  -42.925;  101.000;   53.000
898.968; -167.650; -609.000; -744.000
899.211; -117.950; -513.000; -361.000
899.454; -131.300; -633.000; -539.000
899.697;  -75.100;   90.000;  -43.000
899.940; -158.925; -761.000; -757.000
900.182; -116.350; -335.000; -405.000
900.425; -106.850; -150.000; -298.000
900.668;  -24.975;  491.000;  350.000
900.911; -109.625; -292.000; -345.000
901.154;  -66.225;  141.000;   -3.000
901.396; -141.375; -407.000; -412.000
901.639; -149.375; -430.000; -496.000
901.882; -181.600; -790.000; -809.000
902.124; -101.900;  -29.000; -143.000
902.367; -130.375; -315.000; -361.000
902.609; -141.775; -476.000; -453.000
902.852; -100.025; -108.000; -260.000
903.094; -137.125; -458.000; -337.000
903.337;  -67.300;  -26.000;   53.000
903.579; -117.300; -228.000; -441.000
903.821; -165.375; -597.000; -744.000
904.064;  -69.200;   85.000;  127.000
904.306;  -88.725; -126.000; -166.000
904.548; -116.725; -152.000; -366.000
904.790; -104.000; -195.000; -340.000
905.033; -151.050; -625.000; -577.000
905.275; -132.150; -513.000; -524.000
905.517;   35.150;  468.000;  256.000
905.759;  -67.575; -667.000; -761.000
906.001; -117.200; -322.000; -369.000
906.243;  -70.350; -162.000; -224.000
906.485;  109.475; -265.000; -207.000
906.727;   94.425; -499.000; -542.000
906.969;  -41.850;  -30.000; -135.000
907.211;  105.500; -316.000; -382.000
907.453;  252.325; -188.000; -237.000
907.695;  -11.825; -158.000; -385.000
907.936;   34.225;  818.000;  706.000
908.178;  -53.600;   92.000; -135.000
908.420;  -78.100; -111.000; -162.000
908.662; -148.050; -633.000; -682.000
908.903; -101.175; -208.000; -123.000
909.145;  -74.575; -240.000; -305.000
909.386;   -9.300;  315.000;  280.000
909.628;   32.500;  363.000;  397.000
909.870;   -6.800;   29.000;  264.000
910.111;  -99.025; -809.000; -949.000
910.353;    6.275; -123.000; -161.000
910.594;  -10.200; -574.000; -606.000
910.835;   78.150; -265.000; -326.000
911.077;  148.150; -503.000; -604.000
911.318;  289.500; -505.000; -471.000
911.559;  445.175; -577.000; -880.000
911.801; 1396.800; -284.000; -280.000
912.042;11073.350;  -50.000; -159.000
912.283;26821.200;  404.000;  371.000
912.524; 3790.700; -396.000; -457.000
912.765;  450.200; -193.000;   79.000
913.006;  225.950; -307.000; -338.000
913.247;   33.475; -270.000; -290.000
913.488;  -18.700;  -43.000;   30.000
913.729;  -87.475; -373.000; -373.000
913.970;  -65.350;  -96.000; -292.000
914.211;  -92.625; -160.000; -198.000
914.452;  -61.500; -118.000;  -11.000
914.693;    1.450;  510.000;  592.000
914.934;    9.750;  510.000;  440.000
915.175;  -78.325;   53.000;  -95.000
915.415;  -71.950; -137.000;   27.000
915.656;  -72.525;  -28.000;  192.000
915.897; -106.075; -252.000;  -82.000
916.137;  -71.075;   74.000;   -9.000
916.378; -150.150; -573.000; -517.000
916.619; -102.800; -159.000;  -63.000
916.859;  -22.000;  303.000;  330.000
917.100;  136.700; 1655.000; 1070.000
917.340;   48.075;  930.000;  728.000
917.581;   51.525;  965.000;  789.000
917.821;  -35.625; -171.000;  143.000
918.061;   -4.200; -199.000;  -72.000
918.302;  -67.625; -152.000; -211.000
918.542;  -37.925;  -22.000;    3.000
918.782;   13.625;  369.000;  377.000
919.023;  134.775;  360.000;  427.000
919.263; 1818.000; 8131.000;  202.000
919.503; 1098.425; -137.000;  -54.000
919.743;  614.450;  390.000;  266.000
919.983;  239.400; -134.000;  -26.000
920.223;   65.000;  135.000;   14.000
920.463;  145.175;  631.000;  554.000
920.703;  132.175;   84.000;   39.000
920.943;  152.475; -110.000;   90.000
921.183;  230.325; -414.000; -405.000
921.423;  518.975;  307.000;  546.000
921.663;  736.550; -174.000; -257.000
921.903; 1622.175;  237.000;  173.000
922.143; 9202.350;  372.000;  389.000
922.383;34233.550;  158.000;  115.000
922.622;10684.450; -120.000;  -15.000
922.862; 1163.675;  796.000;  785.000
923.102;  445.200;  -51.000;   33.000
923.341;  165.325;   59.000;   74.000
923.581;   70.775;  450.000;  360.000
923.821;    5.400;  301.000;  398.000
924.060;    9.000;  351.000;  193.000
924.300;  -75.500;  -16.000; -128.000
924.539;   -1.250;  584.000;  473.000
924.779;   17.100;  812.000;  597.000
925.018;  -46.850;  247.000;  353.000
925.257;   -2.550;  595.000;  666.000
925.497;  -33.800;  447.000;  412.000
925.736;  -79.225;  -35.000;  102.000
925.975;   -6.800;  687.000;  669.000
926.214;   29.125;  907.000;  850.000
926.454;   10.125;  706.000;  757.000
926.693;  -31.500;  419.000;  543.000
926.932;   28.400; 1021.000;  825.000
927.171;   60.650; 1107.000; 1044.000
927.410;   58.750; 1144.000;  967.000
927.649;   18.950;  924.000;  742.000
927.888;  -13.350;  590.000;  564.000
928.127;    3.225;  680.000;  678.000
928.366;   16.825;  842.000;  826.000
928.605;   31.625;  831.000;  737.000
928.844;  247.025; 1451.000; 1393.000
929.083;  623.550;  770.000;  613.000
929.321;  302.600; 1335.000; 1359.000
929.560;   85.525; 1158.000; 1122.000
929.799;  -30.275;  574.000;  475.000
930.038;   80.250; 1025.000; 1394.000
930.276;  -55.625;  334.000;  397.000
930.515;   -7.800;  827.000;  681.000
930.753;  -17.975;  614.000;  589.000
930.992;  -26.375;  664.000;  717.000
931.230;   -9.125;  847.000;  847.000
931.469;  167.375; 2162.000;  892.000
931.707;   77.175;  840.000;  751.000
931.946;   54.200; 1278.000; 1344.000
932.184;   52.900; 1437.000; 1175.000
932.423;   52.275; 1265.000;  963.000
932.661;   91.875; 1296.000; 1428.000
932.899;   -1.750;  987.000;  821.000
933.137;   20.925;  754.000;  564.000
933.376;  141.775; 1664.000; 1335.000
933.614;  150.950; 1759.000; 1196.000
933.852;   58.175; 1357.000; 1171.000
934.090;  138.025; 1722.000; 1747.000
934.328;  111.375; 1252.000; 1457.000
934.566;   89.750; 1431.000; 1110.000
934.804;  122.850; 1263.000; 1309.000
935.042;  483.250; 1861.000; 1850.000
935.280; 1871.150; 2088.000; 2063.000
935.518; 1675.675; 2113.000; 2007.000
935.756;  345.825; 2481.000; 2316.000
935.994;  159.150; 1808.000; 1751.000
936.231;  346.450; 2890.000; 2950.000
936.469;  187.600; 2367.000; 2378.000
936.707;  152.950; 2220.000; 2167.000
936.945;  238.625; 2825.000; 2882.000
937.182;  209.975; 2679.000; 2741.000
937.420;  285.600; 3602.000; 3031.000
937.657;  415.500; 3365.000; 3478.000
937.895;  355.550; 3331.000; 3488.000
938.133;  306.100; 3540.000; 3528.000
938.370;  334.975; 3896.000; 4191.000
938.607;  384.100; 4488.000; 4205.000
938.845;  547.775; 5587.000; 5549.000
939.082;  472.900; 5387.000; 5177.000
939.320;  535.625; 5799.000; 5728.000
939.557;  639.125; 6549.000; 6491.000
939.794;  735.850; 7285.000; 7097.000
940.031;  904.125; 8421.000; 8368.000
940.269; 1137.300; 9552.000; 9107.000
940.506; 1117.800;10901.000;10507.000

