
Integration time [ms]: 200.000
Averaging Nr. [scans]: 10
Smoothing Nr. [pixels]: 0
Data measured with spectrometer [name]: 2101013U2
Wave   ;Sample   ;Dark     ;Reference
[nm]   ;[counts] ;[counts] ;[counts] 

394.013;   70.988; -450.257; -315.536
394.305;  190.985; -461.258; -419.536
394.596;  987.575; -676.269; -527.514
394.887; 2254.893; -796.268; -654.518
395.178;  939.926;  145.736;   11.476
395.470;   67.238; -210.263; -356.526
395.761;  295.309;  305.734;  394.479
396.052;  408.241; -545.284; -306.489
396.343;  418.316; -557.276; -454.503
396.634;   67.483; -200.279; -290.497
396.926;   67.690; -618.268; -565.517
397.217;   86.621;   11.725;  -17.504
397.508;   20.038; -366.273; -154.507
397.799;  -12.217; -555.279; -571.497
398.090; -104.424; -973.280; -902.495
398.381;  118.961;   11.708;  -11.473
398.672;  -89.638; -585.292; -742.473
398.963;   22.889; -348.279; -373.498
399.254;  141.672;   54.709; -209.475
399.545; -145.995;-1017.266; -883.520
399.836;   28.904; -407.277; -343.501
400.127;   50.036; -205.295; -209.468
400.418;   50.632; -423.274; -392.506
400.709;   37.763; -359.281; -333.493
401.000;   45.476; -268.291; -309.476
401.290;  157.668;  225.698;  115.545
401.581;   60.123; -166.286; -228.485
401.872;  -33.894; -542.298; -486.462
402.163;   59.428; -313.296; -252.467
402.454;   77.473; -123.291; -163.475
402.744;   23.418; -844.297; -813.465
403.035;  411.652; -226.293;  -86.471
403.326;  592.965; -366.292; -384.474
403.617;  454.800;  204.701;  165.539
403.907;  171.447; -593.283; -679.490
404.198; 2054.819; -545.307; -599.446
404.489; 5209.553; -618.283; -588.491
404.779; 1835.171; -618.302; -660.456
405.070;  252.649;  -67.304; -174.451
405.360;  264.454; -259.293; -238.472
405.651;  432.683;  125.699;   98.542
405.942;  245.218;  209.714;  127.516
406.232;  213.533; -432.285; -413.487
406.523;  553.946;  641.706;  758.530
406.813;   17.420; -579.286; -644.484
407.104;  409.660;  261.708;  144.527
407.394;  132.801; -604.299; -591.462
407.685;  190.532;  336.715;  222.513
407.975;   15.951; -400.283; -382.490
408.265;  124.088; -134.289; -190.478
408.556;   45.169; -472.291; -459.475
408.846;  265.347;  474.706;  429.530
409.137;  118.597;   -1.288; -216.480
409.427;  -13.767; -193.285; -271.487
409.717;  -19.859; -776.273; -692.508
410.007;  165.226;    4.715; -170.486
410.298;   83.738; -360.295; -342.469
410.588;   10.230; -495.285; -510.486
410.878;  -55.891; -792.287; -873.482
411.168;   32.808; -481.298; -478.463
411.459;  131.545; -295.283; -242.489
411.749;  -39.032; -609.292; -507.474
412.039;  -26.805; -755.289; -386.480
412.329;  237.697;   40.722;  132.501
412.619;  178.721;  -62.286; -148.485
412.909;  416.591;  639.711;  594.521
413.199;  334.777; -130.280; -251.495
413.490;  422.381;  521.710;  352.523
413.780;   24.481;-1013.279; -913.496
414.070;  316.617;  -46.276;  235.497
414.360;  272.393; -729.278; -666.498
414.650;  264.805; -726.288; -688.482
414.940;  401.880; -538.280; -441.496
415.230;  845.301;   50.712;   74.519
415.520; 5603.774;  155.730;   66.486
415.809;21171.062; -305.281; -125.493
416.099;16549.607; -388.277; -229.501
416.389; 4742.730;  435.726;  236.494
416.679; 2824.942;   91.738;   85.473
416.969;  440.014; -527.287; -503.483
417.259;  624.483;  341.721;  171.503
417.549;  690.361;  522.718;  318.508
417.838; 1442.192; -205.268; -147.518
418.128; 4790.087;  650.710;  492.522
418.418; 3871.148; -491.272; -579.509
418.708; 2803.830;    9.726;  -48.506
418.997;10050.725; -474.275; -480.505
419.287;10392.937; -733.273; -790.507
419.577;10073.245; -160.283; -123.489
419.866;32485.604; -588.277; -498.501
420.156;33811.870; -242.270;  -55.513
420.446; 6609.633; -112.263;  -26.526
420.735;  825.764; -376.271; -446.512
421.025; 1162.292; 1830.722;  315.502
421.314;  755.762; -203.271; -226.512
421.604; 1662.585;   89.732;  233.484
421.893;  901.058; -705.271; -602.511
422.183;  169.634; -487.263; -461.526
422.472;  433.859;  -36.271; -107.511
422.762;  402.212; -416.266; -379.521
423.051;  161.918; -916.276; -916.503
423.341;  228.039; -491.273; -439.507
423.630;  417.918; -121.265;   15.477
423.919;  367.124;   58.725;   49.495
424.209;  360.140;  -31.263;   56.473
424.498;  465.890;   68.732;  161.483
424.787;  881.597; -535.267; -601.518
425.077; 3059.516;   34.735;   29.478
425.366; 4541.046; -734.262; -744.528
425.655; 9005.940;  639.727;  259.493
425.945;17945.384; -313.247; -268.554
426.234;10474.570;  117.741;  300.467
426.523; 4427.875;  -86.259; -350.534
426.812; 6288.007;  107.734;  159.480
427.101; 9220.981; -127.269; -323.515
427.390;11845.674;  -55.270;  -86.514
427.680; 2986.796; -624.257; -411.538
427.969;  487.708; -330.255; -301.540
428.258;  315.287; -385.257; -477.536
428.547;  661.552;  449.728;  397.490
428.836; 1267.725; -421.253; -398.543
429.125; 1922.977; -199.259;  -72.534
429.414;  880.450; -330.251; -294.548
429.703; 2836.550; -231.251; -213.548
429.992; 8053.753; -938.250; -828.549
430.281; 5433.426; -397.264; -331.524
430.570;  701.239;  -21.252;   32.454
430.859;  626.075;  279.741;  352.466
431.148;  628.079;  636.752;  631.446
431.437;  386.939;  391.748;  367.454
431.725;   69.689; -544.257; -481.536
432.014;   -7.667; -845.253; -756.545
432.303;  340.060; -149.239; -105.569
432.592;  540.533; -460.263; -178.525
432.881;  880.880; -601.248; -437.554
433.169; 5407.909; -343.255;  -61.540
433.458;10737.096;  445.765;  540.424
433.747; 4585.152; -397.261; -289.529
434.036;  858.234; -275.242; -280.564
434.324; 1832.767; -395.249; -379.551
434.613; 3221.227;   40.757;  159.437
434.902; 1215.549;  333.760;  439.433
435.190;  619.359;   75.761;  295.431
435.479;  341.308;  -52.245;   83.441
435.767;   59.616; -411.244; -427.561
436.056;  170.230; -340.242; -294.563
436.345;  314.052; -372.240; -223.568
436.633;  410.462;   60.750;  383.450
436.922;  368.654;  208.760;  414.432
437.210;  699.485; -194.236;    1.426
437.499; 2139.894; -583.235; -432.576
437.787; 2469.985; -339.236;  -10.574
438.075;  625.165;   56.761;  162.430
438.364;  739.567;  -44.238;  250.429
438.652;  488.479; -286.226; -138.592
438.941;  191.841;    3.770;  269.415
439.229;  -38.264; -665.252; -466.545
439.517;   41.103; -160.234;  -85.577
439.806;  -65.004; -501.225; -290.595
440.094;  227.311;  377.766;  650.421
440.382;  130.415; -653.233; -302.580
440.670;  158.294; -361.235; -285.576
440.959;  -22.385; -347.223; -170.599
441.247;   79.253; -151.229; -109.587
441.535;   97.701; -266.235;   31.423
441.823;  -36.192; -497.234; -305.578
442.111;  254.158;  173.771;  327.412
442.400;  527.307; -628.245; -335.559
442.688; 1571.711; -111.234; -620.579
442.976; 1051.009; -786.213; -450.617
443.264;   91.503; -324.224; -364.597
443.552;  125.180; -258.226;   51.408
443.840;  264.700;  602.765;  876.423
444.128;  143.214;  265.767;  269.420
444.416;  -46.440; -694.228; -312.588
444.704;   -0.654; -465.219;  -92.605
444.992;  100.284;   -0.226;  240.407
445.280;    7.142; -517.230;  -94.585
445.568;  -44.688; -694.212; -396.618
445.856;  416.329; -174.221;  357.398
446.143;  840.042;  -54.220;   -7.604
446.431;  812.364;  -25.228;  625.411
446.719;  376.067;  489.783;  675.391
447.007;  265.736;  481.769;  705.416
447.295;  298.912;  597.777;  871.402
447.583;   35.351; -464.229;  -34.587
447.870;  110.926; -434.221; -202.601
448.158;  476.840; -104.230;  129.415
448.446;  277.844; -800.219; -338.604
448.733;  184.505;   13.776;  269.403
449.021;  293.512;   60.788;  341.382
449.309;  197.228; -296.210;  208.379
449.596;  245.563;  128.783;   59.392
449.884;  108.019; -571.222; -325.600
450.172;   14.770; -756.227; -406.590
450.459;  491.691;  645.786;  780.387
450.747; 2139.361; -411.218; -147.608
451.034; 6488.866;  493.772;  889.411
451.322; 5299.194; -413.214; -170.614
451.609;  553.006;  292.777;  508.403
451.897;  487.795; -550.203; -183.634
452.184; 1450.012; -622.223; -400.598
452.472; 1546.051;   97.792;  269.375
452.759;  424.244;  512.781;  864.395
453.047;   64.109; -407.212; -125.617
453.334;   40.453; -732.219; -216.606
453.621;   41.496; -438.214; -161.615
453.909;  173.187;   13.796;  384.368
454.196;   84.635; -299.199; -123.641
454.483;  267.209;  317.798;  540.364
454.771;  163.854; -215.208;  196.374
455.058;   31.558; -316.207;  102.374
455.345;  200.894;   71.807;  344.347
455.632;   47.461; -128.207;  235.373
455.919;   71.759;  -82.196;  182.354
456.207; -167.960; -774.198; -450.642
456.494;  -68.578; -475.200;  -66.639
456.781;  -39.696; -399.202; -198.635
457.068;   77.968; -253.206;  -29.628
457.355;  -76.131; -698.206; -401.629
457.642;  -65.625; -552.205; -290.630
457.929;  -59.816; -778.194; -417.651
458.216;   14.110; -575.212; -354.617
458.503;  242.389; -173.193;  -19.652
458.790;  130.352; -864.208; -630.625
459.077;  288.210;  -77.202;  110.364
459.364;  721.777; -350.195; -210.649
459.651; 1502.466;  -46.206;  220.372
459.938;  660.841; -864.209; -665.623
460.225;  182.813;  132.799;  276.363
460.512; -150.044; -836.197; -688.645
460.799;  113.260;  -32.218;  320.392
461.086;   41.627; -370.200; -251.640
461.372;    3.240; -509.198; -279.642
461.659;  108.760; -165.196;  108.354
461.946;   29.288; -445.193;  -54.651
462.233;  403.024;  842.800;  888.361
462.519;  232.421; -814.201; -464.639
462.806;  773.057; -768.197; -497.645
463.093;  722.710; -445.191;  -66.656
463.380; -104.546; -920.186; -824.664
463.666;   34.359; -259.197;  -18.646
463.953;   88.871; -406.195; -243.648
464.239;  167.971; -173.195;  -77.648
464.526;  489.283;  413.806;  743.350
464.813;  306.622; -565.190; -304.658
465.099;  483.489;  606.807;  607.348
465.386;  481.093;  903.807;  921.348
465.672;  -31.043; -694.197; -522.645
465.959;  -47.558; -598.188; -520.662
466.245;   -1.107; -468.193; -359.652
466.532;  101.369; -109.195;   63.352
466.818;   50.254; -357.186; -216.664
467.104;  -87.103; -488.182; -415.672
467.391;  -70.976; -628.189; -459.658
467.677;   10.058; -289.186;    9.335
467.964;  -22.469; -682.189; -471.660
468.250;   48.761; -331.186; -160.665
468.536;  131.626;   90.811;  180.341
468.822;  -87.727; -821.184; -574.668
469.109;  232.783;  351.827;  471.311
469.395;  339.704;  729.808;  787.346
469.681;  212.729;   46.811;  156.341
469.967; 1068.834; -699.188; -382.660
470.254; 2332.442; -494.188; -306.662
470.540; 1482.459; -601.196; -476.646
470.826;  190.409; -488.181; -397.675
471.112;  354.877;  288.816;  113.331
471.398;  108.582; -253.183;  -58.670
471.684;   14.439; -626.177; -447.680
471.970; -115.487; -918.180; -981.675
472.256;  -24.997; -521.192; -441.654
472.542;   16.995; -499.171; -434.691
472.828;  -60.008; -743.182; -607.672
473.114;    4.441; -380.166; -283.700
473.400;  -17.444; -504.175; -293.684
473.686;   17.848; -452.166; -400.701
473.972;   60.872; -230.174; -131.687
474.258; -135.717; -925.173; -843.689
474.544;  249.330; -183.178;   -2.679
474.830;  350.958;  -65.175;   45.316
475.116;  529.224; -123.190; -196.658
475.401;  612.015; -558.180; -467.676
475.687;  116.314; -725.180; -718.676
475.973;  -61.599; -673.181; -770.673
476.259;  315.461;  736.825;  764.315
476.544;  348.847; -539.176; -437.682
476.830;  778.090; -398.172; -322.690
477.116;  719.246; -430.177; -336.682
477.401;  228.415;  346.820;  358.324
477.687;  -34.043; -289.175; -405.684
477.973;   38.205;   21.819;   28.326
478.258;   -4.930; -448.163; -348.706
478.544;   73.066;   21.815;   61.334
478.829; -143.899; -818.171; -738.692
479.115;  -82.810; -749.172; -651.690
479.401;  -44.633; -444.174; -449.686
479.686;   39.813; -253.180;  -74.676
479.972; -110.565; -886.178; -776.680
480.257;   15.043; -258.166;  -65.700
480.542;  -47.695; -614.170; -469.693
480.828;  405.455; 1288.824; 1392.317
481.113;  -72.948; -464.176; -426.683
481.399;  -21.105; -236.161; -202.711
481.684;  -96.058; -620.166; -462.700
481.969;   32.009; -158.159;  -73.713
482.255;  -10.484; -439.169; -285.695
482.540;  -64.364; -569.178; -441.680
482.825;   -8.651; -395.187; -404.663
483.110;  129.920;  -85.169; -105.696
483.396;  176.132; -840.157; -652.718
483.681;  605.272;  543.826;  730.313
483.966;   88.803; -696.160; -700.712
484.251;  -17.729; -404.174; -310.687
484.536;    1.554; -356.165; -378.703
484.822;   12.874; -205.173; -218.687
485.107;  -64.427; -599.152; -502.726
485.392;  234.160;  662.836;  541.296
485.677;  146.030;  354.832;  163.302
485.962;  171.230;  160.843;  270.283
486.247;  123.978;  -14.162;   -8.707
486.532;   -0.256; -178.166; -325.701
486.817;  213.089;  381.839;  431.291
487.102;   82.455; -453.154; -514.722
487.387;  654.434; -637.156; -652.718
487.672; 1100.465; -154.164;  -38.705
487.957;  715.697; -394.160; -286.711
488.241;  172.491; -290.150; -314.729
488.526;  810.875; -280.152; -148.726
488.811; 1101.038; -881.177; -818.680
489.096;  857.158; -666.154; -702.723
489.381;  523.871;    3.847;  162.275
489.666;  301.195; -428.161; -510.710
489.950;  296.261;  558.846;  627.277
490.235;  -58.814; -480.151; -458.728
490.520; -118.306; -756.161; -723.710
490.804; -148.663; -827.156; -736.719
491.089;  -50.492; -469.149; -299.732
491.374;   80.364; -132.164;  -75.704
491.658;  -90.280; -817.147; -717.735
491.943;  140.079; -657.152; -609.727
492.227;  268.951; -178.155;  -38.721
492.512;   30.329; -294.157; -341.717
492.797; -135.599; -713.149; -716.731
493.081;  -79.877; -588.147; -598.735
493.366; -138.805; -751.161; -635.711
493.650;  354.880;  831.859;  917.254
493.935;   -3.681; -648.147; -447.734
494.219; -108.034; -778.142; -687.743
494.503; -111.704; -585.150; -487.730
494.788;   86.420;   46.842;   74.285
495.072;  180.592;  184.850;  434.271
495.356;  147.111; -463.148; -343.733
495.641;  421.730; -812.146; -736.736
495.925;  325.542; -976.156; -903.719
496.209;    8.007; -599.149; -451.732
496.494;  -92.833; -763.142; -544.744
496.778;  -12.245; -364.154; -360.722
497.062; -101.159; -819.156; -627.719
497.346; -125.501; -869.160; -640.711
497.631;  255.715;  580.852;  560.266
497.915;   92.041;  -64.145;  175.261
498.199;   49.332; -341.157; -277.718
498.483;  -34.627; -562.152; -508.725
498.767;  314.894;  301.850;  300.271
499.051;  205.405; -126.149; -100.732
499.335;  -13.297; -693.149; -739.731
499.619; -105.212; -381.129; -423.767
499.903;   68.749; -272.155;  -65.721
500.187;  -28.537; -588.153; -316.724
500.471;  -51.422; -796.152; -595.727
500.755;  100.094;   62.839;  -96.710
501.039;   13.550; -270.155; -357.721
501.323;  119.882;  -21.141;  264.254
501.607;   37.870; -447.163; -503.706
501.891;  -64.766; -607.156; -512.718
502.174;  -73.547; -726.144; -585.741
502.458;   91.583;   89.849;  370.273
502.742;   71.707; -180.138; -191.751
503.026;  104.519; -412.147; -254.734
503.310;  165.208; -437.159; -375.713
503.593;   86.221; -464.147; -325.735
503.877;  121.250; -232.133; -156.760
504.161;  189.165;    2.847;  -50.724
504.444;   47.523; -841.158; -710.716
504.728;  384.863; -487.164; -522.704
505.012;  662.490; -257.150;  -76.729
505.295;  561.395; -417.161; -212.711
505.579;  513.241; -256.156; -496.719
505.862;  729.637; -555.145; -333.738
506.146;  647.111; -681.159; -758.714
506.429;  528.211;  568.841;  461.286
506.713;   16.187; -732.151; -667.728
506.996;  363.455;   90.846;  295.278
507.280;  285.558; -633.165; -474.703
507.563;  181.448; -469.155; -261.721
507.847;   81.564; -423.153; -112.724
508.130;   -6.704; -665.161; -456.711
508.413;   80.438; -758.167; -577.700
508.697;  257.138; -151.167;   12.300
508.980;  139.265; -422.153; -312.724
509.263;  -63.456; -466.155; -450.720
509.547;   63.690; -124.150;   82.271
509.830;   69.598; -172.160;  140.289
510.113;  132.741;  128.844;  298.281
510.396;  -14.029; -530.152; -300.725
510.680;  110.839; -818.145; -812.738
510.963;  759.359;  184.846;  180.277
511.246;  608.098; -493.150; -357.730
511.529;  271.444; -482.145;  -83.739
511.812;  389.446; -250.134;   10.241
512.095;  197.384; -740.151; -396.728
512.378;   90.725; -317.147; -245.736
512.661;  -56.185; -703.137; -623.753
512.944;  -47.332; -750.142; -637.744
513.227;   56.512; -170.137; -171.752
513.510;  -21.547; -479.144; -671.741
513.793;   -3.714; -485.140; -435.747
514.076;  140.710;  -43.127;  -39.771
514.359;   68.208; -294.149; -135.732
514.642;   43.771; -442.142; -567.744
514.925;  844.285;  581.860;  561.253
515.208;  873.043; -498.134; -443.758
515.491;  613.257; -276.133; -182.761
515.773;  359.257; -410.143; -337.742
516.056; 2046.422;  249.864;  409.246
516.339; 2575.326; -754.136; -652.755
516.622; 1975.796; -518.150; -488.730
516.904; 1588.565;  882.857;  975.257
517.187;  608.211; -730.138; -523.752
517.470;  419.763; -568.143; -510.743
517.752;  338.429; -624.136; -470.756
518.035;  276.597; -708.139; -725.749
518.318;  273.526; -799.136; -744.755
518.600; 2211.661; -300.132; -325.762
518.883; 2907.171;  310.858;   88.256
519.165; 1463.103; -585.138; -426.751
519.448;  404.161;  -61.132;  -19.762
519.730;  189.318; -573.126; -415.773
520.013;  419.053;  588.867;  664.240
520.295;  963.048;  -94.134;  -15.759
520.578; 2054.875; -335.131; -305.764
520.860; 2236.661; -254.132;   56.238
521.143; 1092.931; -763.135; -584.756
521.425;  507.932; -251.125; -279.775
521.707;  692.710; -622.127; -380.771
521.990; 1884.411; -199.127;  167.229
522.272; 1987.788; -116.140;   -4.748
522.554;  976.558; -237.143; -157.742
522.836;  395.046;  -24.134;   99.241
523.119;  183.818; -496.148; -189.734
523.401;   85.782; -448.130; -314.766
523.683;   55.816; -865.137; -693.753
523.965;  347.009;  408.862;  260.248
524.247;  304.454;   54.878;  170.220
524.529;  151.148; -451.134; -367.759
524.812;  399.384;   -3.130;  191.234
525.094;  790.208; -773.138; -631.751
525.376; 1389.441; -143.124;   78.223
525.658;  804.923; -441.136; -339.754
525.940;  -69.629; -805.131; -671.764
526.222;   21.327; -188.136;  -88.755
526.504;  148.669; -190.131;   32.237
526.786;  135.851; -960.133; -647.760
527.068;  312.847; -124.123;  -67.778
527.349;   32.320; -865.137; -774.754
527.631;  141.361; -137.132;   22.238
527.913;   92.309; -664.127; -450.771
528.195;  111.624; -761.125; -639.774
528.477;  262.843;  -93.134;  -30.758
528.759;   85.184; -648.130; -522.766
529.040;   34.846; -569.123; -293.778
529.322;   53.927; -235.125;  -10.774
529.604;  159.786;  -47.130;   93.233
529.886;   67.818; -546.126; -302.773
530.167;  163.177;  232.870;  192.235
530.449;   74.824;    1.853;   63.265
530.731;  -60.347; -572.122; -459.779
531.012;   18.976; -513.120; -216.784
531.294;   66.317; -118.116;  -43.792
531.575;  249.032;  290.875;  538.225
531.857;    0.237; -548.135; -266.757
532.138;  178.380; -113.141;   40.254
532.420;  266.833;  294.865;  403.244
532.701;  193.053; -722.133; -751.760
532.983;  454.557;  232.867;  182.239
533.264;  124.815; -243.126;  175.228
533.546;  -57.073; -491.136; -508.755
533.827;   74.250;  173.867;   -1.759
534.109;   17.137; -352.135;  -80.757
534.390;   49.965; -725.132; -582.762
534.671;  274.533; -270.135;  -82.756
534.953;   52.149; -751.123; -611.779
535.234;   -7.399; -426.117; -255.789
535.515; -166.316; -891.119; -735.785
535.796;  -43.895; -431.128; -193.770
536.078; -235.159;-1050.124; -904.777
536.359;    8.650;  -22.123;    3.221
536.640;  -25.574; -480.125; -197.774
536.921;  201.492;  225.871;  143.232
537.202;  415.805;  -87.138;  -16.751
537.483;  513.074;  251.869;  377.236
537.764;  206.977;   17.870;   98.235
538.045; -123.158; -543.134; -371.758
538.326;  -90.106; -596.129; -447.768
538.607;  -50.989; -686.127; -476.771
538.888;  182.666;   98.879;    5.218
539.169;  141.260; -704.122; -535.781
539.450;  411.291;  236.871;   16.233
539.731;  219.870; -361.121; -182.783
540.012;  204.176;  199.880;  412.216
540.293;   72.735;   82.876;  158.224
540.574;  -82.061; -895.113; -717.796
540.855;  532.469;  435.879;  377.218
541.136;  596.957;   47.878;  139.220
541.416;  276.985; -161.130; -220.766
541.697;  180.169; -274.131; -170.763
541.978; 1021.235; -270.135; -315.757
542.259; 1141.911; -211.127; -236.771
542.539;  618.611; -191.116; -186.790
542.820;  277.531;  461.875;  480.225
543.101;  121.241;  -52.145;  -77.738
543.381;  -45.289; -638.127; -591.771
543.662;  278.608;  159.873; -254.771
543.942;  489.306; -751.127; -830.770
544.223; 1027.759;  193.878;  161.219
544.504;  633.641; -275.124; -182.777
544.784;  523.117; -592.126; -408.773
545.065; 1530.015;  104.884; -254.791
545.345; 1723.285;  227.881;   14.215
545.626; 1273.439;  -14.113; -108.796
545.906;  901.877;   77.869;   98.235
546.186;  327.722;   92.874;  -95.773
546.467;  226.143;   99.877;  -95.778
546.747;  382.310;  264.884;  327.210
547.027;  394.439;   91.876;  111.223
547.308;  248.805; -376.127; -530.770
547.588;  426.694;  299.871;  371.232
547.868;  260.978;  458.870;  588.235
548.149;  307.023;  609.885;  593.207
548.429;  100.909; -347.127; -299.771
548.709;  124.275; -645.120; -461.784
548.989;  496.695;   84.882;   88.213
549.269; 2064.759;   10.868;  139.239
549.550; 4562.448;  215.877;  117.222
549.830; 3912.758; -758.111; -556.799
550.110;  836.066; -468.110; -320.801
550.390;  875.954; -128.122;  -56.779
550.670;  975.134; -868.114; -783.795
550.950;  764.768; -509.121; -471.782
551.230;  307.064;  549.879;  460.218
551.510;  -48.233; -381.121; -326.782
551.790;   30.974; -173.109; -127.803
552.070;  405.543;  940.877; 1181.223
552.350;  315.189; -492.119; -377.786
552.630;  562.162;   -2.121;   77.219
552.909;  415.615;  181.884;   73.209
553.189;  283.966;  -49.132;   33.237
553.469;  134.788; -703.119; -514.786
553.749;  138.212; -469.127; -357.772
554.029;  187.106;   33.883;  -24.790
554.308;  129.327; -154.115;  -37.794
554.588;   34.204; -196.128; -204.770
554.868;   18.769; -366.121;  -47.782
555.147;  102.424; -114.115;  -46.793
555.427;  559.718; -260.116; -250.792
555.707; 3714.722; -284.115; -200.793
555.986; 3961.861; -719.111; -538.800
556.266; 2345.609;   23.884;   72.210
556.546;   -2.733; -888.121; -675.782
556.825;  151.732; -657.114; -556.794
557.105; 1763.902; -125.128;   17.230
557.384; 1885.614;  122.884;  187.209
557.664;  699.517; -717.116; -508.792
557.943;   62.968; -557.121; -411.782
558.222;  140.098; -345.118; -344.788
558.502;  283.925; -116.115;  -76.793
558.781;  506.121;  194.885;  499.208
559.061;  370.298; -232.118; -227.788
559.340;  347.503;  302.883;  353.211
559.619;  758.309;   93.884;  148.210
559.899;  974.305; -239.117; -266.789
560.178;  874.525; -778.115; -593.793
560.457; 3148.107; -623.117; -562.790
560.736; 3997.763; -472.111; -482.800
561.015; 2761.400; -500.128; -502.769
561.295;  436.695;  180.893;  215.193
561.574;  382.622;  119.885;  116.207
561.853;  507.278;  274.891;  303.197
562.132;  517.828;  -45.114;  182.206
562.411;  517.162;  396.879;  553.219
562.690;   48.420; -592.115; -458.792
562.969;  201.446;  472.888;  630.203
563.248;  899.760; 2966.878; 2487.219
563.527;  274.862; -290.111; -408.800
563.806;  319.309; -650.127; -521.771
564.085;  408.411; -297.105; -206.810
564.364;  179.508; -594.117; -405.790
564.643;  491.863; -276.121; -223.781
564.922; 1750.772;  221.890;  397.198
565.201; 1548.976; -640.109; -700.803
565.479;  722.019; -297.115; -219.792
565.758;  236.002; -810.128; -712.770
566.037;  439.477; -155.109; -100.803
566.316;  196.914; -286.116;  -28.791
566.595;   34.022;  -17.115;  -12.793
566.873;  180.364; -166.111;  -79.801
567.152; -143.955; -490.113; -590.797
567.431;   40.010; -113.116;    6.210
567.709;  -26.405; -344.107; -212.807
567.988;  156.831; -810.114; -769.794
568.266;  442.022; -160.115;  -68.793
568.545;  359.861; -644.100; -514.819
568.824;  696.618;  160.885;  356.208
569.102;  501.131; -351.114; -235.794
569.381;  186.017; -492.116; -407.792
569.659;  -87.258; -553.113; -553.796
569.938;  -71.042; -743.122; -465.780
570.216;   81.880; -225.109; -225.804
570.494; -129.265; -632.114; -572.795
570.773;   98.167;  202.879;  114.218
571.051;  -44.453; -373.123; -357.778
571.330;   34.939; -221.113; -174.796
571.608;   17.080; -181.098; -173.823
571.886; -127.644; -671.111; -581.799
572.164; -179.131; -739.121; -621.782
572.443; -102.485; -562.105; -512.811
572.721;  -95.293; -399.117; -289.790
572.999;  -43.600; -280.117; -168.788
573.277;  177.408;  379.894;  620.191
573.555;  278.611;   94.894;   37.190
573.834; 1228.400;  -86.117; -114.788
574.112; 1529.198;  880.893;  811.193
574.390;  454.863; -143.111;  -96.801
574.668;  -19.453;  -91.112;  -61.797
574.946;  -34.089; -165.106; -187.810
575.224;   19.676;   71.891;  -16.803
575.502;  -26.488; -200.116; -204.791
575.780; -170.952; -767.112; -829.798
576.058;  457.562; 1589.889; 1004.200
576.336;  -42.032; -210.110; -129.801
576.614; -102.952; -511.112; -340.798
576.891;  -25.273; -711.115; -823.794
577.169;  464.488; -158.108; -285.805
577.447;  603.197;  169.893;  202.193
577.725;  378.753;  629.888;  854.201
578.003;   -8.949;  -71.112; -371.798
578.280;   54.725; -208.104; -242.812
578.558;   -6.775; -450.115; -422.793
578.836;  112.634; -210.114; -145.795
579.114;  -37.154; -630.112; -670.797
579.391;   54.302;   -6.117;  -18.789
579.669; -155.872; -595.114; -704.794
579.947;  150.094; -326.107; -127.806
580.224;  207.594; -692.107; -524.806
580.502;  293.598;  127.893;   76.193
580.779;   39.408;  -42.117;   75.210
581.057; -135.420; -584.109; -470.804
581.334; -165.559; -726.102; -695.815
581.612;   67.512;   54.895;  511.190
581.889;  -69.345;  -83.101; -129.818
582.167;  -62.330; -298.099; -190.821
582.444; -204.951; -845.102; -814.817
582.721;  193.350;  657.899;  715.183
582.999;   50.067; -326.100; -167.821
583.276;  384.851; -812.123; -713.779
583.553;  560.344; -364.102; -294.816
583.831;  114.121; -607.104; -631.812
584.108;  115.186;  349.892;  174.195
584.385;  -40.960; -122.102;  -98.815
584.662; -159.936; -651.111; -828.801
584.940;   62.463;  204.889;  204.199
585.217;  -38.059;  -73.113; -303.796
585.494;   52.573;   71.890;  118.198
585.771;  153.481; -250.109; -354.804
586.048;  401.441; -196.113;  -76.796
586.325;  185.167; -721.110; -773.801
586.602;  121.525;  230.896;  213.188
586.879;  -84.137; -499.100; -580.820
587.156;   11.913; -156.105; -331.810
587.433; -102.753; -701.102; -667.817
587.710;  113.449;  152.888;  234.202
587.987;  258.818; -264.105; -236.811
588.264;  699.051;  315.888;  387.202
588.541; 1311.728;  -61.104;   26.187
588.818; 2381.983;   72.892;  171.196
589.095; 2052.623; -163.104; -174.812
589.371;  281.679; -459.109; -414.804
589.648;  -37.602; -581.107; -437.807
589.925;  -46.265; -517.114; -621.795
590.202;  -71.852; -741.112; -607.798
590.478;   80.020; -166.105;  -73.811
590.755;  273.390; -241.108; -132.806
591.032; 2449.369; -741.110; -699.802
591.308; 3096.923; -732.094; -790.831
591.585; 1689.569; -573.110; -560.802
591.862;   25.848;-1056.102; -950.817
592.138;  -44.413; -475.108; -474.805
592.415;  132.426; -486.104; -495.813
592.691; 1554.924;  460.896;  518.188
592.968; 1730.982; -208.098; -123.824
593.244;  781.710; -695.116; -595.790
593.521;   90.749; -105.102;  -42.817
593.797; -130.745; -810.122; -720.780
594.074;  227.396; -611.096; -588.826
594.350;  701.308;  828.905;  729.172
594.626;  287.964; -303.111; -283.801
594.903;   20.149; -643.101; -645.817
595.179;  258.330;  243.896;  418.187
595.455;  -19.501; -136.107; -150.807
595.731;   37.432;  -19.103;  -38.814
596.008; -115.542; -464.111; -434.800
596.284;  -20.434; -187.100; -242.820
596.560;   -5.770; -501.093; -493.833
596.836;  205.215; -173.105;  -70.810
597.112;  231.088; -582.108; -437.805
597.388;  251.294;  -49.097;  -48.826
597.665;  180.844;  437.887;  530.203
597.941; -118.439; -572.089; -658.839
598.217;  -32.127; -323.110; -293.802
598.493;  256.383;   61.891; -204.804
598.769;  411.860; -175.100;  -50.819
599.045;  245.091; -490.108; -562.806
599.321;   19.765; -193.100; -261.820
599.597;  128.182; -355.109; -476.804
599.872;  541.828;  409.896;  429.187
600.148;  351.795;  -61.097; -172.826
600.424;  319.196;   91.893;  202.193
600.700;  230.999; -170.107; -280.807
600.976;   45.189; -442.097; -464.825
601.252;  198.878; -226.109; -272.803
601.527;   74.829; -833.104; -840.813
601.803;   95.121; -453.105; -404.812
602.079;  160.560; -124.100; -118.819
602.354;  475.741; -620.092; -531.835
602.630;  732.941; -140.113; -482.796
602.906; 2276.555; -910.101; -863.818
603.181; 5959.189; -627.119; -534.786
603.457; 5131.993;   98.903; -278.826
603.733;  693.671; -605.120; -626.783
604.008; 1006.111; -245.106; -164.810
604.284; 2643.851; -636.101; -580.817
604.559; 2464.653;   -3.112;  -42.799
604.835;  436.914; -163.105; -225.810
605.110;  307.870; -732.099; -892.821
605.385;  655.133;  224.907;  267.167
605.661;  534.511; -625.095; -729.829
605.936;  865.992; -664.108; -737.806
606.211;  922.839;  -17.103; -170.815
606.487;  152.230; -329.114; -376.794
606.762;  -66.511; -791.119; -745.786
607.037;  -75.485; -501.105; -433.810
607.313; -110.196; -589.096; -574.828
607.588;  -38.089; -375.106; -137.810
607.863;   67.054;  -28.101; -143.818
608.138;  242.471;  513.890;  516.198
608.413;  -44.725; -576.099; -592.822
608.688;    4.388; -203.108; -267.805
608.964;  147.005; -509.106; -218.809
609.239;  203.612; -107.105; -212.810
609.514;  302.120;  281.895;  240.188
609.789;  542.025; -187.104; -716.812
610.064;  748.302; -435.096; -609.827
610.339;  768.779; -855.109; -799.804
610.614;  985.765; -131.100; -315.820
610.889;  640.920;  215.895;  107.188
611.163;  -15.379; -407.104; -591.812
611.438;   46.131;   81.886; -167.794
611.713;  -42.649; -467.101; -499.817
611.988;   12.353; -144.101; -328.818
612.263; -116.759; -771.102; -717.815
612.538;  262.741;  385.887;  251.204
612.812;   95.667; -832.100; -911.820
613.087;   77.480; -358.098; -338.823
613.362; -120.401; -497.107; -557.807
613.637;   85.835;  261.897;  138.186
613.911;  -23.959; -256.092; -345.835
614.186;  113.097; -249.107; -292.807
614.460;  481.341; -842.081; -758.854
614.735;  692.086;  -55.087;  -17.843
615.010;  199.275;   43.912;  -82.841
615.284;  288.287;  360.892;  246.195
615.559;  229.040; -792.092; -955.835
615.833;  258.573;  -76.099;  -87.822
616.108;   28.552; -225.090; -390.837
616.382;  233.788;  274.913;  402.156
616.656;  136.253; -241.090; -232.837
616.931;  343.673; -785.099; -700.822
617.205;  856.629; -973.104; -979.813
617.480;  895.029;  -91.125;    6.225
617.754;  140.627; -396.125; -128.774
618.028;  -22.605; -369.129; -382.768
618.302;   98.985;   73.892;  -25.805
618.577; -133.364; -371.103; -518.815
618.851; -105.125; -399.109; -600.803
619.125; -129.352; -335.134; -378.759
619.399;  -45.970; -244.104; -374.813
619.673;  -65.581; -330.115; -515.792
619.947;  -95.166; -333.114; -448.795
620.222;  -50.235; -198.110; -204.801
620.496;    5.169;  -47.121;  -96.782
620.770;    2.160; -187.122;  -93.781
621.044;  292.213;  323.895;  346.190
621.318;  653.772; -653.120; -614.783
621.592;  561.469; -430.121; -409.783
621.866;  190.854; -476.112; -572.799
622.140;   -2.988; -207.116; -356.791
622.413;   41.358;  138.889;  112.200
622.687; -103.549; -746.101; -492.817
622.961;    7.686; -130.108; -143.805
623.235; -143.641; -633.111; -661.800
623.509; -233.380; -816.105; -848.811
623.783;   34.795;  -12.107;   48.193
624.056;  -55.827; -254.120; -280.783
624.330;   70.547;   63.888;   -3.797
624.604;   26.208; -271.116; -355.790
624.877;  117.670;  180.890;   26.198
625.151;   -5.272; -249.114; -238.794
625.425;  -43.568; -150.103; -283.814
625.698; -124.417; -367.119; -374.785
625.972; -180.227; -799.110; -765.802
626.245;  141.810;  685.884;  484.210
626.519;  -89.123; -426.120; -340.784
626.792;  -59.901; -192.107; -380.807
627.066; -159.148; -485.122; -662.779
627.339; -191.732; -736.110; -663.802
627.613;   98.376;  351.880;  148.216
627.886;   97.375;  187.891; -612.803
628.160;   11.871;  312.880; -161.783
628.433; -188.868; -695.125; -703.775
628.706; -168.423; -517.120; -615.784
628.979;   59.939;  296.876;  117.223
629.253; -210.312; -785.119; -833.786
629.526;  295.116; -334.126; -253.772
629.799;  252.947; -641.123; -479.778
630.072;   92.197; -497.128; -516.769
630.346; -213.090;-1115.116;-1080.790
630.619;  399.000; -467.107; -545.808
630.892;  634.960;  709.889;  593.200
631.165;  420.529;  790.896;  679.187
631.438; -216.949;-1092.112;-1055.798
631.711;  102.550;  453.877;  257.221
631.984; -109.495; -523.117; -624.789
632.257; -151.298; -636.117; -681.789
632.530;  -73.817; -412.119; -433.785
632.803;   74.726; -109.115;    7.207
633.076;  -84.457; -360.123; -422.777
633.349;   43.801;  173.872;  121.231
633.622;  -73.518; -187.119; -240.785
633.895; -258.027; -903.120; -823.783
634.167; -108.282; -496.126; -525.773
634.440;    0.817;  -19.116; -137.792
634.713;   23.387;  -22.119; -120.786
634.986;  138.390;  593.871;  453.233
635.258; -130.576; -507.115; -597.793
635.531;  214.197;  742.882; -343.788
635.804;  -54.096; -303.117; -318.789
636.077; -203.387; -830.116; -852.791
636.349; -100.377; -586.115; -474.793
636.622;  654.015; 1695.874; 1392.228
636.894;  207.878; -474.120; -909.784
637.167;   38.409; -836.127; -789.771
637.439;   36.705; -278.128; -213.770
637.712;  -65.983; -312.126; -293.772
637.984; -142.186; -635.116; -707.791
638.257;  474.444;  515.877;  488.222
638.529;  355.633; -881.125; -924.776
638.802;  163.697; -508.128; -449.769
639.074; -220.841; -927.122; -952.781
639.346; -258.661; -942.135; -930.757
639.619;   14.470;  -79.142; -319.744
639.891;  -36.848;  -83.122; -168.779
640.163; -143.846; -689.122; -756.780
640.435;   75.656;  273.878;  103.220
640.708;   -0.542;  -72.122; -132.780
640.980;  -51.740; -366.122; -362.781
641.252;  231.862;  -25.121;  -71.781
641.524; 1673.564;  580.879;  573.219
641.796; 1435.266;-1094.121; -907.782
642.068;  243.368; -191.121; -300.782
642.340; -106.730; -486.121; -566.783
642.613;   92.172;  294.880;  323.217
642.885; -190.226; -787.120; -878.783
643.157; -142.924; -810.120; -658.784
643.428;  105.778;  170.880;  218.216
643.700; -133.420; -498.120; -425.784
643.972;  -50.618;  -16.119; -133.785
644.244; -147.717; -474.119; -559.785
644.516;  -60.115; -250.119; -114.786
644.788;  157.987;  662.881;  548.214
645.060;   -5.611;  -12.119; -124.786
645.332; -192.809; -525.118; -535.787
645.603;  140.593;  479.882;  342.213
645.875;  -92.205; -334.118; -369.787
646.147;  386.597; 1487.882; 1242.212
646.418; -161.201; -931.117; -918.788
646.690;   85.201; -714.117; -715.789
646.962;  -10.697; -413.117; -451.789
647.233;    2.705;   15.883;   11.211
647.505; -181.493; -595.117; -475.790
647.776;   86.709;  328.884;  229.210
648.048;  -40.289; -248.116; -418.790
648.320; -162.387; -752.116; -679.791
648.591; -286.685;-1055.116; -958.791
648.862; -115.483; -505.116; -577.792
649.134;   56.619;  115.885;  198.208
649.405;  -98.279; -661.115; -618.792
649.677; -120.378; -475.115; -598.793
649.948;  -21.576; -181.115; -296.793
650.219;    9.926;  -37.115; -147.793
650.491; -116.372; -431.114; -520.794
650.762; -220.570; -705.114; -731.794
651.033; -110.768; -437.114; -424.795
651.304; -186.266; -743.114; -728.795
651.576; -158.264; -680.114; -645.795
651.847;  -34.762; -250.113; -140.796
652.118;   17.540;  -32.113; -189.796
652.389; -196.758; -639.113; -722.796
652.660;  -18.656; -147.113;  -89.797
652.931; -243.854; -897.112; -871.797
653.202; -126.352; -382.112; -541.798
653.473; -151.050; -633.112; -533.798
653.744;   71.752; -595.112; -590.798
654.015;   78.454; -356.112; -303.799
654.286; -139.944; -642.111; -663.799
654.557; -117.142; -586.111; -521.799
654.828; -290.041;-1114.111;-1088.800
655.099; -130.939; -404.111; -291.800
655.370; -139.037; -427.111; -543.801
655.641; -217.035; -656.110; -714.801
655.911; -143.233; -618.110; -638.801
656.182;  116.869;  437.890;  387.198
656.453;  249.371;  830.890;  746.198
656.724; -106.727; -466.110; -426.802
656.994; -111.725; -553.109; -568.803
657.265; -204.423; -862.109; -873.803
657.536;  -97.921; -500.109; -377.804
657.806; -160.719; -561.109; -593.804
658.077; -237.817; -866.109; -950.804
658.347; -160.015; -523.108; -598.805
658.618; -202.513; -646.108; -694.805
658.888;   -6.311;  -41.108;  112.195
659.159; -123.009; -432.108; -548.806
659.429;  -66.107; -292.108; -349.806
659.700;  -21.605; -435.107; -390.807
659.970;  -46.103; -370.107; -359.807
660.241;  -72.702; -754.107; -921.807
660.511;  415.200; -147.107; -174.808
660.781;    3.702; -793.106; -748.808
661.052;  -85.096; -222.106; -381.808
661.322;    7.506;   21.894;   -9.809
661.592;   78.308;  257.894;  148.191
661.862;  -99.890; -369.106; -382.810
662.133; -186.788; -551.105; -502.810
662.403; -202.586; -770.105; -676.810
662.673;  -63.184; -256.105; -213.811
662.943; -154.182; -612.105; -551.811
663.213;  -35.680;  -85.105;  -81.811
663.483; -112.578; -593.104; -568.812
663.753;  -85.876; -194.104; -152.812
664.023;   17.826;   68.896;  -32.813
664.293;  -92.972; -319.104; -126.813
664.563; -145.370; -694.104; -648.813
664.833; -199.168; -743.103; -608.814
665.103; -194.966; -730.103; -793.814
665.373; -214.665; -766.103; -806.814
665.643; -189.063; -863.103; -918.815
665.913;  -35.361; -534.103; -714.815
666.182;   25.441; -685.102; -719.816
666.452;  235.543;  -22.102;  -89.816
666.722; -108.755; -724.102; -784.816
666.992; -276.853; -948.102; -921.817
667.261; -190.251; -824.102; -808.817
667.531;  172.351;  134.899;   45.183
667.801;  409.253; -440.101; -412.818
668.070;  315.255;  714.899;  697.182
668.340; -195.843; -883.101; -840.819
668.609;  172.659;  588.900;  301.181
668.879; -139.339; -490.100; -558.819
669.149; -140.137; -539.100; -516.820
669.418; -166.135; -698.100; -726.820
669.688;  -94.733; -482.100; -666.820
669.957;   10.169; -423.099; -546.821
670.226;  -60.029; -268.099; -331.821
670.496; -165.628; -431.099; -635.822
670.765; -137.626; -418.099; -501.822
671.034; -253.924; -872.099; -828.822
671.304;   11.478;   55.902; -111.823
671.573; -278.420;-1085.098; -957.823
671.842;   38.982; -380.098; -294.823
672.112;  -65.016; -692.098; -586.824
672.381;  -54.014; -239.098; -214.824
672.650; -242.512;-1005.097;-1021.825
672.919; -152.310; -631.097; -507.825
673.188; -168.708; -681.097; -878.825
673.457; -315.106;-1101.097;-1143.826
673.726; -132.804; -579.096; -646.826
673.995; -100.702; -533.096; -479.826
674.265;  -45.100; -263.096; -333.827
674.534;    1.802; -183.096; -235.827
674.802;  -55.096; -618.096; -703.828
675.071;  818.706; -886.095; -801.828
675.340; 3224.508; -464.095; -339.828
675.609; 1202.610;  103.905;   82.171
675.878;  -53.989; -949.095; -893.829
676.147;   60.913;  -26.095;   -8.829
676.416;   92.415; -210.094; -294.830
676.685;  878.417; 1000.906; -622.830
676.953;   47.819; -603.094; -452.831
677.222;  -68.279; -193.094; -273.831
677.491;  -48.877;  -24.094; -127.831
677.759;   -0.075;   11.907;  172.168
678.028;  -47.373; -279.093; -222.832
678.297;    3.829;   71.907;  197.168
678.565; -249.169; -898.093; -944.833
678.834;  -95.667; -311.093; -268.833
679.102; -129.565; -411.092; -391.834
679.371; -240.763; -898.092; -727.834
679.639; -226.361; -797.092; -786.834
679.908; -214.759; -794.092; -724.835
680.176; -252.657; -895.091; -941.835
680.445; -120.755; -346.091; -352.835
680.713;   -0.853;  -58.091;  -23.836
680.982; -172.752; -523.091; -525.836
681.250; -189.350; -578.091; -507.837
681.518; -160.048; -534.090; -751.837
681.787;  -11.346; -204.090; -167.837
682.055; -140.544; -490.090; -422.838
682.323; -251.642; -993.090; -992.838
682.591;   -0.940; -216.090; -538.838
682.859;   91.862;    9.911;  -35.839
683.128;   70.164;  232.911;  497.161
683.396; -310.134;-1102.089;-1122.840
683.664;  -48.832; -241.089;   21.160
683.932;   52.470;  144.911;  -76.840
684.200; -134.628; -576.088; -320.841
684.468;  -18.326;  -73.088; -124.841
684.736;  -31.024; -214.088; -175.841
685.004; -273.822;-1024.088; -982.842
685.272; -132.320; -880.088; -774.842
685.540; -113.718; -499.087; -557.843
685.808; -170.716; -651.087; -682.843
686.076; -223.914; -894.087; -969.843
686.343; -153.313; -601.087; -815.844
686.611;   35.889; -195.087; -224.844
686.879;  369.591; -530.086; -553.844
687.147; 2945.393; -483.086; -480.845
687.414;  866.695;  -12.086; -169.845
687.682;  -51.403; -658.086; -757.846
687.950;  328.099;  259.915;  263.154
688.217;  -84.199; -792.085; -760.846
688.485;  -81.497; -632.085; -636.847
688.753;  465.605;  -11.085; -102.847
689.020;   38.507; -820.085; -851.847
689.288; -195.391; -853.084; -787.848
689.555;  -16.189; -195.084; -148.848
689.823;  -50.887; -241.084; -345.849
690.090; -157.385; -546.084; -651.849
690.358; -256.883; -877.084; -897.849
690.625;   13.019;  120.917;   45.150
690.892; -117.979; -403.083; -369.850
691.160;    0.323;   72.917;  -35.850
691.427;   66.924;  141.917;  130.149
691.694; -262.574; -855.083; -929.851
691.962; -239.172;-1177.082;-1060.852
692.229;   24.930;  127.918;   56.148
692.496;  108.432;  130.918;  -49.852
692.763;   -0.766; -164.082; -201.853
693.031; -149.464; -739.082; -716.853
693.298; -102.662; -509.081; -368.853
693.565;  304.840; -155.081; -163.854
693.832; 1081.042;   -5.081;   -9.854
694.099;   41.744; -643.081; -642.855
694.366; -166.754; -882.081; -896.855
694.633; -131.252; -920.080; -633.855
694.900; 1464.450; 4367.920; -114.856
695.167;  387.552; -214.080; -380.856
695.434;    6.154; -646.080; -623.856
695.701;  230.656;  121.921;  -61.857
695.968;  392.958; -365.079; -361.857
696.234; 1066.360; -415.079; -646.858
696.501;10426.662; -776.079; -614.858
696.768; 5011.663; -554.079; -617.858
697.035;  270.965; -632.078; -667.859
697.302;    9.567; -448.078; -552.859
697.568;  -22.631; -458.078; -497.859
697.835;  -99.029; -683.078; -624.860
698.102;  -63.827; -498.078; -407.860
698.368;  143.275;  384.923;  396.139
698.635; -101.223;  -47.077; -424.861
698.901;  -65.721; -240.077; -348.861
699.168;    8.881; -534.077; -456.862
699.435;   71.083;  -72.077;  -13.862
699.701; -258.515; -868.076; -764.862
699.968; -101.713;  144.924; -441.863
700.234; -193.211; -783.076; -822.863
700.500; -111.609; -448.076; -539.864
700.767;  -14.507;   -1.075;   26.136
701.033; -236.205;-1015.075; -963.864
701.299;  -81.203; -450.075; -483.865
701.566;  287.099;  950.925;  763.135
701.832;   86.200;  -31.075;  -76.865
702.098; -192.498;-1054.074;-1034.866
702.365; -235.796;-1098.074;-1030.866
702.631; -162.994;-1038.074;-1063.867
702.897; 1210.408; -765.074; -676.867
703.163; 1936.410;  348.926;  254.133
703.429;   89.512; -256.073; -273.868
703.695; -126.686; -796.073; -792.868
703.961;   41.616; -214.073; -210.868
704.227; -110.582; -630.073; -725.869
704.493;  236.620;  613.927;  510.131
704.759;  -76.378; -565.072; -540.870
705.025;    3.024; -203.072; -194.870
705.291;  -62.374; -666.072; -562.870
705.557;  338.228;  719.928;   34.129
705.823;  -57.470; -742.072; -694.871
706.089;  113.332; -307.071; -326.871
706.355;  395.434; -315.071; -244.872
706.620; 5638.036; -776.071; -729.872
706.886; 7217.737; -309.071; -362.873
707.152;  583.039; -818.070; -973.873
707.418; -183.459;-1153.070;-1186.873
707.683;  -77.557; -550.070; -530.874
707.949; -107.555; -547.070; -578.874
708.215;   -9.253; -129.070; -207.874
708.480;  -57.251; -520.069; -420.875
708.746;  131.551;   68.931;   28.125
709.011;  -87.447; -578.069; -612.876
709.277; -132.845; -538.069; -543.876
709.542;  -60.343; -428.069; -387.876
709.808;  -20.341;  -59.068;   89.123
710.073; -165.139; -577.068; -695.877
710.339;  -53.837; -242.068; -228.877
710.604;    3.965; -780.068; -845.878
710.869;  231.267; -277.068; -366.878
711.135; -142.031; -715.067; -628.879
711.400; -122.929; -507.067; -608.879
711.665;  -77.527; -404.067; -479.879
711.931; -174.225; -661.067; -677.880
712.196; -200.824; -876.067; -954.880
712.461;   40.578; -402.066; -490.880
712.726;   42.180; -727.066; -771.881
712.991; -174.918; -647.066; -664.881
713.256;  -61.116; -350.066; -332.882
713.521; -110.414; -417.065; -381.882
713.787; -126.012; -454.065; -472.882
714.052;  -57.110; -214.065; -400.883
714.317; -187.708;-1045.065; -981.883
714.581;  921.594; -374.065; -268.883
714.846; 1045.796; -822.064; -888.884
715.111;  176.098;  261.936;  257.116
715.376;  -39.900;  -86.064; -223.885
715.641;  -52.798; -365.064; -367.885
715.906;  197.104;   15.936; -551.885
716.171;  191.806;  221.937;  209.114
716.436;   74.308;  -78.063; -104.886
716.700; -184.890; -818.063; -692.886
716.965; -180.588; -794.063; -807.887
717.230; -122.987; -339.063; -392.887
717.494;   -9.985;  -40.062; -134.888
717.759; -160.683; -784.062; -640.888
718.024;   65.919;  269.938;  250.112
718.288;  180.421;  685.938;  395.111
718.553; -227.777; -803.062; -977.889
718.817; -265.175; -883.061; -899.889
719.082;   -7.273; -115.061; -125.890
719.346; -255.871;-1000.061; -947.890
719.611;  -29.869; -300.061; -255.891
719.875; -148.067; -568.060; -537.891
720.140; -106.465; -453.060; -603.891
720.404;   43.737; -136.060; -249.892
720.668;  742.139; -475.060; -411.892
720.933;  341.741;  146.940;  137.108
721.197; -180.057; -667.059; -600.893
721.461; -229.055; -851.059; -826.893
721.725;   44.047;  -21.059; -250.894
721.990;  -69.551; -284.059; -204.894
722.254;   32.751;  -26.059; -108.894
722.518; -124.048; -286.058; -442.895
722.782; -110.546; -743.058; -594.895
723.046;  204.056;  614.942;  570.105
723.310;  111.558;  374.942;  210.104
723.574; -154.940; -654.058; -614.896
723.838; -154.838; -576.057; -642.897
724.102;  -43.036; -226.057; -239.897
724.366; -219.034;-1032.057; -978.897
724.630; -185.932; -749.057; -571.898
724.894; -108.430; -722.057; -514.898
725.158;   23.472;   38.944; -295.898
725.422;  -68.426; -394.056; -327.899
725.685; -120.824; -441.056; -349.899
725.949; -159.322; -566.056; -519.900
726.213; -172.020; -732.056; -811.900
726.477;   49.282;-1020.055; -933.900
726.740;  120.984; -274.055; -104.901
727.004;  313.686; -384.055; -510.901
727.268; 2937.788; -442.055; -400.901
727.531;  690.789; -961.055; -775.902
727.795; -116.309; -713.054; -673.902
728.059; -117.707; -552.054; -557.903
728.322; -158.905; -841.054; -669.903
728.586;  -43.103; -692.054; -701.903
728.849; -160.701; -695.053; -756.904
729.112; -207.899; -812.053; -912.904
729.376; -224.397; -959.053; -905.904
729.639; -108.595; -536.053; -536.905
729.903; -196.793; -733.053; -699.905
730.166;  -35.791; -437.052; -399.906
730.429;  -30.689; -317.052; -468.906
730.693; -118.687; -355.052; -894.906
730.956;  352.315;  810.948;  651.093
731.219;  680.017; -310.052; -103.907
731.482;   -5.981;-1003.051; -894.907
731.745;  -56.879; -794.051; -935.908
732.009;   41.823;  -30.051;   50.092
732.272; -177.575; -904.051; -771.909
732.535;  -69.073; -300.051; -310.909
732.798; -275.172;-1083.050;-1166.909
733.061;  -95.470; -430.050; -456.910
733.324;   46.932;   31.950; -180.910
733.587;  144.234;  290.950;  365.090
733.850; -132.164; -973.049;-1050.911
734.113;   69.338;   33.951;   32.089
734.376;   -1.660; -328.049; -447.912
734.639;  394.442; 1188.951; 1011.088
734.901;   43.744; -180.049; -402.912
735.164;  428.546; -883.048; -837.913
735.427; 1182.848; -166.048; -355.913
735.690;  115.950; -205.048; -234.913
735.952; -129.448; -923.048; -925.914
736.215; -133.846;-1113.048;-1009.914
736.478;  -20.944; -771.047; -774.915
736.740;  236.158;   33.953;  129.085
737.003;  624.260; -658.047; -672.915
737.266; 3763.362;  -94.047;   46.084
737.528;  351.364; -682.047; -660.916
737.791;  259.865; -316.046; -327.916
738.053;  963.967;  465.954;  649.083
738.316;10692.269; -162.046; -136.917
738.578; 6759.371; -770.046; -736.918
738.841;  428.373; -382.046; -446.918
739.103;  120.375; -875.045; -777.918
739.365;  487.477;   79.955;  -69.919
739.628;  -82.521; -884.045; -805.919
739.890; -108.319; -758.045; -710.919
740.152; -102.117; -692.044; -754.920
740.414;  -26.315; -408.044; -359.920
740.677;  -68.013; -785.044; -634.921
740.939;  -82.911; -587.044; -487.921
741.201;  221.191; -432.044; -572.921
741.463;  -21.907; -689.043; -745.922
741.725;   58.595;  -21.043; -199.922
741.987;  108.997;  220.957;  116.078
742.249; -102.301; -751.043; -859.923
742.511;  104.701; -703.043; -794.923
742.773;  -12.698; -546.042; -546.924
743.035;  223.404;  796.958;  533.076
743.297; -121.994; -963.042;-1013.924
743.559;  617.108; -278.042; -262.925
743.821;  -60.590; -735.042; -744.925
744.083;    0.012;  -44.041; -149.925
744.345; -185.886; -869.041; -892.926
744.607;   69.516;   75.959;  122.074
744.868; -111.482; -490.041; -554.927
745.130; -246.980; -994.041;-1008.927
745.392;   63.722;   -1.040;  -44.927
745.653;  -58.576; -411.040; -378.928
745.915;  328.826;  896.960;  631.072
746.177;   68.528;   35.960;  -43.928
746.438;  -40.070; -428.040; -543.929
746.700; -147.868; -947.039; -988.929
746.961;  -80.266; -659.039; -740.930
747.223;  106.036; -190.039;  -74.930
747.484;   48.538; -391.039; -471.930
747.746;  142.340;  -23.038; -106.931
748.007;   62.041; -647.038; -689.931
748.269;  262.843; -468.038; -440.931
748.530;  391.945; -852.038; -638.932
748.791;  210.247; -354.038; -420.932
749.053;  536.949;  286.963;  163.067
749.314;  442.951; -236.037; -169.933
749.575;  404.053; -945.037; -905.933
749.836;  780.155; -217.037;   86.066
750.098; 2699.257;  -60.037;  -21.934
750.359;33666.259;  414.964;  555.066
750.620; 8037.161; -121.036; -220.935
750.881;  946.663; -585.036; -513.935
751.142; 1256.065; -950.036; -938.936
751.403;16583.667; -789.036; -705.936
751.664; 6534.669;-1034.035; -999.936
751.925;  486.571; -175.035; -262.937
752.186;  291.373; -298.035; -278.937
752.447;  113.475; -590.035; -445.937
752.708;   33.277; -532.035; -648.938
752.969;  -85.322; -566.034; -576.938
753.230;  -87.920; -777.034; -672.939
753.491;  -29.218; -650.034; -631.939
753.751;  125.884;  109.966;   19.061
754.012;  170.486;  258.967;  181.060
754.273;   82.688; -174.033;  -71.940
754.534;  -41.010; -487.033; -580.940
754.794; -175.808; -926.033; -911.941
755.055;  292.194; 1051.967;  881.059
755.316;  -94.504; -700.032; -566.942
755.576;  -61.202; -606.032; -576.942
755.837;  -62.000; -527.032; -695.942
756.097;  -91.598; -530.032; -564.943
756.358; -126.096; -725.032; -770.943
756.618; -129.594; -705.031; -641.943
756.879;  -10.492; -254.031; -349.944
757.139; -237.090;-1098.031;-1116.944
757.400; -113.688; -538.031; -553.945
757.660;  -68.286; -365.031; -401.945
757.920;   45.416; -266.030; -228.945
758.181;  -46.583; -468.030; -351.946
758.441; -155.981; -870.030; -809.946
758.701;  -47.679; -308.030; -215.946
758.961;   15.123; -220.030; -278.947
759.222;  -80.075; -574.029; -502.947
759.482; -125.273; -683.029; -723.948
759.742; -175.771; -706.029; -547.948
760.002;   78.031;  -83.029; -143.948
760.262;   51.333;   50.972;  182.051
760.522;  -42.565; -498.028; -574.949
760.782;  -95.063; -738.028; -612.949
761.042;  -59.761; -618.028; -573.950
761.302;   83.641;   55.972;  -18.950
761.562;   77.343; -164.027; -154.951
761.822;   42.945; -710.027; -551.951
762.082; -137.553;-1104.027;-1093.951
762.342;   69.649; -328.027; -403.952
762.601;   96.851; -567.027; -506.952
762.861;  420.653; -281.026; -207.952
763.121;  572.054; -406.026; -411.953
763.381;10616.256; -499.026; -485.953
763.640;10135.458; -139.026; -307.954
763.900;  475.760; -242.026; -203.954
764.160;  146.862; -458.025; -491.954
764.419;  -72.836; -726.025; -782.955
764.679; -109.734; -795.025; -726.955
764.939;    1.968; -124.025; -210.955
765.198; -100.630; -608.025; -563.956
765.458; -139.428; -710.024; -612.956
765.717;  -96.126; -454.024; -590.957
765.976;  -62.724; -428.024; -411.957
766.236; -112.622; -475.024; -610.957
766.495;   84.780;  260.977;   73.042
766.755; -191.518;-1090.023; -987.958
767.014;  -82.316; -594.023; -665.958
767.273;  -56.014; -373.023; -397.959
767.533;  -58.412; -228.023; -307.959
767.792;  -11.410; -151.022; -188.960
768.051;  -73.808; -228.022; -276.960
768.310; -116.507; -546.022; -650.960
768.569;   38.695; -161.022;    4.039
768.828;  -21.003; -285.022; -363.961
769.088; -226.101;-1050.021; -942.961
769.347; -151.999; -755.021; -599.962
769.606; -176.797; -876.021; -857.962
769.865; -210.395;-1016.021;-1033.963
770.124;    9.807; -411.021; -336.963
770.383; -140.291; -778.020; -910.963
770.641;  -63.389; -398.020; -400.964
770.900; -160.787; -953.020; -846.964
771.159; -112.985; -851.020; -951.964
771.418;  -66.683; -917.020; -779.965
771.677;  150.219; -224.019; -293.965
771.936;   84.021; -794.019; -865.966
772.194; 2646.023; -465.019; -437.966
772.453;11075.625; -213.019; -391.966
772.712;  882.827;  416.982;  329.033
772.970;  192.229;   32.982;   63.033
773.229;  114.430;  -22.018;  102.033
773.488; -160.468; -814.018; -770.968
773.746;  153.734;  296.982;  335.032
774.005;   37.336;  190.983;  -22.969
774.263;   38.638;  243.983;  177.031
774.522; -165.760; -422.017; -548.969
774.780; -109.058; -484.017; -417.970
775.039; -131.656; -551.017; -531.970
775.297;   10.746; -135.016; -351.970
775.555; -150.852; -489.016; -612.971
775.814; -180.650; -618.016; -570.971
776.072; -169.048; -749.016; -740.971
776.330; -177.046; -630.016; -520.972
776.589; -193.344; -703.015; -721.972
776.847; -217.542; -645.015; -624.973
777.105; -287.040;-1016.015;-1032.973
777.363; -128.438; -459.015; -454.973
777.621; -203.136; -660.015; -717.974
777.879;   -8.334;  -42.014;   32.026
778.138; -143.733; -554.014; -717.974
778.396; -171.031; -585.014; -526.975
778.654; -299.929;-1015.014; -970.975
778.912; -102.227; -269.014; -371.976
779.170; -196.425; -880.013; -803.976
779.427; -277.923; -922.013; -897.976
779.685; -231.621; -880.013; -832.977
779.943; -163.519; -654.013; -593.977
780.201; -239.417; -964.012; -883.978
780.459; -195.615; -651.012; -610.978
780.717;  -67.813; -440.012; -390.978
780.974; -150.311; -449.012; -490.979
781.232;  -67.909; -358.012; -338.979
781.490; -143.807; -551.011; -472.979
781.747; -160.505; -555.011; -476.980
782.005;   92.997;  462.989;  254.020
782.263; -273.401; -542.011;-1004.981
782.520; -103.099; -326.011; -501.981
782.778; -257.897;-1013.010;-1051.981
783.035; -302.095; -962.010; -938.982
783.293;  -47.894; -248.010; -206.982
783.550;  -58.892; -134.010; -198.982
783.808; -199.590; -764.010; -776.983
784.065; -270.488; -745.009; -874.983
784.322;   -8.286;   25.991;  -86.984
784.580; -244.284; -915.009; -771.984
784.837; -145.482; -392.009; -466.984
785.094; -221.780; -783.009; -762.985
785.352;  -66.078; -304.008; -404.985
785.609; -205.876; -934.008; -839.985
785.866;  -94.374; -345.008; -401.986
786.123; -138.572; -639.008; -583.986
786.380; -133.370; -665.008; -604.987
786.637;  -67.468; -225.007; -380.987
786.895;  -89.166; -456.007; -543.987
787.152;  -66.964; -135.007; -267.988
787.409;  -31.262; -123.007; -225.988
787.666;  -98.060; -299.006; -378.988
787.923; -156.458; -616.006; -695.989
788.179; -125.557; -551.006; -584.989
788.436; -143.955; -585.006; -585.990
788.693;  -34.653;  -92.006;  -87.990
788.950;  165.749; -125.005; -112.990
789.207;  135.451; -381.005; -372.991
789.464;  -56.947; -161.005; -301.991
789.720;   18.255;  150.995;  110.009
789.977; -287.243;-1003.005; -671.992
790.234;    8.559;   44.996;  -66.992
790.490; -251.839; -884.004;-1031.993
790.747;  -34.837;  -85.004;   22.007
791.004;  -15.835; -426.004; -348.993
791.260; -114.533; -430.004; -560.994
791.517; -171.431; -843.003; -788.994
791.773;  -94.029; -379.003; -342.994
792.030; -172.127; -596.003; -660.995
792.286; -168.825; -686.003; -636.995
792.543;   11.577;  -74.002; -159.995
792.799;  -69.921; -584.002; -382.996
793.055; -291.219;-1179.002;-1210.996
793.312; -178.818; -827.002; -816.997
793.568;  -89.116; -746.002; -599.997
793.824;  -20.414; -226.001; -284.997
794.081;   20.288; -447.001; -508.998
794.337;   37.690; -664.001; -561.998
794.593; 1959.692; -319.001; -271.999
794.849; 7695.894; -746.001; -772.999
795.105;  386.096; -270.000; -261.999
795.361;   -9.602; -490.000; -457.000
795.617; -126.500; -875.000; -945.000
795.873;  -45.200; -360.000; -407.000
796.129;  -41.900; -368.000; -306.000
796.385;   -3.500; -124.000; -156.000
796.641;  144.400;  412.000;  550.000
796.897; -152.200; -666.000; -635.000
797.153;  160.400;  453.000;  357.000
797.409; -183.500; -785.000; -868.000
797.665; -119.600; -625.000; -732.000
797.921; -161.900; -775.000; -762.000
798.176; -120.600; -744.000; -747.000
798.432; -150.500; -824.000; -596.000
798.688; -160.000;-1174.000;-1078.000
798.943;   76.500; -165.000; -147.000
799.199;  -64.200;-1005.000; -959.000
799.455;  329.700;  369.000;  316.000
799.710;   40.500; -813.000; -380.000
799.966;  278.300; -162.000; -160.000
800.221;  423.900; -638.000; -721.000
800.477;10843.100; -743.000; -710.000
800.732; 7863.000; -773.000; -800.000
800.988;  726.600;  205.000;  -19.000
801.243; 2597.600; -454.000; -344.000
801.498; 8973.200; -814.000; -739.000
801.754;  549.900; -289.000; -163.000
802.009;   90.700; -257.000; -335.000
802.264; -155.000; -967.000;-1033.000
802.520;   44.200;  222.000;   -3.000
802.775;  -45.700; -524.000; -359.000
803.030;  127.200;  395.000;  356.000
803.285; -186.800; -840.000; -903.000
803.540;  -68.400; -686.000; -699.000
803.795;  -85.900; -648.000; -583.000
804.051;  -45.600; -279.000; -346.000
804.306;   60.900;  168.000;  128.000
804.561;  197.200;  451.000;  362.000
804.816;  291.300;  714.000;  861.000
805.071;    1.800; -185.000; -280.000
805.325;  188.400; -257.000; -427.000
805.580; -183.400; -841.000; -877.000
805.835;  -10.800; -204.000; -297.000
806.090; -157.700; -760.000; -676.000
806.345;    2.500; -344.000; -264.000
806.600;  -79.800; -549.000; -632.000
806.854;  -58.100; -408.000; -538.000
807.109;  -38.500; -493.000; -577.000
807.364;   17.300; -407.000; -328.000
807.618;  -29.000; -415.000; -381.000
807.873;   31.200; -470.000; -494.000
808.128;  114.800; -257.000; -518.000
808.382;  126.400; -224.000; -332.000
808.637;   78.500; -440.000; -511.000
808.891;  257.800; -257.000; -180.000
809.146;   53.000; -902.000; -794.000
809.400;  205.300; -848.000; -923.000
809.654;  351.700; -779.000; -551.000
809.909;  492.700; -841.000; -927.000
810.163; 8333.800; -813.000; -651.000
810.418;17568.900; -940.000; -861.000
810.672; 1138.000; -685.000; -690.000
810.926;  835.600; -993.000; -973.000
811.180; 1991.200; -439.000; -372.000
811.434;43449.600;  240.000;  135.000
811.689;14255.800; -231.000; -365.000
811.943;  723.900; -936.000; -953.000
812.197;  388.100; -893.000; -671.000
812.451;  175.200; -379.000; -514.000
812.705;  -70.700; -809.000; -619.000
812.959;   26.100; -263.000; -388.000
813.213;    7.600; -283.000; -209.000
813.467;  169.100;  470.000;  253.000
813.721; -172.400; -764.000; -792.000
813.975; -169.400; -826.000; -877.000
814.229;  118.000;  430.000;  353.000
814.482; -107.800; -517.000; -566.000
814.736; -198.300; -766.000; -744.000
814.990; -221.600; -779.000; -872.000
815.244;  -47.000; -228.000; -285.000
815.497; -131.300; -636.000; -601.000
815.751;   11.000; -141.000;   82.000
816.005;  -97.600; -470.000; -586.000
816.258; -115.800; -510.000; -363.000
816.512; -172.800; -693.000; -610.000
816.766;   63.200;  121.000;  157.000
817.019;   93.400;  148.000;  149.000
817.273; -233.100;-1000.000; -802.000
817.526;  -24.700; -206.000; -173.000
817.779; -160.400;-1049.000; -960.000
818.033; -157.800; -693.000; -807.000
818.286; -181.700; -725.000; -792.000
818.540; -132.000; -403.000; -403.000
818.793; -121.900; -402.000; -489.000
819.046; -164.600; -582.000; -520.000
819.299;  -33.800; -157.000; -166.000
819.553; -169.000; -552.000; -592.000
819.806; -242.200;-1016.000; -838.000
820.059;  -42.200; -334.000; -354.000
820.312;   39.600;  152.000;  185.000
820.565;   35.600;  110.000;  -27.000
820.818;  -55.500;  -59.000; -173.000
821.071; -248.400;-1041.000; -957.000
821.324; -171.500; -536.000; -540.000
821.577; -126.800; -457.000; -483.000
821.830;  -83.000; -270.000; -172.000
822.083; -208.800; -733.000; -288.000
822.336;  -49.700; -261.000; -167.000
822.589; -200.200; -805.000; -688.000
822.842; -245.200; -875.000; -770.000
823.094; -294.900;-1076.000;-1114.000
823.347; -206.700; -925.000; -729.000
823.600;   68.300;  402.000;  187.000
823.853;  -63.900; -311.000; -267.000
824.105;  -84.400; -331.000; -575.000
824.358; -213.400; -617.000; -716.000
824.611;   84.900;  234.000;   40.000
824.863; -115.900; -612.000; -591.000
825.116;   82.500;  -33.000;   27.000
825.368;   37.700; -366.000; -372.000
825.621;  158.200; -186.000; -240.000
825.873;  -20.100; -704.000; -737.000
826.126;  667.400; -669.000; -641.000
826.378;11649.000; -389.000; -505.000
826.630; 2193.600; -890.000; -898.000
826.883;  -54.000; -754.000; -693.000
827.135;   36.100; -279.000; -270.000
827.387; -218.500; -893.000; -839.000
827.639;  -19.700;  -86.000;   32.000
827.892; -213.800; -742.000; -582.000
828.144; -211.400; -848.000; -804.000
828.396;  -30.300;  104.000;  -80.000
828.648; -122.400; -440.000; -333.000
828.900; -230.000; -702.000; -795.000
829.152; -177.700; -684.000; -683.000
829.404;  -87.500; -215.000; -267.000
829.656;   50.100;  321.000;  214.000
829.908;   27.200;  393.000;  229.000
830.160; -274.200;-1064.000;-1047.000
830.412; -139.800; -481.000; -430.000
830.664; -182.700; -557.000; -665.000
830.916;  -87.700; -268.000; -206.000
831.167; -273.100;-1073.000; -951.000
831.419; -165.700; -623.000; -566.000
831.671; -258.900; -764.000; -809.000
831.923; -131.900; -311.000; -447.000
832.174;  -57.700; -273.000; -331.000
832.426; -200.300; -493.000; -582.000
832.678; -313.300;-1043.000;-1091.000
832.929; -297.200; -947.000; -935.000
833.181; -162.500; -575.000; -677.000
833.432;  -66.600;  -59.000; -186.000
833.684;   24.700;  112.000;  -27.000
833.935; -195.300; -610.000; -566.000
834.187; -203.400; -829.000; -823.000
834.438;   -4.100;  -58.000;  -25.000
834.689;  -38.600; -255.000; -123.000
834.941;  -56.600; -343.000; -244.000
835.192; -141.100; -590.000; -533.000
835.443; -126.800; -419.000; -506.000
835.695;   13.300;  138.000;  -16.000
835.946; -141.800; -608.000; -378.000
836.197; -142.100; -599.000; -622.000
836.448; -163.000; -528.000; -395.000
836.699;  -66.100; -253.000; -341.000
836.950;   61.900;   72.000;    7.000
837.201; -261.800;-1003.000; -987.000
837.452;  -90.900; -356.000; -170.000
837.703; -213.200; -791.000; -737.000
837.954; -104.100; -205.000; -365.000
838.205; -169.200;-1029.000;-1008.000
838.456;  117.200; -196.000; -282.000
838.707;   -9.600; -423.000; -519.000
838.958;  -69.000; -634.000; -647.000
839.209;  309.100;   18.000;   40.000
839.460;   81.700; -439.000; -201.000
839.710;  149.800; -135.000; -297.000
839.961;  531.900;  730.000;  612.000
840.212;  352.500; -382.000; -497.000
840.462; 1292.300; -328.000; -277.000
840.713;19619.000; -571.000; -536.000
840.964; 6399.900;  -62.000; -143.000
841.214;  535.500; -384.000; -624.000
841.465;  672.000; -214.000; -141.000
841.715;  567.300; -417.000; -380.000
841.966;  717.000; -746.000; -685.000
842.216;12563.300; -330.000; -431.000
842.466;38491.900; -169.000; -313.000
842.717; 1657.000; -964.000; -952.000
842.967;  372.300; -635.000; -641.000
843.217;  345.300;   20.000;   28.000
843.468;  109.400; -104.000; -132.000
843.718;  -76.500; -718.000; -726.000
843.968; -182.700; -837.000; -765.000
844.218;   31.900; -315.000; -262.000
844.469; -123.700; -577.000; -561.000
844.719; -158.300; -537.000; -682.000
844.969; -177.400; -550.000; -580.000
845.219; -227.800; -814.000; -862.000
845.469; -100.100; -392.000; -342.000
845.719; -195.400; -792.000; -884.000
845.969;   28.200;  119.000;  174.000
846.219; -186.300; -738.000; -720.000
846.469;   96.700;  464.000;  432.000
846.718;  -58.200; -115.000;   31.000
846.968; -258.900; -827.000; -827.000
847.218;  -36.800; -224.000; -371.000
847.468; -197.000; -586.000; -555.000
847.718; -211.500; -827.000; -798.000
847.967; -240.700; -826.000; -915.000
848.217; -134.600; -449.000; -569.000
848.467;  -65.500; -405.000; -376.000
848.716; -184.600; -708.000; -725.000
848.966;  -55.900; -372.000; -358.000
849.215;  -75.200; -428.000; -419.000
849.465; -179.700; -785.000; -615.000
849.714; -283.300;-1132.000;-1150.000
849.964; -127.500; -551.000; -613.000
850.213;  -48.800; -393.000; -355.000
850.463;  113.800;  137.000;  340.000
850.712;  -48.700; -542.000; -567.000
850.961;  -69.900; -739.000; -678.000
851.211;   47.200; -513.000; -504.000
851.460;   95.500; -635.000; -650.000
851.709;  616.400;  -25.000;   18.000
851.958;11162.200; -912.000; -750.000
852.208;11042.400; -859.000; -879.000
852.457;  427.500; -181.000;  -13.000
852.706;  -17.900; -791.000; -823.000
852.955;  -67.900; -507.000; -528.000
853.204; -129.200; -521.000; -461.000
853.453; -103.600; -418.000; -458.000
853.702; -200.000; -660.000; -750.000
853.951; -169.700; -532.000; -520.000
854.200; -185.700; -613.000; -562.000
854.449; -231.800; -695.000; -661.000
854.698; -121.900; -340.000; -279.000
854.946;  -99.400; -181.000; -284.000
855.195; -239.600; -843.000; -868.000
855.444; -138.400; -395.000; -420.000
855.693; -161.300; -345.000; -432.000
855.941; -158.800; -387.000; -516.000
856.190;  -52.800; -256.000; -382.000
856.439; -213.600; -652.000; -703.000
856.687;  -44.000;  -99.000;  -72.000
856.936; -196.900; -621.000; -323.000
857.184; -296.500;-1067.000;-1020.000
857.433; -137.500; -423.000; -512.000
857.681; -235.700; -989.000; -953.000
857.930; -111.400; -282.000; -433.000
858.178; -241.500; -856.000; -929.000
858.427; -257.000; -802.000; -781.000
858.675; -140.300; -377.000; -544.000
858.923; -176.400; -527.000; -819.000
859.172; -304.700;-1094.000;-1070.000
859.420; -123.200; -339.000; -239.000
859.668; -189.900; -624.000; -628.000
859.916;   13.100;  109.000;  115.000
860.164; -175.000; -699.000; -603.000
860.413;  182.600; -878.000; -696.000
860.661;  101.200; -709.000; -577.000
860.909; -138.200; -339.000; -325.000
861.157;  -74.500; -277.000; -444.000
861.405; -187.700; -534.000; -670.000
861.653;   59.600;  310.000;  310.000
861.901;  138.400; -543.000; -613.000
862.149; -127.800; -801.000; -824.000
862.396;  -72.000; -297.000; -187.000
862.644;  -94.700; -368.000; -347.000
862.892;    5.400;   98.000;  138.000
863.140; -118.600; -549.000; -530.000
863.388; -254.800; -815.000; -759.000
863.635; -145.800; -642.000; -601.000
863.883;   62.600;  231.000;  190.000
864.131;  -93.300; -288.000; -357.000
864.378; -214.400; -675.000; -540.000
864.626; -121.900; -347.000; -415.000
864.873; -177.000; -556.000; -505.000
865.121; -233.900; -714.000; -799.000
865.368;  -17.900; -173.000;   75.000
865.616;  -57.400;  -33.000;  -40.000
865.863; -108.800; -462.000; -506.000
866.111; -231.500; -795.000; -824.000
866.358;  -16.100; -426.000; -420.000
866.605; 2616.100;  -64.000; -804.000
866.853; 1958.200; -621.000; -537.000
867.100; -140.600; -728.000; -775.000
867.347; -158.000; -672.000; -611.000
867.594; -143.900; -740.000; -714.000
867.841;  126.300;   97.000;   17.000
868.089; -204.300; -746.000; -698.000
868.336; -174.500; -477.000; -420.000
868.583; -196.000; -637.000; -741.000
868.830;  -65.000; -131.000; -170.000
869.077; -244.000; -859.000; -787.000
869.324; -191.900; -502.000; -458.000
869.571; -170.100; -398.000; -430.000
869.818; -209.100; -485.000; -439.000
870.065; -144.700; -439.000; -513.000
870.311; -167.400; -456.000; -542.000
870.558; -128.900; -332.000; -311.000
870.805;  -97.700; -320.000; -384.000
871.052; -148.600; -494.000; -369.000
871.298;  -81.600; -204.000; -131.000
871.545;  -70.600; -151.000; -185.000
871.792; -128.200; -173.000; -222.000
872.038;  -21.500;   43.000; -126.000
872.285; -166.800; -496.000; -387.000
872.532; -130.900; -357.000; -387.000
872.778;  121.600;  556.000;  403.000
873.025;  -94.500; -384.000; -359.000
873.271;  132.000;  501.000;  578.000
873.517;   -7.900; -133.000; -209.000
873.764;  -70.500; -193.000;  -80.000
874.010;  -78.900; -143.000; -230.000
874.257;  -18.600;  123.000;   90.000
874.503; -198.700; -579.000; -479.000
874.749;  -78.800;   31.000;  275.000
874.995;  -26.500;  -80.000;  -20.000
875.242; -192.000; -540.000; -478.000
875.488; -141.800; -414.000; -439.000
875.734;  -44.600; -106.000; -234.000
875.980;   89.400; -872.000;-1032.000
876.226;  305.900; -157.000; -255.000
876.472;   49.800;  343.000;  237.000
876.718;   -1.000;  184.000;  158.000
876.964;   -6.700;   56.000;   55.000
877.210; -241.700; -547.000; -677.000
877.456; -171.500; -630.000; -557.000
877.702; -274.500; -821.000; -832.000
877.948; -155.100; -377.000; -497.000
878.193;   99.400;  361.000;  255.000
878.439; -140.300; -487.000; -472.000
878.685; -147.400; -272.000; -343.000
878.931; -163.900; -618.000; -676.000
879.176; -118.300; -201.000; -201.000
879.422; -301.500; -933.000; -820.000
879.668;  134.600;   10.000;   79.000
879.913;  164.600;   53.000;  137.000
880.159;  -75.200; -112.000;  -17.000
880.404;  -18.700; -152.000; -162.000
880.650;  -24.200;   91.000;  141.000
880.895; -223.000; -670.000; -710.000
881.141; -181.600; -454.000; -428.000
881.386; -190.200; -503.000; -658.000
881.631; -114.000; -311.000; -166.000
881.877;  -15.800;  112.000;  -13.000
882.122; -193.500; -684.000; -600.000
882.367;  -76.400; -136.000; -186.000
882.612;  -95.400;  -80.000; -176.000
882.858; -260.700; -877.000; -823.000
883.103; -123.300; -297.000; -267.000
883.348; -239.000; -759.000; -852.000
883.593; -238.600; -677.000; -602.000
883.838;  -56.400; -311.000;  -24.000
884.083;   56.400;  353.000;  288.000
884.328;  -91.100; -564.000; -545.000
884.573;  -41.300; -196.000; -143.000
884.818;  151.300; -694.000; -531.000
885.063;  121.800; -348.000; -315.000
885.308; -127.500; -475.000; -398.000
885.553;   64.800;  245.000;  325.000
885.797; -190.500; -545.000; -615.000
886.042;  -37.100;    8.000;   58.000
886.287; -112.000; -253.000; -211.000
886.532;  -58.800;   26.000;  204.000
886.776; -127.800; -407.000; -525.000
887.021; -205.500; -621.000; -574.000
887.265; -240.400; -685.000; -689.000
887.510; -190.600; -557.000; -496.000
887.755;  -95.000; -194.000; -164.000
887.999; -200.500; -552.000; -575.000
888.244;   -1.200;  -58.000;  161.000
888.488;   58.800;  371.000;  393.000
888.732; -156.800; -368.000; -520.000
888.977; -176.800; -622.000; -567.000
889.221; -243.900; -683.000; -659.000
889.465; -198.300; -422.000; -566.000
889.710; -107.900;  -56.000; -299.000
889.954;   83.800;  579.000;  467.000
890.198; -232.500; -584.000; -707.000
890.442; -249.000; -716.000; -712.000
890.687; -230.600; -800.000; -753.000
890.931;  -94.200; -273.000; -210.000
891.175; -186.100; -502.000; -500.000
891.419;  -92.500; -105.000; -110.000
891.663;  -91.800; -239.000; -112.000
891.907; -287.000; -801.000; -545.000
892.151; -273.300; -920.000; -815.000
892.395; -164.600; -274.000; -387.000
892.638;   46.200;  408.000;  291.000
892.882; -279.700; -780.000; -867.000
893.126;  128.700;  758.000;  558.000
893.370; -119.200; -167.000; -168.000
893.614; -224.600; -714.000; -715.000
893.857; -114.300; -183.000; -197.000
894.101; -155.700; -527.000; -631.000
894.345;  -36.700;  300.000;  150.000
894.588;  134.700;  569.000;  380.000
894.832;  -83.800; -178.000;  -84.000
895.075;  -87.900;   15.000;  -92.000
895.319; -186.600; -552.000; -420.000
895.563; -131.600; -413.000; -353.000
895.806; -221.200; -628.000; -741.000
896.049; -107.600; -576.000; -368.000
896.293;  190.800;  527.000;  405.000
896.536; -152.500; -465.000; -468.000
896.779;  -82.200; -149.000;   -1.000
897.023; -256.400; -751.000; -714.000
897.266;  -16.800;  325.000;  269.000
897.509; -291.200; -900.000; -901.000
897.752;  -11.900;  149.000;  171.000
897.996; -297.400; -972.000; -864.000
898.239;  -41.700;  168.000;  102.000
898.482; -173.300; -431.000; -453.000
898.725;    1.500;  101.000;   53.000
898.968; -247.500; -609.000; -744.000
899.211; -169.300; -513.000; -361.000
899.454; -200.100; -633.000; -539.000
899.697;  -78.200;   90.000;  -43.000
899.940; -235.000; -761.000; -757.000
900.182; -140.600; -335.000; -405.000
900.425; -111.200; -150.000; -298.000
900.668;   60.400;  491.000;  350.000
900.911;  -76.400; -292.000; -345.000
901.154;   -8.600;  141.000;   -3.000
901.396; -174.200; -407.000; -412.000
901.639; -207.100; -430.000; -496.000
901.882; -268.500; -790.000; -809.000
902.124; -123.300;  -29.000; -143.000
902.367; -148.200; -315.000; -361.000
902.609; -197.800; -476.000; -453.000
902.852; -133.600; -108.000; -260.000
903.094; -196.400; -458.000; -337.000
903.337;  -25.400;  -26.000;   53.000
903.579; -145.800; -228.000; -441.000
903.821; -233.800; -597.000; -744.000
904.064;  -36.000;   85.000;  127.000
904.306;  -70.800; -126.000; -166.000
904.548;  -98.900; -152.000; -366.000
904.790; -141.400; -195.000; -340.000
905.033; -192.800; -625.000; -577.000
905.275; -171.700; -513.000; -524.000
905.517;   66.600;  468.000;  256.000
905.759; -149.400; -667.000; -761.000
906.001; -149.300; -322.000; -369.000
906.243; -115.400; -162.000; -224.000
906.485;   98.900; -265.000; -207.000
906.727;   -1.200; -499.000; -542.000
906.969;  -53.200;  -30.000; -135.000
907.211;   88.500; -316.000; -382.000
907.453;  215.000; -188.000; -237.000
907.695;  -34.100; -158.000; -385.000
907.936;  152.200;  818.000;  706.000
908.178;  -32.700;   92.000; -135.000
908.420;  -95.100; -111.000; -162.000
908.662; -186.400; -633.000; -682.000
908.903; -113.900; -208.000; -123.000
909.145;  -59.600; -240.000; -305.000
909.386;   61.100;  315.000;  280.000
909.628;  168.600;  363.000;  397.000
909.870;   41.400;   29.000;  264.000
910.111; -166.800; -809.000; -949.000
910.353;   20.300; -123.000; -161.000
910.594;  -16.400; -574.000; -606.000
910.835;  101.700; -265.000; -326.000
911.077;  244.600; -503.000; -604.000
911.318;  388.700; -505.000; -471.000
911.559;  633.200; -577.000; -880.000
911.801; 2028.000; -284.000; -280.000
912.042;17347.100;  -50.000; -159.000
912.283;38188.100;  404.000;  371.000
912.524; 4898.000; -396.000; -457.000
912.765;  741.100; -193.000;   79.000
913.006;  416.100; -307.000; -338.000
913.247;   57.600; -270.000; -290.000
913.488;   40.900;  -43.000;   30.000
913.729; -143.700; -373.000; -373.000
913.970;  -47.400;  -96.000; -292.000
914.211; -107.700; -160.000; -198.000
914.452;  -60.100; -118.000;  -11.000
914.693;   89.600;  510.000;  592.000
914.934;  114.100;  510.000;  440.000
915.175;  -54.900;   53.000;  -95.000
915.415;  -49.300; -137.000;   27.000
915.656;  -99.200;  -28.000;  192.000
915.897; -110.800; -252.000;  -82.000
916.137;  -97.000;   74.000;   -9.000
916.378; -171.100; -573.000; -517.000
916.619; -111.600; -159.000;  -63.000
916.859;   20.500;  303.000;  330.000
917.100;  347.700; 1655.000; 1070.000
917.340;  186.000;  930.000;  728.000
917.581;  171.200;  965.000;  789.000
917.821;  -32.400; -171.000;  143.000
918.061;   -6.700; -199.000;  -72.000
918.302;  -32.400; -152.000; -211.000
918.542;  -39.500;  -22.000;    3.000
918.782;  105.400;  369.000;  377.000
919.023;  191.100;  360.000;  427.000
919.263; 3032.000; 8131.000;  202.000
919.503; 1049.300; -137.000;  -54.000
919.743;  687.400;  390.000;  266.000
919.983;  232.500; -134.000;  -26.000
920.223;  107.800;  135.000;   14.000
920.463;  251.700;  631.000;  554.000
920.703;  148.300;   84.000;   39.000
920.943;  147.800; -110.000;   90.000
921.183;  191.100; -414.000; -405.000
921.423;  596.000;  307.000;  546.000
921.663;  759.900; -174.000; -257.000
921.903; 1721.900;  237.000;  173.000
922.143;10539.300;  372.000;  389.000
922.383;37311.700;  158.000;  115.000
922.622;10142.400; -120.000;  -15.000
922.862; 1334.800;  796.000;  785.000
923.102;  461.900;  -51.000;   33.000
923.341;  190.800;   59.000;   74.000
923.581;  163.400;  450.000;  360.000
923.821;   60.800;  301.000;  398.000
924.060;   89.300;  351.000;  193.000
924.300;  -41.000;  -16.000; -128.000
924.539;   83.900;  584.000;  473.000
924.779;   71.800;  812.000;  597.000
925.018;   -8.500;  247.000;  353.000
925.257;   39.400;  595.000;  666.000
925.497;  -10.100;  447.000;  412.000
925.736;  -87.400;  -35.000;  102.000
925.975;   95.400;  687.000;  669.000
926.214;  143.900;  907.000;  850.000
926.454;  152.400;  706.000;  757.000
926.693;  -12.200;  419.000;  543.000
926.932;  142.700; 1021.000;  825.000
927.171;  234.100; 1107.000; 1044.000
927.410;  172.700; 1144.000;  967.000
927.649;  100.500;  924.000;  742.000
927.888;   85.500;  590.000;  564.000
928.127;   51.600;  680.000;  678.000
928.366;  147.800;  842.000;  826.000
928.605;  113.300;  831.000;  737.000
928.844;  431.000; 1451.000; 1393.000
929.083;  715.800;  770.000;  613.000
929.321;  452.500; 1335.000; 1359.000
929.560;  217.100; 1158.000; 1122.000
929.799;   12.700;  574.000;  475.000
930.038;  216.200; 1025.000; 1394.000
930.276;   -7.300;  334.000;  397.000
930.515;   53.400;  827.000;  681.000
930.753;   61.300;  614.000;  589.000
930.992;   23.400;  664.000;  717.000
931.230;  112.600;  847.000;  847.000
931.469;  409.900; 2162.000;  892.000
931.707;  254.800;  840.000;  751.000
931.946;  194.100; 1278.000; 1344.000
932.184;  220.600; 1437.000; 1175.000
932.423;  183.200; 1265.000;  963.000
932.661;  281.700; 1296.000; 1428.000
932.899;  141.900;  987.000;  821.000
933.137;   57.000;  754.000;  564.000
933.376;  306.800; 1664.000; 1335.000
933.614;  372.900; 1759.000; 1196.000
933.852;  205.300; 1357.000; 1171.000
934.090;  345.000; 1722.000; 1747.000
934.328;  272.900; 1252.000; 1457.000
934.566;  233.200; 1431.000; 1110.000
934.804;  253.400; 1263.000; 1309.000
935.042;  683.100; 1861.000; 1850.000
935.280; 2225.800; 2088.000; 2063.000
935.518; 1799.000; 2113.000; 2007.000
935.756;  599.000; 2481.000; 2316.000
935.994;  370.300; 1808.000; 1751.000
936.231;  713.800; 2890.000; 2950.000
936.469;  487.000; 2367.000; 2378.000
936.707;  430.500; 2220.000; 2167.000
936.945;  564.600; 2825.000; 2882.000
937.182;  492.200; 2679.000; 2741.000
937.420;  700.300; 3602.000; 3031.000
937.657;  823.100; 3365.000; 3478.000
937.895;  699.600; 3331.000; 3488.000
938.133;  719.600; 3540.000; 3528.000
938.370;  781.400; 3896.000; 4191.000
938.607;  909.400; 4488.000; 4205.000
938.845; 1227.200; 5587.000; 5549.000
939.082; 1060.400; 5387.000; 5177.000
939.320; 1203.000; 5799.000; 5728.000
939.557; 1382.500; 6549.000; 6491.000
939.794; 1523.100; 7285.000; 7097.000
940.031; 1822.700; 8421.000; 8368.000
940.269; 2172.600; 9552.000; 9107.000
940.506; 2301.900;10901.000;10507.000

