
Integration time [ms]: 100.000
Averaging Nr. [scans]: 40
Smoothing Nr. [pixels]: 0
Data measured with spectrometer [name]: 2101013U2
Wave   ;Sample   ;Dark     ;Reference
[nm]   ;[counts] ;[counts] ;[counts] 

394.013;   51.313; -450.257; -315.536
394.305;  200.610; -461.258; -419.536
394.596; 1154.333; -676.269; -527.514
394.887; 2768.675; -796.268; -654.518
395.178; 1076.630;  145.736;   11.476
395.470;   74.916; -210.263; -356.526
395.761;  170.864;  305.734;  394.479
396.052;  275.559; -545.284; -306.489
396.343;  263.378; -557.276; -454.503
396.634;   88.697; -200.279; -290.497
396.926;   89.397; -618.268; -565.517
397.217;  101.083;   11.725;  -17.504
397.508;   37.848; -366.273; -154.507
397.799;   46.772; -555.279; -571.497
398.090;  -17.408; -973.280; -902.495
398.381;   84.809;   11.708;  -11.473
398.672;   -1.839; -585.292; -742.473
398.963;   38.153; -348.279; -373.498
399.254;   79.870;   54.709; -209.475
399.545;  -31.564;-1017.266; -883.520
399.836;   47.792; -407.277; -343.501
400.127;   52.361; -205.295; -209.468
400.418;   40.018; -423.274; -392.506
400.709;   46.604; -359.281; -333.493
401.000;   37.424; -268.291; -309.476
401.290;   91.523;  225.698;  115.545
401.581;   53.117; -166.286; -228.485
401.872;    7.383; -542.298; -486.462
402.163;   48.228; -313.296; -252.467
402.454;   63.420; -123.291; -163.475
402.744;   63.170; -844.297; -813.465
403.035;  392.451; -226.293;  -86.471
403.326;  502.738; -366.292; -384.474
403.617;  356.753;  204.701;  165.539
403.907;  236.715; -593.283; -679.490
404.198; 2425.152; -545.307; -599.446
404.489; 6406.919; -618.283; -588.491
404.779; 2044.401; -618.302; -660.456
405.070;  229.280;  -67.304; -174.451
405.360;  326.353; -259.293; -238.472
405.651;  369.863;  125.699;   98.542
405.942;  166.112;  209.714;  127.516
406.232;  212.827; -432.285; -413.487
406.523;  389.371;  641.706;  758.530
406.813;   68.739; -579.286; -644.484
407.104;  294.758;  261.708;  144.527
407.394;  128.554; -604.299; -591.462
407.685;  143.676;  336.715;  222.513
407.975;   37.868; -400.283; -382.490
408.265;   99.910; -134.289; -190.478
408.556;   47.792; -472.291; -459.475
408.846;  163.047;  474.706;  429.530
409.137;   89.393;   -1.288; -216.480
409.427;   47.326; -193.285; -271.487
409.717;   16.427; -776.273; -692.508
410.007;  135.970;    4.715; -170.486
410.298;   74.039; -360.295; -342.469
410.588;   53.824; -495.285; -510.486
410.878;   15.704; -792.287; -873.482
411.168;  107.411; -481.298; -478.463
411.459;  119.163; -295.283; -242.489
411.749;   49.491; -609.292; -507.474
412.039;   48.566; -755.289; -386.480
412.329;  186.310;   40.722;  132.501
412.619;  197.340;  -62.286; -148.485
412.909;  343.687;  639.711;  594.521
413.199;  283.717; -130.280; -251.495
413.490;  362.228;  521.710;  352.523
413.780;  143.821;-1013.279; -913.496
414.070;  323.329;  -46.276;  235.497
414.360;  351.582; -729.278; -666.498
414.650;  405.925; -726.288; -688.482
414.940;  521.920; -538.280; -441.496
415.230;  932.622;   50.712;   74.519
415.520; 6173.207;  155.730;   66.486
415.809;24383.028; -305.281; -125.493
416.099;18796.220; -388.277; -229.501
416.389; 5298.816;  435.726;  236.494
416.679; 3158.445;   91.738;   85.473
416.969;  540.208; -527.287; -503.483
417.259;  456.098;  341.721;  171.503
417.549;  686.902;  522.718;  318.508
417.838; 1686.724; -205.268; -147.518
418.128; 5680.758;  650.710;  492.522
418.418; 4719.333; -491.272; -579.509
418.708; 3178.566;    9.726;  -48.506
418.997;12070.437; -474.275; -480.505
419.287;12517.198; -733.273; -790.507
419.577;12018.637; -160.283; -123.489
419.866;39523.118; -588.277; -498.501
420.156;40078.628; -242.270;  -55.513
420.446; 7044.337; -112.263;  -26.526
420.735;  795.522; -376.271; -446.512
421.025;  813.806; 1830.722;  315.502
421.314;  608.246; -203.271; -226.512
421.604; 1201.842;   89.732;  233.484
421.893;  699.642; -705.271; -602.511
422.183;  220.787; -487.263; -461.526
422.472;  350.018;  -36.271; -107.511
422.762;  430.042; -416.266; -379.521
423.051;  242.630; -916.276; -916.503
423.341;  271.250; -491.273; -439.507
423.630;  400.798; -121.265;   15.477
423.919;  379.936;   58.725;   49.495
424.209;  366.243;  -31.263;   56.473
424.498;  496.172;   68.732;  161.483
424.787; 1109.553; -535.267; -601.518
425.077; 3405.046;   34.735;   29.478
425.366; 4603.898; -734.262; -744.528
425.655;10219.100;  639.727;  259.493
425.945;23032.876; -313.247; -268.554
426.234;12624.246;  117.741;  300.467
426.523; 5144.676;  -86.259; -350.534
426.812; 7085.713;  107.734;  159.480
427.101;10565.188; -127.269; -323.515
427.390;13111.557;  -55.270;  -86.514
427.680; 2797.221; -624.257; -411.538
427.969;  466.781; -330.255; -301.540
428.258;  310.412; -385.257; -477.536
428.547;  517.562;  449.728;  397.490
428.836; 1121.022; -421.253; -398.543
429.125; 1624.353; -199.259;  -72.534
429.414;  761.745; -330.251; -294.548
429.703; 3208.820; -231.251; -213.548
429.992; 9619.298; -938.250; -828.549
430.281; 6255.355; -397.264; -331.524
430.570;  550.385;  -21.252;   32.454
430.859;  507.001;  279.741;  352.466
431.148;  391.472;  636.752;  631.446
431.437;  266.385;  391.748;  367.454
431.725;  146.014; -544.257; -481.536
432.014;  112.405; -845.253; -756.545
432.303;  356.522; -149.239; -105.569
432.592;  569.387; -460.263; -178.525
432.881; 1054.973; -601.248; -437.554
433.169; 6408.282; -343.255;  -61.540
433.458;13069.306;  445.765;  540.424
433.747; 5394.154; -397.261; -289.529
434.036;  809.098; -275.242; -280.564
434.324; 2109.811; -395.249; -379.551
434.613; 3728.867;   40.757;  159.437
434.902; 1191.888;  333.760;  439.433
435.190;  474.321;   75.761;  295.431
435.479;  244.574;  -52.245;   83.441
435.767;   78.357; -411.244; -427.561
436.056;  197.619; -340.242; -294.563
436.345;  338.265; -372.240; -223.568
436.633;  364.506;   60.750;  383.450
436.922;  217.617;  208.760;  414.432
437.210;  471.321; -194.236;    1.426
437.499; 1499.104; -583.235; -432.576
437.787; 1654.095; -339.236;  -10.574
438.075;  431.952;   56.761;  162.430
438.364;  586.854;  -44.238;  250.429
438.652;  357.233; -286.226; -138.592
438.941;  113.422;    3.770;  269.415
439.229;    1.808; -665.252; -466.545
439.517;   26.762; -160.234;  -85.577
439.806;   -7.101; -501.225; -290.595
440.094;  169.920;  377.766;  650.421
440.382;  131.799; -653.233; -302.580
440.670;  151.679; -361.235; -285.576
440.959;   -1.359; -347.223; -170.599
441.247;   43.284; -151.229; -109.587
441.535;   94.161; -266.235;   31.423
441.823;   27.192; -497.234; -305.578
442.111;  181.738;  173.771;  327.412
442.400;  429.248; -628.245; -335.559
442.688; 1121.594; -111.234; -620.579
442.976;  779.053; -786.213; -450.617
443.264;   77.905; -324.224; -364.597
443.552;   93.859; -258.226;   51.408
443.840;  150.209;  602.765;  876.423
444.128;   86.573;  265.767;  269.420
444.416;  -18.310; -694.228; -312.588
444.704;   21.120; -465.219;  -92.605
444.992;   50.562;   -0.226;  240.407
445.280;   37.998; -517.230;  -94.585
445.568;   25.206; -694.212; -396.618
445.856;  272.779; -174.221;  357.398
446.143;  639.242;  -54.220;   -7.604
446.431;  523.369;  -25.228;  625.411
446.719;  219.464;  489.783;  675.391
447.007;  160.217;  481.769;  705.416
447.295;  167.813;  597.777;  871.402
447.583;   76.456; -464.229;  -34.587
447.870;  143.726; -434.221; -202.601
448.158;  356.997; -104.230;  129.415
448.446;  248.568; -800.219; -338.604
448.733;  155.782;   13.776;  269.403
449.021;  236.381;   60.788;  341.382
449.309;  163.146; -296.210;  208.379
449.596;  207.261;  128.783;   59.392
449.884;  136.820; -571.222; -325.600
450.172;  150.649; -756.227; -406.590
450.459;  455.336;  645.786;  780.387
450.747; 2484.934; -411.218; -147.608
451.034; 8017.145;  493.772;  889.411
451.322; 6576.089; -413.214; -170.614
451.609;  535.733;  292.777;  508.403
451.897;  603.533; -550.203; -183.634
452.184; 1867.538; -622.223; -400.598
452.472; 1722.867;   97.792;  269.375
452.759;  331.143;  512.781;  864.395
453.047;   87.179; -407.212; -125.617
453.334;   53.626; -732.219; -216.606
453.621;   62.667; -438.214; -161.615
453.909;  103.275;   13.796;  384.368
454.196;   83.270; -299.199; -123.641
454.483;  195.146;  317.798;  540.364
454.771;  116.145; -215.208;  196.374
455.058;   34.223; -316.207;  102.374
455.345;   88.125;   71.807;  344.347
455.632;   82.801; -128.207;  235.373
455.919;   39.593;  -82.196;  182.354
456.207;  -59.850; -774.198; -450.642
456.494;  -25.567; -475.200;  -66.639
456.781;   -0.858; -399.202; -198.635
457.068;   42.758; -253.206;  -29.628
457.355;  -11.841; -698.206; -401.629
457.642;   -2.560; -552.205; -290.630
457.929;   -6.634; -778.194; -417.651
458.216;   52.854; -575.212; -354.617
458.503;  247.246; -173.193;  -19.652
458.790;  253.668; -864.208; -630.625
459.077;  262.347;  -77.202;  110.364
459.364;  831.634; -350.195; -210.649
459.651; 1741.106;  -46.206;  220.372
459.938;  822.683; -864.209; -665.623
460.225;  136.775;  132.799;  276.363
460.512;  -57.660; -836.197; -688.645
460.799;   82.883;  -32.218;  320.392
461.086;   52.938; -370.200; -251.640
461.372;   15.400; -509.198; -279.642
461.659;   83.619; -165.196;  108.354
461.946;   37.269; -445.193;  -54.651
462.233;  213.110;  842.800;  888.361
462.519;  333.682; -814.201; -464.639
462.806; 1011.540; -768.197; -497.645
463.093;  889.890; -445.191;  -66.656
463.380;  -41.569; -920.186; -824.664
463.666;   54.217; -259.197;  -18.646
463.953;   86.754; -406.195; -243.648
464.239;  191.004; -173.195;  -77.648
464.526;  385.990;  413.806;  743.350
464.813;  312.851; -565.190; -304.658
465.099;  326.820;  606.807;  607.348
465.386;  303.074;  903.807;  921.348
465.672;   -1.185; -694.197; -522.645
465.959;    4.544; -598.188; -520.662
466.245;  -14.201; -468.193; -359.652
466.532;   75.702; -109.195;   63.352
466.818;   47.255; -357.186; -216.664
467.104;  -24.655; -488.182; -415.672
467.391;  -26.872; -628.189; -459.658
467.677;   33.109; -289.186;    9.335
467.964;  -15.315; -682.189; -471.660
468.250;   43.162; -331.186; -160.665
468.536;   57.904;   90.811;  180.341
468.822;  -50.552; -821.184; -574.668
469.109;  127.675;  351.827;  471.311
469.395;  169.934;  729.808;  787.346
469.681;  174.757;   46.811;  156.341
469.967; 1280.537; -699.188; -382.660
470.254; 2799.895; -494.188; -306.662
470.540; 1769.242; -601.196; -476.646
470.826;  259.056; -488.181; -397.675
471.112;  312.602;  288.816;  113.331
471.398;   78.231; -253.183;  -58.670
471.684;   34.034; -626.177; -447.680
471.970;  -13.515; -918.180; -981.675
472.256;   23.358; -521.192; -441.654
472.542;    2.361; -499.171; -434.691
472.828;    1.241; -743.182; -607.672
473.114;    9.679; -380.166; -283.700
473.400;    0.326; -504.175; -293.684
473.686;   17.460; -452.166; -400.701
473.972;   48.390; -230.174; -131.687
474.258;  -38.325; -925.173; -843.689
474.544;  188.351; -183.178;   -2.679
474.830;  324.027;  -65.175;   45.316
475.116;  524.078; -123.190; -196.658
475.401;  697.112; -558.180; -467.676
475.687;  185.486; -725.180; -718.676
475.973;    1.799; -673.181; -770.673
476.259;  219.129;  736.825;  764.315
476.544;  382.317; -539.176; -437.682
476.830;  843.207; -398.172; -322.690
477.116;  791.541; -430.177; -336.682
477.401;  135.162;  346.820;  358.324
477.687;   -8.024; -289.175; -405.684
477.973;   34.428;   21.819;   28.326
478.258;   -5.594; -448.163; -348.706
478.544;   41.242;   21.815;   61.334
478.829;  -65.634; -818.171; -738.692
479.115;  -55.368; -749.172; -651.690
479.401;  -15.439; -444.174; -449.686
479.686;   28.136; -253.180;  -74.676
479.972;  -25.044; -886.178; -776.680
480.257;   35.281; -258.166;  -65.700
480.542;  -11.930; -614.170; -469.693
480.828;  219.174; 1288.824; 1392.317
481.113;  -44.603; -464.176; -426.683
481.399;    0.304; -236.161; -202.711
481.684;  -65.045; -620.166; -462.700
481.969;   14.317; -158.159;  -73.713
482.255;  -17.344; -439.169; -285.695
482.540;   -4.969; -569.178; -441.680
482.825;   -7.649; -395.187; -404.663
483.110;  105.359;  -85.169; -105.696
483.396;  193.639; -840.157; -652.718
483.681;  506.215;  543.826;  730.313
483.966;  143.486; -696.160; -700.712
484.251;  -16.786; -404.174; -310.687
484.536;  -15.609; -356.165; -378.703
484.822;    0.392; -205.173; -218.687
485.107;  -39.698; -599.152; -502.726
485.392;  124.971;  662.836;  541.296
485.677;   69.994;  354.832;  163.302
485.962;   93.986;  160.843;  270.283
486.247;   82.038;  -14.162;   -8.707
486.532;   40.107; -178.166; -325.701
486.817;  147.474;  381.839;  431.291
487.102;  103.660; -453.154; -514.722
487.387;  707.716; -637.156; -652.718
487.672; 1269.676; -154.164;  -38.705
487.957;  773.481; -394.160; -286.711
488.241;  207.668; -290.150; -314.729
488.526;  775.078; -280.152; -148.726
488.811; 1290.533; -881.177; -818.680
489.096;  944.512; -666.154; -702.723
489.381;  512.974;    3.847;  162.275
489.666;  409.254; -428.161; -510.710
489.950;  171.815;  558.846;  627.277
490.235;  -30.737; -480.151; -458.728
490.520;  -46.822; -756.161; -723.710
490.804;  -56.532; -827.156; -736.719
491.089;  -11.016; -469.149; -299.732
491.374;   31.050; -132.164;  -75.704
491.658;  -11.205; -817.147; -717.735
491.943;  142.657; -657.152; -609.727
492.227;  204.981; -178.155;  -38.721
492.512;   29.661; -294.157; -341.717
492.797;  -75.197; -713.149; -716.731
493.081;  -53.327; -588.147; -598.735
493.366;  -54.396; -751.161; -635.711
493.650;  183.575;  831.859;  917.254
493.935;   32.744; -648.147; -447.734
494.219;  -41.437; -778.142; -687.743
494.503;  -44.252; -585.150; -487.730
494.788;   49.353;   46.842;   74.285
495.072;  104.444;  184.850;  434.271
495.356;  181.262; -463.148; -343.733
495.641;  462.629; -812.146; -736.736
495.925;  427.297; -976.156; -903.719
496.209;    4.458; -599.149; -451.732
496.494;  -51.387; -763.142; -544.744
496.778;   -5.615; -364.154; -360.722
497.062;  -55.003; -819.156; -627.719
497.346;  -37.493; -869.160; -640.711
497.631;  136.290;  580.852;  560.266
497.915;   52.490;  -64.145;  175.261
498.199;   24.964; -341.157; -277.718
498.483;   41.126; -562.152; -508.725
498.767;  178.871;  301.850;  300.271
499.051;  179.881; -126.149; -100.732
499.335;   23.104; -693.149; -739.731
499.619;  -32.149; -381.129; -423.767
499.903;   14.529; -272.155;  -65.721
500.187;   19.242; -588.153; -316.724
500.471;   10.756; -796.152; -595.727
500.755;  102.553;   62.839;  -96.710
501.039;   12.230; -270.155; -357.721
501.323;   80.977;  -21.141;  264.254
501.607;   33.456; -447.163; -503.706
501.891;  -12.285; -607.156; -512.718
502.174;  -33.724; -726.144; -585.741
502.458;   57.635;   89.849;  370.273
502.742;   33.876; -180.138; -191.751
503.026;  113.644; -412.147; -254.734
503.310;  168.291; -437.159; -375.713
503.593;  128.671; -464.147; -325.735
503.877;   92.716; -232.133; -156.760
504.161;  164.019;    2.847;  -50.724
504.444;  135.130; -841.158; -710.716
504.728;  486.799; -487.164; -522.704
505.012;  726.742; -257.150;  -76.729
505.295;  558.204; -417.161; -212.711
505.579;  546.072; -256.156; -496.719
505.862;  798.836; -555.145; -333.738
506.146;  789.094; -681.159; -758.714
506.429;  408.994;  568.841;  461.286
506.713;   56.115; -732.151; -667.728
506.996;  342.384;   90.846;  295.278
507.280;  336.744; -633.165; -474.703
507.563;  230.328; -469.155; -261.721
507.847;  119.818; -423.153; -112.724
508.130;   94.905; -665.161; -456.711
508.413;  131.701; -758.167; -577.700
508.697;  259.926; -151.167;   12.300
508.980;  147.094; -422.153; -312.724
509.263;   11.999; -466.155; -450.720
509.547;   24.292; -124.150;   82.271
509.830;   49.732; -172.160;  140.289
510.113;   73.072;  128.844;  298.281
510.396;   32.000; -530.152; -300.725
510.680;  114.862; -818.145; -812.738
510.963;  482.264;  184.846;  180.277
511.246;  411.225; -493.150; -357.730
511.529;  242.342; -482.145;  -83.739
511.812;  405.912; -250.134;   10.241
512.095;  304.087; -740.151; -396.728
512.378;   65.125; -317.147; -245.736
512.661;   14.608; -703.137; -623.753
512.944;   32.565; -750.142; -637.744
513.227;   60.306; -170.137; -171.752
513.510;   21.426; -479.144; -671.741
513.793;   18.781; -485.140; -435.747
514.076;  124.046;  -43.127;  -39.771
514.359;  110.184; -294.149; -135.732
514.642;   83.918; -442.142; -567.744
514.925;  805.005;  581.860;  561.253
515.208; 1056.284; -498.134; -443.758
515.491;  685.647; -276.133; -182.761
515.773;  391.004; -410.143; -337.742
516.056; 2217.215;  249.864;  409.246
516.339; 2984.169; -754.136; -652.755
516.622; 1849.723; -518.150; -488.730
516.904; 1075.436;  882.857;  975.257
517.187;  485.279; -730.138; -523.752
517.470;  381.635; -568.143; -510.743
517.752;  460.546; -624.136; -470.756
518.035;  353.592; -708.139; -725.749
518.318;  393.394; -799.136; -744.755
518.600; 2625.526; -300.132; -325.762
518.883; 3643.242;  310.858;   88.256
519.165; 1747.972; -585.138; -426.751
519.448;  392.300;  -61.132;  -19.762
519.730;  178.554; -573.126; -415.773
520.013;  285.743;  588.867;  664.240
520.295;  695.164;  -94.134;  -15.759
520.578; 1583.213; -335.131; -305.764
520.860; 1779.326; -254.132;   56.238
521.143;  949.748; -763.135; -584.756
521.425;  476.616; -251.125; -279.775
521.707;  704.447; -622.127; -380.771
521.990; 1890.647; -199.127;  167.229
522.272; 2154.933; -116.140;   -4.748
522.554;  925.430; -237.143; -157.742
522.836;  329.012;  -24.134;   99.241
523.119;  193.168; -496.148; -189.734
523.401;  137.045; -448.130; -314.766
523.683;  106.934; -865.137; -693.753
523.965;  291.802;  408.862;  260.248
524.247;  298.937;   54.878;  170.220
524.529;  212.639; -451.134; -367.759
524.812;  360.297;   -3.130;  191.234
525.094;  907.927; -773.138; -631.751
525.376; 1444.250; -143.124;   78.223
525.658;  884.391; -441.136; -339.754
525.940;   38.560; -805.131; -671.764
526.222;   20.094; -188.136;  -88.755
526.504;  103.208; -190.131;   32.237
526.786;  135.941; -960.133; -647.760
527.068;  252.231; -124.123;  -67.778
527.349;   88.162; -865.137; -774.754
527.631;  128.575; -137.132;   22.238
527.913;  143.321; -664.127; -450.771
528.195;  173.859; -761.125; -639.774
528.477;  260.084;  -93.134;  -30.758
528.759;  152.222; -648.130; -522.766
529.040;   75.755; -569.123; -293.778
529.322;   49.937; -235.125;  -10.774
529.604;  136.974;  -47.130;   93.233
529.886;  115.628; -546.126; -302.773
530.167;  114.916;  232.870;  192.235
530.449;   30.574;    1.853;   63.265
530.731;   37.211; -572.122; -459.779
531.012;   79.057; -513.120; -216.784
531.294;   65.771; -118.116;  -43.792
531.575;  155.866;  290.875;  538.225
531.857;   49.529; -548.135; -266.757
532.138;   87.076; -113.141;   40.254
532.420;  168.475;  294.865;  403.244
532.701;  175.694; -722.133; -751.760
532.983;  346.797;  232.867;  182.239
533.264;  103.701; -243.126;  175.228
533.546;  -46.081; -491.136; -508.755
533.827;   39.240;  173.867;   -1.759
534.109;   34.604; -352.135;  -80.757
534.390;   77.379; -725.132; -582.762
534.671;  229.400; -270.135;  -82.756
534.953;  153.032; -751.123; -611.779
535.234;   18.606; -426.117; -255.789
535.515;  -94.835; -891.119; -735.785
535.796;  -22.958; -431.128; -193.770
536.078; -118.600;-1050.124; -904.777
536.359;    2.808;  -22.123;    3.221
536.640;  -29.314; -480.125; -197.774
536.921;  139.629;  225.871;  143.232
537.202;  383.023;  -87.138;  -16.751
537.483;  474.888;  251.869;  377.236
537.764;  174.516;   17.870;   98.235
538.045;  -50.467; -543.134; -371.758
538.326;  -37.569; -596.129; -447.768
538.607;   14.497; -686.127; -476.771
538.888;  176.323;   98.879;    5.218
539.169;  196.743; -704.122; -535.781
539.450;  339.803;  236.871;   16.233
539.731;  212.702; -361.121; -182.783
540.012;  127.082;  199.880;  412.216
540.293;   81.145;   82.876;  158.224
540.574;   -0.684; -895.113; -717.796
540.855;  451.676;  435.879;  377.218
541.136;  531.140;   47.878;  139.220
541.416;  281.273; -161.130; -220.766
541.697;  210.759; -274.131; -170.763
541.978; 1110.927; -270.135; -315.757
542.259; 1395.022; -211.127; -236.771
542.539;  644.965; -191.116; -186.790
542.820;  173.116;  461.875;  480.225
543.101;  119.714;  -52.145;  -77.738
543.381;   31.072; -638.127; -591.771
543.662;  277.395;  159.873; -254.771
543.942;  602.418; -751.127; -830.770
544.223; 1103.317;  193.878;  161.219
544.504;  734.325; -275.124; -182.777
544.784;  629.653; -592.126; -408.773
545.065; 1733.493;  104.884; -254.791
545.345; 2032.965;  227.881;   14.215
545.626; 1359.365;  -14.113; -108.796
545.906;  931.740;   77.869;   98.235
546.186;  373.558;   92.874;  -95.773
546.467;  191.377;   99.877;  -95.778
546.747;  332.864;  264.884;  327.210
547.027;  385.373;   91.876;  111.223
547.308;  345.592; -376.127; -530.770
547.588;  412.682;  299.871;  371.232
547.868;  194.217;  458.870;  588.235
548.149;  215.501;  609.885;  593.207
548.429;  128.995; -347.127; -299.771
548.709;  206.732; -645.120; -461.784
548.989;  505.550;   84.882;   88.213
549.269; 2227.549;   10.868;  139.239
549.550; 5167.456;  215.877;  117.222
549.830; 4623.333; -758.111; -556.799
550.110;  914.266; -468.110; -320.801
550.390;  882.087; -128.122;  -56.779
550.670; 1203.136; -868.114; -783.795
550.950;  850.675; -509.121; -471.782
551.230;  187.046;  549.879;  460.218
551.510;   -5.951; -381.121; -326.782
551.790;   30.973; -173.109; -127.803
552.070;  254.852;  940.877; 1181.223
552.350;  423.494; -492.119; -377.786
552.630;  636.044;   -2.121;   77.219
552.909;  372.369;  181.884;   73.209
553.189;  249.255;  -49.132;   33.237
553.469;  211.344; -703.119; -514.786
553.749;  204.924; -469.127; -357.772
554.029;  185.760;   33.883;  -24.790
554.308;  159.655; -154.115;  -37.794
554.588;   66.316; -196.128; -204.770
554.868;   64.876; -366.121;  -47.782
555.147;  156.652; -114.115;  -46.793
555.427;  631.196; -260.116; -250.792
555.707; 4139.225; -284.115; -200.793
555.986; 5060.461; -719.111; -538.800
556.266; 2656.988;   23.884;   72.210
556.546;  118.624; -888.121; -675.782
556.825;  275.059; -657.114; -556.794
557.105; 1891.939; -125.128;   17.230
557.384; 2249.418;  122.884;  187.209
557.664;  860.420; -717.116; -508.792
557.943;  117.575; -557.121; -411.782
558.222;  199.153; -345.118; -344.788
558.502;  291.703; -116.115;  -76.793
558.781;  519.474;  194.885;  499.208
559.061;  429.603; -232.118; -227.788
559.340;  319.958;  302.883;  353.211
559.619;  749.488;   93.884;  148.210
559.899; 1111.634; -239.117; -266.789
560.178;  995.703; -778.115; -593.793
560.457; 3339.411; -623.117; -562.790
560.736; 4715.363; -472.111; -482.800
561.015; 3114.137; -500.128; -502.769
561.295;  390.593;  180.893;  215.193
561.574;  346.975;  119.885;  116.207
561.853;  511.428;  274.891;  303.197
562.132;  527.580;  -45.114;  182.206
562.411;  468.170;  396.879;  553.219
562.690;  144.749; -592.115; -458.792
562.969;  150.922;  472.888;  630.203
563.248;  499.192; 2966.878; 2487.219
563.527;  293.212; -290.111; -408.800
563.806;  401.570; -650.127; -521.771
564.085;  447.983; -297.105; -206.810
564.364;  249.937; -594.117; -405.790
564.643;  527.845; -276.121; -223.781
564.922; 2002.647;  221.890;  397.198
565.201; 2045.775; -640.109; -700.803
565.479;  880.022; -297.115; -219.792
565.758;  363.639; -810.128; -712.770
566.037;  505.126; -155.109; -100.803
566.316;  238.143; -286.116;  -28.791
566.595;   54.425;  -17.115;  -12.793
566.873;  106.339; -166.111;  -79.801
567.152;  -60.578; -490.113; -590.797
567.431;    5.564; -113.116;    6.210
567.709;   12.768; -344.107; -212.807
567.988;  258.709; -810.114; -769.794
568.266;  560.500; -160.115;  -68.793
568.545;  402.754; -644.100; -514.819
568.824;  633.522;  160.885;  356.208
569.102;  587.858; -351.114; -235.794
569.381;  238.921; -492.116; -407.792
569.659;  -46.032; -553.113; -553.796
569.938;   38.866; -743.122; -465.780
570.216;  105.729; -225.109; -225.804
570.494;  -20.913; -632.114; -572.795
570.773;   27.349;  202.879;  114.218
571.051;    1.880; -373.123; -357.778
571.330;   54.166; -221.113; -174.796
571.608;   42.572; -181.098; -173.823
571.886;  -70.894; -671.111; -581.799
572.164;  -58.199; -739.121; -621.782
572.443;  -54.163; -562.105; -512.811
572.721;  -34.139; -399.117; -289.790
572.999;  -39.720; -280.117; -168.788
573.277;   83.880;  379.894;  620.191
573.555;  324.157;   94.894;   37.190
573.834; 1448.929;  -86.117; -114.788
574.112; 1680.345;  880.893;  811.193
574.390;  492.963; -143.111;  -96.801
574.668;    3.223;  -91.112;  -61.797
574.946;  -16.293; -165.106; -187.810
575.224;   -2.475;   71.891;  -16.803
575.502;  -21.709; -200.116; -204.791
575.780;  -87.176; -767.112; -829.798
576.058;  140.162; 1589.889; 1004.200
576.336;  -20.782; -210.110; -129.801
576.614;  -53.351; -511.112; -340.798
576.891;   66.704; -711.115; -823.794
577.169;  536.637; -158.108; -285.805
577.447;  587.170;  169.893;  202.193
577.725;  279.754;  629.888;  854.201
578.003;    9.877;  -71.112; -371.798
578.280;  100.945; -208.104; -242.812
578.558;   71.853; -450.115; -422.793
578.836;  116.261; -210.114; -145.795
579.114;   56.548; -630.112; -670.797
579.391;   67.181;   -6.117;  -18.789
579.669;  -80.220; -595.114; -704.794
579.947;  173.567; -326.107; -127.806
580.224;  350.517; -692.107; -524.806
580.502;  346.971;  127.893;   76.193
580.779;   12.962;  -42.117;   75.210
581.057;  -77.346; -584.109; -470.804
581.334;  -89.665; -726.102; -695.815
581.612;   45.483;   54.895;  511.190
581.889;  -24.377;  -83.101; -129.818
582.167;  -48.713; -298.099; -190.821
582.444;  -97.632; -845.102; -814.817
582.721;   95.094;  657.899;  715.183
582.999;   61.035; -326.100; -167.821
583.276;  592.234; -812.123; -713.779
583.553;  759.563; -364.102; -294.816
583.831;  242.617; -607.104; -631.812
584.108;   48.710;  349.892;  174.195
584.385;   12.110; -122.102;  -98.815
584.662;  -66.511; -651.111; -828.801
584.940;   34.289;  204.889;  204.199
585.217;  -24.982;  -73.113; -303.796
585.494;   35.697;   71.890;  118.198
585.771;  215.555; -250.109; -354.804
586.048;  519.493; -196.113;  -76.796
586.325;  327.467; -721.110; -773.801
586.602;   91.621;  230.896;  213.188
586.879;  -20.769; -499.100; -580.820
587.156;   62.634; -156.105; -331.810
587.433;  -47.584; -701.102; -667.817
587.710;   65.850;  152.888;  234.202
587.987;  308.364; -264.105; -236.811
588.264;  808.302;  315.888;  387.202
588.541; 1391.673;  -61.104;   26.187
588.818; 2770.182;   72.892;  171.196
589.095; 2407.969; -163.104; -174.812
589.371;  378.203; -459.109; -414.804
589.648;   15.720; -581.107; -437.807
589.925;   32.387; -517.114; -621.795
590.202;    9.250; -741.112; -607.798
590.478;  109.641; -166.105;  -73.811
590.755;  269.113; -241.108; -132.806
591.032; 2599.344; -741.110; -699.802
591.308; 3620.112; -732.094; -790.831
591.585; 1863.844; -573.110; -560.802
591.862;  142.142;-1056.102; -950.817
592.138;   70.036; -475.108; -474.805
592.415;  143.747; -486.104; -495.813
592.691; 1494.769;  460.896;  518.188
592.968; 1956.799; -208.098; -123.824
593.244;  927.214; -695.116; -595.790
593.521;   65.568; -105.102;  -42.817
593.797;  -21.337; -810.122; -720.780
594.074;  334.511; -611.096; -588.826
594.350;  694.697;  828.905;  729.172
594.626;  309.265; -303.111; -283.801
594.903;  122.568; -643.101; -645.817
595.179;  181.875;  243.896;  418.187
595.455;    7.597; -136.107; -150.807
595.731;   -2.948;  -19.103;  -38.814
596.008;  -40.466; -464.111; -434.800
596.284;   35.134; -187.100; -242.820
596.560;   51.143; -501.093; -493.833
596.836;  207.086; -173.105;  -70.810
597.112;  370.936; -582.108; -437.805
597.388;  303.809;  -49.097;  -48.826
597.665;  120.270;  437.887;  530.203
597.941;  -71.478; -572.089; -658.839
598.217;   16.697; -323.110; -293.802
598.493;  271.231;   61.891; -204.804
598.769;  534.128; -175.100;  -50.819
599.045;  316.014; -490.108; -562.806
599.321;   59.608; -193.100; -261.820
599.597;  164.956; -355.109; -476.804
599.872;  510.973;  409.896;  429.187
600.148;  372.761;  -61.097; -172.826
600.424;  297.694;   91.893;  202.193
600.700;  244.746; -170.107; -280.807
600.976;  124.705; -442.097; -464.825
601.252;  252.027; -226.109; -272.803
601.527;  218.949; -833.104; -840.813
601.803;  152.017; -453.105; -404.812
602.079;  191.353; -124.100; -118.819
602.354;  596.853; -620.092; -531.835
602.630;  866.918; -140.113; -482.796
602.906; 2438.198; -910.101; -863.818
603.181; 7126.794; -627.119; -534.786
603.457; 6003.684;   98.903; -278.826
603.733;  881.453; -605.120; -626.783
604.008; 1022.333; -245.106; -164.810
604.284; 3184.070; -636.101; -580.817
604.559; 2791.829;   -3.112;  -42.799
604.835;  498.586; -163.105; -225.810
605.110;  428.463; -732.099; -892.821
605.385;  735.696;  224.907;  267.167
605.661;  688.650; -625.095; -729.829
605.936; 1257.390; -664.108; -737.806
606.211; 1041.108;  -17.103; -170.815
606.487;  229.732; -329.114; -376.794
606.762;   28.544; -791.119; -745.786
607.037;  -24.964; -501.105; -433.810
607.313;  -46.806; -589.096; -574.828
607.588;  -12.092; -375.106; -137.810
607.863;   41.373;  -28.101; -143.818
608.138;  180.646;  513.890;  516.198
608.413;   22.067; -576.099; -592.822
608.688;   38.436; -203.108; -267.805
608.964;  202.902; -509.106; -218.809
609.239;  258.658; -107.105; -212.810
609.514;  261.691;  281.895;  240.188
609.789;  690.971; -187.104; -716.812
610.064;  911.017; -435.096; -609.827
610.339;  920.928; -855.109; -799.804
610.614; 1279.658; -131.100; -315.820
610.889;  703.291;  215.895;  107.188
611.163;   58.842; -407.104; -591.812
611.438;   95.659;   81.886; -167.794
611.713;  -16.680; -467.101; -499.817
611.988;   63.472; -144.101; -328.818
612.263;  -20.515; -771.102; -717.815
612.538;  231.417;  385.887;  251.204
612.812;  198.109; -832.100; -911.820
613.087;  142.197; -358.098; -338.823
613.362;  -49.303; -497.107; -557.807
613.637;   35.405;  261.897;  138.186
613.911;  -14.822; -256.092; -345.835
614.186;  128.945; -249.107; -292.807
614.460;  736.321; -842.081; -758.854
614.735;  830.570;  -55.087;  -17.843
615.010;  178.685;   43.912;  -82.841
615.284;  243.410;  360.892;  246.195
615.559;  391.752; -792.092; -955.835
615.833;  298.940;  -76.099;  -87.822
616.108;    1.714; -225.090; -390.837
616.382;  145.122;  274.913;  402.156
616.656;  155.489; -241.090; -232.837
616.931;  520.890; -785.099; -700.822
617.205; 1111.900; -973.104; -979.813
617.480; 1017.939;  -91.125;    6.225
617.754;  169.387; -396.125; -128.774
618.028;   13.133; -369.129; -382.768
618.302;   52.209;   73.892;  -25.805
618.577;  -70.844; -371.103; -518.815
618.851;  -70.101; -399.109; -600.803
619.125;  -61.686; -335.134; -378.759
619.399;  -21.800; -244.104; -374.813
619.673;  -39.428; -330.115; -515.792
619.947;  -44.189; -333.114; -448.795
620.222;  -26.760; -198.110; -204.801
620.496;   -5.399;  -47.121;  -96.782
620.770;   17.542; -187.122;  -93.781
621.044;  192.134;  323.895;  346.190
621.318;  784.878; -653.120; -614.783
621.592;  687.451; -430.121; -409.783
621.866;  387.580; -476.112; -572.799
622.140;    9.816; -207.116; -356.791
622.413;   59.809;  138.889;  112.200
622.687;  -58.380; -746.101; -492.817
622.961;   -3.291; -130.108; -143.805
623.235;  -50.265; -633.111; -661.800
623.509; -101.759; -816.105; -848.811
623.783;    7.518;  -12.107;   48.193
624.056;  -22.695; -254.120; -280.783
624.330;   42.373;   63.888;   -3.797
624.604;   47.562; -271.116; -355.790
624.877;   87.820;  180.890;   26.198
625.151;   44.631; -249.114; -238.794
625.425;  -37.073; -150.103; -283.814
625.698;  -52.061; -367.119; -374.785
625.972; -107.003; -799.110; -765.802
626.245;   70.689;  685.884;  484.210
626.519;  -54.341; -426.120; -340.784
626.792;  -43.429; -192.107; -380.807
627.066;  -91.790; -485.122; -662.779
627.339;  -85.182; -736.110; -663.802
627.613;   32.282;  351.880;  148.216
627.886;   47.849;  187.891; -612.803
628.160;  -16.272;  312.880; -161.783
628.433; -108.808; -695.125; -703.775
628.706;  -83.416; -517.120; -615.784
628.979;   23.798;  296.876;  117.223
629.253;  -88.631; -785.119; -833.786
629.526;  386.152; -334.126; -253.772
629.799;  377.805; -641.123; -479.778
630.072;  171.784; -497.128; -516.769
630.346;  -52.336;-1115.116;-1080.790
630.619;  471.397; -467.107; -545.808
630.892;  639.635;  709.889;  593.200
631.165;  344.775;  790.896;  679.187
631.438;  -78.248;-1092.112;-1055.798
631.711;   48.733;  453.877;  257.221
631.984;  -56.865; -523.117; -624.789
632.257;  -75.294; -636.117; -681.789
632.530;  -44.036; -412.119; -433.785
632.803;   24.104; -109.115;    7.207
633.076;  -66.073; -360.123; -422.777
633.349;   25.913;  173.872;  121.231
633.622;  -33.987; -187.119; -240.785
633.895; -128.771; -903.120; -823.783
634.167;  -82.271; -496.126; -525.773
634.440;  -16.854;  -19.116; -137.792
634.713;  -12.883;  -22.119; -120.786
634.986;   76.228;  593.871;  453.233
635.258;  -92.598; -507.115; -597.793
635.531;   86.402;  742.882; -343.788
635.804;  -47.542; -303.117; -318.789
636.077;  -90.908; -830.116; -852.791
636.349;   -7.349; -586.115; -474.793
636.622;  394.101; 1695.874; 1392.228
636.894;  252.034; -474.120; -909.784
637.167;  161.895; -836.127; -789.771
637.439;   26.116; -278.128; -213.770
637.712;  -50.947; -312.126; -293.772
637.984;  -93.208; -635.116; -707.791
638.257;  390.528;  515.877;  488.222
638.529;  579.443; -881.125; -924.776
638.802;  240.834; -508.128; -449.769
639.074; -114.858; -927.122; -952.781
639.346; -129.295; -942.135; -930.757
639.619;    0.441;  -79.142; -319.744
639.891;  -19.940;  -83.122; -168.779
640.163;  -88.838; -689.122; -756.780
640.435;   36.439;  273.878;  103.220
640.708;    4.641;  -72.122; -132.780
640.980;  -27.182; -366.122; -362.781
641.252;  184.820;  -25.121;  -71.781
641.524; 1809.121;  580.879;  573.219
641.796; 1839.848;-1094.121; -907.782
642.068;  329.600; -191.121; -300.782
642.340;  -64.998; -486.121; -566.783
642.613;   26.279;  294.880;  323.217
642.885; -110.495; -787.120; -878.783
643.157;  -37.393; -810.120; -658.784
643.428;   42.559;  170.880;  218.216
643.700;  -74.214; -498.120; -425.784
643.972;  -42.212;  -16.119; -133.785
644.244;  -91.261; -474.119; -559.785
644.516;  -49.934; -250.119; -114.786
644.788;   51.918;  662.881;  548.214
645.060;  -28.555;  -12.119; -124.786
645.332; -105.278; -525.118; -535.787
645.603;   20.623;  479.882;  342.213
645.875;  -85.850; -334.118; -369.787
646.147;  172.802; 1487.882; 1242.212
646.418;  -69.746; -931.117; -918.788
646.690;  144.131; -714.117; -715.789
646.962;   40.282; -413.117; -451.789
647.233;  -12.366;   15.883;   11.211
647.505; -121.039; -595.117; -475.790
647.776;   16.838;  328.884;  229.210
648.048;   -7.935; -248.116; -418.790
648.320;  -81.858; -752.116; -679.791
648.591; -166.232;-1055.116; -958.791
648.862; -101.430; -505.116; -577.792
649.134;    8.647;  115.885;  198.208
649.405;  -46.451; -661.115; -618.792
649.677;  -44.174; -475.115; -598.793
649.948;  -18.698; -181.115; -296.793
650.219;  -16.521;  -37.115; -147.793
650.491;  -82.094; -431.114; -520.794
650.762; -130.917; -705.114; -731.794
651.033;  -90.115; -437.114; -424.795
651.304; -105.439; -743.114; -728.795
651.576;  -74.012; -680.114; -645.795
651.847;  -48.085; -250.113; -140.796
652.118;  -27.283;  -32.113; -189.796
652.389; -113.206; -639.113; -722.796
652.660;  -38.880; -147.113;  -89.797
652.931; -144.303; -897.112; -871.797
653.202;  -85.926; -382.112; -541.798
653.473;  -61.149; -633.112; -533.798
653.744;  141.703; -595.112; -590.798
654.015;  144.104; -356.112; -303.799
654.286;  -70.819; -642.111; -663.799
654.557;  -47.992; -586.111; -521.799
654.828; -161.940;-1114.111;-1088.800
655.099;  -72.263; -404.111; -291.800
655.370;  -96.812; -427.111; -543.801
655.641; -127.960; -656.110; -714.801
655.911; -117.183; -618.110; -638.801
656.182;   28.819;  437.890;  387.198
656.453;   75.146;  830.890;  746.198
656.724;  -74.027; -466.110; -426.802
656.994;  -91.976; -553.109; -568.803
657.265; -122.249; -862.109; -873.803
657.536;  -84.422; -500.109; -377.804
657.806; -113.870; -561.109; -593.804
658.077; -131.868; -866.109; -950.804
658.347;  -90.342; -523.108; -598.805
658.618; -114.515; -646.108; -694.805
658.888;  -19.263;  -41.108;  112.195
659.159;  -89.286; -432.108; -548.806
659.429;  -18.659; -292.108; -349.806
659.700;   26.292; -435.107; -390.807
659.970;  -15.406; -370.107; -359.807
660.241;   16.571; -754.107; -921.807
660.511;  515.673; -147.107; -174.808
660.781;   94.900; -793.106; -748.808
661.052;  -44.674; -222.106; -381.808
661.322;  -29.172;   21.894;   -9.809
661.592;    7.905;  257.894;  148.191
661.862;  -82.068; -369.106; -382.810
662.133; -101.491; -551.105; -502.810
662.403; -127.140; -770.105; -676.810
662.673;  -50.463; -256.105; -213.811
662.943; -116.986; -612.105; -551.811
663.213;   -9.359;  -85.105;  -81.811
663.483;  -91.482; -593.104; -568.812
663.753;  -49.805; -194.104; -152.812
664.023;  -21.954;   68.896;  -32.813
664.293;  -76.877; -319.104; -126.813
664.563; -111.675; -694.104; -648.813
664.833; -122.148; -743.103; -608.814
665.103; -129.871; -730.103; -793.814
665.373; -118.645; -766.103; -806.814
665.643;  -82.018; -863.103; -918.815
665.913;   35.484; -534.103; -714.815
666.182;  122.661; -685.102; -719.816
666.452;  282.188;  -22.102;  -89.816
666.722;  -25.111; -724.102; -784.816
666.992; -130.834; -948.102; -921.817
667.261; -108.257; -824.102; -808.817
667.531;  198.470;  134.899;   45.183
667.801;  528.797; -440.101; -412.818
668.070;  223.698;  714.899;  697.182
668.340; -102.800; -883.101; -840.819
668.609;   99.277;  588.900;  301.181
668.879;  -94.196; -490.100; -558.819
669.149;  -68.594; -539.100; -516.820
669.418; -114.518; -698.100; -726.820
669.688;  -33.791; -482.100; -666.820
669.957;   83.861; -423.099; -546.821
670.226;  -19.062; -268.099; -331.821
670.496;  -93.410; -431.099; -635.822
670.765;  -73.208; -418.099; -501.822
671.034; -143.882; -872.099; -828.822
671.304;   -7.930;   55.902; -111.823
671.573; -151.503;-1085.098; -957.823
671.842;   68.799; -380.098; -294.823
672.112;   31.776; -692.098; -586.824
672.381;    4.652; -239.098; -214.824
672.650; -138.421;-1005.097;-1021.825
672.919;  -84.994; -631.097; -507.825
673.188;  -95.517; -681.097; -878.825
673.457; -150.765;-1101.097;-1143.826
673.726;  -65.739; -579.096; -646.826
673.995;  -46.687; -533.096; -479.826
674.265;  -26.235; -263.096; -333.827
674.534;   14.142; -183.096; -235.827
674.802;   -5.356; -618.096; -703.828
675.071; 1030.970; -886.095; -801.828
675.340; 4132.597; -464.095; -339.828
675.609; 1368.374;  103.905;   82.171
675.878;   85.251; -949.095; -893.829
676.147;   31.028;  -26.095;   -8.829
676.416;   94.129; -210.094; -294.830
676.685;  760.756; 1000.906; -622.830
676.953;  119.183; -603.094; -452.831
677.222;  -38.940; -193.094; -273.831
677.491;  -36.888;  -24.094; -127.831
677.759;    4.914;   11.907;  172.168
678.028;  -21.685; -279.093; -222.832
678.297;   -1.458;   71.907;  197.168
678.565; -146.656; -898.093; -944.833
678.834;  -65.679; -311.093; -268.833
679.102;  -84.302; -411.092; -391.834
679.371; -123.651; -898.092; -727.834
679.639; -147.624; -797.092; -786.834
679.908; -115.972; -794.092; -724.835
680.176; -156.395; -895.091; -941.835
680.445;  -69.518; -346.091; -352.835
680.713;  -27.842;  -58.091;  -23.836
680.982;  -95.790; -523.091; -525.836
681.250; -110.413; -578.091; -507.837
681.518;  -93.011; -534.090; -751.837
681.787;  -19.384; -204.090; -167.837
682.055;  -66.658; -490.090; -422.838
682.323; -150.756; -993.090; -992.838
682.591;   28.771; -216.090; -538.838
682.859;   89.148;    9.911;  -35.839
683.128;   15.250;  232.911;  497.161
683.396; -158.349;-1102.089;-1122.840
683.664;  -49.447; -241.089;   21.160
683.932;   -3.595;  144.911;  -76.840
684.200;  -79.893; -576.088; -320.841
684.468;  -26.816;  -73.088; -124.841
684.736;  -35.165; -214.088; -175.841
685.004; -118.288;-1024.088; -982.842
685.272;  -44.061; -880.088; -774.842
685.540;  -65.784; -499.087; -557.843
685.808;  -87.232; -651.087; -682.843
686.076; -109.880; -894.087; -969.843
686.343;  -69.904; -601.087; -815.844
686.611;   49.748; -195.087; -224.844
686.879;  455.300; -530.086; -553.844
687.147; 3451.327; -483.086; -480.845
687.414;  984.379;  -12.086; -169.845
687.682;    6.930; -658.086; -757.846
687.950;  339.157;  259.915;  263.154
688.217;    9.184; -792.085; -760.846
688.485;   -6.339; -632.085; -636.847
688.753;  554.138;  -11.085; -102.847
689.020;  175.164; -820.085; -851.847
689.288; -104.284; -853.084; -787.848
689.555;  -27.282; -195.084; -148.848
689.823;  -52.605; -241.084; -345.849
690.090;  -80.328; -546.084; -651.849
690.358; -150.227; -877.084; -897.849
690.625;   -0.300;  120.917;   45.150
690.892;  -81.798; -403.083; -369.850
691.160;  -16.671;   72.917;  -35.850
691.427;   -1.469;  141.917;  130.149
691.694; -127.868; -855.083; -929.851
691.962; -149.966;-1177.082;-1060.852
692.229;    0.761;  127.918;   56.148
692.496;   84.588;  130.918;  -49.852
692.763;   17.665; -164.082; -201.853
693.031;  -77.258; -739.082; -716.853
693.298;  -34.082; -509.081; -368.853
693.565;  318.995; -155.081; -163.854
693.832; 1356.822;   -5.081;   -9.854
694.099;  148.174; -643.081; -642.855
694.366;  -65.424; -882.081; -896.855
694.633;  -50.748; -920.080; -633.855
694.900;  731.179; 4367.920; -114.856
695.167;  433.081; -214.080; -380.856
695.434;  103.633; -646.080; -623.856
695.701;  178.410;  121.921;  -61.857
695.968;  475.561; -365.079; -361.857
696.234;  969.488; -415.079; -646.858
696.501;10025.165; -776.079; -614.858
696.768; 5142.167; -554.079; -617.858
697.035;  318.269; -632.078; -667.859
697.302;   34.220; -448.078; -552.859
697.568;   -7.403; -458.078; -497.859
697.835;  -45.651; -683.078; -624.860
698.102;  -32.799; -498.078; -407.860
698.368;   75.003;  384.923;  396.139
698.635;  -27.396;  -47.077; -424.861
698.901;  -39.469; -240.077; -348.861
699.168;   58.858; -534.077; -456.862
699.435;   63.835;  -72.077;  -13.862
699.701; -109.438; -868.076; -764.862
699.968;   21.464;  144.924; -441.863
700.234;  -98.635; -783.076; -822.863
700.500;  -65.458; -448.076; -539.864
700.767;   -9.156;   -1.075;   26.136
701.033; -127.179;-1015.075; -963.864
701.299;  -53.077; -450.075; -483.865
701.566;  103.899;  950.925;  763.135
701.832;   19.226;  -31.075;  -76.865
702.098; -101.172;-1054.074;-1034.866
702.365;  -95.595;-1098.074;-1030.866
702.631;  -27.968;-1038.074;-1063.867
702.897; 1364.483; -765.074; -676.867
703.163; 2286.085;  348.926;  254.133
703.429;  145.887; -256.073; -273.868
703.695;  -37.286; -796.073; -792.868
703.961;   24.041; -214.073; -210.868
704.227;  -54.858; -630.073; -725.869
704.493;  118.469;  613.927;  510.131
704.759;  -26.929; -565.072; -540.870
705.025;   16.673; -203.072; -194.870
705.291;  -11.275; -666.072; -562.870
705.557;  183.801;  719.928;   34.129
705.823;    7.203; -742.072; -694.871
706.089;  143.205; -307.071; -326.871
706.355;  314.282; -315.071; -244.872
706.620; 5161.309; -776.071; -729.872
706.886; 7450.311; -309.071; -362.873
707.152;  724.212; -818.070; -973.873
707.418;  -35.386;-1153.070;-1186.873
707.683;   -2.759; -550.070; -530.874
707.949;  -58.832; -547.070; -578.874
708.215;  -11.455; -129.070; -207.874
708.480;  -23.329; -520.069; -420.875
708.746;   99.148;   68.931;   28.125
709.011;  -65.100; -578.069; -612.876
709.277;  -77.948; -538.069; -543.876
709.542;  -53.546; -428.069; -387.876
709.808;    2.905;  -59.068;   89.123
710.073;  -87.568; -577.068; -695.877
710.339;  -40.841; -242.068; -228.877
710.604;   72.361; -780.068; -845.878
710.869;  329.038; -277.068; -366.878
711.135;  -61.611; -715.067; -628.879
711.400;  -90.059; -507.067; -608.879
711.665;  -77.932; -404.067; -479.879
711.931;  -90.505; -661.067; -677.880
712.196; -134.428; -876.067; -954.880
712.461;   98.273; -402.066; -490.880
712.726;  142.600; -727.066; -771.881
712.991;  -82.898; -647.066; -664.881
713.256;  -41.296; -350.066; -332.882
713.521;  -67.794; -417.065; -381.882
713.787;  -78.293; -454.065; -472.882
714.052;  -32.041; -214.065; -400.883
714.317; -105.514;-1045.065; -981.883
714.581;  962.063; -374.065; -268.883
714.846; 1351.315; -822.064; -888.884
715.111;  124.817;  261.936;  257.116
715.376;  -16.232;  -86.064; -223.885
715.641;  -15.905; -365.064; -367.885
715.906;  283.497;   15.936; -551.885
716.171;  138.799;  221.937;  209.114
716.436;   37.326;  -78.063; -104.886
716.700;  -97.948; -818.063; -692.886
716.965; -124.546; -794.063; -807.887
717.230;  -78.869; -339.063; -392.887
717.494;  -30.792;  -40.062; -134.888
717.759; -105.890; -784.062; -640.888
718.024;    2.461;  269.938;  250.112
718.288;   85.063;  685.938;  395.111
718.553; -152.260; -803.062; -977.889
718.817; -139.808; -883.061; -899.889
719.082;  -41.631; -115.061; -125.890
719.346; -145.130;-1000.061; -947.890
719.611;  -57.153; -300.061; -255.891
719.875;  -97.026; -568.060; -537.891
720.140;  -73.974; -453.060; -603.891
720.404;   41.878; -136.060; -249.892
720.668;  878.954; -475.060; -411.892
720.933;  348.306;  146.940;  137.108
721.197;  -95.092; -667.059; -600.893
721.461; -128.690; -851.059; -826.893
721.725;  -11.063;  -21.059; -250.894
721.990;  -44.686; -284.059; -204.894
722.254;  -43.760;  -26.059; -108.894
722.518;  -76.808; -286.058; -442.895
722.782;  -77.931; -743.058; -594.895
723.046;  130.946;  614.942;  570.105
723.310;   14.273;  374.942;  210.104
723.574;  -93.301; -654.058; -614.896
723.838; -108.649; -576.057; -642.897
724.102;  -37.447; -226.057; -239.897
724.366; -139.895;-1032.057; -978.897
724.630; -103.518; -749.057; -571.898
724.894;  -78.717; -722.057; -514.898
725.158;  -17.065;   38.944; -295.898
725.422;  -50.013; -394.056; -327.899
725.685;  -59.236; -441.056; -349.899
725.949;  -83.259; -566.056; -519.900
726.213;  -68.558; -732.056; -811.900
726.477;  188.869;-1020.055; -933.900
726.740;  154.046; -274.055; -104.901
727.004;  329.573; -384.055; -510.901
727.268; 3204.175; -442.055; -400.901
727.531;  878.426; -961.055; -775.902
727.795;  -45.672; -713.054; -673.902
728.059;  -72.670; -552.054; -557.903
728.322;  -71.418; -841.054; -669.903
728.586;   14.509; -692.054; -701.903
728.849;  -87.714; -695.053; -756.904
729.112; -134.163; -812.053; -912.904
729.376; -142.036; -959.053; -905.904
729.639;  -87.484; -536.053; -536.905
729.903; -120.732; -733.053; -699.905
730.166;  -56.080; -437.052; -399.906
730.429;  -23.429; -317.052; -468.906
730.693;  -61.752; -355.052; -894.906
730.956;  197.975;  810.948;  651.093
731.219;  702.177; -310.052; -103.907
731.482;  121.379;-1003.051; -894.907
731.745;  100.330; -794.051; -935.908
732.009;   10.807;  -30.051;   50.092
732.272; -104.466; -904.051; -771.909
732.535;  -40.539; -300.051; -310.909
732.798; -156.237;-1083.050;-1166.909
733.061;  -48.436; -430.050; -456.910
733.324;    7.716;   31.950; -180.910
733.587;   52.568;  290.950;  365.090
733.850;  -81.155; -973.049;-1050.911
734.113;   28.372;   33.951;   32.089
734.376;   -5.627; -328.049; -447.912
734.639;  208.875; 1188.951; 1011.088
734.901;   67.202; -180.049; -402.912
735.164;  508.229; -883.048; -837.913
735.427; 1353.431; -166.048; -355.913
735.690;  127.508; -205.048; -234.913
735.952;  -41.441; -923.048; -925.914
736.215;  -32.314;-1113.048;-1009.914
736.478;   47.988; -771.047; -774.915
736.740;  219.890;   33.953;  129.085
737.003;  680.517; -658.047; -672.915
737.266; 4196.918;  -94.047;   46.084
737.528;  451.120; -682.047; -660.916
737.791;  308.572; -316.046; -327.916
738.053;  782.424;  465.954;  649.083
738.316;10464.376; -162.046; -136.917
738.578; 7527.927; -770.046; -736.918
738.841;  448.429; -382.046; -446.918
739.103;  165.931; -875.045; -777.918
739.365;  513.858;   79.955;  -69.919
739.628;   -8.290; -884.045; -805.919
739.890;  -31.039; -758.045; -710.919
740.152;  -48.362; -692.044; -754.920
740.414;  -14.610; -408.044; -359.920
740.677;  -63.483; -785.044; -634.921
740.939;  -43.281; -587.044; -487.921
741.201;  293.745; -432.044; -572.921
741.463;   41.322; -689.043; -745.922
741.725;    0.124;  -21.043; -199.922
741.987;   47.976;  220.957;  116.078
742.249;    6.328; -751.043; -859.923
742.511;  217.704; -703.043; -794.923
742.773;   26.481; -546.042; -546.924
743.035;  136.858;  796.958;  533.076
743.297;  -39.615; -963.042;-1013.924
743.559;  741.587; -278.042; -262.925
743.821;   64.714; -735.042; -744.925
744.083;    2.340;  -44.041; -149.925
744.345;  -98.283; -869.041; -892.926
744.607;   36.294;   75.959;  122.074
744.868;  -46.829; -490.041; -554.927
745.130; -109.577; -994.041;-1008.927
745.392;   37.099;   -1.040;  -44.927
745.653;  -12.974; -411.040; -378.928
745.915;  143.553;  896.960;  631.072
746.177;   55.380;   35.960;  -43.928
746.438;   -6.968; -428.040; -543.929
746.700;  -52.567; -947.039; -988.929
746.961;   -2.015; -659.039; -740.930
747.223;  129.212; -190.039;  -74.930
747.484;   82.039; -391.039; -471.930
747.746;  160.841;  -23.038; -106.931
748.007;  108.792; -647.038; -689.931
748.269;  293.194; -468.038; -440.931
748.530;  494.696; -852.038; -638.932
748.791;  245.048; -354.038; -420.932
749.053;  440.475;  286.963;  163.067
749.314;  484.376; -236.037; -169.933
749.575;  510.403; -945.037; -905.933
749.836;  845.430; -217.037;   86.066
750.098; 2446.532;  -60.037;  -21.934
750.359;37078.159;  414.964;  555.066
750.620; 9578.836; -121.036; -220.935
750.881; 1057.687; -585.036; -513.935
751.142; 1364.714; -950.036; -938.936
751.403;16592.041; -789.036; -705.936
751.664; 7456.943;-1034.035; -999.936
751.925;  499.270; -175.035; -262.937
752.186;  275.871; -298.035; -278.937
752.447;  126.523; -590.035; -445.937
752.708;   46.625; -532.035; -648.938
752.969;   16.227; -566.034; -576.938
753.230;   -9.371; -777.034; -672.939
753.491;   -7.695; -650.034; -631.939
753.751;   59.257;  109.966;   19.061
754.012;   80.859;  258.967;  181.060
754.273;   51.736; -174.033;  -71.940
754.534;   16.513; -487.033; -580.940
754.794;  -92.036; -926.033; -911.941
755.055;  136.591; 1051.967;  881.059
755.316;  -40.657; -700.032; -566.942
755.576;  -21.330; -606.032; -576.942
755.837;  -49.353; -527.032; -695.942
756.097;  -46.027; -530.032; -564.943
756.358;  -79.400; -725.032; -770.943
756.618;  -57.723; -705.031; -641.943
756.879;   -3.696; -254.031; -349.944
757.139; -121.969;-1098.031;-1116.944
757.400;  -68.192; -538.031; -553.945
757.660;  -30.116; -365.031; -401.945
757.920;   10.836; -266.030; -228.945
758.181;  -18.587; -468.030; -351.946
758.441;  -89.135; -870.030; -809.946
758.701;  -24.708; -308.030; -215.946
758.961;  -29.982; -220.030; -278.947
759.222;  -48.030; -574.029; -502.947
759.482;  -76.053; -683.029; -723.948
759.742;  -90.626; -706.029; -547.948
760.002;   -0.649;  -83.029; -143.948
760.262;   16.802;   50.972;  182.051
760.522;  -48.971; -498.028; -574.949
760.782;  -61.644; -738.028; -612.949
761.042;  -44.692; -618.028; -573.950
761.302;   44.260;   55.972;  -18.950
761.562;   44.786; -164.027; -154.951
761.822;   84.838; -710.027; -551.951
762.082;  -58.935;-1104.027;-1093.951
762.342;   54.492; -328.027; -403.952
762.601;   68.619; -567.027; -506.952
762.861;  367.295; -281.026; -207.952
763.121;  394.122; -406.026; -411.953
763.381; 7190.499; -499.026; -485.953
763.640; 8092.301; -139.026; -307.954
763.900;  349.778; -242.026; -203.954
764.160;   79.680; -458.025; -491.954
764.419;  -23.319; -726.025; -782.955
764.679;  -84.292; -795.025; -726.955
764.939;   -8.965; -124.025; -210.955
765.198;  -78.488; -608.025; -563.956
765.458;  -95.361; -710.024; -612.956
765.717;  -87.710; -454.024; -590.957
765.976;  -55.558; -428.024; -411.957
766.236;  -87.781; -475.024; -610.957
766.495;   25.646;  260.977;   73.042
766.755;  -95.127;-1090.023; -987.958
767.014;   14.624; -594.023; -665.958
767.273;  -70.049; -373.023; -397.959
767.533;  -53.922; -228.023; -307.959
767.792;  -17.220; -151.022; -188.960
768.051;  -62.143; -228.022; -276.960
768.310;  -99.442; -546.022; -650.960
768.569;  -13.465; -161.022;    4.039
768.828;  -31.088; -285.022; -363.961
769.088; -119.161;-1050.021; -942.961
769.347;  -98.109; -755.021; -599.962
769.606;  -98.583; -876.021; -857.962
769.865; -125.681;-1016.021;-1033.963
770.124;  -16.354; -411.021; -336.963
770.383;  -54.277; -778.020; -910.963
770.641;   -9.225; -398.020; -400.964
770.900;  -65.724; -953.020; -846.964
771.159;  -47.097; -851.020; -951.964
771.418;  -32.295; -917.020; -779.965
771.677;  112.107; -224.019; -293.965
771.936;  121.334; -794.019; -865.966
772.194; 1986.436; -465.019; -437.966
772.453;10550.837; -213.019; -391.966
772.712;  744.439;  416.982;  329.033
772.970;  113.666;   32.982;   63.033
773.229;   75.643;  -22.018;  102.033
773.488;  -93.030; -814.018; -770.968
773.746;   57.746;  296.982;  335.032
774.005;   -3.052;  190.983;  -22.969
774.263;    2.550;  243.983;  177.031
774.522;  -51.273; -422.017; -548.969
774.780;  -83.671; -484.017; -417.970
775.039;  -98.170; -551.017; -531.970
775.297;  -38.743; -135.016; -351.970
775.555; -118.741; -489.016; -612.971
775.814; -117.489; -618.016; -570.971
776.072; -128.362; -749.016; -740.971
776.330; -102.786; -630.016; -520.972
776.589; -138.484; -703.015; -721.972
776.847; -130.507; -645.015; -624.973
777.105; -178.280;-1016.015;-1032.973
777.363;  -96.303; -459.015; -454.973
777.621; -142.677; -660.015; -717.974
777.879;  -32.750;  -42.014;   32.026
778.138;  -99.823; -554.014; -717.974
778.396; -116.571; -585.014; -526.975
778.654; -171.319;-1015.014; -970.975
778.912;  -57.117; -269.014; -371.976
779.170; -132.916; -880.013; -803.976
779.427; -151.439; -922.013; -897.976
779.685; -146.287; -880.013; -832.977
779.943;  -88.135; -654.013; -593.977
780.201; -161.408; -964.012; -883.978
780.459; -112.682; -651.012; -610.978
780.717;  -90.605; -440.012; -390.978
780.974; -101.328; -449.012; -490.979
781.232;  -81.801; -358.012; -338.979
781.490;  -79.324; -551.011; -472.979
781.747; -106.648; -555.011; -476.980
782.005;    6.404;  462.989;  254.020
782.263; -171.419; -542.011;-1004.981
782.520;  -82.992; -326.011; -501.981
782.778; -164.915;-1013.010;-1051.981
783.035; -167.714; -962.010; -938.982
783.293;  -74.687; -248.010; -206.982
783.550;  -41.660; -134.010; -198.982
783.808; -148.483; -764.010; -776.983
784.065; -165.781; -745.009; -874.983
784.322;  -60.380;   25.991;  -86.984
784.580; -151.828; -915.009; -771.984
784.837; -100.901; -392.009; -466.984
785.094; -129.599; -783.009; -762.985
785.352;  -62.372; -304.008; -404.985
785.609;  -94.545; -934.008; -839.985
785.866;  -90.019; -345.008; -401.986
786.123;  -74.117; -639.008; -583.986
786.380; -107.065; -665.008; -604.987
786.637;  -42.838; -225.007; -380.987
786.895;  -26.211; -456.007; -543.987
787.152;  -55.885; -135.007; -267.988
787.409;  -57.058; -123.007; -225.988
787.666;  -92.806; -299.006; -378.988
787.923; -115.629; -616.006; -695.989
788.179; -111.752; -551.006; -584.989
788.436; -113.551; -585.006; -585.990
788.693;  -34.299;  -92.006;  -87.990
788.950;  136.978; -125.005; -112.990
789.207;  234.255; -381.005; -372.991
789.464;  -63.893; -161.005; -301.991
789.720;  -10.642;  150.995;  110.009
789.977; -173.590;-1003.005; -671.992
790.234;  -32.138;   44.996;  -66.992
790.490; -151.586; -884.004;-1031.993
790.747;  -25.009;  -85.004;   22.007
791.004;  -30.508; -426.004; -348.993
791.260;  -87.631; -430.004; -560.994
791.517;  -95.429; -843.003; -788.994
791.773;  -43.777; -379.003; -342.994
792.030; -119.125; -596.003; -660.995
792.286;  -99.998; -686.003; -636.995
792.543;  -16.297;  -74.002; -159.995
792.799;  -46.945; -584.002; -382.996
793.055; -162.918;-1179.002;-1210.996
793.312;  -93.666; -827.002; -816.997
793.568;  -67.139; -746.002; -599.997
793.824;   16.237; -226.001; -284.997
794.081;   14.464; -447.001; -508.998
794.337;   41.566; -664.001; -561.998
794.593; 1253.843; -319.001; -271.999
794.849; 6533.045; -746.001; -772.999
795.105;  335.221; -270.000; -261.999
795.361;    9.073; -490.000; -457.000
795.617;  -65.775; -875.000; -945.000
795.873;  -61.900; -360.000; -407.000
796.129;  -46.675; -368.000; -306.000
796.385;  -20.125; -124.000; -156.000
796.641;   61.100;  412.000;  550.000
796.897;  -80.700; -666.000; -635.000
797.153;   51.100;  453.000;  357.000
797.409; -112.525; -785.000; -868.000
797.665;  -66.075; -625.000; -732.000
797.921;  -77.275; -775.000; -762.000
798.176;  -61.000; -744.000; -747.000
798.432;  -47.975; -824.000; -596.000
798.688;  -85.000;-1174.000;-1078.000
798.943;   87.575; -165.000; -147.000
799.199;   -1.875;-1005.000; -959.000
799.455;  204.250;  369.000;  316.000
799.710;  103.000; -813.000; -380.000
799.966;  278.200; -162.000; -160.000
800.221;  449.575; -638.000; -721.000
800.477;10003.925; -743.000; -710.000
800.732; 9212.075; -773.000; -800.000
800.988;  595.925;  205.000;  -19.000
801.243; 1601.850; -454.000; -344.000
801.498; 7115.475; -814.000; -739.000
801.754;  412.875; -289.000; -163.000
802.009;   78.950; -257.000; -335.000
802.264;  -53.725; -967.000;-1033.000
802.520;   19.775;  222.000;   -3.000
802.775;  -62.300; -524.000; -359.000
803.030;   42.625;  395.000;  356.000
803.285; -131.950; -840.000; -903.000
803.540;  -69.275; -686.000; -699.000
803.795;  -48.800; -648.000; -583.000
804.051;  -41.850; -279.000; -346.000
804.306;   17.350;  168.000;  128.000
804.561;  141.725;  451.000;  362.000
804.816;  122.625;  714.000;  861.000
805.071;   -7.150; -185.000; -280.000
805.325;  224.300; -257.000; -427.000
805.580; -105.225; -841.000; -877.000
805.835;  -33.050; -204.000; -297.000
806.090;  -82.925; -760.000; -676.000
806.345;  -25.550; -344.000; -264.000
806.600;  -43.950; -549.000; -632.000
806.854;  -42.800; -408.000; -538.000
807.109;  -20.650; -493.000; -577.000
807.364;   -9.325; -407.000; -328.000
807.618;   -3.300; -415.000; -381.000
807.873;   55.675; -470.000; -494.000
808.128;   96.250; -257.000; -518.000
808.382;  105.675; -224.000; -332.000
808.637;   71.800; -440.000; -511.000
808.891;  175.250; -257.000; -180.000
809.146;  100.625; -902.000; -794.000
809.400;  275.800; -848.000; -923.000
809.654;  344.100; -779.000; -551.000
809.909;  495.050; -841.000; -927.000
810.163; 6569.975; -813.000; -651.000
810.418;17781.750; -940.000; -861.000
810.672; 1055.650; -685.000; -690.000
810.926;  690.250; -993.000; -973.000
811.180; 1335.850; -439.000; -372.000
811.434;30053.875;  240.000;  135.000
811.689;12664.875; -231.000; -365.000
811.943;  609.250; -936.000; -953.000
812.197;  317.450; -893.000; -671.000
812.451;  118.500; -379.000; -514.000
812.705;  -35.350; -809.000; -619.000
812.959;   -5.650; -263.000; -388.000
813.213;  -14.150; -283.000; -209.000
813.467;   47.000;  470.000;  253.000
813.721;  -89.075; -764.000; -792.000
813.975; -127.950; -826.000; -877.000
814.229;   36.975;  430.000;  353.000
814.482;  -70.375; -517.000; -566.000
814.736; -119.050; -766.000; -744.000
814.990; -124.025; -779.000; -872.000
815.244;  -41.950; -228.000; -285.000
815.497;  -91.200; -636.000; -601.000
815.751;  -24.975; -141.000;   82.000
816.005;  -88.925; -470.000; -586.000
816.258;  -69.850; -510.000; -363.000
816.512; -111.850; -693.000; -610.000
816.766;  -22.200;  121.000;  157.000
817.019;   10.400;  148.000;  149.000
817.273; -114.675;-1000.000; -802.000
817.526;  -40.475; -206.000; -173.000
817.779;  -35.625;-1049.000; -960.000
818.033;  -63.950; -693.000; -807.000
818.286; -125.850; -725.000; -792.000
818.540;  -85.625; -403.000; -403.000
818.793;  -81.200; -402.000; -489.000
819.046; -109.925; -582.000; -520.000
819.299;  -37.875; -157.000; -166.000
819.553; -126.775; -552.000; -592.000
819.806; -162.525;-1016.000; -838.000
820.059;  -50.775; -334.000; -354.000
820.312;   18.900;  152.000;  185.000
820.565;  -16.175;  110.000;  -27.000
820.818;  -56.125;  -59.000; -173.000
821.071; -164.175;-1041.000; -957.000
821.324; -107.050; -536.000; -540.000
821.577; -109.100; -457.000; -483.000
821.830;  -62.050; -270.000; -172.000
822.083; -137.600; -733.000; -288.000
822.336;  -52.575; -261.000; -167.000
822.589; -129.325; -805.000; -688.000
822.842; -147.975; -875.000; -770.000
823.094; -171.600;-1076.000;-1114.000
823.347; -135.725; -925.000; -729.000
823.600;    0.550;  402.000;  187.000
823.853;  -54.775; -311.000; -267.000
824.105;  -81.775; -331.000; -575.000
824.358; -103.600; -617.000; -716.000
824.611;   24.300;  234.000;   40.000
824.863;  -59.800; -612.000; -591.000
825.116;   46.150;  -33.000;   27.000
825.368;   84.750; -366.000; -372.000
825.621;  174.575; -186.000; -240.000
825.873;   72.725; -704.000; -737.000
826.126;  562.075; -669.000; -641.000
826.378;11433.750; -389.000; -505.000
826.630; 2936.600; -890.000; -898.000
826.883;   46.025; -754.000; -693.000
827.135;   35.750; -279.000; -270.000
827.387; -114.375; -893.000; -839.000
827.639;  -32.025;  -86.000;   32.000
827.892; -130.775; -742.000; -582.000
828.144; -151.550; -848.000; -804.000
828.396;  -36.875;  104.000;  -80.000
828.648; -101.900; -440.000; -333.000
828.900; -151.000; -702.000; -795.000
829.152; -117.900; -684.000; -683.000
829.404;  -76.325; -215.000; -267.000
829.656;  -56.325;  321.000;  214.000
829.908;  -21.950;  393.000;  229.000
830.160; -172.600;-1064.000;-1047.000
830.412;  -97.975; -481.000; -430.000
830.664; -113.975; -557.000; -665.000
830.916;  -77.050; -268.000; -206.000
831.167; -184.000;-1073.000; -951.000
831.419; -119.975; -623.000; -566.000
831.671; -140.550; -764.000; -809.000
831.923;  -93.575; -311.000; -447.000
832.174;  -75.900; -273.000; -331.000
832.426; -122.050; -493.000; -582.000
832.678; -187.275;-1043.000;-1091.000
832.929; -169.325; -947.000; -935.000
833.181;  -69.575; -575.000; -677.000
833.432;  -53.725;  -59.000; -186.000
833.684;  -28.500;  112.000;  -27.000
833.935; -124.700; -610.000; -566.000
834.187; -131.100; -829.000; -823.000
834.438;  -52.800;  -58.000;  -25.000
834.689;  -60.950; -255.000; -123.000
834.941;  -55.375; -343.000; -244.000
835.192;  -93.800; -590.000; -533.000
835.443;  -99.700; -419.000; -506.000
835.695;  -27.050;  138.000;  -16.000
835.946;  -86.500; -608.000; -378.000
836.197; -105.100; -599.000; -622.000
836.448;  -87.000; -528.000; -395.000
836.699;  -70.400; -253.000; -341.000
836.950;  -11.850;   72.000;    7.000
837.201; -165.025;-1003.000; -987.000
837.452;  -48.025; -356.000; -170.000
837.703; -114.800; -791.000; -737.000
837.954;  -35.550; -205.000; -365.000
838.205;  -83.525;-1029.000;-1008.000
838.456;  170.475; -196.000; -282.000
838.707;   -1.850; -423.000; -519.000
838.958;   13.100; -634.000; -647.000
839.209;  288.750;   18.000;   40.000
839.460;   99.875; -439.000; -201.000
839.710;  169.100; -135.000; -297.000
839.961;  413.050;  730.000;  612.000
840.212;  332.575; -382.000; -497.000
840.462; 1104.875; -328.000; -277.000
840.713;17645.075; -571.000; -536.000
840.964; 7462.850;  -62.000; -143.000
841.214;  514.600; -384.000; -624.000
841.465;  586.700; -214.000; -141.000
841.715;  533.625; -417.000; -380.000
841.966;  682.750; -746.000; -685.000
842.216; 9160.425; -330.000; -431.000
842.466;36309.300; -169.000; -313.000
842.717; 2098.150; -964.000; -952.000
842.967;  342.625; -635.000; -641.000
843.217;  273.875;   20.000;   28.000
843.468;   76.575; -104.000; -132.000
843.718;  -46.425; -718.000; -726.000
843.968;  -93.225; -837.000; -765.000
844.218;   11.825; -315.000; -262.000
844.469;  -37.275; -577.000; -561.000
844.719; -109.350; -537.000; -682.000
844.969;  -93.725; -550.000; -580.000
845.219; -143.975; -814.000; -862.000
845.469;  -91.650; -392.000; -342.000
845.719; -149.625; -792.000; -884.000
845.969;  -18.125;  119.000;  174.000
846.219; -112.650; -738.000; -720.000
846.469;   17.075;  464.000;  432.000
846.718;  -54.850; -115.000;   31.000
846.968; -139.875; -827.000; -827.000
847.218;  -44.600; -224.000; -371.000
847.468; -110.350; -586.000; -555.000
847.718; -145.050; -827.000; -798.000
847.967; -132.325; -826.000; -915.000
848.217; -104.825; -449.000; -569.000
848.467;  -57.800; -405.000; -376.000
848.716; -110.100; -708.000; -725.000
848.966;  -10.525; -372.000; -358.000
849.215;  -68.675; -428.000; -419.000
849.465; -106.150; -785.000; -615.000
849.714; -143.925;-1132.000;-1150.000
849.964;  -57.750; -551.000; -613.000
850.213;  -35.350; -393.000; -355.000
850.463;   71.400;  137.000;  340.000
850.712;   -2.275; -542.000; -567.000
850.961;   16.750; -739.000; -678.000
851.211;   85.125; -513.000; -504.000
851.460;  162.800; -635.000; -650.000
851.709;  554.675;  -25.000;   18.000
851.958; 9937.150; -912.000; -750.000
852.208;12827.000; -859.000; -879.000
852.457;  483.725; -181.000;  -13.000
852.706;   49.300; -791.000; -823.000
852.955;   19.600; -507.000; -528.000
853.204;  -78.900; -521.000; -461.000
853.453;  -69.125; -418.000; -458.000
853.702; -137.050; -660.000; -750.000
853.951; -103.100; -532.000; -520.000
854.200; -127.600; -613.000; -562.000
854.449; -136.250; -695.000; -661.000
854.698; -119.450; -340.000; -279.000
854.946;  -71.400; -181.000; -284.000
855.195; -158.675; -843.000; -868.000
855.444;  -98.675; -395.000; -420.000
855.693; -127.625; -345.000; -432.000
855.941; -106.675; -387.000; -516.000
856.190;  -65.700; -256.000; -382.000
856.439; -140.450; -652.000; -703.000
856.687;  -63.300;  -99.000;  -72.000
856.936; -127.175; -621.000; -323.000
857.184; -193.700;-1067.000;-1020.000
857.433; -113.275; -423.000; -512.000
857.681; -171.125; -989.000; -953.000
857.930;  -79.100; -282.000; -433.000
858.178; -176.425; -856.000; -929.000
858.427; -158.400; -802.000; -781.000
858.675; -118.800; -377.000; -544.000
858.923; -122.475; -527.000; -819.000
859.172; -178.725;-1094.000;-1070.000
859.420;  -91.500; -339.000; -239.000
859.668; -139.650; -624.000; -628.000
859.916;  -24.450;  109.000;  115.000
860.164; -114.225; -699.000; -603.000
860.413;  307.300; -878.000; -696.000
860.661;  241.000; -709.000; -577.000
860.909;  -93.325; -339.000; -325.000
861.157; -101.700; -277.000; -444.000
861.405; -126.050; -534.000; -670.000
861.653;   13.450;  310.000;  310.000
861.901;  187.975; -543.000; -613.000
862.149;    8.500; -801.000; -824.000
862.396;  -80.625; -297.000; -187.000
862.644; -109.325; -368.000; -347.000
862.892;  -40.975;   98.000;  138.000
863.140; -126.175; -549.000; -530.000
863.388; -168.300; -815.000; -759.000
863.635; -129.675; -642.000; -601.000
863.883;   -5.625;  231.000;  190.000
864.131;  -91.675; -288.000; -357.000
864.378; -151.550; -675.000; -540.000
864.626; -111.850; -347.000; -415.000
864.873; -132.750; -556.000; -505.000
865.121; -145.100; -714.000; -799.000
865.368;  -52.825; -173.000;   75.000
865.616;  -47.200;  -33.000;  -40.000
865.863;  -90.250; -462.000; -506.000
866.111; -121.625; -795.000; -824.000
866.358;   27.500; -426.000; -420.000
866.605; 2018.875;  -64.000; -804.000
866.853; 2172.100; -621.000; -537.000
867.100;  -69.850; -728.000; -775.000
867.347;  -97.225; -672.000; -611.000
867.594; -102.075; -740.000; -714.000
867.841;   73.675;   97.000;   17.000
868.089; -156.375; -746.000; -698.000
868.336; -114.875; -477.000; -420.000
868.583; -141.975; -637.000; -741.000
868.830;  -64.425; -131.000; -170.000
869.077; -173.225; -859.000; -787.000
869.324; -135.000; -502.000; -458.000
869.571; -136.750; -398.000; -430.000
869.818; -123.025; -485.000; -439.000
870.065;  -97.750; -439.000; -513.000
870.311; -118.225; -456.000; -542.000
870.558; -110.675; -332.000; -311.000
870.805;  -92.125; -320.000; -384.000
871.052; -117.125; -494.000; -369.000
871.298;  -61.750; -204.000; -131.000
871.545;  -68.775; -151.000; -185.000
871.792;  -98.000; -173.000; -222.000
872.038;  -71.250;   43.000; -126.000
872.285; -123.125; -496.000; -387.000
872.532;  -98.525; -357.000; -387.000
872.778;   -5.100;  556.000;  403.000
873.025;  -90.850; -384.000; -359.000
873.271;    5.375;  501.000;  578.000
873.517;  -47.925; -133.000; -209.000
873.764;  -32.100; -193.000;  -80.000
874.010;  -72.525; -143.000; -230.000
874.257;  -46.650;  123.000;   90.000
874.503; -125.875; -579.000; -479.000
874.749;  -79.375;   31.000;  275.000
874.995;  -92.100;  -80.000;  -20.000
875.242; -144.400; -540.000; -478.000
875.488; -118.325; -414.000; -439.000
875.734;  -65.425; -106.000; -234.000
875.980;  203.925; -872.000;-1032.000
876.226;  400.025; -157.000; -255.000
876.472;  -16.175;  343.000;  237.000
876.718;  -56.575;  184.000;  158.000
876.964;  -46.875;   56.000;   55.000
877.210; -149.325; -547.000; -677.000
877.456; -160.025; -630.000; -557.000
877.702; -180.200; -821.000; -832.000
877.948; -129.200; -377.000; -497.000
878.193;  -13.750;  361.000;  255.000
878.439; -116.350; -487.000; -472.000
878.685; -107.950; -272.000; -343.000
878.931; -149.700; -618.000; -676.000
879.176; -106.300; -201.000; -201.000
879.422; -188.325; -933.000; -820.000
879.668;   23.225;   10.000;   79.000
879.913;  139.400;   53.000;  137.000
880.159;  -43.100; -112.000;  -17.000
880.404;  -67.525; -152.000; -162.000
880.650;  -62.825;   91.000;  141.000
880.895; -161.425; -670.000; -710.000
881.141; -123.025; -454.000; -428.000
881.386; -152.700; -503.000; -658.000
881.631; -104.300; -311.000; -166.000
881.877;  -44.325;  112.000;  -13.000
882.122; -153.800; -684.000; -600.000
882.367;  -93.325; -136.000; -186.000
882.612;  -74.400;  -80.000; -176.000
882.858; -167.575; -877.000; -823.000
883.103;  -92.525; -297.000; -267.000
883.348; -157.800; -759.000; -852.000
883.593; -154.975; -677.000; -602.000
883.838;  -54.875; -311.000;  -24.000
884.083;   28.150;  353.000;  288.000
884.328;  -99.675; -564.000; -545.000
884.573;  -55.850; -196.000; -143.000
884.818;  180.550; -694.000; -531.000
885.063;  202.475; -348.000; -315.000
885.308; -113.825; -475.000; -398.000
885.553;  -17.325;  245.000;  325.000
885.797; -138.925; -545.000; -615.000
886.042;  -62.575;    8.000;   58.000
886.287;  -89.950; -253.000; -211.000
886.532;  -67.350;   26.000;  204.000
886.776; -112.350; -407.000; -525.000
887.021; -139.425; -621.000; -574.000
887.265; -162.375; -685.000; -689.000
887.510; -140.850; -557.000; -496.000
887.755; -102.650; -194.000; -164.000
887.999; -145.175; -552.000; -575.000
888.244;  -58.300;  -58.000;  161.000
888.488;  -30.350;  371.000;  393.000
888.732; -138.075; -368.000; -520.000
888.977; -137.250; -622.000; -567.000
889.221; -164.525; -683.000; -659.000
889.465; -137.100; -422.000; -566.000
889.710;  -82.825;  -56.000; -299.000
889.954;  -15.825;  579.000;  467.000
890.198; -147.825; -584.000; -707.000
890.442; -158.450; -716.000; -712.000
890.687; -169.650; -800.000; -753.000
890.931;  -93.375; -273.000; -210.000
891.175; -139.375; -502.000; -500.000
891.419;  -73.300; -105.000; -110.000
891.663; -103.200; -239.000; -112.000
891.907; -175.375; -801.000; -545.000
892.151; -171.400; -920.000; -815.000
892.395; -127.025; -274.000; -387.000
892.638;  -28.250;  408.000;  291.000
892.882; -182.700; -780.000; -867.000
893.126;   12.900;  758.000;  558.000
893.370; -107.150; -167.000; -168.000
893.614; -153.475; -714.000; -715.000
893.857; -102.950; -183.000; -197.000
894.101; -136.425; -527.000; -631.000
894.345;  -67.850;  300.000;  150.000
894.588;   -0.950;  569.000;  380.000
894.832;  -73.725; -178.000;  -84.000
895.075;  -88.600;   15.000;  -92.000
895.319; -137.550; -552.000; -420.000
895.563; -120.900; -413.000; -353.000
895.806; -148.025; -628.000; -741.000
896.049;  -56.750; -576.000; -368.000
896.293;  102.750;  527.000;  405.000
896.536;  -85.800; -465.000; -468.000
896.779;  -61.000; -149.000;   -1.000
897.023; -146.650; -751.000; -714.000
897.266;  -37.450;  325.000;  269.000
897.509; -179.075; -900.000; -901.000
897.752;  -57.075;  149.000;  171.000
897.996; -204.600; -972.000; -864.000
898.239;  -50.150;  168.000;  102.000
898.482; -127.200; -431.000; -453.000
898.725;  -36.500;  101.000;   53.000
898.968; -162.200; -609.000; -744.000
899.211; -106.050; -513.000; -361.000
899.454; -128.050; -633.000; -539.000
899.697;  -73.125;   90.000;  -43.000
899.940; -169.675; -761.000; -757.000
900.182; -111.600; -335.000; -405.000
900.425;  -94.975; -150.000; -298.000
900.668;  -26.200;  491.000;  350.000
900.911;  -94.650; -292.000; -345.000
901.154;  -68.075;  141.000;   -3.000
901.396; -150.825; -407.000; -412.000
901.639; -145.900; -430.000; -496.000
901.882; -181.850; -790.000; -809.000
902.124;  -97.600;  -29.000; -143.000
902.367; -122.625; -315.000; -361.000
902.609; -135.000; -476.000; -453.000
902.852;  -95.550; -108.000; -260.000
903.094; -136.575; -458.000; -337.000
903.337;  -71.575;  -26.000;   53.000
903.579; -120.825; -228.000; -441.000
903.821; -162.100; -597.000; -744.000
904.064;  -72.250;   85.000;  127.000
904.306;  -90.575; -126.000; -166.000
904.548; -110.500; -152.000; -366.000
904.790; -103.675; -195.000; -340.000
905.033; -139.075; -625.000; -577.000
905.275; -145.700; -513.000; -524.000
905.517;   36.900;  468.000;  256.000
905.759;  -70.775; -667.000; -761.000
906.001;  -94.175; -322.000; -369.000
906.243;  -65.575; -162.000; -224.000
906.485;  117.200; -265.000; -207.000
906.727;  114.300; -499.000; -542.000
906.969;  -31.500;  -30.000; -135.000
907.211;  123.250; -316.000; -382.000
907.453;  291.275; -188.000; -237.000
907.695;    0.800; -158.000; -385.000
907.936;   25.750;  818.000;  706.000
908.178;  -69.725;   92.000; -135.000
908.420;  -68.050; -111.000; -162.000
908.662; -136.500; -633.000; -682.000
908.903;  -95.675; -208.000; -123.000
909.145;  -64.650; -240.000; -305.000
909.386;    7.025;  315.000;  280.000
909.628;   25.825;  363.000;  397.000
909.870;  -10.300;   29.000;  264.000
910.111;  -91.900; -809.000; -949.000
910.353;   -1.200; -123.000; -161.000
910.594;   -9.525; -574.000; -606.000
910.835;   70.525; -265.000; -326.000
911.077;  143.825; -503.000; -604.000
911.318;  281.025; -505.000; -471.000
911.559;  430.650; -577.000; -880.000
911.801; 1305.725; -284.000; -280.000
912.042; 9934.950;  -50.000; -159.000
912.283;26608.025;  404.000;  371.000
912.524; 4250.525; -396.000; -457.000
912.765;  479.025; -193.000;   79.000
913.006;  225.425; -307.000; -338.000
913.247;   50.700; -270.000; -290.000
913.488;  -27.075;  -43.000;   30.000
913.729;  -85.300; -373.000; -373.000
913.970;  -73.775;  -96.000; -292.000
914.211;  -83.900; -160.000; -198.000
914.452;  -68.975; -118.000;  -11.000
914.693;   12.225;  510.000;  592.000
914.934;   -7.675;  510.000;  440.000
915.175;  -69.500;   53.000;  -95.000
915.415;  -97.350; -137.000;   27.000
915.656;  -72.825;  -28.000;  192.000
915.897; -106.000; -252.000;  -82.000
916.137;  -79.825;   74.000;   -9.000
916.378; -134.850; -573.000; -517.000
916.619;  -94.950; -159.000;  -63.000
916.859;  -18.300;  303.000;  330.000
917.100;  120.100; 1655.000; 1070.000
917.340;   58.200;  930.000;  728.000
917.581;   45.475;  965.000;  789.000
917.821;  -50.975; -171.000;  143.000
918.061;   13.025; -199.000;  -72.000
918.302;  -31.975; -152.000; -211.000
918.542;  -24.375;  -22.000;    3.000
918.782;   38.975;  369.000;  377.000
919.023;  129.625;  360.000;  427.000
919.263; 1702.400; 8131.000;  202.000
919.503; 1124.375; -137.000;  -54.000
919.743;  668.450;  390.000;  266.000
919.983;  278.150; -134.000;  -26.000
920.223;   77.000;  135.000;   14.000
920.463;  140.825;  631.000;  554.000
920.703;  118.600;   84.000;   39.000
920.943;  158.100; -110.000;   90.000
921.183;  197.975; -414.000; -405.000
921.423;  496.525;  307.000;  546.000
921.663;  696.450; -174.000; -257.000
921.903; 1525.450;  237.000;  173.000
922.143; 8306.050;  372.000;  389.000
922.383;32355.500;  158.000;  115.000
922.622;11328.175; -120.000;  -15.000
922.862; 1203.225;  796.000;  785.000
923.102;  444.400;  -51.000;   33.000
923.341;  163.325;   59.000;   74.000
923.581;   85.175;  450.000;  360.000
923.821;   20.150;  301.000;  398.000
924.060;   -4.475;  351.000;  193.000
924.300;  -56.700;  -16.000; -128.000
924.539;  -15.300;  584.000;  473.000
924.779;    8.450;  812.000;  597.000
925.018;  -47.450;  247.000;  353.000
925.257;    4.200;  595.000;  666.000
925.497;  -51.300;  447.000;  412.000
925.736;  -70.175;  -35.000;  102.000
925.975;  -13.575;  687.000;  669.000
926.214;   21.750;  907.000;  850.000
926.454;   16.625;  706.000;  757.000
926.693;  -47.375;  419.000;  543.000
926.932;   27.725; 1021.000;  825.000
927.171;   65.375; 1107.000; 1044.000
927.410;   47.150; 1144.000;  967.000
927.649;   26.250;  924.000;  742.000
927.888;  -17.000;  590.000;  564.000
928.127;  -10.575;  680.000;  678.000
928.366;   25.825;  842.000;  826.000
928.605;   23.800;  831.000;  737.000
928.844;  229.575; 1451.000; 1393.000
929.083;  598.250;  770.000;  613.000
929.321;  322.075; 1335.000; 1359.000
929.560;   88.025; 1158.000; 1122.000
929.799;  -35.875;  574.000;  475.000
930.038;   76.975; 1025.000; 1394.000
930.276;  -47.875;  334.000;  397.000
930.515;   -2.450;  827.000;  681.000
930.753;  -23.625;  614.000;  589.000
930.992;  -18.475;  664.000;  717.000
931.230;    0.450;  847.000;  847.000
931.469;  153.950; 2162.000;  892.000
931.707;   74.325;  840.000;  751.000
931.946;   58.350; 1278.000; 1344.000
932.184;   47.850; 1437.000; 1175.000
932.423;   47.550; 1265.000;  963.000
932.661;   80.550; 1296.000; 1428.000
932.899;   26.925;  987.000;  821.000
933.137;   -0.500;  754.000;  564.000
933.376;  132.025; 1664.000; 1335.000
933.614;  141.600; 1759.000; 1196.000
933.852;   42.750; 1357.000; 1171.000
934.090;  121.025; 1722.000; 1747.000
934.328;   89.675; 1252.000; 1457.000
934.566;   76.350; 1431.000; 1110.000
934.804;  132.500; 1263.000; 1309.000
935.042;  413.250; 1861.000; 1850.000
935.280; 1632.200; 2088.000; 2063.000
935.518; 1607.275; 2113.000; 2007.000
935.756;  377.225; 2481.000; 2316.000
935.994;  180.575; 1808.000; 1751.000
936.231;  358.500; 2890.000; 2950.000
936.469;  170.325; 2367.000; 2378.000
936.707;  154.875; 2220.000; 2167.000
936.945;  225.275; 2825.000; 2882.000
937.182;  209.050; 2679.000; 2741.000
937.420;  310.375; 3602.000; 3031.000
937.657;  407.475; 3365.000; 3478.000
937.895;  366.925; 3331.000; 3488.000
938.133;  299.575; 3540.000; 3528.000
938.370;  324.625; 3896.000; 4191.000
938.607;  389.575; 4488.000; 4205.000
938.845;  550.650; 5587.000; 5549.000
939.082;  470.450; 5387.000; 5177.000
939.320;  526.225; 5799.000; 5728.000
939.557;  637.525; 6549.000; 6491.000
939.794;  714.325; 7285.000; 7097.000
940.031;  913.475; 8421.000; 8368.000
940.269; 1127.550; 9552.000; 9107.000
940.506; 1107.550;10901.000;10507.000

