
Integration time [ms]: 100.000
Averaging Nr. [scans]: 40
Smoothing Nr. [pixels]: 0
Data measured with spectrometer [name]: 2101013U2
Wave   ;Sample   ;Dark     ;Reference
[nm]   ;[counts] ;[counts] ;[counts] 

394.013;   67.684; -450.257; -315.536
394.305;  248.632; -461.258; -419.536
394.596; 1078.130; -676.269; -527.514
394.887; 2621.596; -796.268; -654.518
395.178;  997.727;  145.736;   11.476
395.470;  111.513; -210.263; -356.526
395.761;  209.761;  305.734;  394.479
396.052;  366.630; -545.284; -306.489
396.343;  374.850; -557.276; -454.503
396.634;  127.744; -200.279; -290.497
396.926;  151.119; -618.268; -565.517
397.217;  137.604;   11.725;  -17.504
397.508;   52.745; -366.273; -154.507
397.799;   59.369; -555.279; -571.497
398.090;    9.363; -973.280; -902.495
398.381;  136.231;   11.708;  -11.473
398.672;    1.232; -585.292; -742.473
398.963;   62.925; -348.279; -373.498
399.254;  117.341;   54.709; -209.475
399.545;   -2.817;-1017.266; -883.520
399.836;   88.714; -407.277; -343.501
400.127;   70.982; -205.295; -209.468
400.418;   73.540; -423.274; -392.506
400.709;   74.175; -359.281; -333.493
401.000;   51.920; -268.291; -309.476
401.290;  116.544;  225.698;  115.545
401.581;   79.513; -166.286; -228.485
401.872;   35.255; -542.298; -486.462
402.163;   58.825; -313.296; -252.467
402.454;  103.517; -123.291; -163.475
402.744;   87.116; -844.297; -813.465
403.035;  517.022; -226.293;  -86.471
403.326;  659.160; -366.292; -384.474
403.617;  420.274;  204.701;  165.539
403.907;  256.436; -593.283; -679.490
404.198; 2336.949; -545.307; -599.446
404.489; 6116.741; -618.283; -588.491
404.779; 2113.348; -618.302; -660.456
405.070;  253.476;  -67.304; -174.451
405.360;  334.624; -259.293; -238.472
405.651;  365.884;  125.699;   98.542
405.942;  210.109;  209.714;  127.516
406.232;  328.798; -432.285; -413.487
406.523;  551.192;  641.706;  758.530
406.813;  118.986; -579.286; -644.484
407.104;  399.730;  261.708;  144.527
407.394;  227.850; -604.299; -591.462
407.685;  170.047;  336.715;  222.513
407.975;   78.515; -400.283; -382.490
408.265;  129.406; -134.289; -190.478
408.556;   80.439; -472.291; -459.475
408.846;  183.968;  474.706;  429.530
409.137;   87.489;   -1.288; -216.480
409.427;   54.373; -193.285; -271.487
409.717;   42.823; -776.273; -692.508
410.007;  155.666;    4.715; -170.486
410.298;   99.010; -360.295; -342.469
410.588;   73.620; -495.285; -510.486
410.878;   44.825; -792.287; -873.482
411.168;  124.407; -481.298; -478.463
411.459;  119.484; -295.283; -242.489
411.749;   63.212; -609.292; -507.474
412.039;   62.463; -755.289; -386.480
412.329;  207.882;   40.722;  132.501
412.619;  213.961;  -62.286; -148.485
412.909;  383.259;  639.711;  594.521
413.199;  355.688; -130.280; -251.495
413.490;  429.249;  521.710;  352.523
413.780;  149.367;-1013.279; -913.496
414.070;  336.226;  -46.276;  235.497
414.360;  392.828; -729.278; -666.498
414.650;  427.346; -726.288; -688.482
414.940;  520.117; -538.280; -441.496
415.230;  913.368;   50.712;   74.519
415.520; 5949.779;  155.730;   66.486
415.809;23378.850; -305.281; -125.493
416.099;18011.866; -388.277; -229.501
416.389; 4979.587;  435.726;  236.494
416.679; 2923.341;   91.738;   85.473
416.969;  523.330; -527.287; -503.483
417.259;  479.394;  341.721;  171.503
417.549;  680.449;  522.718;  318.508
417.838; 1619.371; -205.268; -147.518
418.128; 5285.080;  650.710;  492.522
418.418; 4395.455; -491.272; -579.509
418.708; 2997.338;    9.726;  -48.506
418.997;11092.408; -474.275; -480.505
419.287;11590.094; -733.273; -790.507
419.577;10870.309; -160.283; -123.489
419.866;36176.839; -588.277; -498.501
420.156;37335.275; -242.270;  -55.513
420.446; 6750.834; -112.263;  -26.526
420.735;  925.519; -376.271; -446.512
421.025;  850.452; 1830.722;  315.502
421.314;  775.117; -203.271; -226.512
421.604; 1710.964;   89.732;  233.484
421.893;  983.164; -705.271; -602.511
422.183;  240.384; -487.263; -461.526
422.472;  401.940;  -36.271; -107.511
422.762;  480.764; -416.266; -379.521
423.051;  283.426; -916.276; -916.503
423.341;  340.546; -491.273; -439.507
423.630;  438.795; -121.265;   15.477
423.919;  395.658;   58.725;   49.495
424.209;  378.090;  -31.263;   56.473
424.498;  488.768;   68.732;  161.483
424.787; 1068.500; -535.267; -601.518
425.077; 3388.243;   34.735;   29.478
425.366; 4967.770; -734.262; -744.528
425.655; 9678.647;  639.727;  259.493
425.945;20275.348; -313.247; -268.554
426.234;11210.868;  117.741;  300.467
426.523; 4884.148;  -86.259; -350.534
426.812; 6798.860;  107.734;  159.480
427.101; 9952.435; -127.269; -323.515
427.390;12735.279;  -55.270;  -86.514
427.680; 3127.167; -624.257; -411.538
427.969;  534.028; -330.255; -301.540
428.258;  339.809; -385.257; -477.536
428.547;  568.159;  449.728;  397.490
428.836; 1432.794; -421.253; -398.543
429.125; 2093.375; -199.259;  -72.534
429.414;  860.317; -330.251; -294.548
429.703; 3046.717; -231.251; -213.548
429.992; 9024.895; -938.250; -828.549
430.281; 5930.302; -397.264; -331.524
430.570;  593.857;  -21.252;   32.454
430.859;  621.672;  279.741;  352.466
431.148;  456.769;  636.752;  631.446
431.437;  300.257;  391.748;  367.454
431.725;  170.061; -544.257; -481.536
432.014;  135.176; -845.253; -756.545
432.303;  412.469; -149.239; -105.569
432.592;  689.809; -460.263; -178.525
432.881; 1034.370; -601.248; -437.554
433.169; 5905.829; -343.255;  -61.540
433.458;12040.803;  445.765;  540.424
433.747; 5119.376; -397.261; -289.529
434.036;  957.470; -275.242; -280.564
434.324; 2066.483; -395.249; -379.551
434.613; 3542.714;   40.757;  159.437
434.902; 1219.660;  333.760;  439.433
435.190;  691.968;   75.761;  295.431
435.479;  377.671;  -52.245;   83.441
435.767;  128.504; -411.244; -427.561
436.056;  241.416; -340.242; -294.563
436.345;  363.112; -372.240; -223.568
436.633;  392.053;   60.750;  383.450
436.922;  285.964;  208.760;  414.432
437.210;  745.718; -194.236;    1.426
437.499; 2401.426; -583.235; -432.576
437.787; 2667.068; -339.236;  -10.574
438.075;  646.099;   56.761;  162.430
438.364;  890.551;  -44.238;  250.429
438.652;  534.580; -286.226; -138.592
438.941;  156.020;    3.770;  269.415
439.229;   18.254; -665.252; -466.545
439.517;   54.584; -160.234;  -85.577
439.806;   -6.654; -501.225; -290.595
440.094;  194.717;  377.766;  650.421
440.382;  237.946; -653.233; -302.580
440.670;  248.276; -361.235; -285.576
440.959;   38.288; -347.223; -170.599
441.247;   90.006; -151.229; -109.587
441.535;  117.208; -266.235;   31.423
441.823;   69.914; -497.234; -305.578
442.111;  207.535;  173.771;  327.412
442.400;  625.320; -628.245; -335.559
442.688; 1701.367; -111.234; -620.579
442.976; 1272.825; -786.213; -450.617
443.264;  126.377; -324.224; -364.597
443.552;  121.031; -258.226;   51.408
443.840;  182.506;  602.765;  876.423
444.128;  118.470;  265.767;  269.420
444.416;    2.163; -694.228; -312.588
444.704;   40.368; -465.219;  -92.605
444.992;   78.259;   -0.226;  240.407
445.280;   56.620; -517.230;  -94.585
445.568;   61.129; -694.212; -396.618
445.856;  406.677; -174.221;  357.398
446.143;  953.164;  -54.220;   -7.604
446.431;  754.491;  -25.228;  625.411
446.719;  274.962;  489.783;  675.391
447.007;  208.140;  481.769;  705.416
447.295;  185.235;  597.777;  871.402
447.583;  111.804; -464.229;  -34.587
447.870;  180.649; -434.221; -202.601
448.158;  470.994; -104.230;  129.415
448.446;  371.865; -800.219; -338.604
448.733;  203.229;   13.776;  269.403
449.021;  288.103;   60.788;  341.382
449.309;  189.793; -296.210;  208.379
449.596;  213.383;  128.783;   59.392
449.884;  163.892; -571.222; -325.600
450.172;  150.297; -756.227; -406.590
450.459;  430.134;  645.786;  780.387
450.747; 2258.406; -411.218; -147.608
451.034; 7181.217;  493.772;  889.411
451.322; 5894.912; -413.214; -170.614
451.609;  510.155;  292.777;  508.403
451.897;  578.881; -550.203; -183.634
452.184; 1724.110; -622.223; -400.598
452.472; 1620.639;   97.792;  269.375
452.759;  370.465;  512.781;  864.395
453.047;  116.351; -407.212; -125.617
453.334;   99.448; -732.219; -216.606
453.621;   99.989; -438.214; -161.615
453.909;  131.648;   13.796;  384.368
454.196;  101.693; -299.199; -123.641
454.483;  238.694;  317.798;  540.364
454.771;  136.367; -215.208;  196.374
455.058;   52.021; -316.207;  102.374
455.345;  111.323;   71.807;  344.347
455.632;   97.174; -128.207;  235.373
455.919;   60.940;  -82.196;  182.354
456.207;  -47.228; -774.198; -450.642
456.494;  -15.344; -475.200;  -66.639
456.781;   16.339; -399.202; -198.635
457.068;   60.480; -253.206;  -29.628
457.355;   -7.393; -698.206; -401.629
457.642;   15.487; -552.205; -290.630
457.929;   14.289; -778.194; -417.651
458.216;   58.951; -575.212; -354.617
458.503;  222.518; -173.193;  -19.652
458.790;  226.240; -864.208; -630.625
459.077;  272.044;  -77.202;  110.364
459.364;  760.757; -350.195; -210.649
459.651; 1615.678;  -46.206;  220.372
459.938;  760.856; -864.209; -665.623
460.225;  177.897;  132.799;  276.363
460.512;  -38.288; -836.197; -688.645
460.799;  112.730;  -32.218;  320.392
461.086;   89.510; -370.200; -251.640
461.372;   60.398; -509.198; -279.642
461.659;  124.991; -165.196;  108.354
461.946;   75.892; -445.193;  -54.651
462.233;  244.733;  842.800;  888.361
462.519;  340.980; -814.201; -464.639
462.806;  986.213; -768.197; -497.645
463.093;  842.112; -445.191;  -66.656
463.380;  -25.297; -920.186; -824.664
463.666;   52.065; -259.197;  -18.646
463.953;  114.177; -406.195; -243.648
464.239;  195.476; -173.195;  -77.648
464.526;  402.312;  413.806;  743.350
464.813;  367.799; -565.190; -304.658
465.099;  367.893;  606.807;  607.348
465.386;  359.947;  903.807;  921.348
465.672;   37.888; -694.197; -522.645
465.959;   36.917; -598.188; -520.662
466.245;   16.847; -468.193; -359.652
466.532;  115.724; -109.195;   63.352
466.818;  101.428; -357.186; -216.664
467.104;   20.793; -488.182; -415.672
467.391;  -11.799; -628.189; -459.658
467.677;   30.507; -289.186;    9.335
467.964;    1.082; -682.189; -471.660
468.250;   69.784; -331.186; -160.665
468.536;   87.902;   90.811;  180.341
468.822;  -26.654; -821.184; -574.668
469.109;  137.248;  351.827;  471.311
469.395;  190.906;  729.808;  787.346
469.681;  182.605;   46.811;  156.341
469.967; 1184.135; -699.188; -382.660
470.254; 2576.467; -494.188; -306.662
470.540; 1643.715; -601.196; -476.646
470.826;  231.104; -488.181; -397.675
471.112;  300.350;  288.816;  113.331
471.398;  103.654; -253.183;  -58.670
471.684;   52.007; -626.177; -447.680
471.970;   -1.217; -918.180; -981.675
472.256;   27.780; -521.192; -441.654
472.542;   21.409; -499.171; -434.691
472.828;   32.814; -743.182; -607.672
473.114;   27.002; -380.166; -283.700
473.400;   17.848; -504.175; -293.684
473.686;   30.483; -452.166; -400.701
473.972;   68.838; -230.174; -131.687
474.258;  -68.302; -925.173; -843.689
474.544;  175.174; -183.178;   -2.679
474.830;  283.450;  -65.175;   45.316
475.116;  453.250; -123.190; -196.658
475.401;  598.235; -558.180; -467.676
475.687;  200.584; -725.180; -718.676
475.973;   10.522; -673.181; -770.673
476.259;  262.027;  736.825;  764.315
476.544;  359.840; -539.176; -437.682
476.830;  744.155; -398.172; -322.690
477.116;  659.814; -430.177; -336.682
477.401;  136.859;  346.820;  358.324
477.687;  -31.151; -289.175; -405.684
477.973;   37.375;   21.819;   28.326
478.258;  -13.921; -448.163; -348.706
478.544;   59.715;   21.815;   61.334
478.829;  -58.536; -818.171; -738.692
479.115;  -30.320; -749.172; -651.690
479.401;   -1.867; -444.174; -449.686
479.686;   27.983; -253.180;  -74.676
479.972;  -23.471; -886.178; -776.680
480.257;   35.328; -258.166;  -65.700
480.542;    4.793; -614.170; -469.693
480.828;  227.947; 1288.824; 1392.317
481.113;  -12.655; -464.176; -426.683
481.399;   -4.073; -236.161; -202.711
481.684;  -44.172; -620.166; -462.700
481.969;   19.165; -158.159;  -73.713
482.255;  -14.971; -439.169; -285.695
482.540;   -7.121; -569.178; -441.680
482.825;   12.098; -395.187; -404.663
483.110;   89.507;  -85.169; -105.696
483.396;  173.937; -840.157; -652.718
483.681;  459.963;  543.826;  730.313
483.966;  136.385; -696.160; -700.712
484.251;   14.862; -404.174; -310.687
484.536;    7.439; -356.165; -378.703
484.822;   14.565; -205.173; -218.687
485.107;  -18.125; -599.152; -502.726
485.392;  131.519;  662.836;  541.296
485.677;   76.467;  354.832;  163.302
485.962;  107.559;  160.843;  270.283
486.247;   88.036;  -14.162;   -8.707
486.532;   40.355; -178.166; -325.701
486.817;  160.972;  381.839;  431.291
487.102;  118.733; -453.154; -514.722
487.387;  633.739; -637.156; -652.718
487.672; 1087.949; -154.164;  -38.705
487.957;  678.854; -394.160; -286.711
488.241;  202.341; -290.150; -314.729
488.526;  679.301; -280.152; -148.726
488.811; 1091.481; -881.177; -818.680
489.096;  846.636; -666.154; -702.723
489.381;  476.422;    3.847;  162.275
489.666;  360.027; -428.161; -510.710
489.950;  172.589;  558.846;  627.277
490.235;  -23.864; -480.151; -458.728
490.520;  -37.399; -756.161; -723.710
490.804;  -53.859; -827.156; -736.719
491.089;   17.732; -469.149; -299.732
491.374;   25.748; -132.164;  -75.704
491.658;    3.718; -817.147; -717.735
491.943;  193.880; -657.152; -609.727
492.227;  276.054; -178.155;  -38.721
492.512;   60.784; -294.157; -341.717
492.797;  -67.749; -713.149; -716.731
493.081;  -48.679; -588.147; -598.735
493.366;  -32.098; -751.161; -635.711
493.650;  206.124;  831.859;  917.254
493.935;   43.443; -648.147; -447.734
494.219;  -34.964; -778.142; -687.743
494.503;  -49.879; -585.150; -487.730
494.788;   39.726;   46.842;   74.285
495.072;  108.893;  184.850;  434.271
495.356;  160.985; -463.148; -343.733
495.641;  483.377; -812.146; -736.736
495.925;  470.046; -976.156; -903.719
496.209;   43.481; -599.149; -451.732
496.494;  -43.638; -763.142; -544.744
496.778;   20.408; -364.154; -360.722
497.062;  -56.530; -819.156; -627.719
497.346;  -41.145; -869.160; -640.711
497.631;  136.489;  580.852;  560.266
497.915;   73.463;  -64.145;  175.261
498.199;   48.112; -341.157; -277.718
498.483;   45.024; -562.152; -508.725
498.767;  178.644;  301.850;  300.271
499.051;  193.429; -126.149; -100.732
499.335;   20.002; -693.149; -739.731
499.619;  -33.951; -381.129; -423.767
499.903;   20.452; -272.155;  -65.721
500.187;   46.615; -588.153; -316.724
500.471;   33.655; -796.152; -595.727
500.755;  111.001;   62.839;  -96.710
501.039;   31.628; -270.155; -357.721
501.323;  103.925;  -21.141;  264.254
501.607;   34.979; -447.163; -503.706
501.891;    0.513; -607.156; -512.718
502.174;  -47.101; -726.144; -585.741
502.458;   89.309;   89.849;  370.273
502.742;   44.899; -180.138; -191.751
503.026;  100.192; -412.147; -254.734
503.310;  161.014; -437.159; -375.713
503.593;  114.744; -464.147; -325.735
503.877;  121.514; -232.133; -156.760
504.161;  199.592;    2.847;  -50.724
504.444;  133.453; -841.158; -710.716
504.728;  430.972; -487.164; -522.704
505.012;  671.516; -257.150;  -76.729
505.295;  515.827; -417.161; -212.711
505.579;  505.295; -256.156; -496.719
505.862;  693.734; -555.145; -333.738
506.146;  685.342; -681.159; -758.714
506.429;  377.092;  568.841;  461.286
506.713;   50.288; -732.151; -667.728
506.996;  307.382;   90.846;  295.278
507.280;  313.542; -633.165; -474.703
507.563;  232.751; -469.155; -261.721
507.847;   81.166; -423.153; -112.724
508.130;   85.728; -665.161; -456.711
508.413;  101.949; -758.167; -577.700
508.697;  230.999; -151.167;   12.300
508.980;  123.692; -422.153; -312.724
509.263;   -4.503; -466.155; -450.720
509.547;   40.265; -124.150;   82.271
509.830;   52.505; -172.160;  140.289
510.113;   91.945;  128.844;  298.281
510.396;   43.073; -530.152; -300.725
510.680;  214.286; -818.145; -812.738
510.963;  772.762;  184.846;  180.277
511.246;  684.248; -493.150; -357.730
511.529;  277.116; -482.145;  -83.739
511.812;  360.236; -250.134;   10.241
512.095;  235.685; -740.151; -396.728
512.378;   69.123; -317.147; -245.736
512.661;   25.207; -703.137; -623.753
512.944;   23.963; -750.142; -637.744
513.227;   79.329; -170.137; -171.752
513.510;   28.449; -479.144; -671.741
513.793;   31.155; -485.140; -435.747
514.076;  139.220;  -43.127;  -39.771
514.359;  114.732; -294.149; -135.732
514.642;   75.516; -442.142; -567.744
514.925;  708.253;  581.860;  561.253
515.208;  910.432; -498.134; -443.758
515.491;  608.521; -276.133; -182.761
515.773;  348.778; -410.143; -337.742
516.056; 1948.813;  249.864;  409.246
516.339; 2658.617; -754.136; -652.755
516.622; 2015.946; -518.150; -488.730
516.904; 1484.260;  882.857;  975.257
517.187;  708.528; -730.138; -523.752
517.470;  406.258; -568.143; -510.743
517.752;  413.420; -624.136; -470.756
518.035;  306.340; -708.139; -725.749
518.318;  356.642; -799.136; -744.755
518.600; 2218.474; -300.132; -325.762
518.883; 3095.190;  310.858;   88.256
519.165; 1481.295; -585.138; -426.751
519.448;  409.749;  -61.132;  -19.762
519.730;  225.002; -573.126; -415.773
520.013;  346.992;  588.867;  664.240
520.295; 1016.737;  -94.134;  -15.759
520.578; 2261.912; -335.131; -305.764
520.860; 2541.874; -254.132;   56.238
521.143; 1288.147; -763.135; -584.756
521.425;  477.490; -251.125; -279.775
521.707;  651.445; -622.127; -380.771
521.990; 1698.795; -199.127;  167.229
522.272; 1881.406; -116.140;   -4.748
522.554;  913.428; -237.143; -157.742
522.836;  423.635;  -24.134;   99.241
523.119;  238.066; -496.148; -189.734
523.401;  147.969; -448.130; -314.766
523.683;   87.157; -865.137; -693.753
523.965;  256.976;  408.862;  260.248
524.247;  260.211;   54.878;  170.220
524.529;  211.137; -451.134; -367.759
524.812;  354.595;   -3.130;  191.234
525.094;  807.750; -773.138; -631.751
525.376; 1258.599; -143.124;   78.223
525.658;  749.464; -441.136; -339.754
525.940;   29.534; -805.131; -671.764
526.222;   45.793; -188.136;  -88.755
526.504;  135.506; -190.131;   32.237
526.786;  245.565; -960.133; -647.760
527.068;  374.604; -124.123;  -67.778
527.349;  175.561; -865.137; -774.754
527.631;  147.424; -137.132;   22.238
527.913;  126.994; -664.127; -450.771
528.195;  160.633; -761.125; -639.774
528.477;  229.607;  -93.134;  -30.758
528.759;  108.795; -648.130; -522.766
529.040;   63.203; -569.123; -293.778
529.322;   56.536; -235.125;  -10.774
529.604;  157.523;  -47.130;   93.233
529.886;  136.602; -546.126; -302.773
530.167;  144.064;  232.870;  192.235
530.449;   51.697;    1.853;   63.265
530.731;   28.560; -572.122; -459.779
531.012;   63.056; -513.120; -216.784
531.294;   59.344; -118.116;  -43.792
531.575;  138.190;  290.875;  538.225
531.857;   52.027; -548.135; -266.757
532.138;   91.199; -113.141;   40.254
532.420;  208.148;  294.865;  403.244
532.701;  266.342; -722.133; -751.760
532.983;  396.870;  232.867;  182.239
533.264;  133.100; -243.126;  175.228
533.546;  -31.208; -491.136; -508.755
533.827;   60.189;  173.867;   -1.759
534.109;   58.977; -352.135;  -80.757
534.390;  108.378; -725.132; -582.762
534.671;  262.598; -270.135;  -82.756
534.953;  155.756; -751.123; -611.779
535.234;   27.254; -426.117; -255.789
535.515;  -90.236; -891.119; -735.785
535.796;  -14.210; -431.128; -193.770
536.078; -107.352;-1050.124; -904.777
536.359;    7.481;  -22.123;    3.221
536.640;  -12.866; -480.125; -197.774
536.921;  161.028;  225.871;  143.232
537.202;  362.797;  -87.138;  -16.751
537.483;  447.061;  251.869;  377.236
537.764;  164.114;   17.870;   98.235
538.045;  -34.244; -543.134; -371.758
538.326;  -36.245; -596.129; -447.768
538.607;   11.121; -686.127; -476.771
538.888;  137.747;   98.879;    5.218
539.169;  184.366; -704.122; -535.781
539.450;  339.102;  236.871;   16.233
539.731;  209.151; -361.121; -182.783
540.012;  130.431;  199.880;  412.216
540.293;   98.543;   82.876;  158.224
540.574;   26.515; -895.113; -717.796
540.855;  457.949;  435.879;  377.218
541.136;  541.164;   47.878;  139.220
541.416;  272.596; -161.130; -220.766
541.697;  185.132; -274.131; -170.763
541.978;  953.675; -270.135; -315.757
542.259; 1242.546; -211.127; -236.771
542.539;  627.313; -191.116; -186.790
542.820;  196.789;  461.875;  480.225
543.101;  151.237;  -52.145;  -77.738
543.381;   40.845; -638.127; -591.771
543.662;  259.193;  159.873; -254.771
543.942;  539.441; -751.127; -830.770
544.223;  983.890;  193.878;  161.219
544.504;  621.548; -275.124; -182.777
544.784;  546.752; -592.126; -408.773
545.065; 1555.467;  104.884; -254.791
545.345; 1854.339;  227.881;   14.215
545.626; 1196.114;  -14.113; -108.796
545.906;  822.239;   77.869;   98.235
546.186;  329.356;   92.874;  -95.773
546.467;  195.301;   99.877;  -95.778
546.747;  309.488;  264.884;  327.210
547.027;  354.222;   91.876;  111.223
547.308;  312.240; -376.127; -530.770
547.588;  400.130;  299.871;  371.232
547.868;  193.740;  458.870;  588.235
548.149;  198.449;  609.885;  593.207
548.429;  121.969; -347.127; -299.771
548.709;  176.580; -645.120; -461.784
548.989;  421.198;   84.882;   88.213
549.269; 1964.372;   10.868;  139.239
549.550; 4461.905;  215.877;  117.222
549.830; 3978.432; -758.111; -556.799
550.110;  791.139; -468.110; -320.801
550.390;  761.910; -128.122;  -56.779
550.670; 1058.385; -868.114; -783.795
550.950;  725.174; -509.121; -471.782
551.230;  182.820;  549.879;  460.218
551.510;   -2.977; -381.121; -326.782
551.790;   28.347; -173.109; -127.803
552.070;  248.751;  940.877; 1181.223
552.350;  366.893; -492.119; -377.786
552.630;  551.743;   -2.121;   77.219
552.909;  316.117;  181.884;   73.209
553.189;  224.229;  -49.132;   33.237
553.469;  158.193; -703.119; -514.786
553.749;  175.472; -469.127; -357.772
554.029;  149.009;   33.883;  -24.790
554.308;  140.378; -154.115;  -37.794
554.588;   47.814; -196.128; -204.770
554.868;   51.374; -366.121;  -47.782
555.147;  134.226; -114.115;  -46.793
555.427;  556.970; -260.116; -250.792
555.707; 3595.299; -284.115; -200.793
555.986; 4351.085; -719.111; -538.800
556.266; 2251.712;   23.884;   72.210
556.546;  101.573; -888.121; -675.782
556.825;  228.583; -657.114; -556.794
557.105; 1667.687; -125.128;   17.230
557.384; 1952.241;  122.884;  187.209
557.664;  732.269; -717.116; -508.792
557.943;   99.024; -557.121; -411.782
558.222;  160.852; -345.118; -344.788
558.502;  269.102; -116.115;  -76.793
558.781;  467.372;  194.885;  499.208
559.061;  374.826; -232.118; -227.788
559.340;  266.206;  302.883;  353.211
559.619;  644.812;   93.884;  148.210
559.899;  922.708; -239.117; -266.789
560.178;  862.551; -778.115; -593.793
560.457; 2893.510; -623.117; -562.790
560.736; 4008.786; -472.111; -482.800
561.015; 2708.460; -500.128; -502.769
561.295;  366.467;  180.893;  215.193
561.574;  338.724;  119.885;  116.207
561.853;  475.326;  274.891;  303.197
562.132;  450.404;  -45.114;  182.206
562.411;  408.443;  396.879;  553.219
562.690;  111.147; -592.115; -458.792
562.969;  121.046;  472.888;  630.203
563.248;  503.141; 2966.878; 2487.219
563.527;  257.261; -290.111; -408.800
563.806;  340.169; -650.127; -521.771
564.085;  382.657; -297.105; -206.810
564.364;  204.986; -594.117; -405.790
564.643;  454.969; -276.121; -223.781
564.922; 1721.670;  221.890;  397.198
565.201; 1704.274; -640.109; -700.803
565.479;  737.446; -297.115; -219.792
565.758;  299.537; -810.128; -712.770
566.037;  433.050; -155.109; -100.803
566.316;  213.617; -286.116;  -28.791
566.595;   55.124;  -17.115;  -12.793
566.873;   83.763; -166.111;  -79.801
567.152;  -67.679; -490.113; -590.797
567.431;    3.913; -113.116;    6.210
567.709;    1.367; -344.107; -212.807
567.988;  218.007; -810.114; -769.794
568.266;  492.074; -160.115;  -68.793
568.545;  352.003; -644.100; -514.819
568.824;  543.545;  160.885;  356.208
569.102;  503.082; -351.114; -235.794
569.381;  196.370; -492.116; -407.792
569.659;  -49.258; -553.113; -553.796
569.938;   39.964; -743.122; -465.780
570.216;   97.027; -225.109; -225.804
570.494;  -28.440; -632.114; -572.795
570.773;   43.547;  202.879;  114.218
571.051;    5.254; -373.123; -357.778
571.330;   58.090; -221.113; -174.796
571.608;   31.596; -181.098; -173.823
571.886;  -67.095; -671.111; -581.799
572.164;  -59.401; -739.121; -621.782
572.443;  -57.640; -562.105; -512.811
572.721;  -30.115; -399.117; -289.790
572.999;  -34.697; -280.117; -168.788
573.277;   91.129;  379.894;  620.191
573.555;  268.831;   94.894;   37.190
573.834; 1237.978;  -86.117; -114.788
574.112; 1408.919;  880.893;  811.193
574.390;  433.912; -143.111;  -96.801
574.668;    9.547;  -91.112;  -61.797
574.946;  -11.594; -165.106; -187.810
575.224;    7.899;   71.891;  -16.803
575.502;  -22.186; -200.116; -204.791
575.780;  -80.252; -767.112; -829.798
576.058;  130.111; 1589.889; 1004.200
576.336;  -23.359; -210.110; -129.801
576.614;  -43.427; -511.112; -340.798
576.891;   47.578; -711.115; -823.794
577.169;  436.335; -158.108; -285.805
577.447;  524.644;  169.893;  202.193
577.725;  263.652;  629.888;  854.201
578.003;   17.125;  -71.112; -371.798
578.280;   99.644; -208.104; -242.812
578.558;   71.377; -450.115; -422.793
578.836;  142.860; -210.114; -145.795
579.114;   51.846; -630.112; -670.797
579.391;   77.180;   -6.117;  -18.789
579.669;  -81.096; -595.114; -704.794
579.947;  167.915; -326.107; -127.806
580.224;  300.565; -692.107; -524.806
580.502;  297.769;  127.893;   76.193
580.779;   25.311;  -42.117;   75.210
581.057;  -72.347; -584.109; -470.804
581.334;  -88.616; -726.102; -695.815
581.612;   39.657;   54.895;  511.190
581.889;  -44.628;  -83.101; -129.818
582.167;  -52.664; -298.099; -190.821
582.444;  -99.158; -845.102; -814.817
582.721;  100.967;  657.899;  715.183
582.999;   35.134; -326.100; -167.821
583.276;  472.333; -812.123; -713.779
583.553;  661.137; -364.102; -294.816
583.831;  207.166; -607.104; -631.812
584.108;   38.083;  349.892;  174.195
584.385;    1.508; -122.102;  -98.815
584.662;  -69.662; -651.111; -828.801
584.940;   42.462;  204.889;  204.199
585.217;  -26.408;  -73.113; -303.796
585.494;   46.896;   71.890;  118.198
585.771;  192.054; -250.109; -354.804
586.048;  475.366; -196.113;  -76.796
586.325;  281.690; -721.110; -773.801
586.602;   75.820;  230.896;  213.188
586.879;  -36.445; -499.100; -580.820
587.156;   45.408; -156.105; -331.810
587.433;  -44.360; -701.102; -667.817
587.710;   65.949;  152.888;  234.202
587.987;  274.238; -264.105; -236.811
588.264;  739.925;  315.888;  387.202
588.541; 1268.547;  -61.104;   26.187
588.818; 2516.031;   72.892;  171.196
589.095; 2167.243; -163.104; -174.812
589.371;  346.902; -459.109; -414.804
589.648;    9.544; -581.107; -437.807
589.925;   30.611; -517.114; -621.795
590.202;    1.198; -741.112; -607.798
590.478;   85.940; -166.105;  -73.811
590.755;  239.237; -241.108; -132.806
591.032; 2276.518; -741.110; -699.802
591.308; 3165.511; -732.094; -790.831
591.585; 1620.017; -573.110; -560.802
591.862;  116.741;-1056.102; -950.817
592.138;   57.759; -475.108; -474.805
592.415;  126.595; -486.104; -495.813
592.691; 1369.393;  460.896;  518.188
592.968; 1750.623; -208.098; -123.824
593.244;  831.488; -695.116; -595.790
593.521;   66.067; -105.102;  -42.817
593.797;  -34.888; -810.122; -720.780
594.074;  301.885; -611.096; -588.826
594.350;  628.121;  828.905;  729.172
594.626;  286.363; -303.111; -283.801
594.903;  107.567; -643.101; -645.817
595.179;  168.149;  243.896;  418.187
595.455;    9.845; -136.107; -150.807
595.731;   -7.099;  -19.103;  -38.814
596.008;  -36.193; -464.111; -434.800
596.284;    6.707; -187.100; -242.820
596.560;   40.092; -501.093; -493.833
596.836;  172.960; -173.105;  -70.810
597.112;  300.085; -582.108; -437.805
597.388;  251.583;  -49.097;  -48.826
597.665;  125.194;  437.887;  530.203
597.941;  -70.529; -572.089; -658.839
598.217;   10.046; -323.110; -293.802
598.493;  233.030;   61.891; -204.804
598.769;  454.577; -175.100;  -50.819
599.045;  281.038; -490.108; -562.806
599.321;   44.756; -193.100; -261.820
599.597;  115.554; -355.109; -476.804
599.872;  447.172;  409.896;  429.187
600.148;  343.485;  -61.097; -172.826
600.424;  275.493;   91.893;  202.193
600.700;  219.270; -170.107; -280.807
600.976;   98.754; -442.097; -464.825
601.252;  224.351; -226.109; -272.803
601.527;  181.773; -833.104; -840.813
601.803;  128.290; -453.105; -404.812
602.079;  162.227; -124.100; -118.819
602.354;  523.202; -620.092; -531.835
602.630;  766.092; -140.113; -482.796
602.906; 2148.872; -910.101; -863.818
603.181; 6150.093; -627.119; -534.786
603.457; 5278.732;   98.903; -278.826
603.733;  764.226; -605.120; -626.783
604.008;  893.457; -245.106; -164.810
604.284; 2865.068; -636.101; -580.817
604.559; 2469.777;   -3.112;  -42.799
604.835;  441.110; -163.105; -225.810
605.110;  369.762; -732.099; -892.821
605.385;  657.020;  224.907;  267.167
605.661;  584.324; -625.095; -729.829
605.936; 1056.438; -664.108; -737.806
606.211;  901.007;  -17.103; -170.815
606.487;  183.156; -329.114; -376.794
606.762;   14.293; -791.119; -745.786
607.037;  -24.865; -501.105; -433.810
607.313;  -67.908; -589.096; -574.828
607.588;  -17.519; -375.106; -137.810
607.863;   30.572;  -28.101; -143.818
608.138;  165.519;  513.890;  516.198
608.413;   22.165; -576.099; -592.822
608.688;   36.060; -203.108; -267.805
608.964;  163.326; -509.106; -218.809
609.239;  233.282; -107.105; -212.810
609.514;  231.590;  281.895;  240.188
609.789;  598.644; -187.104; -716.812
610.064;  820.216; -435.096; -609.827
610.339;  809.652; -855.109; -799.804
610.614; 1061.307; -131.100; -315.820
610.889;  569.115;  215.895;  107.188
611.163;   17.016; -407.104; -591.812
611.438;   79.757;   81.886; -167.794
611.713;   -4.157; -467.101; -499.817
611.988;   38.796; -144.101; -328.818
612.263;  -32.966; -771.102; -717.815
612.538;  198.091;  385.887;  251.204
612.812;  149.483; -832.100; -911.820
613.087;  110.621; -358.098; -338.823
613.362;  -63.505; -497.107; -557.807
613.637;   42.803;  261.897;  138.186
613.911;  -29.898; -256.092; -345.835
614.186;   99.944; -249.107; -292.807
614.460;  602.570; -842.081; -758.854
614.735;  720.819;  -55.087;  -17.843
615.010;  153.609;   43.912;  -82.841
615.284;  233.659;  360.892;  246.195
615.559;  343.101; -792.092; -955.835
615.833;  261.764;  -76.099;  -87.822
616.108;   -9.837; -225.090; -390.837
616.382;  136.921;  274.913;  402.156
616.656;  134.438; -241.090; -232.837
616.931;  449.689; -785.099; -700.822
617.205;  973.723; -973.104; -979.813
617.480;  915.963;  -91.125;    6.225
617.754;  145.610; -396.125; -128.774
618.028;   14.906; -369.129; -382.768
618.302;   54.283;   73.892;  -25.805
618.577;  -60.120; -371.103; -518.815
618.851;  -69.227; -399.109; -600.803
619.125;  -37.538; -335.134; -378.759
619.399;  -35.851; -244.104; -374.813
619.673;  -51.279; -330.115; -515.792
619.947;  -48.315; -333.114; -448.795
620.222;  -27.636; -198.110; -204.801
620.496;   -0.826;  -47.121;  -96.782
620.770;   19.691; -187.122;  -93.781
621.044;  209.033;  323.895;  346.190
621.318;  696.702; -653.120; -614.783
621.592;  606.075; -430.121; -409.783
621.866;  322.053; -476.112; -572.799
622.140;   -0.961; -207.116; -356.791
622.413;   50.532;  138.889;  112.200
622.687;  -61.781; -746.101; -492.817
622.961;   19.583; -130.108; -143.805
623.235;  -66.717; -633.111; -661.800
623.509; -104.460; -816.105; -848.811
623.783;   11.866;  -12.107;   48.193
624.056;  -18.772; -254.120; -280.783
624.330;   44.297;   63.888;   -3.797
624.604;   38.036; -271.116; -355.790
624.877;   66.143;  180.890;   26.198
625.151;   29.930; -249.114; -238.794
625.425;  -37.825; -150.103; -283.814
625.698;  -47.213; -367.119; -374.785
625.972;  -91.854; -799.110; -765.802
626.245;   80.288;  685.884;  484.210
626.519;  -61.593; -426.120; -340.784
626.792;  -47.980; -192.107; -380.807
627.066;  -82.841; -485.122; -662.779
627.339;  -90.808; -736.110; -663.802
627.613;   30.931;  351.880;  148.216
627.886;   56.448;  187.891; -612.803
628.160;  -14.898;  312.880; -161.783
628.433;  -97.835; -695.125; -703.775
628.706;  -73.068; -517.120; -615.784
628.979;   16.122;  296.876;  117.223
629.253; -109.383; -785.119; -833.786
629.526;  320.825; -334.126; -253.772
629.799;  303.154; -641.123; -479.778
630.072;  136.482; -497.128; -516.769
630.346;  -68.987;-1115.116;-1080.790
630.619;  410.596; -467.107; -545.808
630.892;  579.059;  709.889;  593.200
631.165;  313.124;  790.896;  679.187
631.438; -108.200;-1092.112;-1055.798
631.711;   42.182;  453.877;  257.221
631.984;  -69.492; -523.117; -624.789
632.257;  -82.720; -636.117; -681.789
632.530;  -41.362; -412.119; -433.785
632.803;   31.828; -109.115;    7.207
633.076;  -74.949; -360.123; -422.777
633.349;    6.961;  173.872;  121.231
633.622;  -41.114; -187.119; -240.785
633.895; -123.197; -903.120; -823.783
634.167;  -71.548; -496.126; -525.773
634.440;  -10.956;  -19.116; -137.792
634.713;  -17.109;  -22.119; -120.786
634.986;   70.101;  593.871;  453.233
635.258;  -68.499; -507.115; -597.793
635.531;   91.701;  742.882; -343.788
635.804;  -30.543; -303.117; -318.789
636.077;  -92.535; -830.116; -852.791
636.349;  -19.901; -586.115; -474.793
636.622;  371.574; 1695.874; 1392.228
636.894;  214.382; -474.120; -909.784
637.167;  131.568; -836.127; -789.771
637.439;   15.590; -278.128; -213.770
637.712;  -50.749; -312.126; -293.772
637.984;  -90.159; -635.116; -707.791
638.257;  358.226;  515.877;  488.222
638.529;  540.291; -881.125; -924.776
638.802;  226.207; -508.128; -449.769
639.074; -113.335; -927.122; -952.781
639.346; -123.246; -942.135; -930.757
639.619;  -10.086;  -79.142; -319.744
639.891;   -3.166;  -83.122; -168.779
640.163;  -82.389; -689.122; -756.780
640.435;   26.538;  273.878;  103.220
640.708;    3.614;  -72.122; -132.780
640.980;  -39.409; -366.122; -362.781
641.252;  177.693;  -25.121;  -71.781
641.524; 1693.370;  580.879;  573.219
641.796; 1726.897;-1094.121; -907.782
642.068;  296.698; -191.121; -300.782
642.340;  -60.175; -486.121; -566.783
642.613;   39.377;  294.880;  323.217
642.885; -110.796; -787.120; -878.783
643.157;  -54.744; -810.120; -658.784
643.428;   56.732;  170.880;  218.216
643.700;  -81.191; -498.120; -425.784
643.972;  -48.264;  -16.119; -133.785
644.244;  -90.212; -474.119; -559.785
644.516;  -52.810; -250.119; -114.786
644.788;   53.617;  662.881;  548.214
645.060;  -12.957;  -12.119; -124.786
645.332; -109.755; -525.118; -535.787
645.603;   26.597;  479.882;  342.213
645.875;  -73.726; -334.118; -369.787
646.147;  165.626; 1487.882; 1242.212
646.418;  -62.598; -931.117; -918.788
646.690;  120.254; -714.117; -715.789
646.962;   36.931; -413.117; -451.789
647.233;  -13.867;   15.883;   11.211
647.505;  -91.840; -595.117; -475.790
647.776;   23.586;  328.884;  229.210
648.048;  -12.687; -248.116; -418.790
648.320;  -78.560; -752.116; -679.791
648.591; -157.158;-1055.116; -958.791
648.862;  -84.456; -505.116; -577.792
649.134;    9.246;  115.885;  198.208
649.405;  -58.703; -661.115; -618.792
649.677;  -61.876; -475.115; -598.793
649.948;  -21.024; -181.115; -296.793
650.219;    1.728;  -37.115; -147.793
650.491;  -91.420; -431.114; -520.794
650.762; -117.994; -705.114; -731.794
651.033;  -71.742; -437.114; -424.795
651.304;  -91.065; -743.114; -728.795
651.576;  -71.213; -680.114; -645.795
651.847;  -36.986; -250.113; -140.796
652.118;  -26.060;  -32.113; -189.796
652.389; -101.308; -639.113; -722.796
652.660;  -32.206; -147.113;  -89.797
652.931; -135.204; -897.112; -871.797
653.202;  -80.952; -382.112; -541.798
653.473;  -53.751; -633.112; -533.798
653.744;  128.776; -595.112; -590.798
654.015;  120.428; -356.112; -303.799
654.286;  -83.345; -642.111; -663.799
654.557;  -68.943; -586.111; -521.799
654.828; -166.841;-1114.111;-1088.800
655.099;  -78.540; -404.111; -291.800
655.370;  -93.813; -427.111; -543.801
655.641; -116.211; -656.110; -714.801
655.911; -106.584; -618.110; -638.801
656.182;   48.893;  437.890;  387.198
656.453;   79.244;  830.890;  746.198
656.724;  -67.404; -466.110; -426.802
656.994;  -95.477; -553.109; -568.803
657.265; -112.475; -862.109; -873.803
657.536;  -97.923; -500.109; -377.804
657.806;  -98.372; -561.109; -593.804
658.077; -140.595; -866.109; -950.804
658.347;  -90.368; -523.108; -598.805
658.618; -107.716; -646.108; -694.805
658.888;  -25.464;  -41.108;  112.195
659.159;  -87.138; -432.108; -548.806
659.429;  -15.761; -292.108; -349.806
659.700;   12.041; -435.107; -390.807
659.970;  -13.282; -370.107; -359.807
660.241;    3.670; -754.107; -921.807
660.511;  471.822; -147.107; -174.808
660.781;   82.898; -793.106; -748.808
661.052;  -46.000; -222.106; -381.808
661.322;  -19.898;   21.894;   -9.809
661.592;   20.329;  257.894;  148.191
661.862;  -72.619; -369.106; -382.810
662.133;  -97.793; -551.105; -502.810
662.403; -122.616; -770.105; -676.810
662.673;  -53.164; -256.105; -213.811
662.943; -108.137; -612.105; -551.811
663.213;   -3.010;  -85.105;  -81.811
663.483;  -84.034; -593.104; -568.812
663.753;  -45.382; -194.104; -152.812
664.023;  -21.230;   68.896;  -32.813
664.293;  -64.228; -319.104; -126.813
664.563; -103.351; -694.104; -648.813
664.833; -112.850; -743.103; -608.814
665.103; -126.773; -730.103; -793.814
665.373; -119.021; -766.103; -806.814
665.643;  -87.394; -863.103; -918.815
665.913;   24.883; -534.103; -714.815
666.182;  131.585; -685.102; -719.816
666.452;  264.611;  -22.102;  -89.816
666.722;  -22.062; -724.102; -784.816
666.992; -137.235; -948.102; -921.817
667.261;  -98.808; -824.102; -808.817
667.531;  201.769;  134.899;   45.183
667.801;  539.345; -440.101; -412.818
668.070;  246.947;  714.899;  697.182
668.340; -111.276; -883.101; -840.819
668.609;   84.351;  588.900;  301.181
668.879;  -79.972; -490.100; -558.819
669.149;  -94.696; -539.100; -516.820
669.418; -105.444; -698.100; -726.820
669.688;  -36.092; -482.100; -666.820
669.957;   57.610; -423.099; -546.821
670.226;  -20.888; -268.099; -331.821
670.496;  -90.487; -431.099; -635.822
670.765;  -75.210; -418.099; -501.822
671.034; -142.808; -872.099; -828.822
671.304;  -16.156;   55.902; -111.823
671.573; -142.054;-1085.098; -957.823
671.842;   71.523; -380.098; -294.823
672.112;   16.199; -692.098; -586.824
672.381;  -10.574; -239.098; -214.824
672.650; -145.947;-1005.097;-1021.825
672.919;  -87.495; -631.097; -507.825
673.188;  -98.818; -681.097; -878.825
673.457; -142.042;-1101.097;-1143.826
673.726;  -85.065; -579.096; -646.826
673.995;  -49.763; -533.096; -479.826
674.265;  -29.186; -263.096; -333.827
674.534;   -1.959; -183.096; -235.827
674.802;   -1.508; -618.096; -703.828
675.071;  895.269; -886.095; -801.828
675.340; 3612.321; -464.095; -339.828
675.609; 1200.173;  103.905;   82.171
675.878;   55.475; -949.095; -893.829
676.147;   29.201;  -26.095;   -8.829
676.416;   64.478; -210.094; -294.830
676.685;  697.880; 1000.906; -622.830
676.953;   95.907; -603.094; -452.831
677.222;  -34.266; -193.094; -273.831
677.491;  -38.114;  -24.094; -127.831
677.759;   -0.163;   11.907;  172.168
678.028;  -17.311; -279.093; -222.832
678.297;  -11.659;   71.907;  197.168
678.565; -150.382; -898.093; -944.833
678.834;  -56.530; -311.093; -268.833
679.102;  -78.504; -411.092; -391.834
679.371; -139.377; -898.092; -727.834
679.639; -139.675; -797.092; -786.834
679.908; -127.723; -794.092; -724.835
680.176; -157.796; -895.091; -941.835
680.445;  -68.970; -346.091; -352.835
680.713;  -26.093;  -58.091;  -23.836
680.982;  -97.366; -523.091; -525.836
681.250; -105.114; -578.091; -507.837
681.518; -106.287; -534.090; -751.837
681.787;  -25.585; -204.090; -167.837
682.055;  -66.084; -490.090; -422.838
682.323; -153.182; -993.090; -992.838
682.591;   16.245; -216.090; -538.838
682.859;   78.422;    9.911;  -35.839
683.128;   20.549;  232.911;  497.161
683.396; -171.525;-1102.089;-1122.840
683.664;  -21.273; -241.089;   21.160
683.932;   -6.771;  144.911;  -76.840
684.200;  -74.844; -576.088; -320.841
684.468;  -26.792;  -73.088; -124.841
684.736;  -32.116; -214.088; -175.841
685.004; -124.514;-1024.088; -982.842
685.272;  -46.687; -880.088; -774.842
685.540;  -77.110; -499.087; -557.843
685.808;  -81.658; -651.087; -682.843
686.076; -107.632; -894.087; -969.843
686.343;  -52.280; -601.087; -815.844
686.611;   20.522; -195.087; -224.844
686.879;  418.299; -530.086; -553.844
687.147; 3102.401; -483.086; -480.845
687.414;  859.928;  -12.086; -169.845
687.682;   -8.621; -658.086; -757.846
687.950;  297.106;  259.915;  263.154
688.217;   -9.892; -792.085; -760.846
688.485;   -9.940; -632.085; -636.847
688.753;  471.962;  -11.085; -102.847
689.020;  143.063; -820.085; -851.847
689.288;  -99.910; -853.084; -787.848
689.555;  -26.308; -195.084; -148.848
689.823;  -46.106; -241.084; -345.849
690.090;  -81.429; -546.084; -651.849
690.358; -145.153; -877.084; -897.849
690.625;   -4.001;  120.917;   45.150
690.892;  -89.349; -403.083; -369.850
691.160;   -5.097;   72.917;  -35.850
691.427;   -3.970;  141.917;  130.149
691.694; -146.444; -855.083; -929.851
691.962; -153.017;-1177.082;-1060.852
692.229;    5.885;  127.918;   56.148
692.496;   66.162;  130.918;  -49.852
692.763;   14.089; -164.082; -201.853
693.031;  -53.434; -739.082; -716.853
693.298;  -44.833; -509.081; -368.853
693.565;  281.569; -155.081; -163.854
693.832; 1170.571;   -5.081;   -9.854
694.099;  123.323; -643.081; -642.855
694.366;  -54.950; -882.081; -896.855
694.633;  -50.999; -920.080; -633.855
694.900;  739.328; 4367.920; -114.856
695.167;  384.880; -214.080; -380.856
695.434;   94.657; -646.080; -623.856
695.701;  194.784;  121.921;  -61.857
695.968;  435.160; -365.079; -361.857
696.234;  985.662; -415.079; -646.858
696.501;10308.689; -776.079; -614.858
696.768; 5238.391; -554.079; -617.858
697.035;  316.043; -632.078; -667.859
697.302;   32.994; -448.078; -552.859
697.568;    2.746; -458.078; -497.859
697.835;  -51.152; -683.078; -624.860
698.102;  -21.650; -498.078; -407.860
698.368;   74.027;  384.923;  396.139
698.635;  -33.446;  -47.077; -424.861
698.901;  -18.945; -240.077; -348.861
699.168;   48.357; -534.077; -456.862
699.435;   70.609;  -72.077;  -13.862
699.701; -123.139; -868.076; -764.862
699.968;    7.488;  144.924; -441.863
700.234;  -94.211; -783.076; -822.863
700.500;  -46.334; -448.076; -539.864
700.767;    6.618;   -1.075;   26.136
701.033; -129.380;-1015.075; -963.864
701.299;  -53.528; -450.075; -483.865
701.566;  101.948;  950.925;  763.135
701.832;   39.200;  -31.075;  -76.865
702.098; -105.948;-1054.074;-1034.866
702.365;  -93.921;-1098.074;-1030.866
702.631;  -33.069;-1038.074;-1063.867
702.897; 1291.657; -765.074; -676.867
703.163; 2158.059;  348.926;  254.133
703.429;  163.586; -256.073; -273.868
703.695;  -42.587; -796.073; -792.868
703.961;   19.240; -214.073; -210.868
704.227;  -58.008; -630.073; -725.869
704.493;  122.993;  613.927;  510.131
704.759;  -27.330; -565.072; -540.870
705.025;   36.072; -203.072; -194.870
705.291;   -8.276; -666.072; -562.870
705.557;  205.301;  719.928;   34.129
705.823;   35.502; -742.072; -694.871
706.089;  146.629; -307.071; -326.871
706.355;  353.581; -315.071; -244.872
706.620; 5660.833; -776.071; -729.872
706.886; 7891.760; -309.071; -362.873
707.152;  704.761; -818.070; -973.873
707.418;  -19.137;-1153.070;-1186.873
707.683;    0.890; -550.070; -530.874
707.949;  -47.783; -547.070; -578.874
708.215;    6.794; -129.070; -207.874
708.480;  -24.830; -520.069; -420.875
708.746;   93.222;   68.931;   28.125
709.011;  -53.076; -578.069; -612.876
709.277;  -59.874; -538.069; -543.876
709.542;  -55.447; -428.069; -387.876
709.808;   -4.895;  -59.068;   89.123
710.073;  -91.044; -577.068; -695.877
710.339;  -24.942; -242.068; -228.877
710.604;   54.585; -780.068; -845.878
710.869;  309.262; -277.068; -366.878
711.135;  -71.611; -715.067; -628.879
711.400;  -81.435; -507.067; -608.879
711.665;  -54.808; -404.067; -479.879
711.931;  -88.756; -661.067; -677.880
712.196; -117.154; -876.067; -954.880
712.461;   96.423; -402.066; -490.880
712.726;  115.949; -727.066; -771.881
712.991;  -80.724; -647.066; -664.881
713.256;  -49.347; -350.066; -332.882
713.521;  -51.370; -417.065; -381.882
713.787;  -65.168; -454.065; -472.882
714.052;  -24.916; -214.065; -400.883
714.317;  -98.590;-1045.065; -981.883
714.581; 1038.662; -374.065; -268.883
714.846; 1435.214; -822.064; -888.884
715.111;  127.366;  261.936;  257.116
715.376;  -21.882;  -86.064; -223.885
715.641;  -28.956; -365.064; -367.885
715.906;  282.671;   15.936; -551.885
716.171;  123.273;  221.937;  209.114
716.436;   23.975;  -78.063; -104.886
716.700;  -96.723; -818.063; -692.886
716.965; -117.472; -794.063; -807.887
717.230;  -83.345; -339.063; -392.887
717.494;  -28.068;  -40.062; -134.888
717.759;  -94.016; -784.062; -640.888
718.024;  -11.814;  269.938;  250.112
718.288;   81.012;  685.938;  395.111
718.553; -145.336; -803.062; -977.889
718.817; -134.734; -883.061; -899.889
719.082;  -36.807; -115.061; -125.890
719.346; -138.180;-1000.061; -947.890
719.611;  -43.828; -300.061; -255.891
719.875;  -88.527; -568.060; -537.891
720.140;  -68.200; -453.060; -603.891
720.404;   26.677; -136.060; -249.892
720.668;  761.954; -475.060; -411.892
720.933;  296.656;  146.940;  137.108
721.197; -103.068; -667.059; -600.893
721.461; -123.616; -851.059; -826.893
721.725;  -12.614;  -21.059; -250.894
721.990;  -56.337; -284.059; -204.894
722.254;  -37.535;  -26.059; -108.894
722.518;  -72.034; -286.058; -442.895
722.782; -105.257; -743.058; -594.895
723.046;  121.945;  614.942;  570.105
723.310;   22.047;  374.942;  210.104
723.574; -100.726; -654.058; -614.896
723.838; -106.575; -576.057; -642.897
724.102;  -48.198; -226.057; -239.897
724.366; -141.471;-1032.057; -978.897
724.630;  -97.194; -749.057; -571.898
724.894;  -81.967; -722.057; -514.898
725.158;  -16.815;   38.944; -295.898
725.422;  -52.789; -394.056; -327.899
725.685;  -51.837; -441.056; -349.899
725.949;  -75.210; -566.056; -519.900
726.213;  -67.658; -732.056; -811.900
726.477;  146.894;-1020.055; -933.900
726.740;  133.745; -274.055; -104.901
727.004;  334.022; -384.055; -510.901
727.268; 3332.624; -442.055; -400.901
727.531;  914.901; -961.055; -775.902
727.795;  -29.272; -713.054; -673.902
728.059;  -62.296; -552.054; -557.903
728.322;  -80.469; -841.054; -669.903
728.586;    7.658; -692.054; -701.903
728.849;  -88.815; -695.053; -756.904
729.112; -117.438; -812.053; -912.904
729.376; -117.862; -959.053; -905.904
729.639;  -76.535; -536.053; -536.905
729.903; -117.883; -733.053; -699.905
730.166;  -35.856; -437.052; -399.906
730.429;  -45.804; -317.052; -468.906
730.693;  -75.677; -355.052; -894.906
730.956;  196.124;  810.948;  651.093
731.219;  680.901; -310.052; -103.907
731.482;  108.453;-1003.051; -894.907
731.745;   85.755; -794.051; -935.908
732.009;    4.657;  -30.051;   50.092
732.272;  -95.767; -904.051; -771.909
732.535;  -44.865; -300.051; -310.909
732.798; -150.613;-1083.050;-1166.909
733.061;  -70.086; -430.050; -456.910
733.324;   -4.384;   31.950; -180.910
733.587;   55.192;  290.950;  365.090
733.850;  -72.556; -973.049;-1050.911
734.113;   30.621;   33.951;   32.089
734.376;   -2.602; -328.049; -447.912
734.639;  207.075; 1188.951; 1011.088
734.901;   63.601; -180.049; -402.912
735.164;  471.878; -883.048; -837.913
735.427; 1226.605; -166.048; -355.913
735.690;  113.057; -205.048; -234.913
735.952;  -32.766; -923.048; -925.914
736.215;  -30.264;-1113.048;-1009.914
736.478;   33.687; -771.047; -774.915
736.740;  193.489;   33.953;  129.085
737.003;  628.041; -658.047; -672.915
737.266; 3843.393;  -94.047;   46.084
737.528;  411.920; -682.047; -660.916
737.791;  325.021; -316.046; -327.916
738.053;  786.723;  465.954;  649.083
738.316;10782.100; -162.046; -136.917
738.578; 7652.877; -770.046; -736.918
738.841;  443.904; -382.046; -446.918
739.103;  179.530; -875.045; -777.918
739.365;  483.632;   79.955;  -69.919
739.628;   -4.666; -884.045; -805.919
739.890;  -26.464; -758.045; -710.919
740.152;  -60.987; -692.044; -754.920
740.414;  -10.486; -408.044; -359.920
740.677;  -45.859; -785.044; -634.921
740.939;  -37.982; -587.044; -487.921
741.201;  248.595; -432.044; -572.921
741.463;   23.847; -689.043; -745.922
741.725;   20.274;  -21.043; -199.922
741.987;   41.375;  220.957;  116.078
742.249;  -13.298; -751.043; -859.923
742.511;  202.154; -703.043; -794.923
742.773;   13.581; -546.042; -546.924
743.035;  132.058;  796.958;  533.076
743.297;  -35.591; -963.042;-1013.924
743.559;  726.486; -278.042; -262.925
743.821;   46.713; -735.042; -744.925
744.083;    8.240;  -44.041; -149.925
744.345;  -98.608; -869.041; -892.926
744.607;   38.893;   75.959;  122.074
744.868;  -71.130; -490.041; -554.927
745.130; -118.178; -994.041;-1008.927
745.392;   27.474;   -1.040;  -44.927
745.653;  -16.274; -411.040; -378.928
745.915;  136.127;  896.960;  631.072
746.177;   64.554;   35.960;  -43.928
746.438;  -23.394; -428.040; -543.929
746.700;  -49.617; -947.039; -988.929
746.961;   -2.065; -659.039; -740.930
747.223;  118.387; -190.039;  -74.930
747.484;   64.263; -391.039; -471.930
747.746;  139.765;  -23.038; -106.931
748.007;   87.867; -647.038; -689.931
748.269;  267.969; -468.038; -440.931
748.530;  440.271; -852.038; -638.932
748.791;  246.447; -354.038; -420.932
749.053;  422.474;  286.963;  163.067
749.314;  437.201; -236.037; -169.933
749.575;  474.278; -945.037; -905.933
749.836;  825.030; -217.037;   86.066
750.098; 2338.181;  -60.037;  -21.934
750.359;35413.983;  414.964;  555.066
750.620; 9074.510; -121.036; -220.935
750.881;  992.937; -585.036; -513.935
751.142; 1300.914; -950.036; -938.936
751.403;16419.916; -789.036; -705.936
751.664; 7320.692;-1034.035; -999.936
751.925;  502.194; -175.035; -262.937
752.186;  277.971; -298.035; -278.937
752.447;  117.923; -590.035; -445.937
752.708;   36.625; -532.035; -648.938
752.969;    2.751; -566.034; -576.938
753.230;  -22.072; -777.034; -672.939
753.491;   -0.345; -650.034; -631.939
753.751;   52.182;  109.966;   19.061
754.012;  100.884;  258.967;  181.060
754.273;   55.960; -174.033;  -71.940
754.534;   16.262; -487.033; -580.940
754.794;  -88.086; -926.033; -911.941
755.055;  143.116; 1051.967;  881.059
755.316;  -48.557; -700.032; -566.942
755.576;  -33.956; -606.032; -576.942
755.837;  -58.504; -527.032; -695.942
756.097;  -46.002; -530.032; -564.943
756.358;  -63.300; -725.032; -770.943
756.618;  -46.648; -705.031; -641.943
756.879;    1.754; -254.031; -349.944
757.139; -120.595;-1098.031;-1116.944
757.400;  -60.418; -538.031; -553.945
757.660;  -31.216; -365.031; -401.945
757.920;    0.786; -266.030; -228.945
758.181;  -16.162; -468.030; -351.946
758.441;  -91.036; -870.030; -809.946
758.701;  -18.409; -308.030; -215.946
758.961;  -26.057; -220.030; -278.947
759.222;  -52.505; -574.029; -502.947
759.482;  -84.978; -683.029; -723.948
759.742;  -81.777; -706.029; -547.948
760.002;    4.650;  -83.029; -143.948
760.262;   23.452;   50.972;  182.051
760.522;  -38.421; -498.028; -574.949
760.782;  -49.169; -738.028; -612.949
761.042;  -52.118; -618.028; -573.950
761.302;   59.409;   55.972;  -18.950
761.562;   59.086; -164.027; -154.951
761.822;   90.388; -710.027; -551.951
762.082;  -35.885;-1104.027;-1093.951
762.342;   65.092; -328.027; -403.952
762.601;   60.118; -567.027; -506.952
762.861;  346.095; -281.026; -207.952
763.121;  387.997; -406.026; -411.953
763.381; 7284.774; -499.026; -485.953
763.640; 8133.701; -139.026; -307.954
763.900;  362.552; -242.026; -203.954
764.160;   71.654; -458.025; -491.954
764.419;  -16.744; -726.025; -782.955
764.679;  -78.517; -795.025; -726.955
764.939;  -11.915; -124.025; -210.955
765.198;  -68.689; -608.025; -563.956
765.458;  -78.562; -710.024; -612.956
765.717;  -71.610; -454.024; -590.957
765.976;  -51.858; -428.024; -411.957
766.236;  -78.856; -475.024; -610.957
766.495;   29.195;  260.977;   73.042
766.755;  -98.128;-1090.023; -987.958
767.014;    0.649; -594.023; -665.958
767.273;  -56.699; -373.023; -397.959
767.533;  -53.622; -228.023; -307.959
767.792;  -48.745; -151.022; -188.960
768.051;  -49.269; -228.022; -276.960
768.310;  -82.517; -546.022; -650.960
768.569;   -2.590; -161.022;    4.039
768.828;  -39.638; -285.022; -363.961
769.088; -110.561;-1050.021; -942.961
769.347;  -81.685; -755.021; -599.962
769.606;  -83.158; -876.021; -857.962
769.865; -115.656;-1016.021;-1033.963
770.124;    5.346; -411.021; -336.963
770.383;  -52.952; -778.020; -910.963
770.641;   -0.226; -398.020; -400.964
770.900;  -58.624; -953.020; -846.964
771.159;  -40.947; -851.020; -951.964
771.418;  -28.870; -917.020; -779.965
771.677;  120.932; -224.019; -293.965
771.936;  134.733; -794.019; -865.966
772.194; 2212.960; -465.019; -437.966
772.453;11222.562; -213.019; -391.966
772.712;  777.764;  416.982;  329.033
772.970;  119.141;   32.982;   63.033
773.229;   93.218;  -22.018;  102.033
773.488;  -85.606; -814.018; -770.968
773.746;   56.146;  296.982;  335.032
774.005;   10.648;  190.983;  -22.969
774.263;    9.225;  243.983;  177.031
774.522;  -35.273; -422.017; -548.969
774.780;  -71.172; -484.017; -417.970
775.039;  -99.945; -551.017; -531.970
775.297;  -35.593; -135.016; -351.970
775.555; -111.141; -489.016; -612.971
775.814; -120.039; -618.016; -570.971
776.072; -132.388; -749.016; -740.971
776.330; -101.186; -630.016; -520.972
776.589; -119.109; -703.015; -721.972
776.847; -125.207; -645.015; -624.973
777.105; -165.480;-1016.015;-1032.973
777.363;  -78.654; -459.015; -454.973
777.621; -138.652; -660.015; -717.974
777.879;  -33.725;  -42.014;   32.026
778.138;  -96.298; -554.014; -717.974
778.396; -106.471; -585.014; -526.975
778.654; -163.844;-1015.014; -970.975
778.912;  -73.493; -269.014; -371.976
779.170; -129.141; -880.013; -803.976
779.427; -149.289; -922.013; -897.976
779.685; -133.937; -880.013; -832.977
779.943;  -81.510; -654.013; -593.977
780.201; -162.484; -964.012; -883.978
780.459; -122.057; -651.012; -610.978
780.717;  -93.380; -440.012; -390.978
780.974; -112.953; -449.012; -490.979
781.232;  -79.176; -358.012; -338.979
781.490;  -74.475; -551.011; -472.979
781.747; -105.948; -555.011; -476.980
782.005;   12.129;  462.989;  254.020
782.263; -161.069; -542.011;-1004.981
782.520;  -89.342; -326.011; -501.981
782.778; -176.690;-1013.010;-1051.981
783.035; -158.214; -962.010; -938.982
783.293;  -55.237; -248.010; -206.982
783.550;  -47.010; -134.010; -198.982
783.808; -136.883; -764.010; -776.983
784.065; -155.481; -745.009; -874.983
784.322;  -62.055;   25.991;  -86.984
784.580; -133.003; -915.009; -771.984
784.837;  -98.801; -392.009; -466.984
785.094; -129.149; -783.009; -762.985
785.352;  -90.322; -304.008; -404.985
785.609; -114.621; -934.008; -839.985
785.866;  -90.569; -345.008; -401.986
786.123;  -71.567; -639.008; -583.986
786.380;  -99.140; -665.008; -604.987
786.637;  -49.213; -225.007; -380.987
786.895;  -29.887; -456.007; -543.987
787.152;  -41.385; -135.007; -267.988
787.409;  -43.908; -123.007; -225.988
787.666;  -71.881; -299.006; -378.988
787.923; -112.254; -616.006; -695.989
788.179;  -90.727; -551.006; -584.989
788.436; -105.876; -585.006; -585.990
788.693;  -42.424;  -92.006;  -87.990
788.950;  122.903; -125.005; -112.990
789.207;  208.155; -381.005; -372.991
789.464;  -62.568; -161.005; -301.991
789.720;   -8.917;  150.995;  110.009
789.977; -165.040;-1003.005; -671.992
790.234;  -43.488;   44.996;  -66.992
790.490; -153.411; -884.004;-1031.993
790.747;  -29.509;  -85.004;   22.007
791.004;  -34.758; -426.004; -348.993
791.260;  -73.531; -430.004; -560.994
791.517; -111.904; -843.003; -788.994
791.773;  -52.402; -379.003; -342.994
792.030; -104.600; -596.003; -660.995
792.286; -103.949; -686.003; -636.995
792.543;  -15.197;  -74.002; -159.995
792.799;  -63.845; -584.002; -382.996
793.055; -165.968;-1179.002;-1210.996
793.312;  -94.391; -827.002; -816.997
793.568;  -79.189; -746.002; -599.997
793.824;    4.137; -226.001; -284.997
794.081;    1.639; -447.001; -508.998
794.337;   44.091; -664.001; -561.998
794.593; 1252.818; -319.001; -271.999
794.849; 6480.145; -746.001; -772.999
795.105;  340.646; -270.000; -261.999
795.361;   18.798; -490.000; -457.000
795.617;  -67.500; -875.000; -945.000
795.873;  -57.400; -360.000; -407.000
796.129;  -37.850; -368.000; -306.000
796.385;  -19.100; -124.000; -156.000
796.641;   66.525;  412.000;  550.000
796.897;  -89.200; -666.000; -635.000
797.153;   41.850;  453.000;  357.000
797.409;  -88.575; -785.000; -868.000
797.665;  -79.875; -625.000; -732.000
797.921;  -68.675; -775.000; -762.000
798.176;  -71.350; -744.000; -747.000
798.432;  -55.525; -824.000; -596.000
798.688;  -78.875;-1174.000;-1078.000
798.943;   84.025; -165.000; -147.000
799.199;    2.750;-1005.000; -959.000
799.455;  223.475;  369.000;  316.000
799.710;  132.275; -813.000; -380.000
799.966;  288.800; -162.000; -160.000
800.221;  475.825; -638.000; -721.000
800.477;10398.475; -743.000; -710.000
800.732; 9403.300; -773.000; -800.000
800.988;  634.250;  205.000;  -19.000
801.243; 1831.500; -454.000; -344.000
801.498; 8084.675; -814.000; -739.000
801.754;  467.350; -289.000; -163.000
802.009;  111.875; -257.000; -335.000
802.264;  -60.525; -967.000;-1033.000
802.520;   30.025;  222.000;   -3.000
802.775;  -48.550; -524.000; -359.000
803.030;   43.725;  395.000;  356.000
803.285; -119.775; -840.000; -903.000
803.540;  -65.550; -686.000; -699.000
803.795;  -59.025; -648.000; -583.000
804.051;  -52.975; -279.000; -346.000
804.306;   18.600;  168.000;  128.000
804.561;  125.500;  451.000;  362.000
804.816;  121.375;  714.000;  861.000
805.071;    3.125; -185.000; -280.000
805.325;  176.350; -257.000; -427.000
805.580; -102.125; -841.000; -877.000
805.835;  -20.000; -204.000; -297.000
806.090;  -80.225; -760.000; -676.000
806.345;  -22.600; -344.000; -264.000
806.600;  -28.250; -549.000; -632.000
806.854;  -33.425; -408.000; -538.000
807.109;   -6.650; -493.000; -577.000
807.364;   11.100; -407.000; -328.000
807.618;   -7.850; -415.000; -381.000
807.873;   46.600; -470.000; -494.000
808.128;   91.700; -257.000; -518.000
808.382;  105.175; -224.000; -332.000
808.637;   74.525; -440.000; -511.000
808.891;  160.650; -257.000; -180.000
809.146;   97.625; -902.000; -794.000
809.400;  271.900; -848.000; -923.000
809.654;  328.175; -779.000; -551.000
809.909;  458.700; -841.000; -927.000
810.163; 6227.450; -813.000; -651.000
810.418;16592.200; -940.000; -861.000
810.672; 1042.600; -685.000; -690.000
810.926;  716.100; -993.000; -973.000
811.180; 1374.725; -439.000; -372.000
811.434;31671.325;  240.000;  135.000
811.689;13093.700; -231.000; -365.000
811.943;  649.175; -936.000; -953.000
812.197;  318.925; -893.000; -671.000
812.451;  120.650; -379.000; -514.000
812.705;   -7.975; -809.000; -619.000
812.959;   -4.350; -263.000; -388.000
813.213;  -14.000; -283.000; -209.000
813.467;   62.050;  470.000;  253.000
813.721;  -92.625; -764.000; -792.000
813.975; -114.075; -826.000; -877.000
814.229;   38.250;  430.000;  353.000
814.482;  -72.200; -517.000; -566.000
814.736; -116.475; -766.000; -744.000
814.990; -121.075; -779.000; -872.000
815.244;  -51.850; -228.000; -285.000
815.497;  -99.075; -636.000; -601.000
815.751;  -18.975; -141.000;   82.000
816.005;  -99.375; -470.000; -586.000
816.258;  -71.025; -510.000; -363.000
816.512; -116.800; -693.000; -610.000
816.766;   -3.550;  121.000;  157.000
817.019;   18.075;  148.000;  149.000
817.273; -106.375;-1000.000; -802.000
817.526;  -31.350; -206.000; -173.000
817.779;  -57.525;-1049.000; -960.000
818.033;  -77.900; -693.000; -807.000
818.286; -135.775; -725.000; -792.000
818.540; -100.075; -403.000; -403.000
818.793;  -71.275; -402.000; -489.000
819.046; -112.775; -582.000; -520.000
819.299;  -40.200; -157.000; -166.000
819.553; -134.875; -552.000; -592.000
819.806; -169.275;-1016.000; -838.000
820.059;  -79.175; -334.000; -354.000
820.312;   15.075;  152.000;  185.000
820.565;  -24.975;  110.000;  -27.000
820.818;  -45.525;  -59.000; -173.000
821.071; -176.350;-1041.000; -957.000
821.324;  -94.275; -536.000; -540.000
821.577;  -92.825; -457.000; -483.000
821.830;  -61.975; -270.000; -172.000
822.083; -130.675; -733.000; -288.000
822.336;  -56.500; -261.000; -167.000
822.589; -146.350; -805.000; -688.000
822.842; -140.000; -875.000; -770.000
823.094; -184.250;-1076.000;-1114.000
823.347; -134.475; -925.000; -729.000
823.600;    2.425;  402.000;  187.000
823.853;  -57.850; -311.000; -267.000
824.105;  -69.400; -331.000; -575.000
824.358; -112.350; -617.000; -716.000
824.611;   20.750;  234.000;   40.000
824.863;  -59.700; -612.000; -591.000
825.116;   48.450;  -33.000;   27.000
825.368;   64.225; -366.000; -372.000
825.621;  141.025; -186.000; -240.000
825.873;   80.925; -704.000; -737.000
826.126;  556.900; -669.000; -641.000
826.378;11420.825; -389.000; -505.000
826.630; 2888.925; -890.000; -898.000
826.883;   47.625; -754.000; -693.000
827.135;   50.900; -279.000; -270.000
827.387; -121.650; -893.000; -839.000
827.639;  -41.100;  -86.000;   32.000
827.892; -124.950; -742.000; -582.000
828.144; -136.075; -848.000; -804.000
828.396;  -34.000;  104.000;  -80.000
828.648; -115.900; -440.000; -333.000
828.900; -142.300; -702.000; -795.000
829.152; -127.975; -684.000; -683.000
829.404;  -62.125; -215.000; -267.000
829.656;  -55.175;  321.000;  214.000
829.908;  -12.000;  393.000;  229.000
830.160; -184.550;-1064.000;-1047.000
830.412; -101.925; -481.000; -430.000
830.664; -125.600; -557.000; -665.000
830.916;  -79.050; -268.000; -206.000
831.167; -184.525;-1073.000; -951.000
831.419; -113.350; -623.000; -566.000
831.671; -160.925; -764.000; -809.000
831.923;  -93.375; -311.000; -447.000
832.174;  -78.150; -273.000; -331.000
832.426; -119.200; -493.000; -582.000
832.678; -189.825;-1043.000;-1091.000
832.929; -171.100; -947.000; -935.000
833.181;  -67.825; -575.000; -677.000
833.432;  -55.625;  -59.000; -186.000
833.684;  -23.775;  112.000;  -27.000
833.935; -116.075; -610.000; -566.000
834.187; -128.750; -829.000; -823.000
834.438;  -61.250;  -58.000;  -25.000
834.689;  -67.825; -255.000; -123.000
834.941;  -57.000; -343.000; -244.000
835.192; -106.375; -590.000; -533.000
835.443; -111.850; -419.000; -506.000
835.695;  -21.925;  138.000;  -16.000
835.946;  -83.775; -608.000; -378.000
836.197; -112.450; -599.000; -622.000
836.448;  -82.875; -528.000; -395.000
836.699;  -64.450; -253.000; -341.000
836.950;  -12.725;   72.000;    7.000
837.201; -157.025;-1003.000; -987.000
837.452;  -52.475; -356.000; -170.000
837.703; -124.650; -791.000; -737.000
837.954;  -32.800; -205.000; -365.000
838.205; -101.000;-1029.000;-1008.000
838.456;  165.075; -196.000; -282.000
838.707;  -12.825; -423.000; -519.000
838.958;    7.625; -634.000; -647.000
839.209;  262.025;   18.000;   40.000
839.460;  121.575; -439.000; -201.000
839.710;  160.825; -135.000; -297.000
839.961;  411.950;  730.000;  612.000
840.212;  339.700; -382.000; -497.000
840.462; 1108.575; -328.000; -277.000
840.713;17670.625; -571.000; -536.000
840.964; 7303.000;  -62.000; -143.000
841.214;  477.975; -384.000; -624.000
841.465;  543.875; -214.000; -141.000
841.715;  488.400; -417.000; -380.000
841.966;  632.575; -746.000; -685.000
842.216; 8444.025; -330.000; -431.000
842.466;33053.550; -169.000; -313.000
842.717; 1875.350; -964.000; -952.000
842.967;  303.350; -635.000; -641.000
843.217;  241.775;   20.000;   28.000
843.468;   52.400; -104.000; -132.000
843.718;  -48.325; -718.000; -726.000
843.968;  -91.150; -837.000; -765.000
844.218;    5.925; -315.000; -262.000
844.469;  -56.400; -577.000; -561.000
844.719; -110.100; -537.000; -682.000
844.969;  -97.725; -550.000; -580.000
845.219; -152.450; -814.000; -862.000
845.469;  -95.900; -392.000; -342.000
845.719; -138.575; -792.000; -884.000
845.969;  -18.925;  119.000;  174.000
846.219; -123.975; -738.000; -720.000
846.469;   27.125;  464.000;  432.000
846.718;  -50.250; -115.000;   31.000
846.968; -141.575; -827.000; -827.000
847.218;  -54.700; -224.000; -371.000
847.468;  -10.525; -586.000; -555.000
847.718; -141.750; -827.000; -798.000
847.967; -136.725; -826.000; -915.000
848.217;  -89.425; -449.000; -569.000
848.467;  -72.550; -405.000; -376.000
848.716; -117.475; -708.000; -725.000
848.966;    5.225; -372.000; -358.000
849.215;  -69.775; -428.000; -419.000
849.465;  -94.550; -785.000; -615.000
849.714; -162.925;-1132.000;-1150.000
849.964;  -71.400; -551.000; -613.000
850.213;  -47.600; -393.000; -355.000
850.463;   87.875;  137.000;  340.000
850.712;    3.550; -542.000; -567.000
850.961;   16.725; -739.000; -678.000
851.211;   99.600; -513.000; -504.000
851.460;  150.850; -635.000; -650.000
851.709;  564.025;  -25.000;   18.000
851.958;10129.875; -912.000; -750.000
852.208;12843.825; -859.000; -879.000
852.457;  483.225; -181.000;  -13.000
852.706;   58.825; -791.000; -823.000
852.955;   11.400; -507.000; -528.000
853.204;  -69.025; -521.000; -461.000
853.453;  -89.900; -418.000; -458.000
853.702; -141.600; -660.000; -750.000
853.951; -107.775; -532.000; -520.000
854.200; -123.700; -613.000; -562.000
854.449; -131.175; -695.000; -661.000
854.698; -103.825; -340.000; -279.000
854.946;  -72.550; -181.000; -284.000
855.195; -154.350; -843.000; -868.000
855.444;  -90.250; -395.000; -420.000
855.693; -123.950; -345.000; -432.000
855.941; -118.275; -387.000; -516.000
856.190;  -71.100; -256.000; -382.000
856.439; -137.300; -652.000; -703.000
856.687;  -65.525;  -99.000;  -72.000
856.936; -123.375; -621.000; -323.000
857.184; -195.900;-1067.000;-1020.000
857.433; -105.150; -423.000; -512.000
857.681; -166.425; -989.000; -953.000
857.930;  -72.125; -282.000; -433.000
858.178; -179.100; -856.000; -929.000
858.427; -161.150; -802.000; -781.000
858.675; -129.750; -377.000; -544.000
858.923; -124.650; -527.000; -819.000
859.172; -189.900;-1094.000;-1070.000
859.420; -103.125; -339.000; -239.000
859.668; -133.700; -624.000; -628.000
859.916;  -16.450;  109.000;  115.000
860.164; -121.050; -699.000; -603.000
860.413;  237.525; -878.000; -696.000
860.661;  191.675; -709.000; -577.000
860.909;  -87.750; -339.000; -325.000
861.157; -102.500; -277.000; -444.000
861.405; -132.850; -534.000; -670.000
861.653;   13.650;  310.000;  310.000
861.901;  160.375; -543.000; -613.000
862.149;  -23.550; -801.000; -824.000
862.396;  -94.400; -297.000; -187.000
862.644; -105.000; -368.000; -347.000
862.892;  -39.150;   98.000;  138.000
863.140; -124.050; -549.000; -530.000
863.388; -157.100; -815.000; -759.000
863.635; -142.350; -642.000; -601.000
863.883;   -3.500;  231.000;  190.000
864.131; -103.375; -288.000; -357.000
864.378; -118.575; -675.000; -540.000
864.626; -123.700; -347.000; -415.000
864.873; -124.500; -556.000; -505.000
865.121; -138.450; -714.000; -799.000
865.368;  -52.075; -173.000;   75.000
865.616;  -35.525;  -33.000;  -40.000
865.863;  -76.500; -462.000; -506.000
866.111; -110.675; -795.000; -824.000
866.358;   34.325; -426.000; -420.000
866.605; 2324.875;  -64.000; -804.000
866.853; 2489.600; -621.000; -537.000
867.100;  -32.850; -728.000; -775.000
867.347;  -88.650; -672.000; -611.000
867.594; -103.850; -740.000; -714.000
867.841;   75.075;   97.000;   17.000
868.089; -161.475; -746.000; -698.000
868.336; -111.625; -477.000; -420.000
868.583; -132.800; -637.000; -741.000
868.830;  -50.825; -131.000; -170.000
869.077; -174.350; -859.000; -787.000
869.324; -134.925; -502.000; -458.000
869.571; -124.275; -398.000; -430.000
869.818; -124.150; -485.000; -439.000
870.065; -112.300; -439.000; -513.000
870.311; -123.150; -456.000; -542.000
870.558; -114.275; -332.000; -311.000
870.805;  -90.300; -320.000; -384.000
871.052; -112.625; -494.000; -369.000
871.298;  -60.875; -204.000; -131.000
871.545;  -85.100; -151.000; -185.000
871.792;  -92.275; -173.000; -222.000
872.038;  -72.675;   43.000; -126.000
872.285; -119.500; -496.000; -387.000
872.532; -102.025; -357.000; -387.000
872.778;   -1.750;  556.000;  403.000
873.025; -112.250; -384.000; -359.000
873.271;   29.150;  501.000;  578.000
873.517;  -45.225; -133.000; -209.000
873.764;  -39.600; -193.000;  -80.000
874.010;  -87.425; -143.000; -230.000
874.257;  -49.775;  123.000;   90.000
874.503; -134.625; -579.000; -479.000
874.749;  -73.650;   31.000;  275.000
874.995;  -72.950;  -80.000;  -20.000
875.242; -125.125; -540.000; -478.000
875.488; -119.875; -414.000; -439.000
875.734;  -66.950; -106.000; -234.000
875.980;  147.775; -872.000;-1032.000
876.226;  340.625; -157.000; -255.000
876.472;  -17.275;  343.000;  237.000
876.718;  -37.575;  184.000;  158.000
876.964;  -60.400;   56.000;   55.000
877.210; -155.525; -547.000; -677.000
877.456; -140.300; -630.000; -557.000
877.702; -180.225; -821.000; -832.000
877.948; -113.550; -377.000; -497.000
878.193;    0.500;  361.000;  255.000
878.439; -107.850; -487.000; -472.000
878.685; -109.400; -272.000; -343.000
878.931; -130.525; -618.000; -676.000
879.176;  -94.025; -201.000; -201.000
879.422; -171.425; -933.000; -820.000
879.668;   25.425;   10.000;   79.000
879.913;  113.525;   53.000;  137.000
880.159;  -54.950; -112.000;  -17.000
880.404;  -57.925; -152.000; -162.000
880.650;  -48.975;   91.000;  141.000
880.895; -165.825; -670.000; -710.000
881.141; -130.225; -454.000; -428.000
881.386; -159.000; -503.000; -658.000
881.631;  -83.025; -311.000; -166.000
881.877;  -49.425;  112.000;  -13.000
882.122; -129.725; -684.000; -600.000
882.367;  -98.275; -136.000; -186.000
882.612;  -76.275;  -80.000; -176.000
882.858; -171.725; -877.000; -823.000
883.103; -110.900; -297.000; -267.000
883.348; -157.325; -759.000; -852.000
883.593; -154.775; -677.000; -602.000
883.838;  -65.275; -311.000;  -24.000
884.083;    9.575;  353.000;  288.000
884.328;  -93.075; -564.000; -545.000
884.573;  -52.000; -196.000; -143.000
884.818;  159.425; -694.000; -531.000
885.063;  168.525; -348.000; -315.000
885.308; -113.650; -475.000; -398.000
885.553;  -17.950;  245.000;  325.000
885.797; -136.950; -545.000; -615.000
886.042;  -58.425;    8.000;   58.000
886.287;  -88.075; -253.000; -211.000
886.532;  -56.175;   26.000;  204.000
886.776; -110.025; -407.000; -525.000
887.021; -151.375; -621.000; -574.000
887.265; -155.750; -685.000; -689.000
887.510; -135.400; -557.000; -496.000
887.755;  -96.300; -194.000; -164.000
887.999; -139.625; -552.000; -575.000
888.244;  -75.450;  -58.000;  161.000
888.488;  -22.350;  371.000;  393.000
888.732; -127.750; -368.000; -520.000
888.977; -126.725; -622.000; -567.000
889.221; -172.425; -683.000; -659.000
889.465; -132.975; -422.000; -566.000
889.710;  -82.150;  -56.000; -299.000
889.954;   -0.350;  579.000;  467.000
890.198; -148.300; -584.000; -707.000
890.442; -154.275; -716.000; -712.000
890.687; -168.650; -800.000; -753.000
890.931;  -86.200; -273.000; -210.000
891.175; -135.625; -502.000; -500.000
891.419;  -83.850; -105.000; -110.000
891.663; -100.375; -239.000; -112.000
891.907; -163.150; -801.000; -545.000
892.151; -180.250; -920.000; -815.000
892.395; -112.575; -274.000; -387.000
892.638;  -28.575;  408.000;  291.000
892.882; -174.300; -780.000; -867.000
893.126;    4.625;  758.000;  558.000
893.370;  -93.100; -167.000; -168.000
893.614; -160.900; -714.000; -715.000
893.857;  -99.125; -183.000; -197.000
894.101; -140.175; -527.000; -631.000
894.345;  -64.200;  300.000;  150.000
894.588;   -1.175;  569.000;  380.000
894.832;  -82.300; -178.000;  -84.000
895.075;  -83.475;   15.000;  -92.000
895.319; -135.400; -552.000; -420.000
895.563; -126.125; -413.000; -353.000
895.806; -148.550; -628.000; -741.000
896.049;  -60.350; -576.000; -368.000
896.293;   78.125;  527.000;  405.000
896.536;  -85.150; -465.000; -468.000
896.779;  -70.125; -149.000;   -1.000
897.023; -160.875; -751.000; -714.000
897.266;  -39.300;  325.000;  269.000
897.509; -178.350; -900.000; -901.000
897.752;  -60.775;  149.000;  171.000
897.996; -201.025; -972.000; -864.000
898.239;  -45.575;  168.000;  102.000
898.482; -129.200; -431.000; -453.000
898.725;  -25.750;  101.000;   53.000
898.968; -155.850; -609.000; -744.000
899.211; -113.175; -513.000; -361.000
899.454; -125.525; -633.000; -539.000
899.697;  -79.125;   90.000;  -43.000
899.940; -168.800; -761.000; -757.000
900.182; -102.400; -335.000; -405.000
900.425;  -90.425; -150.000; -298.000
900.668;  -14.800;  491.000;  350.000
900.911; -116.625; -292.000; -345.000
901.154;  -67.050;  141.000;   -3.000
901.396; -133.750; -407.000; -412.000
901.639; -134.725; -430.000; -496.000
901.882; -178.000; -790.000; -809.000
902.124;  -74.500;  -29.000; -143.000
902.367; -120.700; -315.000; -361.000
902.609; -124.075; -476.000; -453.000
902.852; -105.375; -108.000; -260.000
903.094; -141.875; -458.000; -337.000
903.337;  -59.125;  -26.000;   53.000
903.579; -125.600; -228.000; -441.000
903.821; -171.175; -597.000; -744.000
904.064;  -65.950;   85.000;  127.000
904.306;  -91.575; -126.000; -166.000
904.548; -111.200; -152.000; -366.000
904.790; -103.625; -195.000; -340.000
905.033; -132.100; -625.000; -577.000
905.275; -148.925; -513.000; -524.000
905.517;   39.250;  468.000;  256.000
905.759;  -90.900; -667.000; -761.000
906.001;  -99.475; -322.000; -369.000
906.243;  -70.625; -162.000; -224.000
906.485;   84.050; -265.000; -207.000
906.727;   75.550; -499.000; -542.000
906.969;  -40.425;  -30.000; -135.000
907.211;  100.850; -316.000; -382.000
907.453;  252.375; -188.000; -237.000
907.695;  -12.125; -158.000; -385.000
907.936;   38.900;  818.000;  706.000
908.178;  -70.475;   92.000; -135.000
908.420;  -89.700; -111.000; -162.000
908.662; -144.400; -633.000; -682.000
908.903;  -89.300; -208.000; -123.000
909.145;  -75.300; -240.000; -305.000
909.386;    0.150;  315.000;  280.000
909.628;   40.125;  363.000;  397.000
909.870;   -2.050;   29.000;  264.000
910.111; -106.975; -809.000; -949.000
910.353;    2.500; -123.000; -161.000
910.594;    0.425; -574.000; -606.000
910.835;   93.500; -265.000; -326.000
911.077;  128.450; -503.000; -604.000
911.318;  289.125; -505.000; -471.000
911.559;  428.575; -577.000; -880.000
911.801; 1315.825; -284.000; -280.000
912.042;10205.825;  -50.000; -159.000
912.283;26849.075;  404.000;  371.000
912.524; 4178.300; -396.000; -457.000
912.765;  451.050; -193.000;   79.000
913.006;  226.550; -307.000; -338.000
913.247;   46.175; -270.000; -290.000
913.488;    1.500;  -43.000;   30.000
913.729;  -90.950; -373.000; -373.000
913.970;  -82.700;  -96.000; -292.000
914.211;  -93.250; -160.000; -198.000
914.452;  -74.150; -118.000;  -11.000
914.693;    5.425;  510.000;  592.000
914.934;    4.925;  510.000;  440.000
915.175;  -61.075;   53.000;  -95.000
915.415;  -76.925; -137.000;   27.000
915.656;  -70.900;  -28.000;  192.000
915.897; -103.125; -252.000;  -82.000
916.137;  -80.000;   74.000;   -9.000
916.378; -133.900; -573.000; -517.000
916.619;  -85.275; -159.000;  -63.000
916.859;  -35.425;  303.000;  330.000
917.100;  127.600; 1655.000; 1070.000
917.340;   51.150;  930.000;  728.000
917.581;   38.625;  965.000;  789.000
917.821;  -46.025; -171.000;  143.000
918.061;   -2.350; -199.000;  -72.000
918.302;  -72.275; -152.000; -211.000
918.542;  -37.200;  -22.000;    3.000
918.782;   40.250;  369.000;  377.000
919.023;  131.275;  360.000;  427.000
919.263; 1709.625; 8131.000;  202.000
919.503; 1091.775; -137.000;  -54.000
919.743;  588.200;  390.000;  266.000
919.983;  239.050; -134.000;  -26.000
920.223;   67.025;  135.000;   14.000
920.463;  151.650;  631.000;  554.000
920.703;  132.650;   84.000;   39.000
920.943;  166.850; -110.000;   90.000
921.183;  236.200; -414.000; -405.000
921.423;  518.550;  307.000;  546.000
921.663;  720.900; -174.000; -257.000
921.903; 1572.875;  237.000;  173.000
922.143; 8651.575;  372.000;  389.000
922.383;33923.425;  158.000;  115.000
922.622;11752.625; -120.000;  -15.000
922.862; 1247.425;  796.000;  785.000
923.102;  465.675;  -51.000;   33.000
923.341;  174.525;   59.000;   74.000
923.581;   91.550;  450.000;  360.000
923.821;    9.100;  301.000;  398.000
924.060;    3.700;  351.000;  193.000
924.300;  -68.325;  -16.000; -128.000
924.539;  -18.825;  584.000;  473.000
924.779;    9.850;  812.000;  597.000
925.018;  -62.575;  247.000;  353.000
925.257;   -1.100;  595.000;  666.000
925.497;  -57.050;  447.000;  412.000
925.736;  -86.825;  -35.000;  102.000
925.975;   -0.300;  687.000;  669.000
926.214;   25.400;  907.000;  850.000
926.454;   12.850;  706.000;  757.000
926.693;  -33.275;  419.000;  543.000
926.932;   40.800; 1021.000;  825.000
927.171;   65.700; 1107.000; 1044.000
927.410;   55.025; 1144.000;  967.000
927.649;   -1.750;  924.000;  742.000
927.888;  -15.750;  590.000;  564.000
928.127;   -5.825;  680.000;  678.000
928.366;   25.050;  842.000;  826.000
928.605;   43.525;  831.000;  737.000
928.844;  222.625; 1451.000; 1393.000
929.083;  578.150;  770.000;  613.000
929.321;  320.975; 1335.000; 1359.000
929.560;   81.400; 1158.000; 1122.000
929.799;  -36.025;  574.000;  475.000
930.038;   70.325; 1025.000; 1394.000
930.276;  -64.200;  334.000;  397.000
930.515;  -12.200;  827.000;  681.000
930.753;  -33.850;  614.000;  589.000
930.992;  -26.475;  664.000;  717.000
931.230;   -3.600;  847.000;  847.000
931.469;  171.025; 2162.000;  892.000
931.707;   61.975;  840.000;  751.000
931.946;   64.700; 1278.000; 1344.000
932.184;   29.950; 1437.000; 1175.000
932.423;   45.875; 1265.000;  963.000
932.661;   69.250; 1296.000; 1428.000
932.899;   11.025;  987.000;  821.000
933.137;   -1.550;  754.000;  564.000
933.376;  142.225; 1664.000; 1335.000
933.614;  153.400; 1759.000; 1196.000
933.852;   60.250; 1357.000; 1171.000
934.090;  128.350; 1722.000; 1747.000
934.328;  112.475; 1252.000; 1457.000
934.566;   96.950; 1431.000; 1110.000
934.804;  140.300; 1263.000; 1309.000
935.042;  461.475; 1861.000; 1850.000
935.280; 1892.825; 2088.000; 2063.000
935.518; 1791.850; 2113.000; 2007.000
935.756;  392.200; 2481.000; 2316.000
935.994;  157.925; 1808.000; 1751.000
936.231;  338.200; 2890.000; 2950.000
936.469;  189.300; 2367.000; 2378.000
936.707;  166.050; 2220.000; 2167.000
936.945;  224.600; 2825.000; 2882.000
937.182;  210.725; 2679.000; 2741.000
937.420;  291.675; 3602.000; 3031.000
937.657;  391.775; 3365.000; 3478.000
937.895;  335.000; 3331.000; 3488.000
938.133;  307.550; 3540.000; 3528.000
938.370;  333.525; 3896.000; 4191.000
938.607;  398.500; 4488.000; 4205.000
938.845;  542.425; 5587.000; 5549.000
939.082;  490.625; 5387.000; 5177.000
939.320;  532.775; 5799.000; 5728.000
939.557;  618.250; 6549.000; 6491.000
939.794;  718.050; 7285.000; 7097.000
940.031;  899.975; 8421.000; 8368.000
940.269; 1095.000; 9552.000; 9107.000
940.506; 1111.950;10901.000;10507.000

