
Integration time [ms]: 100.000
Averaging Nr. [scans]: 40
Smoothing Nr. [pixels]: 0
Data measured with spectrometer [name]: 2101013U2
Wave   ;Sample   ;Dark     ;Reference
[nm]   ;[counts] ;[counts] ;[counts] 

394.013;   65.330; -450.257; -315.536
394.305;  240.728; -461.258; -419.536
394.596; 1132.548; -676.269; -527.514
394.887; 2726.490; -796.268; -654.518
395.178; 1046.846;  145.736;   11.476
395.470;  104.583; -210.263; -356.526
395.761;  209.080;  305.734;  394.479
396.052;  386.896; -545.284; -306.489
396.343;  406.167; -557.276; -454.503
396.634;  134.835; -200.279; -290.497
396.926;  149.138; -618.268; -565.517
397.217;  130.322;   11.725;  -17.504
397.508;   56.388; -366.273; -154.507
397.799;   49.985; -555.279; -571.497
398.090;   16.404; -973.280; -902.495
398.381;  134.970;   11.708;  -11.473
398.672;    8.646; -585.292; -742.473
398.963;   61.591; -348.279; -373.498
399.254;  109.955;   54.709; -209.475
399.545;   -8.548;-1017.266; -883.520
399.836;   69.206; -407.277; -343.501
400.127;   72.420; -205.295; -209.468
400.418;   59.832; -423.274; -392.506
400.709;   80.291; -359.281; -333.493
401.000;   50.434; -268.291; -309.476
401.290;   98.206;  225.698;  115.545
401.581;   74.978; -166.286; -228.485
401.872;   35.467; -542.298; -486.462
402.163;   71.388; -313.296; -252.467
402.454;   90.431; -123.291; -163.475
402.744;   85.954; -844.297; -813.465
403.035;  484.911; -226.293;  -86.471
403.326;  632.099; -366.292; -384.474
403.617;  418.436;  204.701;  165.539
403.907;  253.227; -593.283; -679.490
404.198; 2428.009; -545.307; -599.446
404.489; 6373.457; -618.283; -588.491
404.779; 2160.059; -618.302; -660.456
405.070;  249.013;  -67.304; -174.451
405.360;  328.963; -259.293; -238.472
405.651;  359.396;  125.699;   98.542
405.942;  195.573;  209.714;  127.516
406.232;  335.563; -432.285; -413.487
406.523;  524.730;  641.706;  758.530
406.813;  111.651; -579.286; -644.484
407.104;  374.368;  261.708;  144.527
407.394;  216.062; -604.299; -591.462
407.685;  165.287;  336.715;  222.513
407.975;   68.955; -400.283; -382.490
408.265;  126.520; -134.289; -190.478
408.556;   89.577; -472.291; -459.475
408.846;  162.781;  474.706;  429.530
409.137;   80.754;   -1.288; -216.480
409.427;   49.263; -193.285; -271.487
409.717;   34.891; -776.273; -692.508
410.007;  140.606;    4.715; -170.486
410.298;   87.398; -360.295; -342.469
410.588;   76.460; -495.285; -510.486
410.878;   31.165; -792.287; -873.482
411.168;  127.344; -481.298; -478.463
411.459;  120.700; -295.283; -242.489
411.749;   67.651; -609.292; -507.474
412.039;   59.952; -755.289; -386.480
412.329;  216.174;   40.722;  132.501
412.619;  208.476;  -62.286; -148.485
412.909;  378.198;  639.711;  594.521
413.199;  362.930; -130.280; -251.495
413.490;  424.338;  521.710;  352.523
413.780;  151.834;-1013.279; -913.496
414.070;  339.068;  -46.276;  235.497
414.360;  390.670; -729.278; -666.498
414.650;  443.111; -726.288; -688.482
414.940;  535.708; -538.280; -441.496
415.230;  954.208;   50.712;   74.519
415.520; 6165.172;  155.730;   66.486
415.809;24400.216; -305.281; -125.493
416.099;18543.008; -388.277; -229.501
416.389; 5133.130;  435.726;  236.494
416.679; 3015.936;   91.738;   85.473
416.969;  528.720; -527.287; -503.483
417.259;  489.336;  341.721;  171.503
417.549;  721.165;  522.718;  318.508
417.838; 1647.890; -205.268; -147.518
418.128; 5489.594;  650.710;  492.522
418.418; 4588.047; -491.272; -579.509
418.708; 3068.580;    9.726;  -48.506
418.997;11712.676; -474.275; -480.505
419.287;12048.962; -733.273; -790.507
419.577;11316.399; -160.283; -123.489
419.866;37801.431; -588.277; -498.501
420.156;38716.743; -242.270;  -55.513
420.446; 6889.754; -112.263;  -26.526
420.735;  906.512; -376.271; -446.512
421.025;  857.919; 1830.722;  315.502
421.314;  739.610; -203.271; -226.512
421.604; 1585.432;   89.732;  233.484
421.893;  924.482; -705.271; -602.511
422.183;  251.429; -487.263; -461.526
422.472;  401.233;  -36.271; -107.511
422.762;  482.033; -416.266; -379.521
423.051;  270.593; -916.276; -916.503
423.341;  344.264; -491.273; -439.507
423.630;  445.789; -121.265;   15.477
423.919;  398.400;   58.725;   49.495
424.209;  393.360;  -31.263;   56.473
424.498;  507.662;   68.732;  161.483
424.787; 1132.719; -535.267; -601.518
425.077; 3449.888;   34.735;   29.478
425.366; 4991.365; -734.262; -744.528
425.655; 9940.789;  639.727;  259.493
425.945;21300.546; -313.247; -268.554
426.234;11664.613;  117.741;  300.467
426.523; 5145.294;  -86.259; -350.534
426.812; 6987.704;  107.734;  159.480
427.101;10280.079; -127.269; -323.515
427.390;13059.797;  -55.270;  -86.514
427.680; 3053.989; -624.257; -411.538
427.969;  494.225; -330.255; -301.540
428.258;  337.405; -385.257; -477.536
428.547;  564.627;  449.728;  397.490
428.836; 1387.216; -421.253; -398.543
429.125; 1973.545; -199.259;  -72.534
429.414;  857.089; -330.251; -294.548
429.703; 3132.664; -231.251; -213.548
429.992; 9382.068; -938.250; -828.549
430.281; 6081.297; -397.264; -331.524
430.570;  589.804;  -21.252;   32.454
430.859;  612.643;  279.741;  352.466
431.148;  447.142;  636.752;  631.446
431.437;  314.354;  391.748;  367.454
431.725;  164.357; -544.257; -481.536
432.014;  140.023; -845.253; -756.545
432.303;  395.319; -149.239; -105.569
432.592;  651.728; -460.263; -178.525
432.881; 1054.618; -601.248; -437.554
433.169; 6157.900; -343.255;  -61.540
433.458;12573.454;  445.765;  540.424
433.747; 5222.771; -397.261; -289.529
434.036;  941.745; -275.242; -280.564
434.324; 2122.755; -395.249; -379.551
434.613; 3698.938;   40.757;  159.437
434.902; 1228.734;  333.760;  439.433
435.190;  629.543;   75.761;  295.431
435.479;  373.820;  -52.245;   83.441
435.767;  112.753; -411.244; -427.561
436.056;  243.065; -340.242; -294.563
436.345;  383.262; -372.240; -223.568
436.633;  401.151;   60.750;  383.450
436.922;  290.414;  208.760;  414.432
437.210;  666.793; -194.236;    1.426
437.499; 2164.202; -583.235; -432.576
437.787; 2386.093; -339.236;  -10.574
438.075;  606.624;   56.761;  162.430
438.364;  833.701;  -44.238;  250.429
438.652;  485.333; -286.226; -138.592
438.941;  140.021;    3.770;  269.415
439.229;    2.152; -665.252; -466.545
439.517;   50.135; -160.234;  -85.577
439.806;   -4.126; -501.225; -290.595
440.094;  191.443;  377.766;  650.421
440.382;  231.547; -653.233; -302.580
440.670;  244.226; -361.235; -285.576
440.959;   47.066; -347.223; -170.599
441.247;   79.433; -151.229; -109.587
441.535;  116.558; -266.235;   31.423
441.823;   54.315; -497.234; -305.578
442.111;  184.662;  173.771;  327.412
442.400;  588.519; -628.245; -335.559
442.688; 1585.367; -111.234; -620.579
442.976; 1156.656; -786.213; -450.617
443.264;  116.230; -324.224; -364.597
443.552;  113.334; -258.226;   51.408
443.840;  176.432;  602.765;  876.423
444.128;  110.321;  265.767;  269.420
444.416;   13.615; -694.228; -312.588
444.704;   19.572; -465.219;  -92.605
444.992;   82.637;   -0.226;  240.407
445.280;   52.622; -517.230;  -94.585
445.568;   48.684; -694.212; -396.618
445.856;  391.005; -174.221;  357.398
446.143;  861.743;  -54.220;   -7.604
446.431;  699.343;  -25.228;  625.411
446.719;  265.516;  489.783;  675.391
447.007;  190.241;  481.769;  705.416
447.295;  173.738;  597.777;  871.402
447.583;   95.505; -464.229;  -34.587
447.870;  153.602; -434.221; -202.601
448.158;  449.546; -104.230;  129.415
448.446;  340.519; -800.219; -338.604
448.733;  179.657;   13.776;  269.403
449.021;  278.109;   60.788;  341.382
449.309;  189.674; -296.210;  208.379
449.596;  227.887;  128.783;   59.392
449.884;  166.620; -571.222; -325.600
450.172;  159.649; -756.227; -406.590
450.459;  439.614;  645.786;  780.387
450.747; 2327.611; -411.218; -147.608
451.034; 7596.920;  493.772;  889.411
451.322; 6135.992; -413.214; -170.614
451.609;  512.933;  292.777;  508.403
451.897;  601.588; -550.203; -183.634
452.184; 1810.739; -622.223; -400.598
452.472; 1691.321;   97.792;  269.375
452.759;  342.194;  512.781;  864.395
453.047;  131.081; -407.212; -125.617
453.334;   75.702; -732.219; -216.606
453.621;   92.544; -438.214; -161.615
453.909;  119.280;   13.796;  384.368
454.196;  115.851; -299.199; -123.641
454.483;  209.226;  317.798;  540.364
454.771;  141.324; -215.208;  196.374
455.058;   52.427; -316.207;  102.374
455.345;  111.482;   71.807;  344.347
455.632;   70.680; -128.207;  235.373
455.919;   41.774;  -82.196;  182.354
456.207;  -54.119; -774.198; -450.642
456.494;  -11.911; -475.200;  -66.639
456.781;   10.197; -399.202; -198.635
457.068;   49.262; -253.206;  -29.628
457.355;   -0.562; -698.206; -401.629
457.642;   -6.856; -552.205; -290.630
457.929;    4.448; -778.194; -417.651
458.216;   69.607; -575.212; -354.617
458.503;  239.003; -173.193;  -19.652
458.790;  227.997; -864.208; -630.625
459.077;  274.352;  -77.202;  110.364
459.364;  802.066; -350.195; -210.649
459.651; 1704.735;  -46.206;  220.372
459.938;  785.987; -864.209; -665.623
460.225;  148.930;  132.799;  276.363
460.512;  -35.429; -836.197; -688.645
460.799;  102.184;  -32.218;  320.392
461.086;   61.743; -370.200; -251.640
461.372;   58.381; -509.198; -279.642
461.659;  122.825; -165.196;  108.354
461.946;   77.126; -445.193;  -54.651
462.233;  251.516;  842.800;  888.361
462.519;  349.513; -814.201; -464.639
462.806; 1017.947; -768.197; -497.645
463.093;  863.522; -445.191;  -66.656
463.380;  -32.261; -920.186; -824.664
463.666;   52.398; -259.197;  -18.646
463.953;   95.836; -406.195; -243.648
464.239;  176.786; -173.195;  -77.648
464.526;  397.896;  413.806;  743.350
464.813;  382.409; -565.190; -304.658
465.099;  365.702;  606.807;  607.348
465.386;  351.331;  903.807;  921.348
465.672;   48.022; -694.197; -522.645
465.959;   23.352; -598.188; -520.662
466.245;   17.431; -468.193; -359.652
466.532;  103.233; -109.195;   63.352
466.818;   79.589; -357.186; -216.664
467.104;    7.605; -488.182; -415.672
467.391;  -28.889; -628.189; -459.658
467.677;   25.818; -289.186;    9.335
467.964;    9.318; -682.189; -471.660
468.250;   81.770; -331.186; -160.665
468.536;   78.662;   90.811;  180.341
468.822;  -40.518; -821.184; -574.668
469.109;  129.512;  351.827;  471.311
469.395;  189.566;  729.808;  787.346
469.681;  198.365;   46.811;  156.341
469.967; 1237.870; -699.188; -382.660
470.254; 2683.428; -494.188; -306.662
470.540; 1705.824; -601.196; -476.646
470.826;  247.816; -488.181; -397.675
471.112;  300.736;  288.816;  113.331
471.398;   92.266; -253.183;  -58.670
471.684;   50.895; -626.177; -447.680
471.970;   -3.530; -918.180; -981.675
472.256;   13.490; -521.192; -441.654
472.542;   28.623; -499.171; -434.691
472.828;   10.676; -743.182; -607.672
473.114;   15.942; -380.166; -283.700
473.400;   33.812; -504.175; -293.684
473.686;   28.199; -452.166; -400.701
473.972;   61.426; -230.174; -131.687
474.258;  -46.113; -925.173; -843.689
474.544;  193.836; -183.178;   -2.679
474.830;  293.013;  -65.175;   45.316
475.116;  476.436; -123.190; -196.658
475.401;  639.122; -558.180; -467.676
475.687;  183.571; -725.180; -718.676
475.973;    9.459; -673.181; -770.673
476.259;  250.991;  736.825;  764.315
476.544;  366.753; -539.176; -437.682
476.830;  804.694; -398.172; -322.690
477.116;  678.302; -430.177; -336.682
477.401;  143.272;  346.820;  358.324
477.687;   -8.938; -289.175; -405.684
477.973;   33.987;   21.819;   28.326
478.258;  -16.756; -448.163; -348.706
478.544;   61.351;   21.815;   61.334
478.829;  -67.097; -818.171; -738.692
479.115;  -43.107; -749.172; -651.690
479.401;  -14.728; -444.174; -449.686
479.686;   49.871; -253.180;  -74.676
479.972;  -44.208; -886.178; -776.680
480.257;   31.269; -258.166;  -65.700
480.542;   11.232; -614.170; -469.693
480.828;  214.235; 1288.824; 1392.317
481.113;  -39.167; -464.176; -426.683
481.399;   -7.182; -236.161; -202.711
481.684;  -55.932; -620.166; -462.700
481.969;   18.682; -158.159;  -73.713
482.255;   -3.057; -439.169; -285.695
482.540;   11.892; -569.178; -441.680
482.825;    8.584; -395.187; -404.663
483.110;   87.097;  -85.169; -105.696
483.396;  191.929; -840.157; -652.718
483.681;  480.052;  543.826;  730.313
483.966;  149.876; -696.160; -700.712
484.251;   11.026; -404.174; -310.687
484.536;    4.254; -356.165; -378.703
484.822;   15.129; -205.173; -218.687
485.107;  -18.532; -599.152; -502.726
485.392;  122.960;  662.836;  541.296
485.677;   62.282;  354.832;  163.302
485.962;   97.901;  160.843;  270.283
486.247;   87.302;  -14.162;   -8.707
486.532;   68.645; -178.166; -325.701
486.817;  165.588;  381.839;  431.291
487.102;  130.151; -453.154; -514.722
487.387;  649.706; -637.156; -652.718
487.672; 1137.890; -154.164;  -38.705
487.957;  696.170; -394.160; -286.711
488.241;  178.810; -290.150; -314.729
488.526;  708.694; -280.152; -148.726
488.811; 1175.694; -881.177; -818.680
489.096;  872.578; -666.154; -702.723
489.381;  484.740;    3.847;  162.275
489.666;  373.218; -428.161; -510.710
489.950;  167.931;  558.846;  627.277
490.235;  -41.145; -480.151; -458.728
490.520;  -37.583; -756.161; -723.710
490.804;  -58.667; -827.156; -736.719
491.089;    1.451; -469.149; -299.732
491.374;   40.439; -132.164;  -75.704
491.658;   -0.513; -817.147; -717.735
491.943;  194.748; -657.152; -609.727
492.227;  275.296; -178.155;  -38.721
492.512;   59.526; -294.157; -341.717
492.797;  -55.630; -713.149; -716.731
493.081;  -56.685; -588.147; -598.735
493.366;  -28.006; -751.161; -635.711
493.650;  198.819;  831.859;  917.254
493.935;   41.412; -648.147; -447.734
494.219;  -35.894; -778.142; -687.743
494.503;  -51.286; -585.150; -487.730
494.788;   28.943;   46.842;   74.285
495.072;   99.936;  184.850;  434.271
495.356;  173.179; -463.148; -343.733
495.641;  475.497; -812.146; -736.736
495.925;  469.088; -976.156; -903.719
496.209;   42.275; -599.149; -451.732
496.494;  -42.818; -763.142; -544.744
496.778;   11.326; -364.154; -360.722
497.062;  -59.163; -819.156; -627.719
497.346;  -34.403; -869.160; -640.711
497.631;  137.483;  580.852;  560.266
497.915;   78.482;  -64.145;  175.261
498.199;   51.029; -341.157; -277.718
498.483;   56.467; -562.152; -508.725
498.767;  174.787;  301.850;  300.271
499.051;  177.323; -126.149; -100.732
499.335;   30.771; -693.149; -739.731
499.619;  -27.353; -381.129; -423.767
499.903;   23.445; -272.155;  -65.721
500.187;   31.133; -588.153; -316.724
500.471;   21.448; -796.152; -595.727
500.755;  122.092;   62.839;  -96.710
501.039;   25.695; -270.155; -357.721
501.323;   98.246;  -21.141;  264.254
501.607;   45.295; -447.163; -503.706
501.891;    1.406; -607.156; -512.718
502.174;  -24.031; -726.144; -585.741
502.458;   67.752;   89.849;  370.273
502.742;   28.270; -180.138; -191.751
503.026;   88.561; -412.147; -254.734
503.310;  163.706; -437.159; -375.713
503.593;  112.413; -464.147; -325.735
503.877;  121.661; -232.133; -156.760
504.161;  191.885;    2.847;  -50.724
504.444;  144.495; -841.158; -710.716
504.728;  463.613; -487.164; -522.704
505.012;  697.359; -257.150;  -76.729
505.295;  544.544; -417.161; -212.711
505.579;  511.237; -256.156; -496.719
505.862;  708.579; -555.145; -333.738
506.146;  706.108; -681.159; -758.714
506.429;  390.834;  568.841;  461.286
506.713;   66.156; -732.151; -667.728
506.996;  316.625;   90.846;  295.278
507.280;  328.258; -633.165; -474.703
507.563;  235.368; -469.155; -261.721
507.847;   80.409; -423.153; -112.724
508.130;   70.494; -665.161; -456.711
508.413;  113.464; -758.167; -577.700
508.697;  245.764; -151.167;   12.300
508.980;  146.385; -422.153; -312.724
509.263;   -5.060; -466.155; -450.720
509.547;   26.084; -124.150;   82.271
509.830;   53.046; -172.160;  140.289
510.113;   73.537;  128.844;  298.281
510.396;   49.716; -530.152; -300.725
510.680;  197.380; -818.145; -812.738
510.963;  700.405;  184.846;  180.277
511.246;  607.467; -493.150; -357.730
511.529;  265.935; -482.145;  -83.739
511.812;  374.458; -250.134;   10.241
512.095;  267.428; -740.151; -396.728
512.378;   53.242; -317.147; -245.736
512.661;   41.453; -703.137; -623.753
512.944;   27.958; -750.142; -637.744
513.227;   64.200; -170.137; -171.752
513.510;   17.044; -479.144; -671.741
513.793;   30.400; -485.140; -435.747
514.076;  133.093;  -43.127;  -39.771
514.359;  110.176; -294.149; -135.732
514.642;   77.786; -442.142; -567.744
514.925;  742.924;  581.860;  561.253
515.208;  965.929; -498.134; -443.758
515.491;  641.693; -276.133; -182.761
515.773;  352.598; -410.143; -337.742
516.056; 2020.559;  249.864;  409.246
516.339; 2782.638; -754.136; -652.755
516.622; 1982.214; -518.150; -488.730
516.904; 1383.880;  882.857;  975.257
517.187;  649.424; -730.138; -523.752
517.470;  392.604; -568.143; -510.743
517.752;  410.991; -624.136; -470.756
518.035;  332.536; -708.139; -725.749
518.318;  383.863; -799.136; -744.755
518.600; 2339.746; -300.132; -325.762
518.883; 3218.061;  310.858;   88.256
519.165; 1538.916; -585.138; -426.751
519.448;  412.096;  -61.132;  -19.762
519.730;  200.476; -573.126; -415.773
520.013;  331.439;  588.867;  664.240
520.295;  945.959;  -94.134;  -15.759
520.578; 2126.959; -335.131; -305.764
520.860; 2354.371; -254.132;   56.238
521.143; 1236.343; -763.135; -584.756
521.425;  482.764; -251.125; -279.775
521.707;  656.193; -622.127; -380.771
521.990; 1738.819; -199.127;  167.229
522.272; 2005.752; -116.140;   -4.748
522.554;  939.848; -237.143; -157.742
522.836;  405.282;  -24.134;   99.241
523.119;  239.010; -496.148; -189.734
523.401;  153.341; -448.130; -314.766
523.683;   93.453; -865.137; -693.753
523.965;  275.522;  408.862;  260.248
524.247;  263.535;   54.878;  170.220
524.529;  196.359; -451.134; -367.759
524.812;  354.068;   -3.130;  191.234
525.094;  836.371; -773.138; -631.751
525.376; 1320.523; -143.124;   78.223
525.658;  798.835; -441.136; -339.754
525.940;   13.456; -805.131; -671.764
526.222;   50.164; -188.136;  -88.755
526.504;  132.154; -190.131;   32.237
526.786;  215.337; -960.133; -647.760
527.068;  355.428; -124.123;  -67.778
527.349;  157.882; -865.137; -774.754
527.631;  134.021; -137.132;   22.238
527.913;  145.692; -664.127; -450.771
528.195;  161.481; -761.125; -639.774
528.477;  233.879;  -93.134;  -30.758
528.759;  118.343; -648.130; -522.766
529.040;   55.477; -569.123; -293.778
529.322;   59.809; -235.125;  -10.774
529.604;  152.820;  -47.130;   93.233
529.886;  156.025; -546.126; -302.773
530.167;  130.662;  232.870;  192.235
530.449;   46.317;    1.853;   63.265
530.731;   28.334; -572.122; -459.779
531.012;   56.405; -513.120; -216.784
531.294;   69.795; -118.116;  -43.792
531.575;  139.614;  290.875;  538.225
531.857;   49.874; -548.135; -266.757
532.138;   89.419; -113.141;   40.254
532.420;  185.045;  294.865;  403.244
532.701;  247.289; -722.133; -751.760
532.983;  370.217;  232.867;  182.239
533.264;  140.373; -243.126;  175.228
533.546;  -47.986; -491.136; -508.755
533.827;   39.786;  173.867;   -1.759
534.109;   50.449; -352.135;  -80.757
534.390;   99.625; -725.132; -582.762
534.671;  252.870; -270.135;  -82.756
534.953;  138.130; -751.123; -611.779
535.234;   23.480; -426.117; -255.789
535.515;  -73.461; -891.119; -735.785
535.796;  -24.112; -431.128; -193.770
536.078; -116.428;-1050.124; -904.777
536.359;    3.856;  -22.123;    3.221
536.640;  -20.317; -480.125; -197.774
536.921;  166.976;  225.871;  143.232
537.202;  367.918;  -87.138;  -16.751
537.483;  461.984;  251.869;  377.236
537.764;  171.237;   17.870;   98.235
538.045;  -45.147; -543.134; -371.758
538.326;  -24.348; -596.129; -447.768
538.607;   13.444; -686.127; -476.771
538.888;  174.471;   98.879;    5.218
539.169;  185.191; -704.122; -535.781
539.450;  324.200;  236.871;   16.233
539.731;  221.225; -361.121; -182.783
540.012;  125.705;  199.880;  412.216
540.293;   92.642;   82.876;  158.224
540.574;   20.716; -895.113; -717.796
540.855;  453.174;  435.879;  377.218
541.136;  542.888;   47.878;  139.220
541.416;  289.669; -161.130; -220.766
541.697;  192.304; -274.131; -170.763
541.978; 1006.397; -270.135; -315.757
542.259; 1298.519; -211.127; -236.771
542.539;  621.914; -191.116; -186.790
542.820;  189.513;  461.875;  480.225
543.101;  139.007;  -52.145;  -77.738
543.381;   36.669; -638.127; -591.771
543.662;  264.966;  159.873; -254.771
543.942;  585.389; -751.127; -830.770
544.223; 1037.465;  193.878;  161.219
544.504;  645.297; -275.124; -182.777
544.784;  570.850; -592.126; -408.773
545.065; 1642.668;  104.884; -254.791
545.345; 1921.514;  227.881;   14.215
545.626; 1263.615;  -14.113; -108.796
545.906;  851.786;   77.869;   98.235
546.186;  367.730;   92.874;  -95.773
546.467;  178.650;   99.877;  -95.778
546.747;  328.239;  264.884;  327.210
547.027;  369.121;   91.876;  111.223
547.308;  315.789; -376.127; -530.770
547.588;  378.503;  299.871;  371.232
547.868;  199.913;  458.870;  588.235
548.149;  191.100;  609.885;  593.207
548.429;  120.942; -347.127; -299.771
548.709;  181.455; -645.120; -461.784
548.989;  470.774;   84.882;   88.213
549.269; 2047.520;   10.868;  139.239
549.550; 4723.654;  215.877;  117.222
549.830; 4213.733; -758.111; -556.799
550.110;  820.841; -468.110; -320.801
550.390;  814.460; -128.122;  -56.779
550.670; 1098.886; -868.114; -783.795
550.950;  780.373; -509.121; -471.782
551.230;  173.220;  549.879;  460.218
551.510;   -5.853; -381.121; -326.782
551.790;   20.574; -173.109; -127.803
552.070;  237.200;  940.877; 1181.223
552.350;  378.818; -492.119; -377.786
552.630;  567.442;   -2.121;   77.219
552.909;  363.793;  181.884;   73.209
553.189;  223.901;  -49.132;   33.237
553.469;  175.468; -703.119; -514.786
553.749;  185.795; -469.127; -357.772
554.029;  148.659;   33.883;  -24.790
554.308;  153.129; -154.115;  -37.794
554.588;   70.787; -196.128; -204.770
554.868;   57.224; -366.121;  -47.782
555.147;  144.576; -114.115;  -46.793
555.427;  560.095; -260.116; -250.792
555.707; 3792.449; -284.115; -200.793
555.986; 4618.962; -719.111; -538.800
556.266; 2391.587;   23.884;   72.210
556.546;   96.922; -888.121; -675.782
556.825;  241.409; -657.114; -556.794
557.105; 1736.935; -125.128;   17.230
557.384; 2060.617;  122.884;  187.209
557.664;  761.945; -717.116; -508.792
557.943;  101.973; -557.121; -411.782
558.222;  170.302; -345.118; -344.788
558.502;  266.828; -116.115;  -76.793
558.781;  481.598;  194.885;  499.208
559.061;  389.877; -232.118; -227.788
559.340;  282.657;  302.883;  353.211
559.619;  669.312;   93.884;  148.210
559.899;  992.608; -239.117; -266.789
560.178;  924.452; -778.115; -593.793
560.457; 3074.535; -623.117; -562.790
560.736; 4323.063; -472.111; -482.800
561.015; 2820.308; -500.128; -502.769
561.295;  373.544;  180.893;  215.193
561.574;  327.975;  119.885;  116.207
561.853;  480.303;  274.891;  303.197
562.132;  476.880;  -45.114;  182.206
562.411;  408.068;  396.879;  553.219
562.690;  126.248; -592.115; -458.792
562.969;  146.072;  472.888;  630.203
563.248;  464.115; 2966.878; 2487.219
563.527;  264.962; -290.111; -408.800
563.806;  359.317; -650.127; -521.771
564.085;  398.235; -297.105; -206.810
564.364;  233.162; -594.117; -405.790
564.643;  481.343; -276.121; -223.781
564.922; 1812.597;  221.890;  397.198
565.201; 1818.801; -640.109; -700.803
565.479;  780.472; -297.115; -219.792
565.758;  321.986; -810.128; -712.770
566.037;  470.452; -155.109; -100.803
566.316;  224.492; -286.116;  -28.791
566.595;   52.750;  -17.115;  -12.793
566.873;   79.914; -166.111;  -79.801
567.152;  -51.978; -490.113; -590.797
567.431;   12.538; -113.116;    6.210
567.709;    5.444; -344.107; -212.807
567.988;  235.858; -810.114; -769.794
568.266;  515.024; -160.115;  -68.793
568.545;  359.057; -644.100; -514.819
568.824;  577.571;  160.885;  356.208
569.102;  524.758; -351.114; -235.794
569.381;  211.120; -492.116; -407.792
569.659;  -56.632; -553.113; -553.796
569.938;   39.088; -743.122; -465.780
570.216;  101.855; -225.109; -225.804
570.494;  -24.263; -632.114; -572.795
570.773;   29.697;  202.879;  114.218
571.051;    8.903; -373.123; -357.778
571.330;   59.866; -221.113; -174.796
571.608;   28.450; -181.098; -173.823
571.886;  -64.043; -671.111; -581.799
572.164;  -62.976; -739.121; -621.782
572.443;  -41.012; -562.105; -512.811
572.721;  -42.290; -399.117; -289.790
572.999;  -23.521; -280.117; -168.788
573.277;   85.507;  379.894;  620.191
573.555;  282.909;   94.894;   37.190
573.834; 1303.853;  -86.117; -114.788
574.112; 1503.697;  880.893;  811.193
574.390;  455.488; -143.111;  -96.801
574.668;   -1.902;  -91.112;  -61.797
574.946;  -22.416; -165.106; -187.810
575.224;    4.751;   71.891;  -16.803
575.502;   -9.785; -200.116; -204.791
575.780;  -71.926; -767.112; -829.798
576.058;  142.013; 1589.889; 1004.200
576.336;  -29.207; -210.110; -129.801
576.614;  -68.225; -511.112; -340.798
576.891;   44.929; -711.115; -823.794
577.169;  456.163; -158.108; -285.805
577.447;  539.771;  169.893;  202.193
577.725;  255.204;  629.888;  854.201
578.003;   -1.648;  -71.112; -371.798
578.280;   79.247; -208.104; -242.812
578.558;   62.778; -450.115; -422.793
578.836;  129.636; -210.114; -145.795
579.114;   45.973; -630.112; -670.797
579.391;   63.780;   -6.117;  -18.789
579.669;  -73.570; -595.114; -704.794
579.947;  156.468; -326.107; -127.806
580.224;  301.293; -692.107; -524.806
580.502;  303.522;  127.893;   76.193
580.779;   23.561;  -42.117;   75.210
581.057;  -77.695; -584.109; -470.804
581.334;  -98.613; -726.102; -695.815
581.612;   22.160;   54.895;  511.190
581.889;  -23.049;  -83.101; -129.818
582.167;  -41.210; -298.099; -190.821
582.444; -102.780; -845.102; -814.817
582.721;   97.346;  657.899;  715.183
582.999;   51.563; -326.100; -167.821
583.276;  498.707; -812.123; -713.779
583.553;  674.141; -364.102; -294.816
583.831;  214.669; -607.104; -631.812
584.108;   41.111;  349.892;  174.195
584.385;    9.387; -122.102;  -98.815
584.662;  -77.935; -651.111; -828.801
584.940;   22.514;  204.889;  204.199
585.217;  -21.407;  -73.113; -303.796
585.494;   27.698;   71.890;  118.198
585.771;  204.681; -250.109; -354.804
586.048;  494.493; -196.113;  -76.796
586.325;  322.442; -721.110; -773.801
586.602;   76.048;  230.896;  213.188
586.879;  -27.116; -499.100; -580.820
587.156;   39.936; -156.105; -331.810
587.433;  -42.582; -701.102; -667.817
587.710;   49.950;  152.888;  234.202
587.987;  305.441; -264.105; -236.811
588.264;  754.477;  315.888;  387.202
588.541; 1308.700;  -61.104;   26.187
588.818; 2645.883;   72.892;  171.196
589.095; 2262.446; -163.104; -174.812
589.371;  364.154; -459.109; -414.804
589.648;    2.397; -581.107; -437.807
589.925;   12.237; -517.114; -621.795
590.202;    3.375; -741.112; -607.798
590.478;   81.118; -166.105;  -73.811
590.755;  232.439; -241.108; -132.806
591.032; 2363.744; -741.110; -699.802
591.308; 3333.816; -732.094; -790.831
591.585; 1689.294; -573.110; -560.802
591.862;  135.395;-1056.102; -950.817
592.138;   44.987; -475.108; -474.805
592.415;  125.824; -486.104; -495.813
592.691; 1421.546;  460.896;  518.188
592.968; 1838.402; -208.098; -123.824
593.244;  873.913; -695.116; -595.790
593.521;   53.795; -105.102;  -42.817
593.797;  -28.164; -810.122; -720.780
594.074;  317.540; -611.096; -588.826
594.350;  639.851;  828.905;  729.172
594.626;  273.490; -303.111; -283.801
594.903;   95.871; -643.101; -645.817
595.179;  191.827;  243.896;  418.187
595.455;   -5.302; -136.107; -150.807
595.731;    6.929;  -19.103;  -38.814
596.008;  -47.616; -464.111; -434.800
596.284;   28.911; -187.100; -242.820
596.560;   36.122; -501.093; -493.833
596.836;  178.863; -173.105;  -70.810
597.112;  314.537; -582.108; -437.805
597.388;  256.188;  -49.097;  -48.826
597.665;  104.470;  437.887;  530.203
597.941;  -62.523; -572.089; -658.839
598.217;   14.123; -323.110; -293.802
598.493;  240.907;   61.891; -204.804
598.769;  481.231; -175.100;  -50.819
599.045;  293.315; -490.108; -562.806
599.321;   37.010; -193.100; -261.820
599.597;  128.257; -355.109; -476.804
599.872;  459.075;  409.896;  429.187
600.148;  340.539;  -61.097; -172.826
600.424;  275.295;   91.893;  202.193
600.700;  245.398; -170.107; -280.807
600.976;  107.909; -442.097; -464.825
601.252;  233.828; -226.109; -272.803
601.527;  189.651; -833.104; -840.813
601.803;  131.693; -453.105; -404.812
602.079;  180.831; -124.100; -118.819
602.354;  539.432; -620.092; -531.835
602.630;  787.943; -140.113; -482.796
602.906; 2176.626; -910.101; -863.818
603.181; 6502.043; -627.119; -534.786
603.457; 5586.387;   98.903; -278.826
603.733;  803.651; -605.120; -626.783
604.008;  906.735; -245.106; -164.810
604.284; 2949.597; -636.101; -580.817
604.559; 2543.054;   -3.112;  -42.799
604.835;  455.462; -163.105; -225.810
605.110;  389.291; -732.099; -892.821
605.385;  671.500;  224.907;  267.167
605.661;  608.754; -625.095; -729.829
605.936; 1117.466; -664.108; -737.806
606.211;  946.936;  -17.103; -170.815
606.487;  195.707; -329.114; -376.794
606.762;   13.243; -791.119; -745.786
607.037;  -29.912; -501.105; -433.810
607.313;  -53.503; -589.096; -574.828
607.588;   -9.966; -375.106; -137.810
607.863;   33.700;  -28.101; -143.818
608.138;  167.896;  513.890;  516.198
608.413;    9.845; -576.099; -592.822
608.688;   42.612; -203.108; -267.805
608.964;  177.053; -509.106; -218.809
609.239;  218.710; -107.105; -212.810
609.514;  237.868;  281.895;  240.188
609.789;  650.822; -187.104; -716.812
610.064;  840.571; -435.096; -609.827
610.339;  837.129; -855.109; -799.804
610.614; 1147.786; -131.100; -315.820
610.889;  628.043;  215.895;  107.188
611.163;   26.694; -407.104; -591.812
611.438;   76.558;   81.886; -167.794
611.713;    1.497; -467.101; -499.817
611.988;   40.949; -144.101; -328.818
612.263;  -31.338; -771.102; -717.815
612.538;  204.317;  385.887;  251.204
612.812;  150.437; -832.100; -911.820
613.087;  114.350; -358.098; -338.823
613.362;  -60.327; -497.107; -557.807
613.637;   36.457;  261.897;  138.186
613.911;  -12.242; -256.092; -345.835
614.186;  103.071; -249.107; -292.807
614.460;  626.978; -842.081; -758.854
614.735;  748.651;  -55.087;  -17.843
615.010;  150.041;   43.912;  -82.841
615.284;  228.911;  360.892;  246.195
615.559;  365.657; -792.092; -955.835
615.833;  280.018;  -76.099;  -87.822
616.108;    4.669; -225.090; -390.837
616.382;  135.327;  274.913;  402.156
616.656;  137.419; -241.090; -232.837
616.931;  492.868; -785.099; -700.822
617.205; 1018.602; -973.104; -979.813
617.480;  951.786;  -91.125;    6.225
617.754;  152.609; -396.125; -128.774
618.028;    9.529; -369.129; -382.768
618.302;   55.135;   73.892;  -25.805
618.577;  -56.842; -371.103; -518.815
618.851;  -58.300; -399.109; -600.803
619.125;  -60.391; -335.134; -378.759
619.399;  -36.823; -244.104; -374.813
619.673;  -54.329; -330.115; -515.792
619.947;  -46.314; -333.114; -448.795
620.222;  -10.684; -198.110; -204.801
620.496;  -10.801;  -47.121;  -96.782
620.770;   17.615; -187.122;  -93.781
621.044;  196.461;  323.895;  346.190
621.318;  712.602; -653.120; -614.783
621.592;  637.175; -430.121; -409.783
621.866;  350.730; -476.112; -572.799
622.140;   18.265; -207.116; -356.791
622.413;   45.634;  138.889;  112.200
622.687;  -33.028; -746.101; -492.817
622.961;    2.110; -130.108; -143.805
623.235;  -66.665; -633.111; -661.800
623.509; -102.907; -816.105; -848.811
623.783;   -6.031;  -12.107;   48.193
624.056;  -29.372; -254.120; -280.783
624.330;   31.148;   63.888;   -3.797
624.604;   52.912; -271.116; -355.790
624.877;   62.370;  180.890;   26.198
625.151;   46.931; -249.114; -238.794
625.425;  -34.596; -150.103; -283.814
625.698;  -58.138; -367.119; -374.785
625.972;  -89.177; -799.110; -765.802
626.245;   65.663;  685.884;  484.210
626.519;  -51.993; -426.120; -340.784
626.792;  -32.003; -192.107; -380.807
627.066;  -97.242; -485.122; -662.779
627.339; -112.831; -736.110; -663.802
627.613;   21.931;  351.880;  148.216
627.886;   51.200;  187.891; -612.803
628.160;  -16.349;  312.880; -161.783
628.433;  -81.936; -695.125; -703.775
628.706;  -95.168; -517.120; -615.784
628.979;   22.171;  296.876;  117.223
629.253; -108.508; -785.119; -833.786
629.526;  330.724; -334.126; -253.772
629.799;  322.203; -641.123; -479.778
630.072;  146.981; -497.128; -516.769
630.346;  -75.961;-1115.116;-1080.790
630.619;  423.273; -467.107; -545.808
630.892;  605.060;  709.889;  593.200
631.165;  296.077;  790.896;  679.187
631.438;  -87.023;-1092.112;-1055.798
631.711;   38.581;  453.877;  257.221
631.984;  -77.041; -523.117; -624.789
632.257;  -76.320; -636.117; -681.789
632.530;  -44.112; -412.119; -433.785
632.803;   18.379; -109.115;    7.207
633.076;  -83.300; -360.123; -422.777
633.349;   13.085;  173.872;  121.231
633.622;  -39.864; -187.119; -240.785
633.895; -129.047; -903.120; -823.783
634.167;  -67.399; -496.126; -525.773
634.440;   -9.305;  -19.116; -137.792
634.713;  -21.984;  -22.119; -120.786
634.986;   68.599;  593.871;  453.233
635.258;  -82.598; -507.115; -597.793
635.531;   83.851;  742.882; -343.788
635.804;  -38.518; -303.117; -318.789
636.077;  -91.109; -830.116; -852.791
636.349;  -16.500; -586.115; -474.793
636.622;  362.748; 1695.874; 1392.228
636.894;  222.307; -474.120; -909.784
637.167;  139.692; -836.127; -789.771
637.439;   22.713; -278.128; -213.770
637.712;  -59.101; -312.126; -293.772
637.984;  -88.233; -635.116; -707.791
638.257;  359.200;  515.877;  488.222
638.529;  554.415; -881.125; -924.776
638.802;  246.155; -508.128; -449.769
639.074; -115.310; -927.122; -952.781
639.346; -120.775; -942.135; -930.757
639.619;  -11.516;  -79.142; -319.744
639.891;   -0.967;  -83.122; -168.779
640.163;  -81.040; -689.122; -756.780
640.435;   30.887;  273.878;  103.220
640.708;    4.614;  -72.122; -132.780
640.980;  -29.809; -366.122; -362.781
641.252;  160.568;  -25.121;  -71.781
641.524; 1722.894;  580.879;  573.219
641.796; 1815.696;-1094.121; -907.782
642.068;  332.223; -191.121; -300.782
642.340;  -66.250; -486.121; -566.783
642.613;   24.977;  294.880;  323.217
642.885; -100.721; -787.120; -878.783
643.157;  -62.269; -810.120; -658.784
643.428;   47.807;  170.880;  218.216
643.700;  -70.066; -498.120; -425.784
643.972;  -34.039;  -16.119; -133.785
644.244;  -98.662; -474.119; -559.785
644.516;  -47.610; -250.119; -114.786
644.788;   54.642;  662.881;  548.214
645.060;  -31.382;  -12.119; -124.786
645.332; -111.355; -525.118; -535.787
645.603;   22.847;  479.882;  342.213
645.875;  -77.701; -334.118; -369.787
646.147;  162.176; 1487.882; 1242.212
646.418;  -75.222; -931.117; -918.788
646.690;  122.530; -714.117; -715.789
646.962;   16.381; -413.117; -451.789
647.233;  -18.717;   15.883;   11.211
647.505;  -99.065; -595.117; -475.790
647.776;   22.412;  328.884;  229.210
648.048;    0.464; -248.116; -418.790
648.320;  -80.584; -752.116; -679.791
648.591; -152.357;-1055.116; -958.791
648.862;  -81.781; -505.116; -577.792
649.134;    2.196;  115.885;  198.208
649.405;  -49.552; -661.115; -618.792
649.677;  -65.575; -475.115; -598.793
649.948;  -15.248; -181.115; -296.793
650.219;  -13.346;  -37.115; -147.793
650.491;  -82.019; -431.114; -520.794
650.762; -120.993; -705.114; -731.794
651.033;  -92.791; -437.114; -424.795
651.304;  -91.014; -743.114; -728.795
651.576;  -85.962; -680.114; -645.795
651.847;  -40.085; -250.113; -140.796
652.118;  -31.533;  -32.113; -189.796
652.389; -107.431; -639.113; -722.796
652.660;  -51.780; -147.113;  -89.797
652.931; -137.253; -897.112; -871.797
653.202;  -88.201; -382.112; -541.798
653.473;  -69.549; -633.112; -533.798
653.744;  136.978; -595.112; -590.798
654.015;  139.630; -356.112; -303.799
654.286;  -64.718; -642.111; -663.799
654.557;  -70.717; -586.111; -521.799
654.828; -162.690;-1114.111;-1088.800
655.099;  -81.463; -404.111; -291.800
655.370; -106.086; -427.111; -543.801
655.641; -137.384; -656.110; -714.801
655.911; -109.532; -618.110; -638.801
656.182;   31.169;  437.890;  387.198
656.453;   80.271;  830.890;  746.198
656.724;  -84.027; -466.110; -426.802
656.994;  -86.425; -553.109; -568.803
657.265; -107.523; -862.109; -873.803
657.536;  -88.996; -500.109; -377.804
657.806; -105.419; -561.109; -593.804
658.077; -146.643; -866.109; -950.804
658.347;  -86.591; -523.108; -598.805
658.618; -105.714; -646.108; -694.805
658.888;  -33.187;  -41.108;  112.195
659.159;  -90.185; -432.108; -548.806
659.429;  -21.633; -292.108; -349.806
659.700;   17.969; -435.107; -390.807
659.970;   -7.780; -370.107; -359.807
660.241;    3.322; -754.107; -921.807
660.511;  483.699; -147.107; -174.808
660.781;   89.876; -793.106; -748.808
661.052;  -48.047; -222.106; -381.808
661.322;  -26.270;   21.894;   -9.809
661.592;   13.107;  257.894;  148.191
661.862;  -66.067; -369.106; -382.810
662.133;  -96.890; -551.105; -502.810
662.403; -123.338; -770.105; -676.810
662.673;  -55.836; -256.105; -213.811
662.943; -108.334; -612.105; -551.811
663.213;  -11.732;  -85.105;  -81.811
663.483;  -90.005; -593.104; -568.812
663.753;  -50.229; -194.104; -152.812
664.023;  -12.702;   68.896;  -32.813
664.293;  -71.425; -319.104; -126.813
664.563; -109.773; -694.104; -648.813
664.833; -125.921; -743.103; -608.814
665.103; -136.569; -730.103; -793.814
665.373; -107.943; -766.103; -806.814
665.643; -101.216; -863.103; -918.815
665.913;   44.836; -534.103; -714.815
666.182;  119.288; -685.102; -719.816
666.452;  248.365;  -22.102;  -89.816
666.722;  -29.608; -724.102; -784.816
666.992; -138.731; -948.102; -921.817
667.261; -104.230; -824.102; -808.817
667.531;  187.122;  134.899;   45.183
667.801;  547.974; -440.101; -412.818
668.070;  232.826;  714.899;  697.182
668.340;  -98.397; -883.101; -840.819
668.609;   86.180;  588.900;  301.181
668.879;  -83.593; -490.100; -558.819
669.149;  -85.792; -539.100; -516.820
669.418;  -96.815; -698.100; -726.820
669.688;  -49.988; -482.100; -666.820
669.957;   79.439; -423.099; -546.821
670.226;  -35.609; -268.099; -331.821
670.496;  -85.282; -431.099; -635.822
670.765;  -80.905; -418.099; -501.822
671.034; -142.479; -872.099; -828.822
671.304;  -10.302;   55.902; -111.823
671.573; -157.325;-1085.098; -957.823
671.842;   68.627; -380.098; -294.823
672.112;   26.604; -692.098; -586.824
672.381;  -22.694; -239.098; -214.824
672.650; -134.467;-1005.097;-1021.825
672.919;  -85.091; -631.097; -507.825
673.188;  -97.814; -681.097; -878.825
673.457; -148.787;-1101.097;-1143.826
673.726;  -83.460; -579.096; -646.826
673.995;  -48.908; -533.096; -479.826
674.265;  -17.781; -263.096; -333.827
674.534;  -10.104; -183.096; -235.827
674.802;   -1.828; -618.096; -703.828
675.071;  886.199; -886.095; -801.828
675.340; 3798.251; -464.095; -339.828
675.609; 1268.653;  103.905;   82.171
675.878;   71.030; -949.095; -893.829
676.147;   35.007;  -26.095;   -8.829
676.416;   78.208; -210.094; -294.830
676.685;  689.760; 1000.906; -622.830
676.953;   90.037; -603.094; -452.831
677.222;  -29.311; -193.094; -273.831
677.491;  -42.309;  -24.094; -127.831
677.759;  -29.632;   11.907;  172.168
678.028;  -30.730; -279.093; -222.832
678.297;  -21.554;   71.907;  197.168
678.565; -141.977; -898.093; -944.833
678.834;  -69.275; -311.093; -268.833
679.102;  -82.698; -411.092; -391.834
679.371; -136.296; -898.092; -727.834
679.639; -131.044; -797.092; -786.834
679.908; -128.767; -794.092; -724.835
680.176; -154.916; -895.091; -941.835
680.445;  -79.364; -346.091; -352.835
680.713;  -16.787;  -58.091;  -23.836
680.982; -103.785; -523.091; -525.836
681.250; -114.108; -578.091; -507.837
681.518; -102.731; -534.090; -751.837
681.787;  -10.279; -204.090; -167.837
682.055;  -69.053; -490.090; -422.838
682.323; -149.151; -993.090; -992.838
682.591;   27.076; -216.090; -538.838
682.859;   84.678;    9.911;  -35.839
683.128;   19.230;  232.911;  497.161
683.396; -158.218;-1102.089;-1122.840
683.664;  -43.916; -241.089;   21.160
683.932;   -9.215;  144.911;  -76.840
684.200;  -92.688; -576.088; -320.841
684.468;  -30.686;  -73.088; -124.841
684.736;  -33.084; -214.088; -175.841
685.004; -126.382;-1024.088; -982.842
685.272;  -55.455; -880.088; -774.842
685.540;  -71.953; -499.087; -557.843
685.808;  -82.752; -651.087; -682.843
686.076; -110.900; -894.087; -969.843
686.343;  -68.648; -601.087; -815.844
686.611;   35.454; -195.087; -224.844
686.879;  398.906; -530.086; -553.844
687.147; 3215.783; -483.086; -480.845
687.414;  927.884;  -12.086; -169.845
687.682;  -12.814; -658.086; -757.846
687.950;  288.788;  259.915;  263.154
688.217;    9.565; -792.085; -760.846
688.485;  -26.558; -632.085; -636.847
688.753;  507.469;  -11.085; -102.847
689.020;  166.971; -820.085; -851.847
689.288; -103.753; -853.084; -787.848
689.555;  -22.651; -195.084; -148.848
689.823;  -52.049; -241.084; -345.849
690.090;  -89.622; -546.084; -651.849
690.358; -158.120; -877.084; -897.849
690.625;   -2.418;  120.917;   45.150
690.892;  -84.541; -403.083; -369.850
691.160;  -25.215;   72.917;  -35.850
691.427;  -14.063;  141.917;  130.149
691.694; -120.761; -855.083; -929.851
691.962; -128.084;-1177.082;-1060.852
692.229;    2.868;  127.918;   56.148
692.496;   68.720;  130.918;  -49.852
692.763;   12.722; -164.082; -201.853
693.031;  -75.102; -739.082; -716.853
693.298;  -43.800; -509.081; -368.853
693.565;  282.302; -155.081; -163.854
693.832; 1242.829;   -5.081;   -9.854
694.099;  133.506; -643.081; -642.855
694.366;  -51.767; -882.081; -896.855
694.633;  -52.890; -920.080; -633.855
694.900;  714.336; 4367.920; -114.856
695.167;  420.738; -214.080; -380.856
695.434;  102.565; -646.080; -623.856
695.701;  191.017;  121.921;  -61.857
695.968;  441.419; -365.079; -361.857
696.234;  942.821; -415.079; -646.858
696.501;10515.423; -776.079; -614.858
696.768; 5597.974; -554.079; -617.858
697.035;  323.701; -632.078; -667.859
697.302;   33.953; -448.078; -552.859
697.568;   13.180; -458.078; -497.859
697.835;  -27.268; -683.078; -624.860
698.102;  -32.366; -498.078; -407.860
698.368;   66.985;  384.923;  396.139
698.635;  -36.738;  -47.077; -424.861
698.901;  -29.911; -240.077; -348.861
699.168;   60.091; -534.077; -456.862
699.435;   65.943;  -72.077;  -13.862
699.701;  -98.305; -868.076; -764.862
699.968;   11.972;  144.924; -441.863
700.234;  -90.152; -783.076; -822.863
700.500;  -64.100; -448.076; -539.864
700.767;  -13.548;   -1.075;   26.136
701.033; -129.321;-1015.075; -963.864
701.299;  -56.369; -450.075; -483.865
701.566;  107.858;  950.925;  763.135
701.832;   14.860;  -31.075;  -76.865
702.098; -102.314;-1054.074;-1034.866
702.365;  -84.262;-1098.074;-1030.866
702.631;  -21.260;-1038.074;-1063.867
702.897; 1271.517; -765.074; -676.867
703.163; 2246.969;  348.926;  254.133
703.429;  149.946; -256.073; -273.868
703.695;  -29.677; -796.073; -792.868
703.961;   19.274; -214.073; -210.868
704.227;  -61.699; -630.073; -725.869
704.493;  120.428;  613.927;  510.131
704.759;  -24.645; -565.072; -540.870
705.025;   19.757; -203.072; -194.870
705.291;  -11.416; -666.072; -562.870
705.557;  179.961;  719.928;   34.129
705.823;   48.237; -742.072; -694.871
706.089;  146.864; -307.071; -326.871
706.355;  359.766; -315.071; -244.872
706.620; 5598.793; -776.071; -729.872
706.886; 8197.195; -309.071; -362.873
707.152;  776.597; -818.070; -973.873
707.418;   -6.676;-1153.070;-1186.873
707.683;   -4.800; -550.070; -530.874
707.949;  -35.273; -547.070; -578.874
708.215;    3.104; -129.070; -207.874
708.480;  -26.844; -520.069; -420.875
708.746;   81.958;   68.931;   28.125
709.011;  -59.740; -578.069; -612.876
709.277;  -67.964; -538.069; -543.876
709.542;  -31.212; -428.069; -387.876
709.808;    1.290;  -59.068;   89.123
710.073;  -89.858; -577.068; -695.877
710.339;  -28.856; -242.068; -228.877
710.604;   51.021; -780.068; -845.878
710.869;  328.248; -277.068; -366.878
711.135;  -67.101; -715.067; -628.879
711.400;  -82.599; -507.067; -608.879
711.665;  -59.672; -404.067; -479.879
711.931;  -92.970; -661.067; -677.880
712.196; -124.293; -876.067; -954.880
712.461;   92.909; -402.066; -490.880
712.726;  126.436; -727.066; -771.881
712.991;  -78.963; -647.066; -664.881
713.256;  -43.061; -350.066; -332.882
713.521;  -51.734; -417.065; -381.882
713.787;  -63.957; -454.065; -472.882
714.052;  -39.805; -214.065; -400.883
714.317; -100.278;-1045.065; -981.883
714.581; 1015.249; -374.065; -268.883
714.846; 1532.625; -822.064; -888.884
715.111;  133.152;  261.936;  257.116
715.376;  -28.446;  -86.064; -223.885
715.641;  -31.944; -365.064; -367.885
715.906;  274.783;   15.936; -551.885
716.171;  127.485;  221.937;  209.114
716.436;   14.362;  -78.063; -104.886
716.700; -110.212; -818.063; -692.886
716.965; -120.410; -794.063; -807.887
717.230;  -72.533; -339.063; -392.887
717.494;  -31.781;  -40.062; -134.888
717.759; -102.279; -784.062; -640.888
718.024;   -2.752;  269.938;  250.112
718.288;   68.324;  685.938;  395.111
718.553; -144.899; -803.062; -977.889
718.817; -152.622; -883.061; -899.889
719.082;  -46.220; -115.061; -125.890
719.346; -143.618;-1000.061; -947.890
719.611;  -53.741; -300.061; -255.891
719.875; -102.239; -568.060; -537.891
720.140;  -74.088; -453.060; -603.891
720.404;   20.264; -136.060; -249.892
720.668;  804.341; -475.060; -411.892
720.933;  316.143;  146.940;  137.108
721.197; -109.730; -667.059; -600.893
721.461; -131.453; -851.059; -826.893
721.725;  -15.201;  -21.059; -250.894
721.990;  -76.850; -284.059; -204.894
722.254;  -43.323;  -26.059; -108.894
722.518;  -85.521; -286.058; -442.895
722.782;  -95.319; -743.058; -594.895
723.046;  114.983;  614.942;  570.105
723.310;   26.760;  374.942;  210.104
723.574;  -99.538; -654.058; -614.896
723.838; -119.737; -576.057; -642.897
724.102;  -51.910; -226.057; -239.897
724.366; -136.933;-1032.057; -978.897
724.630; -108.281; -749.057; -571.898
724.894;  -84.354; -722.057; -514.898
725.158;    1.123;   38.944; -295.898
725.422;  -59.425; -394.056; -327.899
725.685;  -72.924; -441.056; -349.899
725.949;  -88.072; -566.056; -519.900
726.213;  -85.795; -732.056; -811.900
726.477;  154.982;-1020.055; -933.900
726.740;  142.184; -274.055; -104.901
727.004;  310.361; -384.055; -510.901
727.268; 3370.063; -442.055; -400.901
727.531; 1004.714; -961.055; -775.902
727.795;  -49.859; -713.054; -673.902
728.059;  -64.307; -552.054; -557.903
728.322;  -87.755; -841.054; -669.903
728.586;   28.347; -692.054; -701.903
728.849;  -81.876; -695.053; -756.904
729.112; -107.350; -812.053; -912.904
729.376; -134.248; -959.053; -905.904
729.639;  -76.096; -536.053; -536.905
729.903; -108.944; -733.053; -699.905
730.166;  -56.267; -437.052; -399.906
730.429;  -25.965; -317.052; -468.906
730.693;  -71.563; -355.052; -894.906
730.956;  193.988;  810.948;  651.093
731.219;  685.990; -310.052; -103.907
731.482;  114.917;-1003.051; -894.907
731.745;   93.744; -794.051; -935.908
732.009;    1.921;  -30.051;   50.092
732.272; -106.102; -904.051; -771.909
732.535;  -42.450; -300.051; -310.909
732.798; -148.549;-1083.050;-1166.909
733.061;  -65.972; -430.050; -456.910
733.324;   -2.720;   31.950; -180.910
733.587;   55.132;  290.950;  365.090
733.850;  -70.166; -973.049;-1050.911
734.113;   18.486;   33.951;   32.089
734.376;    1.813; -328.049; -447.912
734.639;  202.689; 1188.951; 1011.088
734.901;   57.666; -180.049; -402.912
735.164;  456.368; -883.048; -837.913
735.427; 1295.245; -166.048; -355.913
735.690;  138.672; -205.048; -234.913
735.952;  -33.751; -923.048; -925.914
736.215;  -22.649;-1113.048;-1009.914
736.478;   36.302; -771.047; -774.915
736.740;  185.579;   33.953;  129.085
737.003;  593.281; -658.047; -672.915
737.266; 3977.108;  -94.047;   46.084
737.528;  430.935; -682.047; -660.916
737.791;  327.912; -316.046; -327.916
738.053;  771.964;  465.954;  649.083
738.316;10606.290; -162.046; -136.917
738.578; 8217.967; -770.046; -736.918
738.841;  465.069; -382.046; -446.918
739.103;  179.471; -875.045; -777.918
739.365;  521.073;   79.955;  -69.919
739.628;   -3.050; -884.045; -805.919
739.890;  -38.799; -758.045; -710.919
740.152;  -51.722; -692.044; -754.920
740.414;  -16.795; -408.044; -359.920
740.677;  -53.818; -785.044; -634.921
740.939;  -49.991; -587.044; -487.921
741.201;  250.411; -432.044; -572.921
741.463;   37.963; -689.043; -745.922
741.725;   14.989;  -21.043; -199.922
741.987;   55.166;  220.957;  116.078
742.249;    4.443; -751.043; -859.923
742.511;  196.495; -703.043; -794.923
742.773;   16.947; -546.042; -546.924
743.035;  117.424;  796.958;  533.076
743.297;  -48.124; -963.042;-1013.924
743.559;  731.602; -278.042; -262.925
743.821;   60.579; -735.042; -744.925
744.083;    3.631;  -44.041; -149.925
744.345;  -99.617; -869.041; -892.926
744.607;   27.185;   75.959;  122.074
744.868;  -55.738; -490.041; -554.927
745.130; -115.411; -994.041;-1008.927
745.392;   28.065;   -1.040;  -44.927
745.653;  -16.983; -411.040; -378.928
745.915;  146.594;  896.960;  631.072
746.177;   54.546;   35.960;  -43.928
746.438;   -1.877; -428.040; -543.929
746.700;  -46.875; -947.039; -988.929
746.961;    3.802; -659.039; -740.930
747.223;  141.328; -190.039;  -74.930
747.484;   77.230; -391.039; -471.930
747.746;  126.007;  -23.038; -106.931
748.007;   94.334; -647.038; -689.931
748.269;  285.711; -468.038; -440.931
748.530;  481.038; -852.038; -638.932
748.791;  266.940; -354.038; -420.932
749.053;  420.391;  286.963;  163.067
749.314;  452.368; -236.037; -169.933
749.575;  511.120; -945.037; -905.933
749.836;  825.972; -217.037;   86.066
750.098; 2258.049;  -60.037;  -21.934
750.359;35765.676;  414.964;  555.066
750.620; 9883.052; -121.036; -220.935
750.881; 1024.529; -585.036; -513.935
751.142; 1331.806; -950.036; -938.936
751.403;16195.183; -789.036; -705.936
751.664; 7901.535;-1034.035; -999.936
751.925;  505.062; -175.035; -262.937
752.186;  281.689; -298.035; -278.937
752.447;  127.615; -590.035; -445.937
752.708;   56.892; -532.035; -648.938
752.969;   -4.906; -566.034; -576.938
753.230;   -4.654; -777.034; -672.939
753.491;  -11.702; -650.034; -631.939
753.751;   63.800;  109.966;   19.061
754.012;   93.827;  258.967;  181.060
754.273;   53.278; -174.033;  -71.940
754.534;    3.255; -487.033; -580.940
754.794;  -77.218; -926.033; -911.941
755.055;  135.384; 1051.967;  881.059
755.316;  -54.714; -700.032; -566.942
755.576;  -21.712; -606.032; -576.942
755.837;  -44.560; -527.032; -695.942
756.097;  -37.084; -530.032; -564.943
756.358;  -73.057; -725.032; -770.943
756.618;  -52.855; -705.031; -641.943
756.879;  -10.953; -254.031; -349.944
757.139; -123.651;-1098.031;-1116.944
757.400;  -59.474; -538.031; -553.945
757.660;  -16.222; -365.031; -401.945
757.920;    6.179; -266.030; -228.945
758.181;  -11.794; -468.030; -351.946
758.441;  -85.342; -870.030; -809.946
758.701;  -27.365; -308.030; -215.946
758.961;  -13.788; -220.030; -278.947
759.222;  -65.811; -574.029; -502.947
759.482;  -83.759; -683.029; -723.948
759.742;  -84.283; -706.029; -547.948
760.002;    5.619;  -83.029; -143.948
760.262;   22.246;   50.972;  182.051
760.522;  -53.402; -498.028; -574.949
760.782;  -39.900; -738.028; -612.949
761.042;  -39.573; -618.028; -573.950
761.302;   44.403;   55.972;  -18.950
761.562;   44.705; -164.027; -154.951
761.822;   69.382; -710.027; -551.951
762.082;  -43.641;-1104.027;-1093.951
762.342;   68.811; -328.027; -403.952
762.601;   80.488; -567.027; -506.952
762.861;  351.465; -281.026; -207.952
763.121;  407.441; -406.026; -411.953
763.381; 7263.743; -499.026; -485.953
763.640; 8864.995; -139.026; -307.954
763.900;  380.697; -242.026; -203.954
764.160;   93.799; -458.025; -491.954
764.419;   -3.224; -726.025; -782.955
764.679;  -81.022; -795.025; -726.955
764.939;   -1.546; -124.025; -210.955
765.198;  -91.269; -608.025; -563.956
765.458;  -75.417; -710.024; -612.956
765.717;  -89.390; -454.024; -590.957
765.976;  -51.063; -428.024; -411.957
766.236;  -72.436; -475.024; -610.957
766.495;   11.366;  260.977;   73.042
766.755; -107.583;-1090.023; -987.958
767.014;   -0.706; -594.023; -665.958
767.273;  -59.304; -373.023; -397.959
767.533;  -38.152; -228.023; -307.959
767.792;  -39.400; -151.022; -188.960
768.051;  -67.698; -228.022; -276.960
768.310;  -90.846; -546.022; -650.960
768.569;   -5.195; -161.022;    4.039
768.828;  -35.268; -285.022; -363.961
769.088; -110.191;-1050.021; -942.961
769.347;  -90.664; -755.021; -599.962
769.606;  -91.037; -876.021; -857.962
769.865; -120.635;-1016.021;-1033.963
770.124;  -21.809; -411.021; -336.963
770.383;  -57.507; -778.020; -910.963
770.641;    5.770; -398.020; -400.964
770.900;  -70.878; -953.020; -846.964
771.159;  -39.976; -851.020; -951.964
771.418;  -10.374; -917.020; -779.965
771.677;  123.278; -224.019; -293.965
771.936;  141.254; -794.019; -865.966
772.194; 2040.231; -465.019; -437.966
772.453;11688.908; -213.019; -391.966
772.712;  851.610;  416.982;  329.033
772.970;  123.112;   32.982;   63.033
773.229;   77.214;  -22.018;  102.033
773.488;  -81.159; -814.018; -770.968
773.746;   43.792;  296.982;  335.032
774.005;    3.194;  190.983;  -22.969
774.263;   11.096;  243.983;  177.031
774.522;  -51.127; -422.017; -548.969
774.780;  -79.300; -484.017; -417.970
775.039;  -83.273; -551.017; -531.970
775.297;  -30.271; -135.016; -351.970
775.555; -121.795; -489.016; -612.971
775.814; -118.943; -618.016; -570.971
776.072; -123.466; -749.016; -740.971
776.330;  -98.039; -630.016; -520.972
776.589; -127.162; -703.015; -721.972
776.847; -123.010; -645.015; -624.973
777.105; -180.633;-1016.015;-1032.973
777.363;  -77.882; -459.015; -454.973
777.621; -134.355; -660.015; -717.974
777.879;  -32.978;  -42.014;   32.026
778.138; -102.201; -554.014; -717.974
778.396; -117.224; -585.014; -526.975
778.654; -169.647;-1015.014; -970.975
778.912;  -65.670; -269.014; -371.976
779.170; -142.194; -880.013; -803.976
779.427; -161.442; -922.013; -897.976
779.685; -139.540; -880.013; -832.977
779.943;  -82.163; -654.013; -593.977
780.201; -156.886; -964.012; -883.978
780.459; -122.409; -651.012; -610.978
780.717;  -80.633; -440.012; -390.978
780.974;  -95.706; -449.012; -490.979
781.232;  -85.204; -358.012; -338.979
781.490;  -92.127; -551.011; -472.979
781.747;  -95.850; -555.011; -476.980
782.005;    9.702;  462.989;  254.020
782.263; -171.721; -542.011;-1004.981
782.520;  -83.645; -326.011; -501.981
782.778; -186.593;-1013.010;-1051.981
783.035; -170.166; -962.010; -938.982
783.293;  -66.539; -248.010; -206.982
783.550;  -56.987; -134.010; -198.982
783.808; -143.160; -764.010; -776.983
784.065; -154.858; -745.009; -874.983
784.322;  -61.657;   25.991;  -86.984
784.580; -136.405; -915.009; -771.984
784.837;  -95.153; -392.009; -466.984
785.094; -137.726; -783.009; -762.985
785.352;  -76.899; -304.008; -404.985
785.609;  -97.847; -934.008; -839.985
785.866;  -76.520; -345.008; -401.986
786.123;  -72.644; -639.008; -583.986
786.380;  -97.442; -665.008; -604.987
786.637;  -64.040; -225.007; -380.987
786.895;  -26.413; -456.007; -543.987
787.152;  -54.361; -135.007; -267.988
787.409;  -48.459; -123.007; -225.988
787.666;  -90.557; -299.006; -378.988
787.923; -134.456; -616.006; -695.989
788.179;  -95.404; -551.006; -584.989
788.436; -115.652; -585.006; -585.990
788.693;  -47.950;  -92.006;  -87.990
788.950;  119.402; -125.005; -112.990
789.207;  223.854; -381.005; -372.991
789.464;  -63.244; -161.005; -301.991
789.720;    0.632;  150.995;  110.009
789.977; -161.816;-1003.005; -671.992
790.234;  -41.589;   44.996;  -66.992
790.490; -156.937; -884.004;-1031.993
790.747;  -28.460;  -85.004;   22.007
791.004;  -43.333; -426.004; -348.993
791.260;  -87.482; -430.004; -560.994
791.517; -104.380; -843.003; -788.994
791.773;  -41.528; -379.003; -342.994
792.030; -122.126; -596.003; -660.995
792.286;  -98.049; -686.003; -636.995
792.543;  -20.847;  -74.002; -159.995
792.799;  -62.395; -584.002; -382.996
793.055; -171.894;-1179.002;-1210.996
793.312;  -95.267; -827.002; -816.997
793.568;  -63.565; -746.002; -599.997
793.824;    3.487; -226.001; -284.997
794.081;   27.889; -447.001; -508.998
794.337;   63.091; -664.001; -561.998
794.593; 1174.443; -319.001; -271.999
794.849; 6890.094; -746.001; -772.999
795.105;  376.796; -270.000; -261.999
795.361;   13.623; -490.000; -457.000
795.617;  -62.425; -875.000; -945.000
795.873;  -55.300; -360.000; -407.000
796.129;  -50.925; -368.000; -306.000
796.385;  -15.850; -124.000; -156.000
796.641;   54.100;  412.000;  550.000
796.897;  -86.500; -666.000; -635.000
797.153;   55.675;  453.000;  357.000
797.409;  -95.400; -785.000; -868.000
797.665;  -85.700; -625.000; -732.000
797.921;  -80.825; -775.000; -762.000
798.176;  -71.075; -744.000; -747.000
798.432;  -51.025; -824.000; -596.000
798.688;  -67.050;-1174.000;-1078.000
798.943;   76.575; -165.000; -147.000
799.199;   -1.025;-1005.000; -959.000
799.455;  232.025;  369.000;  316.000
799.710;  127.050; -813.000; -380.000
799.966;  302.050; -162.000; -160.000
800.221;  480.650; -638.000; -721.000
800.477; 9960.250; -743.000; -710.000
800.732;10245.250; -773.000; -800.000
800.988;  676.175;  205.000;  -19.000
801.243; 1701.875; -454.000; -344.000
801.498; 8532.200; -814.000; -739.000
801.754;  532.000; -289.000; -163.000
802.009;   89.825; -257.000; -335.000
802.264;  -39.450; -967.000;-1033.000
802.520;   17.425;  222.000;   -3.000
802.775;  -58.875; -524.000; -359.000
803.030;   44.600;  395.000;  356.000
803.285; -112.100; -840.000; -903.000
803.540;  -44.900; -686.000; -699.000
803.795;  -49.375; -648.000; -583.000
804.051;  -36.925; -279.000; -346.000
804.306;   23.225;  168.000;  128.000
804.561;  129.500;  451.000;  362.000
804.816;  123.100;  714.000;  861.000
805.071;   -1.675; -185.000; -280.000
805.325;  203.275; -257.000; -427.000
805.580; -107.575; -841.000; -877.000
805.835;  -22.775; -204.000; -297.000
806.090;  -86.250; -760.000; -676.000
806.345;  -21.300; -344.000; -264.000
806.600;  -40.575; -549.000; -632.000
806.854;  -22.125; -408.000; -538.000
807.109;  -14.950; -493.000; -577.000
807.364;   -0.625; -407.000; -328.000
807.618;   -2.000; -415.000; -381.000
807.873;   49.550; -470.000; -494.000
808.128;   99.475; -257.000; -518.000
808.382;  118.600; -224.000; -332.000
808.637;   80.250; -440.000; -511.000
808.891;  174.925; -257.000; -180.000
809.146;  108.225; -902.000; -794.000
809.400;  259.425; -848.000; -923.000
809.654;  323.975; -779.000; -551.000
809.909;  474.775; -841.000; -927.000
810.163; 5938.975; -813.000; -651.000
810.418;17824.575; -940.000; -861.000
810.672; 1116.850; -685.000; -690.000
810.926;  760.625; -993.000; -973.000
811.180; 1416.675; -439.000; -372.000
811.434;31747.700;  240.000;  135.000
811.689;15025.525; -231.000; -365.000
811.943;  737.225; -936.000; -953.000
812.197;  380.150; -893.000; -671.000
812.451;  137.525; -379.000; -514.000
812.705;  -16.600; -809.000; -619.000
812.959;    3.700; -263.000; -388.000
813.213;  -13.875; -283.000; -209.000
813.467;   60.950;  470.000;  253.000
813.721; -102.550; -764.000; -792.000
813.975; -118.100; -826.000; -877.000
814.229;   20.650;  430.000;  353.000
814.482;  -67.200; -517.000; -566.000
814.736; -127.725; -766.000; -744.000
814.990; -135.175; -779.000; -872.000
815.244;  -48.100; -228.000; -285.000
815.497;  -91.500; -636.000; -601.000
815.751;  -10.600; -141.000;   82.000
816.005;  -78.700; -470.000; -586.000
816.258;  -66.075; -510.000; -363.000
816.512; -116.100; -693.000; -610.000
816.766;   -9.050;  121.000;  157.000
817.019;   14.800;  148.000;  149.000
817.273; -107.700;-1000.000; -802.000
817.526;  -46.200; -206.000; -173.000
817.779;  -51.400;-1049.000; -960.000
818.033;  -62.050; -693.000; -807.000
818.286; -129.425; -725.000; -792.000
818.540;  -98.600; -403.000; -403.000
818.793;  -82.800; -402.000; -489.000
819.046; -117.450; -582.000; -520.000
819.299;  -27.300; -157.000; -166.000
819.553; -110.625; -552.000; -592.000
819.806; -153.350;-1016.000; -838.000
820.059;  -74.000; -334.000; -354.000
820.312;    8.875;  152.000;  185.000
820.565;  -21.275;  110.000;  -27.000
820.818;  -46.500;  -59.000; -173.000
821.071; -171.125;-1041.000; -957.000
821.324; -105.475; -536.000; -540.000
821.577; -113.950; -457.000; -483.000
821.830;  -70.025; -270.000; -172.000
822.083; -128.500; -733.000; -288.000
822.336;  -52.550; -261.000; -167.000
822.589; -131.325; -805.000; -688.000
822.842; -153.550; -875.000; -770.000
823.094; -179.900;-1076.000;-1114.000
823.347; -140.800; -925.000; -729.000
823.600;   -6.300;  402.000;  187.000
823.853;  -54.675; -311.000; -267.000
824.105;  -80.850; -331.000; -575.000
824.358; -106.900; -617.000; -716.000
824.611;   22.625;  234.000;   40.000
824.863;  -53.350; -612.000; -591.000
825.116;   45.975;  -33.000;   27.000
825.368;   74.100; -366.000; -372.000
825.621;  154.050; -186.000; -240.000
825.873;   84.150; -704.000; -737.000
826.126;  523.775; -669.000; -641.000
826.378;11316.200; -389.000; -505.000
826.630; 3337.200; -890.000; -898.000
826.883;   47.000; -754.000; -693.000
827.135;   50.900; -279.000; -270.000
827.387; -105.250; -893.000; -839.000
827.639;  -34.625;  -86.000;   32.000
827.892; -125.550; -742.000; -582.000
828.144; -150.650; -848.000; -804.000
828.396;  -29.000;  104.000;  -80.000
828.648;  -98.100; -440.000; -333.000
828.900; -140.575; -702.000; -795.000
829.152; -129.200; -684.000; -683.000
829.404;  -81.075; -215.000; -267.000
829.656;  -19.100;  321.000;  214.000
829.908;  -35.350;  393.000;  229.000
830.160; -169.750;-1064.000;-1047.000
830.412;  -91.600; -481.000; -430.000
830.664; -124.125; -557.000; -665.000
830.916;  -83.525; -268.000; -206.000
831.167; -184.750;-1073.000; -951.000
831.419; -113.525; -623.000; -566.000
831.671; -151.925; -764.000; -809.000
831.923;  -87.050; -311.000; -447.000
832.174;  -75.300; -273.000; -331.000
832.426; -115.975; -493.000; -582.000
832.678; -195.850;-1043.000;-1091.000
832.929; -171.750; -947.000; -935.000
833.181;  -63.175; -575.000; -677.000
833.432;  -51.000;  -59.000; -186.000
833.684;  -37.100;  112.000;  -27.000
833.935; -115.425; -610.000; -566.000
834.187; -138.000; -829.000; -823.000
834.438;  -55.225;  -58.000;  -25.000
834.689;  -81.900; -255.000; -123.000
834.941;  -59.325; -343.000; -244.000
835.192; -111.625; -590.000; -533.000
835.443; -106.600; -419.000; -506.000
835.695;  -15.925;  138.000;  -16.000
835.946;  -82.450; -608.000; -378.000
836.197; -115.925; -599.000; -622.000
836.448;  -85.175; -528.000; -395.000
836.699;  -64.500; -253.000; -341.000
836.950;   -7.200;   72.000;    7.000
837.201; -162.650;-1003.000; -987.000
837.452;  -56.100; -356.000; -170.000
837.703; -117.275; -791.000; -737.000
837.954;  -51.550; -205.000; -365.000
838.205; -107.950;-1029.000;-1008.000
838.456;  171.950; -196.000; -282.000
838.707;    8.500; -423.000; -519.000
838.958;   -8.600; -634.000; -647.000
839.209;  265.200;   18.000;   40.000
839.460;  121.200; -439.000; -201.000
839.710;  156.350; -135.000; -297.000
839.961;  410.675;  730.000;  612.000
840.212;  337.325; -382.000; -497.000
840.462; 1056.375; -328.000; -277.000
840.713;17225.600; -571.000; -536.000
840.964; 8271.750;  -62.000; -143.000
841.214;  522.350; -384.000; -624.000
841.465;  573.675; -214.000; -141.000
841.715;  494.525; -417.000; -380.000
841.966;  624.850; -746.000; -685.000
842.216; 7929.800; -330.000; -431.000
842.466;35126.225; -169.000; -313.000
842.717; 2342.425; -964.000; -952.000
842.967;  314.450; -635.000; -641.000
843.217;  276.875;   20.000;   28.000
843.468;   65.200; -104.000; -132.000
843.718;  -44.400; -718.000; -726.000
843.968;  -86.875; -837.000; -765.000
844.218;    6.800; -315.000; -262.000
844.469;  -55.050; -577.000; -561.000
844.719; -101.600; -537.000; -682.000
844.969; -104.950; -550.000; -580.000
845.219; -146.600; -814.000; -862.000
845.469;  -83.725; -392.000; -342.000
845.719; -134.875; -792.000; -884.000
845.969;  -18.925;  119.000;  174.000
846.219; -129.775; -738.000; -720.000
846.469;    8.325;  464.000;  432.000
846.718;  -64.775; -115.000;   31.000
846.968; -131.225; -827.000; -827.000
847.218;  -63.025; -224.000; -371.000
847.468;   -4.950; -586.000; -555.000
847.718; -156.175; -827.000; -798.000
847.967; -135.300; -826.000; -915.000
848.217;  -93.825; -449.000; -569.000
848.467;  -66.400; -405.000; -376.000
848.716; -111.700; -708.000; -725.000
848.966;  -18.375; -372.000; -358.000
849.215;  -61.950; -428.000; -419.000
849.465; -104.800; -785.000; -615.000
849.714; -140.250;-1132.000;-1150.000
849.964;  -61.100; -551.000; -613.000
850.213;  -22.325; -393.000; -355.000
850.463;   65.150;  137.000;  340.000
850.712;   -2.500; -542.000; -567.000
850.961;   17.625; -739.000; -678.000
851.211;   88.725; -513.000; -504.000
851.460;  154.525; -635.000; -650.000
851.709;  547.000;  -25.000;   18.000
851.958; 9701.500; -912.000; -750.000
852.208;14001.300; -859.000; -879.000
852.457;  545.950; -181.000;  -13.000
852.706;   57.800; -791.000; -823.000
852.955;   32.325; -507.000; -528.000
853.204;  -80.900; -521.000; -461.000
853.453;  -83.225; -418.000; -458.000
853.702; -134.125; -660.000; -750.000
853.951; -108.525; -532.000; -520.000
854.200; -117.250; -613.000; -562.000
854.449; -133.450; -695.000; -661.000
854.698;  -95.100; -340.000; -279.000
854.946;  -75.500; -181.000; -284.000
855.195; -164.575; -843.000; -868.000
855.444; -102.200; -395.000; -420.000
855.693; -134.225; -345.000; -432.000
855.941; -121.850; -387.000; -516.000
856.190;  -65.350; -256.000; -382.000
856.439; -132.850; -652.000; -703.000
856.687;  -75.925;  -99.000;  -72.000
856.936; -111.225; -621.000; -323.000
857.184; -183.475;-1067.000;-1020.000
857.433; -112.675; -423.000; -512.000
857.681; -168.425; -989.000; -953.000
857.930;  -84.500; -282.000; -433.000
858.178; -181.100; -856.000; -929.000
858.427; -139.875; -802.000; -781.000
858.675; -129.350; -377.000; -544.000
858.923; -113.575; -527.000; -819.000
859.172; -204.150;-1094.000;-1070.000
859.420;  -76.875; -339.000; -239.000
859.668; -136.375; -624.000; -628.000
859.916;  -39.625;  109.000;  115.000
860.164; -123.175; -699.000; -603.000
860.413;  237.800; -878.000; -696.000
860.661;  219.225; -709.000; -577.000
860.909;  -88.350; -339.000; -325.000
861.157;  -96.675; -277.000; -444.000
861.405; -126.925; -534.000; -670.000
861.653;   -0.300;  310.000;  310.000
861.901;  125.775; -543.000; -613.000
862.149;   11.725; -801.000; -824.000
862.396;  -88.125; -297.000; -187.000
862.644;  -99.775; -368.000; -347.000
862.892;  -38.700;   98.000;  138.000
863.140; -125.150; -549.000; -530.000
863.388; -164.625; -815.000; -759.000
863.635; -143.125; -642.000; -601.000
863.883;  -21.650;  231.000;  190.000
864.131; -103.450; -288.000; -357.000
864.378; -134.175; -675.000; -540.000
864.626;  -94.525; -347.000; -415.000
864.873; -118.775; -556.000; -505.000
865.121; -155.800; -714.000; -799.000
865.368;  -46.925; -173.000;   75.000
865.616;  -43.300;  -33.000;  -40.000
865.863;  -80.875; -462.000; -506.000
866.111; -112.550; -795.000; -824.000
866.358;   47.875; -426.000; -420.000
866.605; 2168.025;  -64.000; -804.000
866.853; 2642.050; -621.000; -537.000
867.100;  -25.400; -728.000; -775.000
867.347;  -92.350; -672.000; -611.000
867.594;  -97.950; -740.000; -714.000
867.841;   73.825;   97.000;   17.000
868.089; -143.000; -746.000; -698.000
868.336; -119.725; -477.000; -420.000
868.583; -154.425; -637.000; -741.000
868.830;  -62.250; -131.000; -170.000
869.077; -179.275; -859.000; -787.000
869.324; -142.800; -502.000; -458.000
869.571; -143.825; -398.000; -430.000
869.818; -120.600; -485.000; -439.000
870.065; -108.225; -439.000; -513.000
870.311; -115.625; -456.000; -542.000
870.558; -117.175; -332.000; -311.000
870.805;  -95.750; -320.000; -384.000
871.052; -126.475; -494.000; -369.000
871.298;  -63.975; -204.000; -131.000
871.545;  -66.325; -151.000; -185.000
871.792;  -93.675; -173.000; -222.000
872.038;  -85.350;   43.000; -126.000
872.285; -131.200; -496.000; -387.000
872.532; -121.225; -357.000; -387.000
872.778;   -4.075;  556.000;  403.000
873.025; -105.250; -384.000; -359.000
873.271;   19.375;  501.000;  578.000
873.517;  -47.600; -133.000; -209.000
873.764;  -39.275; -193.000;  -80.000
874.010;  -78.900; -143.000; -230.000
874.257;  -49.800;  123.000;   90.000
874.503; -138.700; -579.000; -479.000
874.749;  -73.625;   31.000;  275.000
874.995;  -73.125;  -80.000;  -20.000
875.242; -126.225; -540.000; -478.000
875.488; -108.025; -414.000; -439.000
875.734;  -72.650; -106.000; -234.000
875.980;  141.125; -872.000;-1032.000
876.226;  375.225; -157.000; -255.000
876.472;   -0.750;  343.000;  237.000
876.718;  -37.600;  184.000;  158.000
876.964;  -44.525;   56.000;   55.000
877.210; -145.450; -547.000; -677.000
877.456; -138.775; -630.000; -557.000
877.702; -188.275; -821.000; -832.000
877.948; -118.400; -377.000; -497.000
878.193;  -39.975;  361.000;  255.000
878.439;  -99.850; -487.000; -472.000
878.685; -103.000; -272.000; -343.000
878.931; -141.775; -618.000; -676.000
879.176;  -85.025; -201.000; -201.000
879.422; -173.325; -933.000; -820.000
879.668;   32.300;   10.000;   79.000
879.913;  128.925;   53.000;  137.000
880.159;  -68.925; -112.000;  -17.000
880.404;  -70.325; -152.000; -162.000
880.650;  -40.525;   91.000;  141.000
880.895; -169.000; -670.000; -710.000
881.141; -131.825; -454.000; -428.000
881.386; -147.450; -503.000; -658.000
881.631;  -84.900; -311.000; -166.000
881.877;  -48.000;  112.000;  -13.000
882.122; -143.275; -684.000; -600.000
882.367;  -91.650; -136.000; -186.000
882.612;  -81.900;  -80.000; -176.000
882.858; -184.475; -877.000; -823.000
883.103;  -91.500; -297.000; -267.000
883.348; -143.950; -759.000; -852.000
883.593; -141.450; -677.000; -602.000
883.838;  -67.775; -311.000;  -24.000
884.083;   16.150;  353.000;  288.000
884.328;  -96.450; -564.000; -545.000
884.573;  -60.425; -196.000; -143.000
884.818;  156.725; -694.000; -531.000
885.063;  189.975; -348.000; -315.000
885.308; -101.700; -475.000; -398.000
885.553;  -25.750;  245.000;  325.000
885.797; -134.475; -545.000; -615.000
886.042;  -68.050;    8.000;   58.000
886.287;  -93.475; -253.000; -211.000
886.532;  -69.150;   26.000;  204.000
886.776; -111.775; -407.000; -525.000
887.021; -150.150; -621.000; -574.000
887.265; -159.675; -685.000; -689.000
887.510; -134.575; -557.000; -496.000
887.755;  -97.100; -194.000; -164.000
887.999; -142.600; -552.000; -575.000
888.244;  -71.300;  -58.000;  161.000
888.488;  -18.100;  371.000;  393.000
888.732; -140.700; -368.000; -520.000
888.977; -139.425; -622.000; -567.000
889.221; -144.875; -683.000; -659.000
889.465; -137.350; -422.000; -566.000
889.710;  -85.350;  -56.000; -299.000
889.954;  -19.350;  579.000;  467.000
890.198; -154.925; -584.000; -707.000
890.442; -149.875; -716.000; -712.000
890.687; -171.175; -800.000; -753.000
890.931;  -98.775; -273.000; -210.000
891.175; -135.550; -502.000; -500.000
891.419; -100.050; -105.000; -110.000
891.663; -101.375; -239.000; -112.000
891.907; -167.225; -801.000; -545.000
892.151; -182.925; -920.000; -815.000
892.395; -120.225; -274.000; -387.000
892.638;  -37.875;  408.000;  291.000
892.882; -177.550; -780.000; -867.000
893.126;  -11.050;  758.000;  558.000
893.370;  -94.025; -167.000; -168.000
893.614; -157.475; -714.000; -715.000
893.857; -109.350; -183.000; -197.000
894.101; -136.200; -527.000; -631.000
894.345;  -73.925;  300.000;  150.000
894.588;   -0.825;  569.000;  380.000
894.832; -103.150; -178.000;  -84.000
895.075;  -86.775;   15.000;  -92.000
895.319; -128.925; -552.000; -420.000
895.563; -120.225; -413.000; -353.000
895.806; -159.625; -628.000; -741.000
896.049;  -67.625; -576.000; -368.000
896.293;   91.900;  527.000;  405.000
896.536;  -72.475; -465.000; -468.000
896.779;  -68.275; -149.000;   -1.000
897.023; -140.300; -751.000; -714.000
897.266;  -31.075;  325.000;  269.000
897.509; -180.725; -900.000; -901.000
897.752;  -45.950;  149.000;  171.000
897.996; -198.000; -972.000; -864.000
898.239;  -48.425;  168.000;  102.000
898.482; -127.275; -431.000; -453.000
898.725;  -46.300;  101.000;   53.000
898.968; -166.575; -609.000; -744.000
899.211; -122.700; -513.000; -361.000
899.454; -125.225; -633.000; -539.000
899.697;  -76.000;   90.000;  -43.000
899.940; -166.875; -761.000; -757.000
900.182; -106.950; -335.000; -405.000
900.425; -111.550; -150.000; -298.000
900.668;  -33.250;  491.000;  350.000
900.911; -108.575; -292.000; -345.000
901.154;  -54.250;  141.000;   -3.000
901.396; -139.350; -407.000; -412.000
901.639; -153.675; -430.000; -496.000
901.882; -188.550; -790.000; -809.000
902.124;  -91.550;  -29.000; -143.000
902.367; -117.150; -315.000; -361.000
902.609; -144.000; -476.000; -453.000
902.852; -111.800; -108.000; -260.000
903.094; -142.000; -458.000; -337.000
903.337;  -79.325;  -26.000;   53.000
903.579; -120.750; -228.000; -441.000
903.821; -155.925; -597.000; -744.000
904.064;  -81.800;   85.000;  127.000
904.306;  -92.650; -126.000; -166.000
904.548; -112.925; -152.000; -366.000
904.790; -114.775; -195.000; -340.000
905.033; -138.475; -625.000; -577.000
905.275; -126.325; -513.000; -524.000
905.517;   28.875;  468.000;  256.000
905.759;  -65.250; -667.000; -761.000
906.001; -103.925; -322.000; -369.000
906.243;  -78.175; -162.000; -224.000
906.485;  100.950; -265.000; -207.000
906.727;  113.150; -499.000; -542.000
906.969;  -37.400;  -30.000; -135.000
907.211;   93.800; -316.000; -382.000
907.453;  258.800; -188.000; -237.000
907.695;   13.375; -158.000; -385.000
907.936;   33.000;  818.000;  706.000
908.178;  -66.900;   92.000; -135.000
908.420;  -87.000; -111.000; -162.000
908.662; -145.025; -633.000; -682.000
908.903;  -91.950; -208.000; -123.000
909.145;  -58.125; -240.000; -305.000
909.386;  -11.425;  315.000;  280.000
909.628;   39.050;  363.000;  397.000
909.870;    7.750;   29.000;  264.000
910.111; -105.125; -809.000; -949.000
910.353;    0.525; -123.000; -161.000
910.594;    4.900; -574.000; -606.000
910.835;   94.850; -265.000; -326.000
911.077;  175.625; -503.000; -604.000
911.318;  298.400; -505.000; -471.000
911.559;  450.650; -577.000; -880.000
911.801; 1325.250; -284.000; -280.000
912.042; 9823.575;  -50.000; -159.000
912.283;28527.525;  404.000;  371.000
912.524; 5092.850; -396.000; -457.000
912.765;  539.550; -193.000;   79.000
913.006;  236.475; -307.000; -338.000
913.247;   63.800; -270.000; -290.000
913.488;    0.900;  -43.000;   30.000
913.729;  -95.775; -373.000; -373.000
913.970;  -75.075;  -96.000; -292.000
914.211;  -79.100; -160.000; -198.000
914.452;  -83.975; -118.000;  -11.000
914.693;    8.600;  510.000;  592.000
914.934;    4.000;  510.000;  440.000
915.175;  -68.625;   53.000;  -95.000
915.415;  -79.950; -137.000;   27.000
915.656;  -62.975;  -28.000;  192.000
915.897;  -90.750; -252.000;  -82.000
916.137;  -85.575;   74.000;   -9.000
916.378; -142.450; -573.000; -517.000
916.619;  -93.200; -159.000;  -63.000
916.859;  -39.350;  303.000;  330.000
917.100;  119.575; 1655.000; 1070.000
917.340;   62.075;  930.000;  728.000
917.581;   22.575;  965.000;  789.000
917.821;  -47.050; -171.000;  143.000
918.061;   14.625; -199.000;  -72.000
918.302;  -52.850; -152.000; -211.000
918.542;  -30.900;  -22.000;    3.000
918.782;   42.650;  369.000;  377.000
919.023;  122.650;  360.000;  427.000
919.263; 1678.825; 8131.000;  202.000
919.503; 1157.750; -137.000;  -54.000
919.743;  603.850;  390.000;  266.000
919.983;  278.125; -134.000;  -26.000
920.223;   66.300;  135.000;   14.000
920.463;  158.200;  631.000;  554.000
920.703;  141.100;   84.000;   39.000
920.943;  176.625; -110.000;   90.000
921.183;  226.875; -414.000; -405.000
921.423;  484.675;  307.000;  546.000
921.663;  742.475; -174.000; -257.000
921.903; 1555.000;  237.000;  173.000
922.143; 8382.025;  372.000;  389.000
922.383;34053.925;  158.000;  115.000
922.622;13396.975; -120.000;  -15.000
922.862; 1366.925;  796.000;  785.000
923.102;  508.775;  -51.000;   33.000
923.341;  208.700;   59.000;   74.000
923.581;   91.975;  450.000;  360.000
923.821;   35.900;  301.000;  398.000
924.060;    5.225;  351.000;  193.000
924.300;  -55.550;  -16.000; -128.000
924.539;  -20.275;  584.000;  473.000
924.779;   -7.000;  812.000;  597.000
925.018;  -49.450;  247.000;  353.000
925.257;   -9.300;  595.000;  666.000
925.497;  -43.200;  447.000;  412.000
925.736;  -78.800;  -35.000;  102.000
925.975;    0.525;  687.000;  669.000
926.214;   19.575;  907.000;  850.000
926.454;   25.975;  706.000;  757.000
926.693;  -47.275;  419.000;  543.000
926.932;   42.450; 1021.000;  825.000
927.171;   60.275; 1107.000; 1044.000
927.410;   50.250; 1144.000;  967.000
927.649;   16.800;  924.000;  742.000
927.888;   -6.975;  590.000;  564.000
928.127;  -18.150;  680.000;  678.000
928.366;   18.650;  842.000;  826.000
928.605;   38.575;  831.000;  737.000
928.844;  213.900; 1451.000; 1393.000
929.083;  592.475;  770.000;  613.000
929.321;  338.925; 1335.000; 1359.000
929.560;   79.875; 1158.000; 1122.000
929.799;  -35.675;  574.000;  475.000
930.038;   70.925; 1025.000; 1394.000
930.276;  -50.600;  334.000;  397.000
930.515;   -5.625;  827.000;  681.000
930.753;  -26.200;  614.000;  589.000
930.992;  -19.850;  664.000;  717.000
931.230;    5.075;  847.000;  847.000
931.469;  161.975; 2162.000;  892.000
931.707;   54.675;  840.000;  751.000
931.946;   58.350; 1278.000; 1344.000
932.184;   58.225; 1437.000; 1175.000
932.423;   29.500; 1265.000;  963.000
932.661;   80.475; 1296.000; 1428.000
932.899;   23.400;  987.000;  821.000
933.137;   10.700;  754.000;  564.000
933.376;  129.550; 1664.000; 1335.000
933.614;  163.500; 1759.000; 1196.000
933.852;   44.900; 1357.000; 1171.000
934.090;  128.950; 1722.000; 1747.000
934.328;   90.875; 1252.000; 1457.000
934.566;   87.000; 1431.000; 1110.000
934.804;  132.575; 1263.000; 1309.000
935.042;  446.250; 1861.000; 1850.000
935.280; 1795.150; 2088.000; 2063.000
935.518; 1939.075; 2113.000; 2007.000
935.756;  393.800; 2481.000; 2316.000
935.994;  149.325; 1808.000; 1751.000
936.231;  319.300; 2890.000; 2950.000
936.469;  189.050; 2367.000; 2378.000
936.707;  156.825; 2220.000; 2167.000
936.945;  236.525; 2825.000; 2882.000
937.182;  198.975; 2679.000; 2741.000
937.420;  296.900; 3602.000; 3031.000
937.657;  393.225; 3365.000; 3478.000
937.895;  355.425; 3331.000; 3488.000
938.133;  314.925; 3540.000; 3528.000
938.370;  342.050; 3896.000; 4191.000
938.607;  392.675; 4488.000; 4205.000
938.845;  546.800; 5587.000; 5549.000
939.082;  471.050; 5387.000; 5177.000
939.320;  520.050; 5799.000; 5728.000
939.557;  644.475; 6549.000; 6491.000
939.794;  717.550; 7285.000; 7097.000
940.031;  897.025; 8421.000; 8368.000
940.269; 1077.625; 9552.000; 9107.000
940.506; 1109.150;10901.000;10507.000

