
Integration time [ms]: 100.000
Averaging Nr. [scans]: 40
Smoothing Nr. [pixels]: 0
Data measured with spectrometer [name]: 2101013U2
Wave   ;Sample   ;Dark     ;Reference
[nm]   ;[counts] ;[counts] ;[counts] 

394.013;   79.987; -450.257; -315.536
394.305;  238.910; -461.258; -419.536
394.596;  877.391; -676.269; -527.514
394.887; 2032.231; -796.268; -654.518
395.178;  816.934;  145.736;   11.476
395.470;   92.795; -210.263; -356.526
395.761;  229.745;  305.734;  394.479
396.052;  378.477; -545.284; -306.489
396.343;  387.591; -557.276; -454.503
396.634;  174.912; -200.279; -290.497
396.926;  189.154; -618.268; -565.517
397.217;  175.145;   11.725;  -17.504
397.508;   85.434; -366.273; -154.507
397.799;   72.012; -555.279; -571.497
398.090;   17.182; -973.280; -902.495
398.381;  167.633;   11.708;  -11.473
398.672;   31.034; -585.292; -742.473
398.963;   76.317; -348.279; -373.498
399.254;  146.192;   54.709; -209.475
399.545;   -2.733;-1017.266; -883.520
399.836;   96.230; -407.277; -343.501
400.127;   66.011; -205.295; -209.468
400.418;   94.454; -423.274; -392.506
400.709;  103.870; -359.281; -333.493
401.000;   80.096; -268.291; -309.476
401.290;  131.428;  225.698;  115.545
401.581;   81.936; -166.286; -228.485
401.872;   51.636; -542.298; -486.462
402.163;   68.329; -313.296; -252.467
402.454;  112.543; -123.291; -163.475
402.744;  124.921; -844.297; -813.465
403.035;  601.200; -226.293;  -86.471
403.326;  741.912; -366.292; -384.474
403.617;  476.331;  204.701;  165.539
403.907;  242.957; -593.283; -679.490
404.198; 1859.361; -545.307; -599.446
404.489; 4945.011; -618.283; -588.491
404.779; 1889.756; -618.302; -660.456
405.070;  243.087;  -67.304; -174.451
405.360;  327.352; -259.293; -238.472
405.651;  337.542;  125.699;   98.542
405.942;  230.706;  209.714;  127.516
406.232;  411.170; -432.285; -413.487
406.523;  602.670;  641.706;  758.530
406.813;  144.608; -579.286; -644.484
407.104;  463.057;  261.708;  144.527
407.394;  281.357; -604.299; -591.462
407.685;  193.094;  336.715;  222.513
407.975;   85.835; -400.283; -382.490
408.265;  139.706; -134.289; -190.478
408.556;   80.265; -472.291; -459.475
408.846;  189.271;  474.706;  429.530
409.137;  101.014;   -1.288; -216.480
409.427;   64.995; -193.285; -271.487
409.717;   47.687; -776.273; -692.508
410.007;  168.014;    4.715; -170.486
410.298;  112.464; -360.295; -342.469
410.588;   92.767; -495.285; -510.486
410.878;   45.099; -792.287; -873.482
411.168;  136.138; -481.298; -478.463
411.459;  119.730; -295.283; -242.489
411.749;   69.714; -609.292; -507.474
412.039;   80.012; -755.289; -386.480
412.329;  230.574;   40.722;  132.501
412.619;  208.559;  -62.286; -148.485
412.909;  395.334;  639.711;  594.521
413.199;  410.807; -130.280; -251.495
413.490;  457.450;  521.710;  352.523
413.780;  124.486;-1013.279; -913.496
414.070;  323.191;  -46.276;  235.497
414.360;  371.720; -729.278; -666.498
414.650;  396.195; -726.288; -688.482
414.940;  465.585; -538.280; -441.496
415.230;  817.143;   50.712;   74.519
415.520; 5043.940;  155.730;   66.486
415.809;19527.495; -305.281; -125.493
416.099;15032.533; -388.277; -229.501
416.389; 3910.502;  435.726;  236.494
416.679; 2283.048;   91.738;   85.473
416.969;  429.303; -527.287; -503.483
417.259;  404.062;  341.721;  171.503
417.549;  628.868;  522.718;  318.508
417.838; 1308.706; -205.268; -147.518
418.128; 4150.555;  650.710;  492.522
418.418; 3492.418; -491.272; -579.509
418.708; 2395.877;    9.726;  -48.506
418.997; 8707.198; -474.275; -480.505
419.287; 9002.208; -733.273; -790.507
419.577; 8109.679; -160.283; -123.489
419.866;27525.331; -588.277; -498.501
420.156;29783.462; -242.270;  -55.513
420.446; 5673.266; -112.263;  -26.526
420.735;  975.106; -376.271; -446.512
421.025;  845.470; 1830.722;  315.502
421.314;  873.954; -203.271; -226.512
421.604; 2137.674;   89.732;  233.484
421.893; 1221.976; -705.271; -602.511
422.183;  234.341; -487.263; -461.526
422.472;  375.977;  -36.271; -107.511
422.762;  461.247; -416.266; -379.521
423.051;  256.492; -916.276; -916.503
423.341;  353.635; -491.273; -439.507
423.630;  433.278; -121.265;   15.477
423.919;  386.298;   58.725;   49.495
424.209;  345.346;  -31.263;   56.473
424.498;  452.404;   68.732;  161.483
424.787;  875.934; -535.267; -601.518
425.077; 2884.176;   34.735;   29.478
425.366; 4713.976; -734.262; -744.528
425.655; 7798.136;  639.727;  259.493
425.945;14066.994; -313.247; -268.554
426.234; 8072.247;  117.741;  300.467
426.523; 4082.852;  -86.259; -350.534
426.812; 5675.668;  107.734;  159.480
427.101; 7964.921; -127.269; -323.515
427.390;10547.140;  -55.270;  -86.514
427.680; 3190.845; -624.257; -411.538
427.969;  542.480; -330.255; -301.540
428.258;  347.387; -385.257; -477.536
428.547;  596.722;  449.728;  397.490
428.836; 1586.944; -421.253; -398.543
429.125; 2351.428; -199.259;  -72.534
429.414;  915.390; -330.251; -294.548
429.703; 2500.740; -231.251; -213.548
429.992; 7303.518; -938.250; -828.549
430.281; 4785.960; -397.264; -331.524
430.570;  613.706;  -21.252;   32.454
430.859;  737.751;  279.741;  352.466
431.148;  540.340;  636.752;  631.446
431.437;  354.956;  391.748;  367.454
431.725;  155.163; -544.257; -481.536
432.014;  117.251; -845.253; -756.545
432.303;  428.560; -149.239; -105.569
432.592;  714.816; -460.263; -178.525
432.881;  902.466; -601.248; -437.554
433.169; 4505.555; -343.255;  -61.540
433.458; 9224.066;  445.765;  540.424
433.747; 4164.056; -397.261; -289.529
434.036; 1107.063; -275.242; -280.564
434.324; 1803.630; -395.249; -379.551
434.613; 2960.707;   40.757;  159.437
434.902; 1190.901;  333.760;  439.433
435.190;  966.084;   75.761;  295.431
435.479;  555.715;  -52.245;   83.441
435.767;  168.997; -411.244; -427.561
436.056;  294.159; -340.242; -294.563
436.345;  365.203; -372.240; -223.568
436.633;  408.450;   60.750;  383.450
436.922;  400.605;  208.760;  414.432
437.210; 1022.831; -194.236;    1.426
437.499; 3360.514; -583.235; -432.576
437.787; 3687.331; -339.236;  -10.574
438.075;  849.289;   56.761;  162.430
438.364; 1115.866;  -44.238;  250.429
438.652;  682.487; -286.226; -138.592
438.941;  189.929;    3.770;  269.415
439.229;   34.004; -665.252; -466.545
439.517;   50.821; -160.234;  -85.577
439.806;   22.076; -501.225; -290.595
440.094;  234.803;  377.766;  650.421
440.382;  287.132; -653.233; -302.580
440.670;  320.663; -361.235; -285.576
440.959;   72.267; -347.223; -170.599
441.247;  112.864; -151.229; -109.587
441.535;  150.295; -266.235;   31.423
441.823;   79.026; -497.234; -305.578
442.111;  217.343;  173.771;  327.412
442.400;  778.564; -628.245; -335.559
442.688; 2246.928; -111.234; -620.579
442.976; 1723.322; -786.213; -450.617
443.264;  168.582; -324.224; -364.597
443.552;  147.413; -258.226;   51.408
443.840;  203.469;  602.765;  876.423
444.128;  131.456;  265.767;  269.420
444.416;   22.595; -694.228; -312.588
444.704;   43.794; -465.219;  -92.605
444.992;   99.465;   -0.226;  240.407
445.280;   93.104; -517.230;  -94.585
445.568;   77.700; -694.212; -396.618
445.856;  482.354; -174.221;  357.398
446.143; 1153.941;  -54.220;   -7.604
446.431;  922.599;  -25.228;  625.411
446.719;  299.412;  489.783;  675.391
447.007;  215.749;  481.769;  705.416
447.295;  205.489;  597.777;  871.402
447.583;  116.537; -464.229;  -34.587
447.870;  199.052; -434.221; -202.601
448.158;  556.928; -104.230;  129.415
448.446;  440.767; -800.219; -338.604
448.733;  189.383;   13.776;  269.403
449.021;  299.700;   60.788;  341.382
449.309;  201.939; -296.210;  208.379
449.596;  240.608;  128.783;   59.392
449.884;  160.171; -571.222; -325.600
450.172;  131.704; -756.227; -406.590
450.459;  349.657;  645.786;  780.387
450.747; 1623.207; -411.218; -147.608
451.034; 5276.300;  493.772;  889.411
451.322; 4317.235; -413.214; -170.614
451.609;  420.060;  292.777;  508.403
451.897;  430.671; -550.203; -183.634
452.184; 1343.139; -622.223; -400.598
452.472; 1310.233;   97.792;  269.375
452.759;  362.642;  512.781;  864.395
453.047;  145.873; -407.212; -125.617
453.334;  132.424; -732.219; -216.606
453.621;  129.587; -438.214; -161.615
453.909;  158.664;   13.796;  384.368
454.196;  154.230; -299.199; -123.641
454.483;  252.808;  317.798;  540.364
454.771;  177.936; -215.208;  196.374
455.058;   49.964; -316.207;  102.374
455.345;  108.181;   71.807;  344.347
455.632;   86.517; -128.207;  235.373
455.919;   53.801;  -82.196;  182.354
456.207;  -42.465; -774.198; -450.642
456.494;   -0.106; -475.200;  -66.639
456.781;   18.829; -399.202; -198.635
457.068;   86.398; -253.206;  -29.628
457.355;   16.424; -698.206; -401.629
457.642;    6.029; -552.205; -290.630
457.929;   32.173; -778.194; -417.651
458.216;   66.273; -575.212; -354.617
458.503;  162.102; -173.193;  -19.652
458.790;  167.584; -864.208; -630.625
459.077;  260.459;  -77.202;  110.364
459.364;  617.641; -350.195; -210.649
459.651; 1273.646;  -46.206;  220.372
459.938;  616.025; -864.209; -665.623
460.225;  194.987;  132.799;  276.363
460.512;  -32.377; -836.197; -688.645
460.799;  133.456;  -32.218;  320.392
461.086;  123.098; -370.200; -251.640
461.372;   99.535; -509.198; -279.642
461.659;  184.977; -165.196;  108.354
461.946;  110.001; -445.193;  -54.651
462.233;  271.046;  842.800;  888.361
462.519;  301.418; -814.201; -464.639
462.806;  786.149; -768.197; -497.645
463.093;  698.419; -445.191;  -66.656
463.380;  -19.218; -920.186; -824.664
463.666;   82.025; -259.197;  -18.646
463.953;   85.911; -406.195; -243.648
464.239;  180.486; -173.195;  -77.648
464.526;  422.896;  413.806;  743.350
464.813;  401.980; -565.190; -304.658
465.099;  397.327;  606.807;  607.348
465.386;  399.930;  903.807;  921.348
465.672;   87.524; -694.197; -522.645
465.959;   91.221; -598.188; -520.662
466.245;   40.580; -468.193; -359.652
466.532;  143.009; -109.195;   63.352
466.818;  111.957; -357.186; -216.664
467.104;   23.569; -488.182; -415.672
467.391;  -13.018; -628.189; -459.658
467.677;   61.960; -289.186;    9.335
467.964;   39.438; -682.189; -471.660
468.250;  108.588; -331.186; -160.665
468.536;  100.658;   90.811;  180.341
468.822;  -22.477; -821.184; -574.668
469.109;  159.242;  351.827;  471.311
469.395;  197.389;  729.808;  787.346
469.681;  196.736;   46.811;  156.341
469.967;  974.990; -699.188; -382.660
470.254; 2014.122; -494.188; -306.662
470.540; 1309.776; -601.196; -476.646
470.826;  187.404; -488.181; -397.675
471.112;  242.977;  288.816;  113.331
471.398;  106.756; -253.183;  -58.670
471.684;   57.980; -626.177; -447.680
471.970;  -17.143; -918.180; -981.675
472.256;   35.788; -521.192; -441.654
472.542;   44.677; -499.171; -434.691
472.828;   55.390; -743.182; -607.672
473.114;   63.442; -380.166; -283.700
473.400;   32.470; -504.175; -293.684
473.686;   54.648; -452.166; -400.701
473.972;   75.333; -230.174; -131.687
474.258;  -35.708; -925.173; -843.689
474.544;  135.022; -183.178;   -2.679
474.830;  197.971;  -65.175;   45.316
475.116;  315.206; -123.190; -196.658
475.401;  403.959; -558.180; -467.676
475.687;  165.133; -725.180; -718.676
475.973;   48.497; -673.181; -770.673
476.259;  299.598;  736.825;  764.315
476.544;  335.137; -539.176; -437.682
476.830;  556.499; -398.172; -322.690
477.116;  430.986; -430.177; -336.682
477.401;  130.909;  346.820;  358.324
477.687;   -2.080; -289.175; -405.684
477.973;   38.025;   21.819;   28.326
478.258;    2.841; -448.163; -348.706
478.544;   69.192;   21.815;   61.334
478.829;  -38.568; -818.171; -738.692
479.115;  -26.702; -749.172; -651.690
479.401;   -2.396; -444.174; -449.686
479.686;    9.758; -253.180;  -74.676
479.972;  -38.798; -886.178; -776.680
480.257;   38.593; -258.166;  -65.700
480.542;    9.886; -614.170; -469.693
480.828;  250.543; 1288.824; 1392.317
481.113;  -20.459; -464.176; -426.683
481.399;   14.638; -236.161; -202.711
481.684;  -52.332; -620.166; -462.700
481.969;   25.200; -158.159;  -73.713
482.255;   -5.879; -439.169; -285.695
482.540;   23.402; -569.178; -441.680
482.825;   -0.222; -395.187; -404.663
483.110;   71.599;  -85.169; -105.696
483.396;   98.845; -840.157; -652.718
483.681;  354.433;  543.826;  730.313
483.966;   80.370; -696.160; -700.712
484.251;   18.307; -404.174; -310.687
484.536;   22.378; -356.165; -378.703
484.822;   20.135; -205.173; -218.687
485.107;  -11.445; -599.152; -502.726
485.392;  139.733;  662.836;  541.296
485.677;   89.883;  354.832;  163.302
485.962;  120.868;  160.843;  270.283
486.247;  108.049;  -14.162;   -8.707
486.532;   45.669; -178.166; -325.701
486.817;  164.358;  381.839;  431.291
487.102;  111.914; -453.154; -514.722
487.387;  424.322; -637.156; -652.718
487.672;  717.988; -154.164;  -38.705
487.957;  464.715; -394.160; -286.711
488.241;  169.545; -290.150; -314.729
488.526;  483.981; -280.152; -148.726
488.811;  768.179; -881.177; -818.680
489.096;  594.517; -666.154; -702.723
489.381;  354.028;    3.847;  162.275
489.666;  219.838; -428.161; -510.710
489.950;  153.695;  558.846;  627.277
490.235;  -15.059; -480.151; -458.728
490.520;  -30.863; -756.161; -723.710
490.804;  -63.376; -827.156; -736.719
491.089;   10.210; -469.149; -299.732
491.374;   28.161; -132.164;  -75.704
491.658;    0.495; -817.147; -717.735
491.943;  195.185; -657.152; -609.727
492.227;  295.036; -178.155;  -38.721
492.512;   61.442; -294.157; -341.717
492.797;  -60.396; -713.149; -716.731
493.081;  -41.252; -588.147; -598.735
493.366;  -24.662; -751.161; -635.711
493.650;  205.146;  831.859;  917.254
493.935;    7.145; -648.147; -447.734
494.219;  -38.541; -778.142; -687.743
494.503;  -53.701; -585.150; -487.730
494.788;   42.635;   46.842;   74.285
495.072;  112.071;  184.850;  434.271
495.356;  142.413; -463.148; -343.733
495.641;  411.304; -812.146; -736.736
495.925;  407.478; -976.156; -903.719
496.209;   62.009; -599.149; -451.732
496.494;  -29.740; -763.142; -544.744
496.778;   36.790; -364.154; -360.722
497.062;  -54.147; -819.156; -627.719
497.346;  -38.759; -869.160; -640.711
497.631;  135.016;  580.852;  560.266
497.915;   73.113;  -64.145;  175.261
498.199;   63.795; -341.157; -277.718
498.483;   47.605; -562.152; -508.725
498.767;  145.872;  301.850;  300.271
499.051;  127.132; -126.149; -100.732
499.335;   -2.895; -693.149; -739.731
499.619;  -28.137; -381.129; -423.767
499.903;   35.734; -272.155;  -65.721
500.187;   18.246; -588.153; -316.724
500.471;   36.059; -796.152; -595.727
500.755;  130.112;   62.839;  -96.710
501.039;   49.085; -270.155; -357.721
501.323;  119.123;  -21.141;  264.254
501.607;   54.292; -447.163; -503.706
501.891;    5.697; -607.156; -512.718
502.174;  -23.302; -726.144; -585.741
502.458;   85.063;   89.849;  370.273
502.742;   36.619; -180.138; -191.751
503.026;   59.044; -412.147; -254.734
503.310;   99.524; -437.159; -375.713
503.593;   82.671; -464.147; -325.735
503.877;  119.206; -232.133; -156.760
504.161;  188.023;    2.847;  -50.724
504.444;  110.662; -841.158; -710.716
504.728;  292.735; -487.164; -522.704
505.012;  499.495; -257.150;  -76.729
505.295;  367.363; -417.161; -212.711
505.579;  367.878; -256.156; -496.719
505.862;  471.585; -555.145; -333.738
506.146;  452.027; -681.159; -758.714
506.429;  318.327;  568.841;  461.286
506.713;   37.917; -732.151; -667.728
506.996;  243.014;   90.846;  295.278
507.280;  212.181; -633.165; -474.703
507.563;  152.508; -469.155; -261.721
507.847;   59.772; -423.153; -112.724
508.130;   57.764; -665.161; -456.711
508.413;   54.164; -758.167; -577.700
508.697;  156.215; -151.167;   12.300
508.980;   82.948; -422.153; -312.724
509.263;  -16.245; -466.155; -450.720
509.547;   25.419; -124.150;   82.271
509.830;   53.366; -172.160;  140.289
510.113;   97.302;  128.844;  298.281
510.396;   38.703; -530.152; -300.725
510.680;  287.611; -818.145; -812.738
510.963; 1068.718;  184.846;  180.277
511.246;  978.951; -493.150; -357.730
511.529;  292.441; -482.145;  -83.739
511.812;  232.253; -250.134;   10.241
512.095;  149.214; -740.151; -396.728
512.378;   41.124; -317.147; -245.736
512.661;    6.451; -703.137; -623.753
512.944;    1.686; -750.142; -637.744
513.227;   53.874; -170.137; -171.752
513.510;   18.398; -479.144; -671.741
513.793;   46.827; -485.140; -435.747
514.076;  117.632;  -43.127;  -39.771
514.359;   91.435; -294.149; -135.732
514.642;   49.764; -442.142; -567.744
514.925;  528.450;  581.860;  561.253
515.208;  624.950; -498.134; -443.758
515.491;  427.662; -276.133; -182.761
515.773;  235.327; -410.143; -337.742
516.056; 1358.657;  249.864;  409.246
516.339; 1965.411; -754.136; -652.755
516.622; 1954.974; -518.150; -488.730
516.904; 1832.333;  882.857;  975.257
517.187;  836.173; -730.138; -523.752
517.470;  369.682; -568.143; -510.743
517.752;  280.263; -624.136; -470.756
518.035;  207.811; -708.139; -725.749
518.318;  221.561; -799.136; -744.755
518.600; 1484.691; -300.132; -325.762
518.883; 2061.563;  310.858;   88.256
519.165; 1042.191; -585.138; -426.751
519.448;  368.590;  -61.132;  -19.762
519.730;  199.539; -573.126; -415.773
520.013;  357.234;  588.867;  664.240
520.295; 1235.105;  -94.134;  -15.759
520.578; 2802.452; -335.131; -305.764
520.860; 3066.090; -254.132;   56.238
521.143; 1485.115; -763.135; -584.756
521.425;  435.301; -251.125; -279.775
521.707;  508.983; -622.127; -380.771
521.990; 1196.083; -199.127;  167.229
522.272; 1327.828; -116.140;   -4.748
522.554;  776.377; -237.143; -157.742
522.836;  473.153;  -24.134;   99.241
523.119;  241.943; -496.148; -189.734
523.401;  148.759; -448.130; -314.766
523.683;   49.352; -865.137; -693.753
523.965;  202.246;  408.862;  260.248
524.247;  192.820;   54.878;  170.220
524.529;  139.179; -451.134; -367.759
524.812;  282.560;   -3.130;  191.234
525.094;  538.345; -773.138; -631.751
525.376;  885.709; -143.124;   78.223
525.658;  525.983; -441.136; -339.754
525.940;   -3.601; -805.131; -671.764
526.222;   57.787; -188.136;  -88.755
526.504;  167.322; -190.131;   32.237
526.786;  299.757; -960.133; -647.760
527.068;  464.114; -124.123;  -67.778
527.349;  229.105; -865.137; -774.754
527.631;  127.940; -137.132;   22.238
527.913;   74.657; -664.127; -450.771
528.195;   93.695; -761.125; -639.774
528.477;  162.050;  -93.134;  -30.758
528.759;   45.935; -648.130; -522.766
529.040;   15.963; -569.123; -293.778
529.322;   42.072; -235.125;  -10.774
529.604;  183.762;  -47.130;   93.233
529.886;  174.064; -546.126; -302.773
530.167;  154.205;  232.870;  192.235
530.449;   46.724;    1.853;   63.265
530.731;    2.345; -572.122; -459.779
531.012;   33.989; -513.120; -216.784
531.294;   40.749; -118.116;  -43.792
531.575;  113.251;  290.875;  538.225
531.857;   -4.680; -548.135; -266.757
532.138;   60.071; -113.141;   40.254
532.420;  198.167;  294.865;  403.244
532.701;  280.734; -722.133; -751.760
532.983;  427.587;  232.867;  182.239
533.264;  151.462; -243.126;  175.228
533.546;  -15.839; -491.136; -508.755
533.827;   57.856;  173.867;   -1.759
534.109;   67.920; -352.135;  -80.757
534.390;  106.594; -725.132; -582.762
534.671;  226.217; -270.135;  -82.756
534.953;  111.466; -751.123; -611.779
535.234;   16.835; -426.117; -255.789
535.515;  -87.104; -891.119; -735.785
535.796;  -28.072; -431.128; -193.770
536.078; -103.816;-1050.124; -904.777
536.359;   16.216;  -22.123;    3.221
536.640;  -12.604; -480.125; -197.774
536.921;  172.142;  225.871;  143.232
537.202;  267.642;  -87.138;  -16.751
537.483;  323.302;  251.869;  377.236
537.764;  124.930;   17.870;   98.235
538.045;  -26.901; -543.134; -371.758
538.326;  -35.356; -596.129; -447.768
538.607;    4.609; -686.127; -476.771
538.888;  123.280;   98.879;    5.218
539.169;  108.600; -704.122; -535.781
539.450;  269.091;  236.871;   16.233
539.731;  183.059; -361.121; -182.783
540.012;  129.764;  199.880;  412.216
540.293;   95.154;   82.876;  158.224
540.574;   25.043; -895.113; -717.796
540.855;  437.583;  435.879;  377.218
541.136;  455.023;   47.878;  139.220
541.416;  217.211; -161.130; -220.766
541.697;  124.698; -274.131; -170.763
541.978;  688.744; -270.135; -315.757
542.259;  882.033; -211.127; -236.771
542.539;  424.494; -191.116; -186.790
542.820;  183.351;  461.875;  480.225
543.101;  121.513;  -52.145;  -77.738
543.381;   22.633; -638.127; -591.771
543.662;  205.856;  159.873; -254.771
543.942;  341.029; -751.127; -830.770
544.223;  707.874;  193.878;  161.219
544.504;  457.784; -275.124; -182.777
544.784;  396.064; -592.126; -408.773
545.065; 1154.147;  104.884; -254.791
545.345; 1431.571;  227.881;   14.215
545.626;  870.492;  -14.113; -108.796
545.906;  589.254;   77.869;   98.235
546.186;  229.443;   92.874;  -95.773
546.467;  145.611;   99.877;  -95.778
546.747;  234.643;  264.884;  327.210
547.027;  262.157;   91.876;  111.223
547.308;  194.429; -376.127; -530.770
547.588;  273.694;  299.871;  371.232
547.868;  159.855;  458.870;  588.235
548.149;  167.629;  609.885;  593.207
548.429;   76.082; -347.127; -299.771
548.709;   88.488; -645.120; -461.784
548.989;  311.230;   84.882;   88.213
549.269; 1359.639;   10.868;  139.239
549.550; 3121.090;  215.877;  117.222
549.830; 2761.459; -758.111; -556.799
550.110;  533.791; -468.110; -320.801
550.390;  546.145; -128.122;  -56.779
550.670;  719.338; -868.114; -783.795
550.950;  507.632; -509.121; -471.782
551.230;  160.954;  549.879;  460.218
551.510;  -28.244; -381.121; -326.782
551.790;   25.198; -173.109; -127.803
552.070;  194.511;  940.877; 1181.223
552.350;  242.125; -492.119; -377.786
552.630;  375.902;   -2.121;   77.219
552.909;  225.697;  181.884;   73.209
553.189;  151.020;  -49.132;   33.237
553.469;   75.300; -703.119; -514.786
553.749;   79.260; -469.127; -357.772
554.029;  106.764;   33.883;  -24.790
554.308;   70.958; -154.115;  -37.794
554.588;   22.702; -196.128; -204.770
554.868;   21.058; -366.121;  -47.782
555.147;   94.955; -114.115;  -46.793
555.427;  358.100; -260.116; -250.792
555.707; 2479.903; -284.115; -200.793
555.986; 2957.612; -719.111; -538.800
556.266; 1557.742;   23.884;   72.210
556.546;   43.056; -888.121; -675.782
556.825;  125.987; -657.114; -556.794
557.105; 1138.675; -125.128;   17.230
557.384; 1331.921;  122.884;  187.209
557.664;  450.724; -717.116; -508.792
557.943;   38.257; -557.121; -411.782
558.222;   89.508; -345.118; -344.788
558.502;  180.431; -116.115;  -76.793
558.781;  335.402;  194.885;  499.208
559.061;  248.483; -232.118; -227.788
559.340;  172.087;  302.883;  353.211
559.619;  428.842;   93.884;  148.210
559.899;  599.389; -239.117; -266.789
560.178;  542.806; -778.115; -593.793
560.457; 1930.665; -623.117; -562.790
560.736; 2710.713; -472.111; -482.800
561.015; 1782.474; -500.128; -502.769
561.295;  281.391;  180.893;  215.193
561.574;  268.754;  119.885;  116.207
561.853;  354.827;  274.891;  303.197
562.132;  303.033;  -45.114;  182.206
562.411;  278.977;  396.879;  553.219
562.690;   57.252; -592.115; -458.792
562.969;  114.399;  472.888;  630.203
563.248;  474.575; 2966.878; 2487.219
563.527;  157.787; -290.111; -408.800
563.806;  204.907; -650.127; -521.771
564.085;  244.930; -297.105; -206.810
564.364;  128.142; -594.117; -405.790
564.643;  296.077; -276.121; -223.781
564.922; 1162.696;  221.890;  397.198
565.201; 1126.249; -640.109; -700.803
565.479;  491.376; -297.115; -219.792
565.758;  170.676; -810.128; -712.770
566.037;  303.950; -155.109; -100.803
566.316;  150.022; -286.116;  -28.791
566.595;   33.578;  -17.115;  -12.793
566.873;   82.239; -166.111;  -79.801
567.152;  -82.202; -490.113; -590.797
567.431;   -1.632; -113.116;    6.210
567.709;   -4.059; -344.107; -212.807
567.988;  132.436; -810.114; -769.794
568.266;  339.953; -160.115;  -68.793
568.545;  227.622; -644.100; -514.819
568.824;  365.725;  160.885;  356.208
569.102;  291.186; -351.114; -235.794
569.381;  110.299; -492.116; -407.792
569.659;  -45.055; -553.113; -553.796
569.938;   -8.677; -743.122; -465.780
570.216;   61.203; -225.109; -225.804
570.494;  -64.886; -632.114; -572.795
570.773;   38.206;  202.879;  114.218
571.051;  -15.461; -373.123; -357.778
571.330;   41.343; -221.113; -174.796
571.608;   19.789; -181.098; -173.823
571.886;  -89.318; -671.111; -581.799
572.164;  -71.142; -739.121; -621.782
572.443;  -47.942; -562.105; -512.811
572.721;  -42.810; -399.117; -289.790
572.999;  -33.090; -280.117; -168.788
573.277;   81.977;  379.894;  620.191
573.555;  176.154;   94.894;   37.190
573.834;  797.859;  -86.117; -114.788
574.112;  974.493;  880.893;  811.193
574.390;  289.363; -143.111;  -96.801
574.668;   -7.626;  -91.112;  -61.797
574.946;    1.029; -165.106; -187.810
575.224;    0.699;   71.891;  -16.803
575.502;  -25.855; -200.116; -204.791
575.780;  -87.550; -767.112; -829.798
576.058;  189.437; 1589.889; 1004.200
576.336;  -33.433; -210.110; -129.801
576.614;  -57.299; -511.112; -340.798
576.891;   -7.093; -711.115; -823.794
577.169;  262.860; -158.108; -285.805
577.447;  365.418;  169.893;  202.193
577.725;  202.230;  629.888;  854.201
578.003;    1.903;  -71.112; -371.798
578.280;   62.916; -208.104; -242.812
578.558;   53.906; -450.115; -422.793
578.836;  119.214; -210.114; -145.795
579.114;   38.674; -630.112; -670.797
579.391;   83.511;   -6.117;  -18.789
579.669;  -65.642; -595.114; -704.794
579.947;  105.765; -326.107; -127.806
580.224;  186.114; -692.107; -524.806
580.502;  192.918;  127.893;   76.193
580.779;    7.441;  -42.117;   75.210
581.057;  -72.622; -584.109; -470.804
581.334; -103.345; -726.102; -695.815
581.612;   43.530;   54.895;  511.190
581.889;  -32.383;  -83.101; -129.818
582.167;  -31.670; -298.099; -190.821
582.444;  -99.638; -845.102; -814.817
582.721;  107.662;  657.899;  715.183
582.999;   21.302; -326.100; -167.821
583.276;  291.918; -812.123; -713.779
583.553;  415.658; -364.102; -294.816
583.831;  107.338; -607.104; -631.812
584.108;   53.558;  349.892;  174.195
584.385;   -8.821; -122.102;  -98.815
584.662;  -85.136; -651.111; -828.801
584.940;   34.414;  204.889;  204.199
585.217;  -23.680;  -73.113; -303.796
585.494;   24.572;   71.890;  118.198
585.771;  128.029; -250.109; -354.804
586.048;  337.069; -196.113;  -76.796
586.325;  189.842; -721.110; -773.801
586.602;   69.492;  230.896;  213.188
586.879;  -46.101; -499.100; -580.820
587.156;   30.906; -156.105; -331.810
587.433;  -65.915; -701.102; -667.817
587.710;   55.926;  152.888;  234.202
587.987;  199.085; -264.105; -236.811
588.264;  586.978;  315.888;  387.202
588.541;  974.969;  -61.104;   26.187
588.818; 1880.406;   72.892;  171.196
589.095; 1641.440; -163.104; -174.812
589.371;  246.377; -459.109; -414.804
589.648;  -17.257; -581.107; -437.807
589.925;  -15.660; -517.114; -621.795
590.202;  -31.524; -741.112; -607.798
590.478;   47.362; -166.105;  -73.811
590.755;  153.161; -241.108; -132.806
591.032; 1503.469; -741.110; -699.802
591.308; 2082.925; -732.094; -790.831
591.585; 1069.593; -573.110; -560.802
591.862;   35.586;-1056.102; -950.817
592.138;   17.309; -475.108; -474.805
592.415;   68.142; -486.104; -495.813
592.691; 1016.165;  460.896;  518.188
592.968; 1226.590; -208.098; -123.824
593.244;  559.118; -695.116; -595.790
593.521;   40.212; -105.102;  -42.817
593.797;  -47.479; -810.122; -720.780
594.074;  185.902; -611.096; -588.826
594.350;  477.387;  828.905;  729.172
594.626;  185.040; -303.111; -283.801
594.903;   25.112; -643.101; -645.817
595.179;  124.021;  243.896;  418.187
595.455;    3.119; -136.107; -150.807
595.731;  -12.303;  -19.103;  -38.814
596.008;  -56.191; -464.111; -434.800
596.284;    0.226; -187.100; -242.820
596.560;   15.431; -501.093; -493.833
596.836;  116.682; -173.105;  -70.810
597.112;  198.935; -582.108; -437.805
597.388;  171.900;  -49.097;  -48.826
597.665;   82.672;  437.887;  530.203
597.941;  -71.667; -572.089; -658.839
598.217;   -9.154; -323.110; -293.802
598.493;  153.830;   61.891; -204.804
598.769;  309.421; -175.100;  -50.819
599.045;  166.537; -490.108; -562.806
599.321;   -0.400; -193.100; -261.820
599.597;   55.155; -355.109; -476.804
599.872;  335.869;  409.896;  429.187
600.148;  212.851;  -61.097; -172.826
600.424;  164.242;   91.893;  202.193
600.700;  135.969; -170.107; -280.807
600.976;   48.096; -442.097; -464.825
601.252;  136.676; -226.109; -272.803
601.527;   75.545; -833.104; -840.813
601.803;   81.012; -453.105; -404.812
602.079;  104.421; -124.100; -118.819
602.354;  343.215; -620.092; -531.835
602.630;  525.720; -140.113; -482.796
602.906; 1495.317; -910.101; -863.818
603.181; 4347.400; -627.119; -534.786
603.457; 3747.224;   98.903; -278.826
603.733;  514.860; -605.120; -626.783
604.008;  622.255; -245.106; -164.810
604.284; 2017.913; -636.101; -580.817
604.559; 1722.730;   -3.112;  -42.799
604.835;  305.707; -163.105; -225.810
605.110;  227.780; -732.099; -892.821
605.385;  467.584;  224.907;  267.167
605.661;  378.290; -625.095; -729.829
605.936;  694.813; -664.108; -737.806
606.211;  599.053;  -17.103; -170.815
606.487;  111.735; -329.114; -376.794
606.762;  -20.425; -791.119; -745.786
607.037;  -42.718; -501.105; -433.810
607.313;  -72.667; -589.096; -574.828
607.588;  -32.121; -375.106; -137.810
607.863;   -2.734;  -28.101; -143.818
608.138;  134.370;  513.890;  516.198
608.413;  -17.666; -576.099; -592.822
608.688;    2.784; -203.108; -267.805
608.964;   91.699; -509.106; -218.809
609.239;  139.830; -107.105; -212.810
609.514;  161.937;  281.895;  240.188
609.789;  401.891; -187.104; -716.812
610.064;  551.432; -435.096; -609.827
610.339;  496.727; -855.109; -799.804
610.614;  697.051; -131.100; -315.820
610.889;  404.437;  215.895;  107.188
611.163;  -10.837; -407.104; -591.812
611.438;   42.011;   81.886; -167.794
611.713;  -35.862; -467.101; -499.817
611.988;   18.415; -144.101; -328.818
612.263;  -55.670; -771.102; -717.815
612.538;  149.419;  385.887;  251.204
612.812;   47.152; -832.100; -911.820
613.087;   58.638; -358.098; -338.823
613.362;  -71.006; -497.107; -557.807
613.637;   29.450;  261.897;  138.186
613.911;  -32.784; -256.092; -345.835
614.186;   55.168; -249.107; -292.807
614.460;  349.101; -842.081; -758.854
614.735;  466.054;  -55.087;  -17.843
615.010;   95.395;   43.912;  -82.841
615.284;  160.809;  360.892;  246.195
615.559;  186.290; -792.092; -955.835
615.833;  167.807;  -76.099;  -87.822
616.108;  -30.950; -225.090; -390.837
616.382;  100.305;  274.913;  402.156
616.656;   83.151; -241.090; -232.837
616.931;  298.257; -785.099; -700.822
617.205;  666.320; -973.104; -979.813
617.480;  607.549;  -91.125;    6.225
617.754;   83.472; -396.125; -128.774
618.028;   -8.180; -369.129; -382.768
618.302;   41.808;   73.892;  -25.805
618.577;  -74.324; -371.103; -518.815
618.851;  -84.751; -399.109; -600.803
619.125;  -55.521; -335.134; -378.759
619.399;  -43.555; -244.104; -374.813
619.673;  -45.125; -330.115; -515.792
619.947;  -63.086; -333.114; -448.795
620.222;  -36.435; -198.110; -204.801
620.496;  -14.442;  -47.121;  -96.782
620.770;   -9.600; -187.122;  -93.781
621.044;  159.481;  323.895;  346.190
621.318;  467.235; -653.120; -614.783
621.592;  416.908; -430.121; -409.783
621.866;  179.730; -476.112; -572.799
622.140;   -7.130; -207.116; -356.791
622.413;   31.609;  138.889;  112.200
622.687;  -61.436; -746.101; -492.817
622.961;   -1.017; -130.108; -143.805
623.235;  -82.990; -633.111; -661.800
623.509; -114.488; -816.105; -848.811
623.783;    8.415;  -12.107;   48.193
624.056;  -38.239; -254.120; -280.783
624.330;   26.174;   63.888;   -3.797
624.604;   17.017; -271.116; -355.790
624.877;   28.644;  180.890;   26.198
625.151;    5.934; -249.114; -238.794
625.425;  -37.503; -150.103; -283.814
625.698;  -72.255; -367.119; -374.785
625.972; -102.453; -799.110; -765.802
626.245;   66.618;  685.884;  484.210
626.519;  -69.035; -426.120; -340.784
626.792;  -40.331; -192.107; -380.807
627.066;  -94.206; -485.122; -662.779
627.339; -104.282; -736.110; -663.802
627.613;   26.939;  351.880;  148.216
627.886;   45.598;  187.891; -612.803
628.160;  -33.765;  312.880; -161.783
628.433; -114.498; -695.125; -703.775
628.706;  -79.560; -517.120; -615.784
628.979;   13.932;  296.876;  117.223
629.253; -104.451; -785.119; -833.786
629.526;  187.937; -334.126; -253.772
629.799;  173.839; -641.123; -479.778
630.072;   71.921; -497.128; -516.769
630.346; -107.757;-1115.116;-1080.790
630.619;  260.395; -467.107; -545.808
630.892;  425.961;  709.889;  593.200
631.165;  232.320;  790.896;  679.187
631.438; -112.272;-1092.112;-1055.798
631.711;   38.367;  453.877;  257.221
631.984;  -89.811; -523.117; -624.789
632.257;  -70.389; -636.117; -681.789
632.530;  -52.730; -412.119; -433.785
632.803;   16.757; -109.115;    7.207
633.076;  -77.214; -360.123; -422.777
633.349;    2.225;  173.872;  121.231
633.622;  -49.231; -187.119; -240.785
633.895; -128.089; -903.120; -823.783
634.167;  -84.261; -496.126; -525.773
634.440;  -29.301;  -19.116; -137.792
634.713;  -15.327;  -22.119; -120.786
634.986;   67.316;  593.871;  453.233
635.258;  -90.270; -507.115; -597.793
635.531;   88.982;  742.882; -343.788
635.804;  -39.137; -303.117; -318.789
636.077;  -98.804; -830.116; -852.791
636.349;  -34.446; -586.115; -474.793
636.622;  337.537; 1695.874; 1392.228
636.894;  107.040; -474.120; -909.784
637.167;   51.131; -836.127; -789.771
637.439;    8.103; -278.128; -213.770
637.712;  -53.987; -312.126; -293.772
637.984;  -86.904; -635.116; -707.791
638.257;  300.511;  515.877;  488.222
638.529;  379.327; -881.125; -924.776
638.802;  164.546; -508.128; -449.769
639.074; -127.701; -927.122; -952.781
639.346; -114.228; -942.135; -930.757
639.619;  -16.438;  -79.142; -319.744
639.891;   -8.706;  -83.122; -168.779
640.163;  -91.830; -689.122; -756.780
640.435;   19.397;  273.878;  103.220
640.708;   16.674;  -72.122; -132.780
640.980;  -38.850; -366.122; -362.781
641.252;  132.552;  -25.121;  -71.781
641.524; 1399.054;  580.879;  573.219
641.796; 1400.280;-1094.121; -907.782
642.068;  258.432; -191.121; -300.782
642.340;  -80.066; -486.121; -566.783
642.613;   28.810;  294.880;  323.217
642.885; -112.288; -787.120; -878.783
643.157;  -69.361; -810.120; -658.784
643.428;   42.865;  170.880;  218.216
643.700;  -62.358; -498.120; -425.784
643.972;  -47.431;  -16.119; -133.785
644.244;  -89.605; -474.119; -559.785
644.516;  -51.603; -250.119; -114.786
644.788;   50.874;  662.881;  548.214
645.060;  -29.775;  -12.119; -124.786
645.332;  -98.398; -525.118; -535.787
645.603;   19.079;  479.882;  342.213
645.875;  -85.720; -334.118; -369.787
646.147;  156.457; 1487.882; 1242.212
646.418;  -99.891; -931.117; -918.788
646.690;   13.135; -714.117; -715.789
646.962;  -12.938; -413.117; -451.789
647.233;  -19.986;   15.883;   11.211
647.505;  -99.035; -595.117; -475.790
647.776;   24.842;  328.884;  229.210
648.048;  -18.181; -248.116; -418.790
648.320;  -92.305; -752.116; -679.791
648.591; -157.528;-1055.116; -958.791
648.862;  -83.051; -505.116; -577.792
649.134;    0.700;  115.885;  198.208
649.405;  -74.173; -661.115; -618.792
649.677;  -76.621; -475.115; -598.793
649.948;  -34.995; -181.115; -296.793
650.219;  -14.318;  -37.115; -147.793
650.491;  -91.766; -431.114; -520.794
650.762; -123.790; -705.114; -731.794
651.033;  -87.688; -437.114; -424.795
651.304;  -98.236; -743.114; -728.795
651.576;  -92.760; -680.114; -645.795
651.847;  -45.833; -250.113; -140.796
652.118;  -25.506;  -32.113; -189.796
652.389;  -95.205; -639.113; -722.796
652.660;  -31.503; -147.113;  -89.797
652.931; -142.726; -897.112; -871.797
653.202;  -81.200; -382.112; -541.798
653.473;  -81.348; -633.112; -533.798
653.744;   72.479; -595.112; -590.798
654.015;   63.480; -356.112; -303.799
654.286;  -86.318; -642.111; -663.799
654.557;  -86.941; -586.111; -521.799
654.828; -164.815;-1114.111;-1088.800
655.099;  -85.713; -404.111; -291.800
655.370;  -85.086; -427.111; -543.801
655.641; -119.985; -656.110; -714.801
655.911;  -96.383; -618.110; -638.801
656.182;   55.094;  437.890;  387.198
656.453;  108.320;  830.890;  746.198
656.724;  -77.803; -466.110; -426.802
656.994; -102.901; -553.109; -568.803
657.265; -119.625; -862.109; -873.803
657.536;  -91.848; -500.109; -377.804
657.806; -111.896; -561.109; -593.804
658.077; -138.495; -866.109; -950.804
658.347;  -83.643; -523.108; -598.805
658.618; -117.191; -646.108; -694.805
658.888;  -28.115;  -41.108;  112.195
659.159;  -83.963; -432.108; -548.806
659.429;  -36.936; -292.108; -349.806
659.700;   -7.260; -435.107; -390.807
659.970;  -18.208; -370.107; -359.807
660.241;  -45.331; -754.107; -921.807
660.511;  349.645; -147.107; -174.808
660.781;   16.247; -793.106; -748.808
661.052;  -55.876; -222.106; -381.808
661.322;  -26.000;   21.894;   -9.809
661.592;    0.452;  257.894;  148.191
661.862;  -75.921; -369.106; -382.810
662.133;  -80.945; -551.105; -502.810
662.403; -142.893; -770.105; -676.810
662.673;  -64.341; -256.105; -213.811
662.943; -115.590; -612.105; -551.811
663.213;  -18.213;  -85.105;  -81.811
663.483;  -89.686; -593.104; -568.812
663.753;  -47.510; -194.104; -152.812
664.023;  -16.608;   68.896;  -32.813
664.293;  -57.056; -319.104; -126.813
664.563; -107.730; -694.104; -648.813
664.833; -122.978; -743.103; -608.814
665.103; -139.851; -730.103; -793.814
665.373; -128.900; -766.103; -806.814
665.643; -114.873; -863.103; -918.815
665.913;  -19.696; -534.103; -714.815
666.182;   72.180; -685.102; -719.816
666.452;  160.557;  -22.102;  -89.816
666.722;  -54.466; -724.102; -784.816
666.992; -137.690; -948.102; -921.817
667.261; -106.163; -824.102; -808.817
667.531;  162.214;  134.899;   45.183
667.801;  439.540; -440.101; -412.818
668.070;  213.167;  714.899;  697.182
668.340; -124.506; -883.101; -840.819
668.609;   80.045;  588.900;  301.181
668.879;  -96.103; -490.100; -558.819
669.149;  -88.751; -539.100; -516.820
669.418; -112.050; -698.100; -726.820
669.688;  -54.648; -482.100; -666.820
669.957;   14.304; -423.099; -546.821
670.226;  -39.395; -268.099; -331.821
670.496;  -99.118; -431.099; -635.822
670.765;  -85.791; -418.099; -501.822
671.034; -139.690; -872.099; -828.822
671.304;  -22.338;   55.902; -111.823
671.573; -155.136;-1085.098; -957.823
671.842;   10.840; -380.098; -294.823
672.112;  -24.858; -692.098; -586.824
672.381;  -21.331; -239.098; -214.824
672.650; -149.905;-1005.097;-1021.825
672.919;  -93.128; -631.097; -507.825
673.188; -104.651; -681.097; -878.825
673.457; -169.175;-1101.097;-1143.826
673.726;  -90.298; -579.096; -646.826
673.995;  -63.121; -533.096; -479.826
674.265;  -31.745; -263.096; -333.827
674.534;  -20.693; -183.096; -235.827
674.802;  -24.991; -618.096; -703.828
675.071;  642.410; -886.095; -801.828
675.340; 2603.487; -464.095; -339.828
675.609;  854.114;  103.905;   82.171
675.878;   -1.810; -949.095; -893.829
676.147;   22.217;  -26.095;   -8.829
676.416;   18.619; -210.094; -294.830
676.685;  521.670; 1000.906; -622.830
676.953;   31.997; -603.094; -452.831
677.222;  -48.451; -193.094; -273.831
677.491;  -29.900;  -24.094; -127.831
677.759;  -18.398;   11.907;  172.168
678.028;  -36.771; -279.093; -222.832
678.297;  -18.070;   71.907;  197.168
678.565; -143.693; -898.093; -944.833
678.834;  -62.291; -311.093; -268.833
679.102;  -88.365; -411.092; -391.834
679.371; -140.088; -898.092; -727.834
679.639; -141.461; -797.092; -786.834
679.908; -126.185; -794.092; -724.835
680.176; -165.358; -895.091; -941.835
680.445;  -69.606; -346.091; -352.835
680.713;  -27.455;  -58.091;  -23.836
680.982; -112.503; -523.091; -525.836
681.250;  -98.451; -578.091; -507.837
681.518;  -96.250; -534.090; -751.837
681.787;  -41.048; -204.090; -167.837
682.055;  -79.671; -490.090; -422.838
682.323; -164.920; -993.090; -992.838
682.591;    0.482; -216.090; -538.838
682.859;   34.759;    9.911;  -35.839
683.128;   11.785;  232.911;  497.161
683.396; -164.538;-1102.089;-1122.840
683.664;  -36.086; -241.089;   21.160
683.932;    1.865;  144.911;  -76.840
684.200;  -86.558; -576.088; -320.841
684.468;  -29.556;  -73.088; -124.841
684.736;  -38.755; -214.088; -175.841
685.004; -146.703;-1024.088; -982.842
685.272;  -83.676; -880.088; -774.842
685.540;  -87.725; -499.087; -557.843
685.808;  -95.348; -651.087; -682.843
686.076; -126.121; -894.087; -969.843
686.343;  -86.020; -601.087; -815.844
686.611;   17.032; -195.087; -224.844
686.879;  286.384; -530.086; -553.844
687.147; 2201.910; -483.086; -480.845
687.414;  608.437;  -12.086; -169.845
687.682;  -47.236; -658.086; -757.846
687.950;  210.365;  259.915;  263.154
688.217;  -37.158; -792.085; -760.846
688.485;  -42.981; -632.085; -636.847
688.753;  315.145;  -11.085; -102.847
689.020;   46.147; -820.085; -851.847
689.288; -115.501; -853.084; -787.848
689.555;  -46.350; -195.084; -148.848
689.823;  -59.198; -241.084; -345.849
690.090; -100.171; -546.084; -651.849
690.358; -159.645; -877.084; -897.849
690.625;  -12.618;  120.917;   45.150
690.892;  -79.916; -403.083; -369.850
691.160;  -27.065;   72.917;  -35.850
691.427;  -13.088;  141.917;  130.149
691.694; -134.536; -855.083; -929.851
691.962; -152.460;-1177.082;-1060.852
692.229;   -9.333;  127.918;   56.148
692.496;   36.619;  130.918;  -49.852
692.763;    3.220; -164.082; -201.853
693.031;  -82.828; -739.082; -716.853
693.298;  -53.726; -509.081; -368.853
693.565;  175.725; -155.081; -163.854
693.832;  818.227;   -5.081;   -9.854
694.099;   55.554; -643.081; -642.855
694.366;  -72.770; -882.081; -896.855
694.633;  -67.368; -920.080; -633.855
694.900;  715.484; 4367.920; -114.856
695.167;  283.435; -214.080; -380.856
695.434;   51.587; -646.080; -623.856
695.701;  172.764;  121.921;  -61.857
695.968;  323.915; -365.079; -361.857
696.234;  846.567; -415.079; -646.858
696.501; 9515.519; -776.079; -614.858
696.768; 4833.520; -554.079; -617.858
697.035;  264.822; -632.078; -667.859
697.302;   10.949; -448.078; -552.859
697.568;    2.625; -458.078; -497.859
697.835;  -59.223; -683.078; -624.860
698.102;  -37.496; -498.078; -407.860
698.368;   66.980;  384.923;  396.139
698.635;  -34.868;  -47.077; -424.861
698.901;  -24.666; -240.077; -348.861
699.168;   13.460; -534.077; -456.862
699.435;   25.337;  -72.077;  -13.862
699.701; -105.586; -868.076; -764.862
699.968;    1.315;  144.924; -441.863
700.234;  -99.883; -783.076; -822.863
700.500;  -62.206; -448.076; -539.864
700.767;  -14.605;   -1.075;   26.136
701.033; -144.853;-1015.075; -963.864
701.299;  -70.676; -450.075; -483.865
701.566;   99.625;  950.925;  763.135
701.832;   27.152;  -31.075;  -76.865
702.098; -111.671;-1054.074;-1034.866
702.365;  -95.220;-1098.074;-1030.866
702.631;  -58.143;-1038.074;-1063.867
702.897; 1052.334; -765.074; -676.867
703.163; 1757.035;  348.926;  254.133
703.429;  105.987; -256.073; -273.868
703.695;  -37.486; -796.073; -792.868
703.961;   11.790; -214.073; -210.868
704.227;  -61.783; -630.073; -725.869
704.493;  145.194;  613.927;  510.131
704.759;  -38.255; -565.072; -540.870
705.025;   22.672; -203.072; -194.870
705.291;  -25.426; -666.072; -562.870
705.557;  188.375;  719.928;   34.129
705.823;   21.977; -742.072; -694.871
706.089;  147.379; -307.071; -326.871
706.355;  342.705; -315.071; -244.872
706.620; 5745.382; -776.071; -729.872
706.886; 7437.759; -309.071; -362.873
707.152;  625.235; -818.070; -973.873
707.418;  -29.638;-1153.070;-1186.873
707.683;   -9.236; -550.070; -530.874
707.949;  -52.910; -547.070; -578.874
708.215;   -1.083; -129.070; -207.874
708.480;  -34.906; -520.069; -420.875
708.746;   64.670;   68.931;   28.125
709.011;  -78.103; -578.069; -612.876
709.277;  -80.401; -538.069; -543.876
709.542;  -68.375; -428.069; -387.876
709.808;   -0.573;  -59.068;   89.123
710.073; -101.621; -577.068; -695.877
710.339;  -44.895; -242.068; -228.877
710.604;   34.807; -780.068; -845.878
710.869;  227.334; -277.068; -366.878
711.135;  -87.415; -715.067; -628.879
711.400;  -82.138; -507.067; -608.879
711.665;  -57.686; -404.067; -479.879
711.931;  -97.760; -661.067; -677.880
712.196; -125.108; -876.067; -954.880
712.461;   54.794; -402.066; -490.880
712.726;   49.495; -727.066; -771.881
712.991; -101.978; -647.066; -664.881
713.256;  -59.501; -350.066; -332.882
713.521;  -68.450; -417.065; -381.882
713.787;  -69.773; -454.065; -472.882
714.052;  -35.547; -214.065; -400.883
714.317;  -92.095;-1045.065; -981.883
714.581; 1034.032; -374.065; -268.883
714.846; 1375.758; -822.064; -888.884
715.111;  100.110;  261.936;  257.116
715.376;  -42.213;  -86.064; -223.885
715.641;  -37.062; -365.064; -367.885
715.906;  182.865;   15.936; -551.885
716.171;  105.942;  221.937;  209.114
716.436;    6.968;  -78.063; -104.886
716.700; -120.580; -818.063; -692.886
716.965; -137.878; -794.063; -807.887
717.230;  -77.727; -339.063; -392.887
717.494;  -34.025;  -40.062; -134.888
717.759; -100.173; -784.062; -640.888
718.024;    4.528;  269.938;  250.112
718.288;   56.455;  685.938;  395.111
718.553; -151.393; -803.062; -977.889
718.817; -147.092; -883.061; -899.889
719.082;  -36.290; -115.061; -125.890
719.346; -148.113;-1000.061; -947.890
719.611;  -48.887; -300.061; -255.891
719.875; -104.710; -568.060; -537.891
720.140;  -70.783; -453.060; -603.891
720.404;   -1.307; -136.060; -249.892
720.668;  552.370; -475.060; -411.892
720.933;  199.897;  146.940;  137.108
721.197; -109.677; -667.059; -600.893
721.461; -141.825; -851.059; -826.893
721.725;  -12.473;  -21.059; -250.894
721.990;  -57.297; -284.059; -204.894
722.254;  -20.595;  -26.059; -108.894
722.518;  -77.143; -286.058; -442.895
722.782;  -93.542; -743.058; -594.895
723.046;   99.260;  614.942;  570.105
723.310;   11.387;  374.942;  210.104
723.574; -100.037; -654.058; -614.896
723.838; -113.560; -576.057; -642.897
724.102;  -53.108; -226.057; -239.897
724.366; -143.382;-1032.057; -978.897
724.630; -112.555; -749.057; -571.898
724.894;  -94.803; -722.057; -514.898
725.158;  -13.802;   38.944; -295.898
725.422;  -72.800; -394.056; -327.899
725.685;  -78.998; -441.056; -349.899
725.949;  -83.922; -566.056; -519.900
726.213;  -97.245; -732.056; -811.900
726.477;   65.032;-1020.055; -933.900
726.740;   91.508; -274.055; -104.901
727.004;  275.585; -384.055; -510.901
727.268; 3216.587; -442.055; -400.901
727.531;  861.088; -961.055; -775.902
727.795;  -61.185; -713.054; -673.902
728.059;  -72.258; -552.054; -557.903
728.322;  -83.682; -841.054; -669.903
728.586;  -17.430; -692.054; -701.903
728.849; -105.453; -695.053; -756.904
729.112; -125.952; -812.053; -912.904
729.376; -159.500; -959.053; -905.904
729.639;  -91.998; -536.053; -536.905
729.903; -119.297; -733.053; -699.905
730.166;  -47.670; -437.052; -399.906
730.429;  -41.543; -317.052; -468.906
730.693;  -91.417; -355.052; -894.906
730.956;  172.335;  810.948;  651.093
731.219;  488.787; -310.052; -103.907
731.482;   39.213;-1003.051; -894.907
731.745;    6.765; -794.051; -935.908
732.009;    3.667;  -30.051;   50.092
732.272;  -98.532; -904.051; -771.909
732.535;  -47.205; -300.051; -310.909
732.798; -169.978;-1083.050;-1166.909
733.061;  -84.477; -430.050; -456.910
733.324;   -9.775;   31.950; -180.910
733.587;   64.652;  290.950;  365.090
733.850;  -73.997; -973.049;-1050.911
734.113;   21.755;   33.951;   32.089
734.376;  -38.643; -328.049; -447.912
734.639;  186.283; 1188.951; 1011.088
734.901;   41.985; -180.049; -402.912
735.164;  340.762; -883.048; -837.913
735.427;  942.463; -166.048; -355.913
735.690;   75.340; -205.048; -234.913
735.952;  -63.458; -923.048; -925.914
736.215;  -62.257;-1113.048;-1009.914
736.478;   -0.405; -771.047; -774.915
736.740;  160.597;   33.953;  129.085
737.003;  457.398; -658.047; -672.915
737.266; 2908.075;  -94.047;   46.084
737.528;  312.902; -682.047; -660.916
737.791;  254.678; -316.046; -327.916
738.053;  683.380;  465.954;  649.083
738.316; 9546.932; -162.046; -136.917
738.578; 6614.083; -770.046; -736.918
738.841;  366.560; -382.046; -446.918
739.103;  107.312; -875.045; -777.918
739.365;  387.538;   79.955;  -69.919
739.628;  -37.735; -884.045; -805.919
739.890;  -55.358; -758.045; -710.919
740.152;  -62.457; -692.044; -754.920
740.414;  -19.055; -408.044; -359.920
740.677;  -75.878; -785.044; -634.921
740.939;  -68.077; -587.044; -487.921
741.201;  150.775; -432.044; -572.921
741.463;   -8.073; -689.043; -745.922
741.725;    1.028;  -21.043; -199.922
741.987;   27.055;  220.957;  116.078
742.249;  -43.393; -751.043; -859.923
742.511;  124.883; -703.043; -794.923
742.773;  -13.490; -546.042; -546.924
743.035;  125.912;  796.958;  533.076
743.297;  -90.287; -963.042;-1013.924
743.559;  543.015; -278.042; -262.925
743.821;   -5.983; -735.042; -744.925
744.083;   -0.932;  -44.041; -149.925
744.345;  -96.430; -869.041; -892.926
744.607;   27.172;   75.959;  122.074
744.868;  -80.152; -490.041; -554.927
745.130; -128.850; -994.041;-1008.927
745.392;   30.427;   -1.040;  -44.927
745.653;  -18.722; -411.040; -378.928
745.915;  135.130;  896.960;  631.072
746.177;   32.132;   35.960;  -43.928
746.438;  -35.192; -428.040; -543.929
746.700;  -61.465; -947.039; -988.929
746.961;  -23.588; -659.039; -740.930
747.223;  111.963; -190.039;  -74.930
747.484;   38.440; -391.039; -471.930
747.746;  112.192;  -23.038; -106.931
748.007;   64.118; -647.038; -689.931
748.269;  218.720; -468.038; -440.931
748.530;  327.797; -852.038; -638.932
748.791;  181.323; -354.038; -420.932
749.053;  339.425;  286.963;  163.067
749.314;  356.177; -236.037; -169.933
749.575;  370.103; -945.037; -905.933
749.836;  675.080; -217.037;   86.066
750.098; 1979.057;  -60.037;  -21.934
750.359;29565.533;  414.964;  555.066
750.620; 7430.885; -121.036; -220.935
750.881;  826.512; -585.036; -513.935
751.142; 1089.363; -950.036; -938.936
751.403;14793.165; -789.036; -705.936
751.664; 6453.192;-1034.035; -999.936
751.925;  422.543; -175.035; -262.937
752.186;  225.145; -298.035; -278.937
752.447;   87.897; -590.035; -445.937
752.708;   37.398; -532.035; -648.938
752.969;  -14.650; -566.034; -576.938
753.230;  -47.173; -777.034; -672.939
753.491;  -33.322; -650.034; -631.939
753.751;   52.080;  109.966;   19.061
754.012;   68.682;  258.967;  181.060
754.273;   20.733; -174.033;  -71.940
754.534;  -22.440; -487.033; -580.940
754.794; -111.663; -926.033; -911.941
755.055;  128.038; 1051.967;  881.059
755.316;  -61.685; -700.032; -566.942
755.576;  -37.283; -606.032; -576.942
755.837;  -53.232; -527.032; -695.942
756.097;  -52.405; -530.032; -564.943
756.358;  -86.103; -725.032; -770.943
756.618;  -63.377; -705.031; -641.943
756.879;  -18.475; -254.031; -349.944
757.139; -118.098;-1098.031;-1116.944
757.400;  -82.222; -538.031; -553.945
757.660;  -18.795; -365.031; -401.945
757.920;  -16.268; -266.030; -228.945
758.181;  -33.667; -468.030; -351.946
758.441; -104.340; -870.030; -809.946
758.701;  -30.563; -308.030; -215.946
758.961;  -33.812; -220.030; -278.947
759.222;  -60.035; -574.029; -502.947
759.482;  -98.458; -683.029; -723.948
759.742;  -95.707; -706.029; -547.948
760.002;   -9.230;  -83.029; -143.948
760.262;    4.222;   50.972;  182.051
760.522;  -54.677; -498.028; -574.949
760.782;  -78.450; -738.028; -612.949
761.042;  -48.973; -618.028; -573.950
761.302;   43.678;   55.972;  -18.950
761.562;   29.505; -164.027; -154.951
761.822;   43.532; -710.027; -551.951
762.082;  -63.842;-1104.027;-1093.951
762.342;   45.460; -328.027; -403.952
762.601;   64.362; -567.027; -506.952
762.861;  262.063; -281.026; -207.952
763.121;  350.940; -406.026; -411.953
763.381; 6768.642; -499.026; -485.953
763.640; 7375.518; -139.026; -307.954
763.900;  329.370; -242.026; -203.954
764.160;   53.847; -458.025; -491.954
764.419;  -23.127; -726.025; -782.955
764.679;  -84.300; -795.025; -726.955
764.939;  -10.623; -124.025; -210.955
765.198;  -85.997; -608.025; -563.956
765.458;  -87.870; -710.024; -612.956
765.717;  -95.443; -454.024; -590.957
765.976;  -60.642; -428.024; -411.957
766.236;  -88.315; -475.024; -610.957
766.495;    9.612;  260.977;   73.042
766.755; -119.487;-1090.023; -987.958
767.014;  -34.810; -594.023; -665.958
767.273;  -65.633; -373.023; -397.959
767.533;  -49.057; -228.023; -307.959
767.792;  -33.205; -151.022; -188.960
768.051;  -49.803; -228.022; -276.960
768.310;  -89.652; -546.022; -650.960
768.569;  -10.000; -161.022;    4.039
768.828;  -34.348; -285.022; -363.961
769.088; -116.972;-1050.021; -942.961
769.347;  -88.920; -755.021; -599.962
769.606;  -90.718; -876.021; -857.962
769.865; -122.767;-1016.021;-1033.963
770.124;   -3.740; -411.021; -336.963
770.383;  -56.738; -778.020; -910.963
770.641;   -9.262; -398.020; -400.964
770.900;  -78.185; -953.020; -846.964
771.159;  -41.558; -851.020; -951.964
771.418;  -15.932; -917.020; -779.965
771.677;  131.320; -224.019; -293.965
771.936;  160.297; -794.019; -865.966
772.194; 2396.923; -465.019; -437.966
772.453;11214.650; -213.019; -391.966
772.712;  775.027;  416.982;  329.033
772.970;  127.753;   32.982;   63.033
773.229;   78.755;  -22.018;  102.033
773.488;  -91.643; -814.018; -770.968
773.746;   56.308;  296.982;  335.032
774.005;  -12.890;  190.983;  -22.969
774.263;   13.887;  243.983;  177.031
774.522;  -64.087; -422.017; -548.969
774.780;  -86.185; -484.017; -417.970
775.039; -105.708; -551.017; -531.970
775.297;  -13.682; -135.016; -351.970
775.555; -109.380; -489.016; -612.971
775.814; -116.228; -618.016; -570.971
776.072; -124.252; -749.016; -740.971
776.330;  -98.800; -630.016; -520.972
776.589; -122.673; -703.015; -721.972
776.847; -134.772; -645.015; -624.973
777.105; -170.745;-1016.015;-1032.973
777.363;  -80.343; -459.015; -454.973
777.621; -134.767; -660.015; -717.974
777.879;  -14.490;  -42.014;   32.026
778.138; -104.488; -554.014; -717.974
778.396; -123.362; -585.014; -526.975
778.654; -174.885;-1015.014; -970.975
778.912;  -68.533; -269.014; -371.976
779.170; -133.682; -880.013; -803.976
779.427; -148.480; -922.013; -897.976
779.685; -156.203; -880.013; -832.977
779.943;  -97.852; -654.013; -593.977
780.201; -176.850; -964.012; -883.978
780.459; -121.323; -651.012; -610.978
780.717;  -96.997; -440.012; -390.978
780.974; -106.520; -449.012; -490.979
781.232;  -81.693; -358.012; -338.979
781.490;  -96.492; -551.011; -472.979
781.747; -102.115; -555.011; -476.980
782.005;   17.912;  462.989;  254.020
782.263; -179.787; -542.011;-1004.981
782.520;  -89.785; -326.011; -501.981
782.778; -167.083;-1013.010;-1051.981
783.035; -176.682; -962.010; -938.982
783.293;  -73.930; -248.010; -206.982
783.550;  -53.853; -134.010; -198.982
783.808; -132.977; -764.010; -776.983
784.065; -169.200; -745.009; -874.983
784.322;  -58.173;   25.991;  -86.984
784.580; -142.147; -915.009; -771.984
784.837; -107.545; -392.009; -466.984
785.094; -151.493; -783.009; -762.985
785.352;  -88.592; -304.008; -404.985
785.609; -126.065; -934.008; -839.985
785.866;  -86.438; -345.008; -401.986
786.123;  -96.312; -639.008; -583.986
786.380; -111.060; -665.008; -604.987
786.637;  -50.758; -225.007; -380.987
786.895;  -67.732; -456.007; -543.987
787.152;  -51.730; -135.007; -267.988
787.409;  -72.253; -123.007; -225.988
787.666;  -88.377; -299.006; -378.988
787.923; -103.850; -616.006; -695.989
788.179;  -96.098; -551.006; -584.989
788.436; -123.847; -585.006; -585.990
788.693;  -41.420;  -92.006;  -87.990
788.950;   77.257; -125.005; -112.990
789.207;  122.108; -381.005; -372.991
789.464;  -63.390; -161.005; -301.991
789.720;   -9.488;  150.995;  110.009
789.977; -178.862;-1003.005; -671.992
790.234;  -44.235;   44.996;  -66.992
790.490; -156.983; -884.004;-1031.993
790.747;  -33.482;  -85.004;   22.007
791.004;  -55.180; -426.004; -348.993
791.260;  -81.628; -430.004; -560.994
791.517; -114.527; -843.003; -788.994
791.773;  -57.725; -379.003; -342.994
792.030; -114.123; -596.003; -660.995
792.286; -110.222; -686.003; -636.995
792.543;  -23.845;  -74.002; -159.995
792.799;  -70.718; -584.002; -382.996
793.055; -167.767;-1179.002;-1210.996
793.312; -109.840; -827.002; -816.997
793.568;  -72.538; -746.002; -599.997
793.824;   19.263; -226.001; -284.997
794.081;    3.315; -447.001; -508.998
794.337;   29.942; -664.001; -561.998
794.593; 1144.343; -319.001; -271.999
794.849; 5667.020; -746.001; -772.999
795.105;  257.822; -270.000; -261.999
795.361;    0.373; -490.000; -457.000
795.617;  -81.675; -875.000; -945.000
795.873;  -54.575; -360.000; -407.000
796.129;  -45.100; -368.000; -306.000
796.385;  -26.700; -124.000; -156.000
796.641;   60.450;  412.000;  550.000
796.897;  -98.025; -666.000; -635.000
797.153;   55.950;  453.000;  357.000
797.409; -109.375; -785.000; -868.000
797.665;  -86.650; -625.000; -732.000
797.921;  -83.475; -775.000; -762.000
798.176;  -68.575; -744.000; -747.000
798.432;  -59.625; -824.000; -596.000
798.688;  -86.000;-1174.000;-1078.000
798.943;   73.025; -165.000; -147.000
799.199;   -5.525;-1005.000; -959.000
799.455;  242.250;  369.000;  316.000
799.710;  116.700; -813.000; -380.000
799.966;  273.800; -162.000; -160.000
800.221;  430.825; -638.000; -721.000
800.477; 9563.325; -743.000; -710.000
800.732; 8329.275; -773.000; -800.000
800.988;  633.350;  205.000;  -19.000
801.243; 2090.950; -454.000; -344.000
801.498; 9123.725; -814.000; -739.000
801.754;  507.125; -289.000; -163.000
802.009;   99.400; -257.000; -335.000
802.264;  -50.575; -967.000;-1033.000
802.520;   24.100;  222.000;   -3.000
802.775;  -58.700; -524.000; -359.000
803.030;   45.950;  395.000;  356.000
803.285; -132.125; -840.000; -903.000
803.540;  -66.000; -686.000; -699.000
803.795;  -54.550; -648.000; -583.000
804.051;  -50.200; -279.000; -346.000
804.306;   -6.825;  168.000;  128.000
804.561;  101.025;  451.000;  362.000
804.816;  117.550;  714.000;  861.000
805.071;  -22.475; -185.000; -280.000
805.325;  118.975; -257.000; -427.000
805.580; -117.200; -841.000; -877.000
805.835;  -27.625; -204.000; -297.000
806.090; -102.900; -760.000; -676.000
806.345;  -31.475; -344.000; -264.000
806.600;  -50.100; -549.000; -632.000
806.854;  -34.125; -408.000; -538.000
807.109;  -24.375; -493.000; -577.000
807.364;  -13.875; -407.000; -328.000
807.618;  -11.175; -415.000; -381.000
807.873;   24.300; -470.000; -494.000
808.128;   66.650; -257.000; -518.000
808.382;   74.800; -224.000; -332.000
808.637;   38.900; -440.000; -511.000
808.891;  144.875; -257.000; -180.000
809.146;   53.675; -902.000; -794.000
809.400;  190.350; -848.000; -923.000
809.654;  264.150; -779.000; -551.000
809.909;  378.325; -841.000; -927.000
810.163; 5393.550; -813.000; -651.000
810.418;13817.050; -940.000; -861.000
810.672;  875.475; -685.000; -690.000
810.926;  613.100; -993.000; -973.000
811.180; 1291.125; -439.000; -372.000
811.434;29562.900;  240.000;  135.000
811.689;11815.000; -231.000; -365.000
811.943;  538.125; -936.000; -953.000
812.197;  276.350; -893.000; -671.000
812.451;   99.625; -379.000; -514.000
812.705;  -42.375; -809.000; -619.000
812.959;  -21.175; -263.000; -388.000
813.213;  -11.325; -283.000; -209.000
813.467;   60.825;  470.000;  253.000
813.721; -113.500; -764.000; -792.000
813.975; -142.525; -826.000; -877.000
814.229;   40.675;  430.000;  353.000
814.482;  -88.925; -517.000; -566.000
814.736; -123.000; -766.000; -744.000
814.990; -138.900; -779.000; -872.000
815.244;  -48.750; -228.000; -285.000
815.497; -108.200; -636.000; -601.000
815.751;  -27.925; -141.000;   82.000
816.005;  -91.450; -470.000; -586.000
816.258;  -77.375; -510.000; -363.000
816.512; -112.650; -693.000; -610.000
816.766;   -8.400;  121.000;  157.000
817.019;    2.125;  148.000;  149.000
817.273; -130.475;-1000.000; -802.000
817.526;  -52.150; -206.000; -173.000
817.779;  -87.925;-1049.000; -960.000
818.033; -104.275; -693.000; -807.000
818.286; -123.325; -725.000; -792.000
818.540; -100.275; -403.000; -403.000
818.793;  -89.725; -402.000; -489.000
819.046; -111.800; -582.000; -520.000
819.299;  -53.250; -157.000; -166.000
819.553; -117.750; -552.000; -592.000
819.806; -159.425;-1016.000; -838.000
820.059;  -68.625; -334.000; -354.000
820.312;   -4.650;  152.000;  185.000
820.565;  -18.025;  110.000;  -27.000
820.818;  -51.500;  -59.000; -173.000
821.071; -179.800;-1041.000; -957.000
821.324; -121.100; -536.000; -540.000
821.577; -116.500; -457.000; -483.000
821.830;  -83.050; -270.000; -172.000
822.083; -138.075; -733.000; -288.000
822.336;  -54.375; -261.000; -167.000
822.589; -138.500; -805.000; -688.000
822.842; -144.500; -875.000; -770.000
823.094; -174.100;-1076.000;-1114.000
823.347; -132.475; -925.000; -729.000
823.600;   -4.300;  402.000;  187.000
823.853;  -57.000; -311.000; -267.000
824.105;  -92.550; -331.000; -575.000
824.358; -118.675; -617.000; -716.000
824.611;   10.775;  234.000;   40.000
824.863;  -61.350; -612.000; -591.000
825.116;   26.225;  -33.000;   27.000
825.368;   42.300; -366.000; -372.000
825.621;  107.625; -186.000; -240.000
825.873;   61.725; -704.000; -737.000
826.126;  521.250; -669.000; -641.000
826.378;10592.850; -389.000; -505.000
826.630; 2525.050; -890.000; -898.000
826.883;   27.150; -754.000; -693.000
827.135;   25.900; -279.000; -270.000
827.387; -116.925; -893.000; -839.000
827.639;  -24.975;  -86.000;   32.000
827.892; -122.050; -742.000; -582.000
828.144; -153.150; -848.000; -804.000
828.396;  -55.450;  104.000;  -80.000
828.648; -106.625; -440.000; -333.000
828.900; -144.500; -702.000; -795.000
829.152; -135.300; -684.000; -683.000
829.404;  -68.525; -215.000; -267.000
829.656;  -59.675;  321.000;  214.000
829.908;  -22.800;  393.000;  229.000
830.160; -170.625;-1064.000;-1047.000
830.412; -106.075; -481.000; -430.000
830.664; -134.950; -557.000; -665.000
830.916;  -77.900; -268.000; -206.000
831.167; -183.025;-1073.000; -951.000
831.419; -118.725; -623.000; -566.000
831.671; -149.250; -764.000; -809.000
831.923;  -86.750; -311.000; -447.000
832.174;  -83.475; -273.000; -331.000
832.426; -125.425; -493.000; -582.000
832.678; -189.600;-1043.000;-1091.000
832.929; -162.250; -947.000; -935.000
833.181;  -95.125; -575.000; -677.000
833.432;  -75.475;  -59.000; -186.000
833.684;  -25.175;  112.000;  -27.000
833.935; -118.250; -610.000; -566.000
834.187; -148.075; -829.000; -823.000
834.438;  -42.875;  -58.000;  -25.000
834.689;  -73.000; -255.000; -123.000
834.941;  -75.825; -343.000; -244.000
835.192; -105.075; -590.000; -533.000
835.443; -113.325; -419.000; -506.000
835.695;  -23.600;  138.000;  -16.000
835.946;  -94.225; -608.000; -378.000
836.197; -114.100; -599.000; -622.000
836.448;  -96.750; -528.000; -395.000
836.699;  -75.700; -253.000; -341.000
836.950;  -11.300;   72.000;    7.000
837.201; -164.100;-1003.000; -987.000
837.452;  -45.200; -356.000; -170.000
837.703; -120.500; -791.000; -737.000
837.954;  -41.050; -205.000; -365.000
838.205; -103.150;-1029.000;-1008.000
838.456;  110.850; -196.000; -282.000
838.707;  -13.850; -423.000; -519.000
838.958;   -8.450; -634.000; -647.000
839.209;  203.575;   18.000;   40.000
839.460;   80.500; -439.000; -201.000
839.710;  119.950; -135.000; -297.000
839.961;  358.875;  730.000;  612.000
840.212;  293.250; -382.000; -497.000
840.462; 1039.475; -328.000; -277.000
840.713;16892.250; -571.000; -536.000
840.964; 6682.200;  -62.000; -143.000
841.214;  425.775; -384.000; -624.000
841.465;  457.375; -214.000; -141.000
841.715;  371.575; -417.000; -380.000
841.966;  483.175; -746.000; -685.000
842.216; 7106.075; -330.000; -431.000
842.466;27144.275; -169.000; -313.000
842.717; 1465.850; -964.000; -952.000
842.967;  230.275; -635.000; -641.000
843.217;  201.050;   20.000;   28.000
843.468;   50.075; -104.000; -132.000
843.718;  -60.700; -718.000; -726.000
843.968; -108.725; -837.000; -765.000
844.218;  -14.850; -315.000; -262.000
844.469;  -68.525; -577.000; -561.000
844.719; -114.775; -537.000; -682.000
844.969; -111.325; -550.000; -580.000
845.219; -144.750; -814.000; -862.000
845.469;  -91.525; -392.000; -342.000
845.719; -145.250; -792.000; -884.000
845.969;  -28.050;  119.000;  174.000
846.219; -132.925; -738.000; -720.000
846.469;   15.625;  464.000;  432.000
846.718;  -50.050; -115.000;   31.000
846.968; -135.250; -827.000; -827.000
847.218;  -53.775; -224.000; -371.000
847.468;    9.375; -586.000; -555.000
847.718; -164.050; -827.000; -798.000
847.967; -146.575; -826.000; -915.000
848.217;  -94.375; -449.000; -569.000
848.467;  -70.075; -405.000; -376.000
848.716; -113.325; -708.000; -725.000
848.966;  -24.900; -372.000; -358.000
849.215;  -68.375; -428.000; -419.000
849.465;  -96.550; -785.000; -615.000
849.714; -161.575;-1132.000;-1150.000
849.964;  -77.350; -551.000; -613.000
850.213;  -35.650; -393.000; -355.000
850.463;   61.100;  137.000;  340.000
850.712;  -20.075; -542.000; -567.000
850.961;    2.375; -739.000; -678.000
851.211;   86.175; -513.000; -504.000
851.460;  148.225; -635.000; -650.000
851.709;  517.200;  -25.000;   18.000
851.958; 9475.500; -912.000; -750.000
852.208;11523.100; -859.000; -879.000
852.457;  417.750; -181.000;  -13.000
852.706;   48.800; -791.000; -823.000
852.955;    5.500; -507.000; -528.000
853.204;  -82.200; -521.000; -461.000
853.453;  -72.925; -418.000; -458.000
853.702; -142.300; -660.000; -750.000
853.951; -110.950; -532.000; -520.000
854.200; -126.500; -613.000; -562.000
854.449; -141.350; -695.000; -661.000
854.698;  -97.150; -340.000; -279.000
854.946;  -61.600; -181.000; -284.000
855.195; -166.225; -843.000; -868.000
855.444;  -98.050; -395.000; -420.000
855.693; -133.850; -345.000; -432.000
855.941; -106.800; -387.000; -516.000
856.190;  -72.575; -256.000; -382.000
856.439; -130.100; -652.000; -703.000
856.687;  -65.575;  -99.000;  -72.000
856.936; -131.225; -621.000; -323.000
857.184; -191.725;-1067.000;-1020.000
857.433;  -94.300; -423.000; -512.000
857.681; -186.475; -989.000; -953.000
857.930;  -79.425; -282.000; -433.000
858.178; -185.650; -856.000; -929.000
858.427; -153.275; -802.000; -781.000
858.675; -131.100; -377.000; -544.000
858.923; -120.050; -527.000; -819.000
859.172; -183.900;-1094.000;-1070.000
859.420;  -95.175; -339.000; -239.000
859.668; -146.125; -624.000; -628.000
859.916;  -31.975;  109.000;  115.000
860.164; -117.150; -699.000; -603.000
860.413;  119.975; -878.000; -696.000
860.661;  102.125; -709.000; -577.000
860.909; -103.575; -339.000; -325.000
861.157;  -99.900; -277.000; -444.000
861.405; -131.100; -534.000; -670.000
861.653;    2.325;  310.000;  310.000
861.901;   85.125; -543.000; -613.000
862.149;  -58.325; -801.000; -824.000
862.396;  -79.725; -297.000; -187.000
862.644; -102.325; -368.000; -347.000
862.892;  -43.250;   98.000;  138.000
863.140; -124.350; -549.000; -530.000
863.388; -163.675; -815.000; -759.000
863.635; -135.300; -642.000; -601.000
863.883;   -9.675;  231.000;  190.000
864.131;  -91.025; -288.000; -357.000
864.378; -148.875; -675.000; -540.000
864.626; -118.775; -347.000; -415.000
864.873; -115.250; -556.000; -505.000
865.121; -160.325; -714.000; -799.000
865.368;  -50.400; -173.000;   75.000
865.616;  -28.275;  -33.000;  -40.000
865.863;  -77.625; -462.000; -506.000
866.111; -106.100; -795.000; -824.000
866.358;   70.750; -426.000; -420.000
866.605; 2757.475;  -64.000; -804.000
866.853; 2803.750; -621.000; -537.000
867.100;  -28.700; -728.000; -775.000
867.347;  -90.550; -672.000; -611.000
867.594;  -99.575; -740.000; -714.000
867.841;   40.475;   97.000;   17.000
868.089; -155.150; -746.000; -698.000
868.336; -109.650; -477.000; -420.000
868.583; -143.625; -637.000; -741.000
868.830;  -50.875; -131.000; -170.000
869.077; -170.500; -859.000; -787.000
869.324; -139.250; -502.000; -458.000
869.571; -132.400; -398.000; -430.000
869.818; -128.300; -485.000; -439.000
870.065; -115.500; -439.000; -513.000
870.311; -113.950; -456.000; -542.000
870.558; -108.650; -332.000; -311.000
870.805;  -85.800; -320.000; -384.000
871.052; -119.775; -494.000; -369.000
871.298;  -71.725; -204.000; -131.000
871.545;  -82.500; -151.000; -185.000
871.792;  -86.350; -173.000; -222.000
872.038;  -60.850;   43.000; -126.000
872.285; -133.825; -496.000; -387.000
872.532; -102.400; -357.000; -387.000
872.778;   23.850;  556.000;  403.000
873.025; -102.425; -384.000; -359.000
873.271;   19.000;  501.000;  578.000
873.517;  -51.000; -133.000; -209.000
873.764;  -53.100; -193.000;  -80.000
874.010;  -93.650; -143.000; -230.000
874.257;  -46.750;  123.000;   90.000
874.503; -149.300; -579.000; -479.000
874.749;  -77.000;   31.000;  275.000
874.995;  -81.875;  -80.000;  -20.000
875.242; -129.175; -540.000; -478.000
875.488; -126.000; -414.000; -439.000
875.734;  -64.225; -106.000; -234.000
875.980;   50.550; -872.000;-1032.000
876.226;  211.325; -157.000; -255.000
876.472;  -20.475;  343.000;  237.000
876.718;  -46.650;  184.000;  158.000
876.964;  -62.200;   56.000;   55.000
877.210; -161.200; -547.000; -677.000
877.456; -157.725; -630.000; -557.000
877.702; -164.500; -821.000; -832.000
877.948; -117.400; -377.000; -497.000
878.193;   -4.375;  361.000;  255.000
878.439; -112.200; -487.000; -472.000
878.685; -107.325; -272.000; -343.000
878.931; -137.100; -618.000; -676.000
879.176;  -78.700; -201.000; -201.000
879.422; -177.150; -933.000; -820.000
879.668;   42.375;   10.000;   79.000
879.913;   73.850;   53.000;  137.000
880.159;  -45.825; -112.000;  -17.000
880.404;  -76.475; -152.000; -162.000
880.650;  -48.650;   91.000;  141.000
880.895; -163.200; -670.000; -710.000
881.141; -131.875; -454.000; -428.000
881.386; -159.825; -503.000; -658.000
881.631;  -91.400; -311.000; -166.000
881.877;  -44.950;  112.000;  -13.000
882.122; -130.575; -684.000; -600.000
882.367;  -90.425; -136.000; -186.000
882.612;  -76.950;  -80.000; -176.000
882.858; -185.425; -877.000; -823.000
883.103; -107.275; -297.000; -267.000
883.348; -160.650; -759.000; -852.000
883.593; -166.425; -677.000; -602.000
883.838;  -64.500; -311.000;  -24.000
884.083;   11.300;  353.000;  288.000
884.328; -104.375; -564.000; -545.000
884.573;  -72.025; -196.000; -143.000
884.818;   91.075; -694.000; -531.000
885.063;   84.250; -348.000; -315.000
885.308; -122.500; -475.000; -398.000
885.553;  -11.600;  245.000;  325.000
885.797; -135.000; -545.000; -615.000
886.042;  -62.225;    8.000;   58.000
886.287;  -95.175; -253.000; -211.000
886.532;  -45.725;   26.000;  204.000
886.776; -104.325; -407.000; -525.000
887.021; -153.675; -621.000; -574.000
887.265; -156.125; -685.000; -689.000
887.510; -126.225; -557.000; -496.000
887.755;  -95.725; -194.000; -164.000
887.999; -146.525; -552.000; -575.000
888.244;  -70.650;  -58.000;  161.000
888.488;  -13.975;  371.000;  393.000
888.732; -140.600; -368.000; -520.000
888.977; -144.975; -622.000; -567.000
889.221; -165.325; -683.000; -659.000
889.465; -130.475; -422.000; -566.000
889.710;  -89.050;  -56.000; -299.000
889.954;   -1.550;  579.000;  467.000
890.198; -155.975; -584.000; -707.000
890.442; -164.150; -716.000; -712.000
890.687; -168.025; -800.000; -753.000
890.931;  -99.950; -273.000; -210.000
891.175; -140.800; -502.000; -500.000
891.419;  -89.050; -105.000; -110.000
891.663;  -93.625; -239.000; -112.000
891.907; -161.200; -801.000; -545.000
892.151; -194.700; -920.000; -815.000
892.395; -113.625; -274.000; -387.000
892.638;  -28.800;  408.000;  291.000
892.882; -168.625; -780.000; -867.000
893.126;    4.500;  758.000;  558.000
893.370;  -87.925; -167.000; -168.000
893.614; -155.925; -714.000; -715.000
893.857;  -97.075; -183.000; -197.000
894.101; -154.225; -527.000; -631.000
894.345;  -61.200;  300.000;  150.000
894.588;   12.500;  569.000;  380.000
894.832;  -93.300; -178.000;  -84.000
895.075;  -92.775;   15.000;  -92.000
895.319; -140.000; -552.000; -420.000
895.563; -124.400; -413.000; -353.000
895.806; -160.675; -628.000; -741.000
896.049;  -90.925; -576.000; -368.000
896.293;   57.150;  527.000;  405.000
896.536; -111.850; -465.000; -468.000
896.779;  -65.950; -149.000;   -1.000
897.023; -166.275; -751.000; -714.000
897.266;  -51.675;  325.000;  269.000
897.509; -183.950; -900.000; -901.000
897.752;  -48.325;  149.000;  171.000
897.996; -193.300; -972.000; -864.000
898.239;  -39.750;  168.000;  102.000
898.482; -140.375; -431.000; -453.000
898.725;  -55.650;  101.000;   53.000
898.968; -167.000; -609.000; -744.000
899.211; -120.800; -513.000; -361.000
899.454; -139.100; -633.000; -539.000
899.697;  -74.600;   90.000;  -43.000
899.940; -167.075; -761.000; -757.000
900.182; -114.300; -335.000; -405.000
900.425;  -99.275; -150.000; -298.000
900.668;  -26.175;  491.000;  350.000
900.911; -115.750; -292.000; -345.000
901.154;  -39.925;  141.000;   -3.000
901.396; -138.875; -407.000; -412.000
901.639; -145.775; -430.000; -496.000
901.882; -200.225; -790.000; -809.000
902.124;  -87.950;  -29.000; -143.000
902.367; -115.725; -315.000; -361.000
902.609; -145.350; -476.000; -453.000
902.852;  -97.350; -108.000; -260.000
903.094; -115.525; -458.000; -337.000
903.337;  -60.575;  -26.000;   53.000
903.579; -114.875; -228.000; -441.000
903.821; -182.450; -597.000; -744.000
904.064;  -61.575;   85.000;  127.000
904.306;  -91.100; -126.000; -166.000
904.548; -104.400; -152.000; -366.000
904.790; -100.200; -195.000; -340.000
905.033; -137.625; -625.000; -577.000
905.275; -147.475; -513.000; -524.000
905.517;   21.875;  468.000;  256.000
905.759; -102.125; -667.000; -761.000
906.001; -113.625; -322.000; -369.000
906.243;  -69.150; -162.000; -224.000
906.485;   29.875; -265.000; -207.000
906.727;   14.500; -499.000; -542.000
906.969;  -46.250;  -30.000; -135.000
907.211;   43.700; -316.000; -382.000
907.453;  151.900; -188.000; -237.000
907.695;  -33.550; -158.000; -385.000
907.936;   36.000;  818.000;  706.000
908.178;  -70.400;   92.000; -135.000
908.420;  -91.075; -111.000; -162.000
908.662; -147.875; -633.000; -682.000
908.903; -101.500; -208.000; -123.000
909.145;  -74.425; -240.000; -305.000
909.386;   -0.925;  315.000;  280.000
909.628;   35.325;  363.000;  397.000
909.870;  -19.675;   29.000;  264.000
910.111; -100.325; -809.000; -949.000
910.353;   -2.750; -123.000; -161.000
910.594;   -7.775; -574.000; -606.000
910.835;   66.000; -265.000; -326.000
911.077;  118.600; -503.000; -604.000
911.318;  254.425; -505.000; -471.000
911.559;  418.325; -577.000; -880.000
911.801; 1251.475; -284.000; -280.000
912.042; 9899.175;  -50.000; -159.000
912.283;25252.325;  404.000;  371.000
912.524; 3799.125; -396.000; -457.000
912.765;  449.925; -193.000;   79.000
913.006;  200.700; -307.000; -338.000
913.247;   35.025; -270.000; -290.000
913.488;   -7.550;  -43.000;   30.000
913.729;  -92.900; -373.000; -373.000
913.970;  -71.475;  -96.000; -292.000
914.211;  -69.825; -160.000; -198.000
914.452;  -73.450; -118.000;  -11.000
914.693;   -6.475;  510.000;  592.000
914.934;   -3.825;  510.000;  440.000
915.175;  -60.175;   53.000;  -95.000
915.415;  -68.050; -137.000;   27.000
915.656;  -69.900;  -28.000;  192.000
915.897;  -99.100; -252.000;  -82.000
916.137;  -68.400;   74.000;   -9.000
916.378; -143.200; -573.000; -517.000
916.619;  -83.125; -159.000;  -63.000
916.859;  -45.025;  303.000;  330.000
917.100;  125.000; 1655.000; 1070.000
917.340;   43.750;  930.000;  728.000
917.581;   40.225;  965.000;  789.000
917.821;  -59.350; -171.000;  143.000
918.061;  -38.725; -199.000;  -72.000
918.302;  -66.325; -152.000; -211.000
918.542;  -51.425;  -22.000;    3.000
918.782;   31.875;  369.000;  377.000
919.023;   98.925;  360.000;  427.000
919.263; 1210.750; 8131.000;  202.000
919.503;  874.750; -137.000;  -54.000
919.743;  436.750;  390.000;  266.000
919.983;  161.575; -134.000;  -26.000
920.223;   57.300;  135.000;   14.000
920.463;  136.150;  631.000;  554.000
920.703;  137.275;   84.000;   39.000
920.943;  146.450; -110.000;   90.000
921.183;  235.025; -414.000; -405.000
921.423;  487.975;  307.000;  546.000
921.663;  723.300; -174.000; -257.000
921.903; 1545.850;  237.000;  173.000
922.143; 8719.025;  372.000;  389.000
922.383;33617.175;  158.000;  115.000
922.622;11197.475; -120.000;  -15.000
922.862; 1188.375;  796.000;  785.000
923.102;  461.400;  -51.000;   33.000
923.341;  173.050;   59.000;   74.000
923.581;   85.200;  450.000;  360.000
923.821;   14.950;  301.000;  398.000
924.060;   -0.650;  351.000;  193.000
924.300;  -65.275;  -16.000; -128.000
924.539;  -13.725;  584.000;  473.000
924.779;   10.200;  812.000;  597.000
925.018;  -57.475;  247.000;  353.000
925.257;   -1.050;  595.000;  666.000
925.497;  -49.900;  447.000;  412.000
925.736;  -65.525;  -35.000;  102.000
925.975;   -8.800;  687.000;  669.000
926.214;   31.175;  907.000;  850.000
926.454;   -0.975;  706.000;  757.000
926.693;  -42.225;  419.000;  543.000
926.932;   22.500; 1021.000;  825.000
927.171;   58.450; 1107.000; 1044.000
927.410;   58.750; 1144.000;  967.000
927.649;   21.600;  924.000;  742.000
927.888;  -10.575;  590.000;  564.000
928.127;   -6.725;  680.000;  678.000
928.366;   14.425;  842.000;  826.000
928.605;   28.450;  831.000;  737.000
928.844;  215.075; 1451.000; 1393.000
929.083;  499.375;  770.000;  613.000
929.321;  273.700; 1335.000; 1359.000
929.560;   86.250; 1158.000; 1122.000
929.799;  -25.025;  574.000;  475.000
930.038;   79.275; 1025.000; 1394.000
930.276;  -52.400;  334.000;  397.000
930.515;   -8.050;  827.000;  681.000
930.753;   -8.600;  614.000;  589.000
930.992;  -28.225;  664.000;  717.000
931.230;   -5.200;  847.000;  847.000
931.469;  179.100; 2162.000;  892.000
931.707;   59.050;  840.000;  751.000
931.946;   47.350; 1278.000; 1344.000
932.184;   60.025; 1437.000; 1175.000
932.423;   49.200; 1265.000;  963.000
932.661;   75.525; 1296.000; 1428.000
932.899;   18.375;  987.000;  821.000
933.137;   -0.225;  754.000;  564.000
933.376;  133.100; 1664.000; 1335.000
933.614;  143.975; 1759.000; 1196.000
933.852;   67.550; 1357.000; 1171.000
934.090;  130.800; 1722.000; 1747.000
934.328;  105.875; 1252.000; 1457.000
934.566;   97.750; 1431.000; 1110.000
934.804;  147.350; 1263.000; 1309.000
935.042;  545.650; 1861.000; 1850.000
935.280; 2221.350; 2088.000; 2063.000
935.518; 2099.400; 2113.000; 2007.000
935.756;  412.050; 2481.000; 2316.000
935.994;  153.125; 1808.000; 1751.000
936.231;  339.550; 2890.000; 2950.000
936.469;  189.950; 2367.000; 2378.000
936.707;  163.875; 2220.000; 2167.000
936.945;  236.525; 2825.000; 2882.000
937.182;  208.825; 2679.000; 2741.000
937.420;  299.175; 3602.000; 3031.000
937.657;  375.525; 3365.000; 3478.000
937.895;  343.525; 3331.000; 3488.000
938.133;  311.325; 3540.000; 3528.000
938.370;  332.075; 3896.000; 4191.000
938.607;  408.750; 4488.000; 4205.000
938.845;  544.600; 5587.000; 5549.000
939.082;  483.450; 5387.000; 5177.000
939.320;  537.850; 5799.000; 5728.000
939.557;  644.575; 6549.000; 6491.000
939.794;  703.100; 7285.000; 7097.000
940.031;  872.175; 8421.000; 8368.000
940.269; 1051.575; 9552.000; 9107.000
940.506; 1119.525;10901.000;10507.000

