
Integration time [ms]: 100.000
Averaging Nr. [scans]: 40
Smoothing Nr. [pixels]: 0
Data measured with spectrometer [name]: 2101013U2
Wave   ;Sample   ;Dark     ;Reference
[nm]   ;[counts] ;[counts] ;[counts] 

394.013;   48.096; -450.257; -315.536
394.305;  199.094; -461.258; -419.536
394.596; 1186.465; -676.269; -527.514
394.887; 2890.032; -796.268; -654.518
395.178; 1086.213;  145.736;   11.476
395.470;   95.399; -210.263; -356.526
395.761;  188.597;  305.734;  394.479
396.052;  304.438; -545.284; -306.489
396.343;  292.034; -557.276; -454.503
396.634;  102.127; -200.279; -290.497
396.926;   81.879; -618.268; -565.517
397.217;   99.014;   11.725;  -17.504
397.508;   39.530; -366.273; -154.507
397.799;   45.802; -555.279; -571.497
398.090;   -0.028; -973.280; -902.495
398.381;  112.988;   11.708;  -11.473
398.672;  -10.861; -585.292; -742.473
398.963;   38.584; -348.279; -373.498
399.254;  100.048;   54.709; -209.475
399.545;  -39.882;-1017.266; -883.520
399.836;   51.348; -407.277; -343.501
400.127;   57.639; -205.295; -209.468
400.418;   48.749; -423.274; -392.506
400.709;   50.209; -359.281; -333.493
401.000;   35.902; -268.291; -309.476
401.290;  106.824;  225.698;  115.545
401.581;   62.796; -166.286; -228.485
401.872;   17.510; -542.298; -486.462
402.163;   51.331; -313.296; -252.467
402.454;   81.949; -123.291; -163.475
402.744;   60.922; -844.297; -813.465
403.035;  382.729; -226.293;  -86.471
403.326;  512.067; -366.292; -384.474
403.617;  359.405;  204.701;  165.539
403.907;  251.344; -593.283; -679.490
404.198; 2553.378; -545.307; -599.446
404.489; 6563.349; -618.283; -588.491
404.779; 2100.678; -618.302; -660.456
405.070;  236.606;  -67.304; -174.451
405.360;  357.731; -259.293; -238.472
405.651;  358.689;  125.699;   98.542
405.942;  171.891;  209.714;  127.516
406.232;  231.431; -432.285; -413.487
406.523;  431.698;  641.706;  758.530
406.813;   97.518; -579.286; -644.484
407.104;  312.136;  261.708;  144.527
407.394;  151.631; -604.299; -591.462
407.685;  157.530;  336.715;  222.513
407.975;   56.773; -400.283; -382.490
408.265;   99.988; -134.289; -190.478
408.556;   64.020; -472.291; -459.475
408.846;  176.574;  474.706;  429.530
409.137;   86.947;   -1.288; -216.480
409.427;   61.981; -193.285; -271.487
409.717;   42.908; -776.273; -692.508
410.007;  148.099;    4.715; -170.486
410.298;   74.616; -360.295; -342.469
410.588;   61.303; -495.285; -510.486
410.878;   41.858; -792.287; -873.482
411.168;  112.888; -481.298; -478.463
411.459;  116.392; -295.283; -242.489
411.749;   57.669; -609.292; -507.474
412.039;   68.295; -755.289; -386.480
412.329;  200.841;   40.722;  132.501
412.619;  200.594;  -62.286; -148.485
412.909;  363.966;  639.711;  594.521
413.199;  328.447; -130.280; -251.495
413.490;  370.781;  521.710;  352.523
413.780;  157.001;-1013.279; -913.496
414.070;  328.885;  -46.276;  235.497
414.360;  335.787; -729.278; -666.498
414.650;  420.454; -726.288; -688.482
414.940;  551.275; -538.280; -441.496
415.230;  959.826;   50.712;   74.519
415.520; 6301.864;  155.730;   66.486
415.809;25032.933; -305.281; -125.493
416.099;19185.650; -388.277; -229.501
416.389; 5482.122;  435.726;  236.494
416.679; 3232.503;   91.738;   85.473
416.969;  557.237; -527.287; -503.483
417.259;  480.903;  341.721;  171.503
417.549;  715.482;  522.718;  318.508
417.838; 1737.256; -205.268; -147.518
418.128; 5832.362;  650.710;  492.522
418.418; 4841.614; -491.272; -579.509
418.708; 3281.647;    9.726;  -48.506
418.997;12376.893; -474.275; -480.505
419.287;12827.929; -733.273; -790.507
419.577;12263.417; -160.283; -123.489
419.866;40470.398; -588.277; -498.501
420.156;40841.210; -242.270;  -55.513
420.446; 7196.645; -112.263;  -26.526
420.735;  829.904; -376.271; -446.512
421.025;  819.036; 1830.722;  315.502
421.314;  645.727; -203.271; -226.512
421.604; 1229.874;   89.732;  233.484
421.893;  719.648; -705.271; -602.511
422.183;  230.720; -487.263; -461.526
422.472;  400.625;  -36.271; -107.511
422.762;  462.074; -416.266; -379.521
423.051;  251.110; -916.276; -916.503
423.341;  300.031; -491.273; -439.507
423.630;  402.880; -121.265;   15.477
423.919;  390.642;   58.725;   49.495
424.209;  387.426;  -31.263;   56.473
424.498;  513.204;   68.732;  161.483
424.787; 1132.485; -535.267; -601.518
425.077; 3490.979;   34.735;   29.478
425.366; 4726.981; -734.262; -744.528
425.655;10516.531;  639.727;  259.493
425.945;23647.412; -313.247; -268.554
426.234;12893.504;  117.741;  300.467
426.523; 5276.410;  -86.259; -350.534
426.812; 7199.270;  107.734;  159.480
427.101;10826.970; -127.269; -323.515
427.390;13416.539;  -55.270;  -86.514
427.680; 2814.079; -624.257; -411.538
427.969;  475.365; -330.255; -301.540
428.258;  320.921; -385.257; -477.536
428.547;  527.043;  449.728;  397.490
428.836; 1145.932; -421.253; -398.543
429.125; 1645.311; -199.259;  -72.534
429.414;  762.630; -330.251; -294.548
429.703; 3294.180; -231.251; -213.548
429.992; 9851.183; -938.250; -828.549
430.281; 6403.713; -397.264; -331.524
430.570;  554.520;  -21.252;   32.454
430.859;  512.084;  279.741;  352.466
431.148;  400.083;  636.752;  631.446
431.437;  288.919;  391.748;  367.454
431.725;  153.747; -544.257; -481.536
432.014;  143.739; -845.253; -756.545
432.303;  381.909; -149.239; -105.569
432.592;  564.095; -460.263; -178.525
432.881; 1089.809; -601.248; -437.554
433.169; 6589.441; -343.255;  -61.540
433.458;13448.768;  445.765;  540.424
433.747; 5523.887; -397.261; -289.529
434.036;  848.985; -275.242; -280.564
434.324; 2140.146; -395.249; -379.551
434.613; 3821.928;   40.757;  159.437
434.902; 1219.549;  333.760;  439.433
435.190;  482.633;   75.761;  295.431
435.479;  277.210;  -52.245;   83.441
435.767;   87.593; -411.244; -427.561
436.056;  197.055; -340.242; -294.563
436.345;  363.126; -372.240; -223.568
436.633;  371.466;   60.750;  383.450
436.922;  237.429;  208.760;  414.432
437.210;  484.658; -194.236;    1.426
437.499; 1533.941; -583.235; -432.576
437.787; 1693.033; -339.236;  -10.574
438.075;  456.838;   56.761;  162.430
438.364;  621.016;  -44.238;  250.429
438.652;  360.522; -286.226; -138.592
438.941;  108.635;    3.770;  269.415
439.229;   -4.408; -665.252; -466.545
439.517;   38.375; -160.234;  -85.577
439.806;   -9.562; -501.225; -290.595
440.094;  161.457;  377.766;  650.421
440.382;  165.361; -653.233; -302.580
440.670;  176.341; -361.235; -285.576
440.959;   27.555; -347.223; -170.599
441.247;   63.247; -151.229; -109.587
441.535;   92.973; -266.235;   31.423
441.823;   28.305; -497.234; -305.578
442.111;  180.001;  173.771;  327.412
442.400;  439.409; -628.245; -335.559
442.688; 1171.357; -111.234; -620.579
442.976;  803.569; -786.213; -450.617
443.264;   93.669; -324.224; -364.597
443.552;   96.823; -258.226;   51.408
443.840;  155.422;  602.765;  876.423
444.128;   95.935;  265.767;  269.420
444.416;   -0.821; -694.228; -312.588
444.704;   11.485; -465.219;  -92.605
444.992;   78.051;   -0.226;  240.407
445.280;   49.661; -517.230;  -94.585
445.568;   32.622; -694.212; -396.618
445.856;  287.494; -174.221;  357.398
446.143;  661.106;  -54.220;   -7.604
446.431;  546.557;  -25.228;  625.411
446.719;  234.404;  489.783;  675.391
447.007;  170.380;  481.769;  705.416
447.295;  168.727;  597.777;  871.402
447.583;   77.445; -464.229;  -34.587
447.870;  136.566; -434.221; -202.601
448.158;  356.085; -104.230;  129.415
448.446;  277.107; -800.219; -338.604
448.733;  160.321;   13.776;  269.403
449.021;  233.172;   60.788;  341.382
449.309;  177.337; -296.210;  208.379
449.596;  210.451;  128.783;   59.392
449.884;  147.309; -571.222; -325.600
450.172;  166.488; -756.227; -406.590
450.459;  453.577;  645.786;  780.387
450.747; 2567.399; -411.218; -147.608
451.034; 8210.984;  493.772;  889.411
451.322; 6744.955; -413.214; -170.614
451.609;  545.247;  292.777;  508.403
451.897;  621.726; -550.203; -183.634
452.184; 1922.402; -622.223; -400.598
452.472; 1788.709;   97.792;  269.375
452.759;  350.258;  512.781;  864.395
453.047;   97.694; -407.212; -125.617
453.334;   47.916; -732.219; -216.606
453.621;   65.782; -438.214; -161.615
453.909;  123.467;   13.796;  384.368
454.196;  102.238; -299.199; -123.641
454.483;  206.464;  317.798;  540.364
454.771;  126.437; -215.208;  196.374
455.058;   35.915; -316.207;  102.374
455.345;  130.269;   71.807;  344.347
455.632;   99.093; -128.207;  235.373
455.919;   61.836;  -82.196;  182.354
456.207;  -59.807; -774.198; -450.642
456.494;    3.726; -475.200;  -66.639
456.781;    4.584; -399.202; -198.635
457.068;   51.225; -253.206;  -29.628
457.355;  -23.299; -698.206; -401.629
457.642;   -6.793; -552.205; -290.630
457.929;   -3.240; -778.194; -417.651
458.216;   71.045; -575.212; -354.617
458.503;  256.590; -173.193;  -19.652
458.790;  256.384; -864.208; -630.625
459.077;  282.014;  -77.202;  110.364
459.364;  828.228; -350.195; -210.649
459.651; 1785.148;  -46.206;  220.372
459.938;  837.975; -864.209; -665.623
460.225;  135.243;  132.799;  276.363
460.512;  -49.192; -836.197; -688.645
460.799;  101.923;  -32.218;  320.392
461.086;   57.980; -370.200; -251.640
461.372;   29.218; -509.198; -279.642
461.659;  107.487; -165.196;  108.354
461.946;   50.763; -445.193;  -54.651
462.233;  231.903;  842.800;  888.361
462.519;  353.625; -814.201; -464.639
462.806; 1054.534; -768.197; -497.645
463.093;  893.134; -445.191;  -66.656
463.380;  -17.949; -920.186; -824.664
463.666;   62.510; -259.197;  -18.646
463.953;  101.973; -406.195; -243.648
464.239;  199.573; -173.195;  -77.648
464.526;  374.333;  413.806;  743.350
464.813;  312.221; -565.190; -304.658
465.099;  335.089;  606.807;  607.348
465.386;  297.293;  903.807;  921.348
465.672;   11.809; -694.197; -522.645
465.959;    1.764; -598.188; -520.662
466.245;  -10.882; -468.193; -359.652
466.532;   82.270; -109.195;   63.352
466.818;   70.425; -357.186; -216.664
467.104;  -15.609; -488.182; -415.672
467.391;  -21.302; -628.189; -459.658
467.677;   37.654; -289.186;    9.335
467.964;   -2.296; -682.189; -471.660
468.250;   72.607; -331.186; -160.665
468.536;   68.374;   90.811;  180.341
468.822;  -26.881; -821.184; -574.668
469.109;  149.522;  351.827;  471.311
469.395;  192.328;  729.808;  787.346
469.681;  187.627;   46.811;  156.341
469.967; 1319.332; -699.188; -382.660
470.254; 2860.165; -494.188; -306.662
470.540; 1811.736; -601.196; -476.646
470.826;  257.452; -488.181; -397.675
471.112;  315.447;  288.816;  113.331
471.398;   77.777; -253.183;  -58.670
471.684;   51.306; -626.177; -447.680
471.970;   -5.694; -918.180; -981.675
472.256;   16.252; -521.192; -441.654
472.542;    4.358; -499.171; -434.691
472.828;   13.112; -743.182; -607.672
473.114;   30.127; -380.166; -283.700
473.400;    6.647; -504.175; -293.684
473.686;   34.509; -452.166; -400.701
473.972;   36.762; -230.174; -131.687
474.258;  -29.853; -925.173; -843.689
474.544;  209.672; -183.178;   -2.679
474.830;  346.549;  -65.175;   45.316
475.116;  523.472; -123.190; -196.658
475.401;  733.308; -558.180; -467.676
475.687;  215.907; -725.180; -718.676
475.973;   -4.605; -673.181; -770.673
476.259;  233.526;  736.825;  764.315
476.544;  378.339; -539.176; -437.682
476.830;  900.379; -398.172; -322.690
477.116;  806.687; -430.177; -336.682
477.401;  130.883;  346.820;  358.324
477.687;  -15.577; -289.175; -405.684
477.973;   27.798;   21.819;   28.326
478.258;    1.829; -448.163; -348.706
478.544;   51.737;   21.815;   61.334
478.829;  -59.861; -818.171; -738.692
479.115;  -44.071; -749.172; -651.690
479.401;  -24.492; -444.174; -449.686
479.686;   35.107; -253.180;  -74.676
479.972;  -26.522; -886.178; -776.680
480.257;   22.154; -258.166;  -65.700
480.542;    1.918; -614.170; -469.693
480.828;  229.496; 1288.824; 1392.317
481.113;  -39.006; -464.176; -426.683
481.399;   -3.872; -236.161; -202.711
481.684;  -59.722; -620.166; -462.700
481.969;   20.417; -158.159;  -73.713
482.255;   -5.046; -439.169; -285.695
482.540;   -5.122; -569.178; -441.680
482.825;    7.896; -395.187; -404.663
483.110;   97.532;  -85.169; -105.696
483.396;  220.389; -840.157; -652.718
483.681;  528.262;  543.826;  730.313
483.966;  180.761; -696.160; -700.712
484.251;   -4.014; -404.174; -310.687
484.536;    3.689; -356.165; -378.703
484.822;   14.489; -205.173; -218.687
485.107;  -18.398; -599.152; -502.726
485.392;  129.445;  662.836;  541.296
485.677;   69.742;  354.832;  163.302
485.962;   94.736;  160.843;  270.283
486.247;   94.562;  -14.162;   -8.707
486.532;   33.980; -178.166; -325.701
486.817;  170.248;  381.839;  431.291
487.102;  130.560; -453.154; -514.722
487.387;  711.491; -637.156; -652.718
487.672; 1317.050; -154.164;  -38.705
487.957;  810.780; -394.160; -286.711
488.241;  207.469; -290.150; -314.729
488.526;  818.304; -280.152; -148.726
488.811; 1329.055; -881.177; -818.680
489.096;  957.563; -666.154; -702.723
489.381;  528.550;    3.847;  162.275
489.666;  443.403; -428.161; -510.710
489.950;  183.066;  558.846;  627.277
490.235;  -21.236; -480.151; -458.728
490.520;  -42.898; -756.161; -723.710
490.804;  -56.032; -827.156; -736.719
491.089;    9.460; -469.149; -299.732
491.374;   18.774; -132.164;  -75.704
491.658;   -2.329; -817.147; -717.735
491.943;  149.708; -657.152; -609.727
492.227;  237.781; -178.155;  -38.721
492.512;   60.511; -294.157; -341.717
492.797;  -64.971; -713.149; -716.731
493.081;  -42.601; -588.147; -598.735
493.366;  -32.571; -751.161; -635.711
493.650;  212.278;  831.859;  917.254
493.935;   30.946; -648.147; -447.734
494.219;  -49.335; -778.142; -687.743
494.503;  -37.526; -585.150; -487.730
494.788;   56.952;   46.842;   74.285
495.072;   97.770;  184.850;  434.271
495.356;  188.813; -463.148; -343.733
495.641;  469.781; -812.146; -736.736
495.925;  450.473; -976.156; -903.719
496.209;   33.659; -599.149; -451.732
496.494;  -41.459; -763.142; -544.744
496.778;   10.910; -364.154; -360.722
497.062;  -39.553; -819.156; -627.719
497.346;  -28.368; -869.160; -640.711
497.631;  149.392;  580.852;  560.266
497.915;   80.216;  -64.145;  175.261
498.199;   56.889; -341.157; -277.718
498.483;   32.902; -562.152; -508.725
498.767;  195.196;  301.850;  300.271
499.051;  194.807; -126.149; -100.732
499.335;   47.130; -693.149; -739.731
499.619;  -33.070; -381.129; -423.767
499.903;   21.304; -272.155;  -65.721
500.187;   23.117; -588.153; -316.724
500.471;   29.132; -796.152; -595.727
500.755;  118.277;   62.839;  -96.710
501.039;   29.630; -270.155; -357.721
501.323;   81.805;  -21.141;  264.254
501.607;   25.880; -447.163; -503.706
501.891;  -10.135; -607.156; -512.718
502.174;  -43.272; -726.144; -585.741
502.458;   57.436;   89.849;  370.273
502.742;   24.354; -180.138; -191.751
503.026;  120.595; -412.147; -254.734
503.310;  197.591; -437.159; -375.713
503.593;  137.222; -464.147; -325.735
503.877;  112.594; -232.133; -156.760
504.161;  185.695;    2.847;  -50.724
504.444;  132.830; -841.158; -710.716
504.728;  503.023; -487.164; -522.704
505.012;  768.393; -257.150;  -76.729
505.295;  591.853; -417.161; -212.711
505.579;  570.172; -256.156; -496.719
505.862;  811.988; -555.145; -333.738
506.146;  824.893; -681.159; -758.714
506.429;  426.744;  568.841;  461.286
506.713;   85.015; -732.151; -667.728
506.996;  342.685;   90.846;  295.278
507.280;  368.868; -633.165; -474.703
507.563;  273.828; -469.155; -261.721
507.847;  109.268; -423.153; -112.724
508.130;   86.154; -665.161; -456.711
508.413;  135.624; -758.167; -577.700
508.697;  279.150; -151.167;   12.300
508.980;  177.920; -422.153; -312.724
509.263;  -10.601; -466.155; -450.720
509.547;   36.693; -124.150;   82.271
509.830;   41.106; -172.160;  140.289
510.113;   76.747;  128.844;  298.281
510.396;   22.575; -530.152; -300.725
510.680;  128.414; -818.145; -812.738
510.963;  505.164;  184.846;  180.277
511.246;  423.351; -493.150; -357.730
511.529;  247.444; -482.145;  -83.739
511.812;  419.941; -250.134;   10.241
512.095;  300.638; -740.151; -396.728
512.378;   83.726; -317.147; -245.736
512.661;   24.961; -703.137; -623.753
512.944;   38.967; -750.142; -637.744
513.227;   71.309; -170.137; -171.752
513.510;   27.703; -479.144; -671.741
513.793;   37.234; -485.140; -435.747
514.076;  134.701;  -43.127;  -39.771
514.359;  108.060; -294.149; -135.732
514.642;   96.595; -442.142; -567.744
514.925;  806.032;  581.860;  561.253
515.208; 1103.062; -498.134; -443.758
515.491;  699.476; -276.133; -182.761
515.773;  409.481; -410.143; -337.742
516.056; 2284.518;  249.864;  409.246
516.339; 3064.847; -754.136; -652.755
516.622; 1901.498; -518.150; -488.730
516.904; 1088.363;  882.857;  975.257
517.187;  473.507; -730.138; -523.752
517.470;  392.287; -568.143; -510.743
517.752;  472.700; -624.136; -470.756
518.035;  391.470; -708.139; -725.749
518.318;  406.622; -799.136; -744.755
518.600; 2697.780; -300.132; -325.762
518.883; 3731.069;  310.858;   88.256
519.165; 1748.225; -585.138; -426.751
519.448;  387.554;  -61.132;  -19.762
519.730;  189.983; -573.126; -415.773
520.013;  279.997;  588.867;  664.240
520.295;  728.567;  -94.134;  -15.759
520.578; 1577.917; -335.131; -305.764
520.860; 1785.204; -254.132;   56.238
521.143;  973.227; -763.135; -584.756
521.425;  506.771; -251.125; -279.775
521.707;  726.801; -622.127; -380.771
521.990; 1925.852; -199.127;  167.229
522.272; 2212.061; -116.140;   -4.748
522.554;  958.332; -237.143; -157.742
522.836;  332.565;  -24.134;   99.241
523.119;  210.094; -496.148; -189.734
523.401;  170.349; -448.130; -314.766
523.683;  109.012; -865.137; -693.753
523.965;  290.830;  408.862;  260.248
524.247;  304.343;   54.878;  170.220
524.529;  214.317; -451.134; -367.759
524.812;  375.951;   -3.130;  191.234
525.094;  945.429; -773.138; -631.751
525.376; 1480.830; -143.124;   78.223
525.658;  910.994; -441.136; -339.754
525.940;   40.664; -805.131; -671.764
526.222;   36.098; -188.136;  -88.755
526.504;   91.362; -190.131;   32.237
526.786;  154.770; -960.133; -647.760
527.068;  259.161; -124.123;  -67.778
527.349;   92.591; -865.137; -774.754
527.631;  136.329; -137.132;   22.238
527.913;  157.850; -664.127; -450.771
528.195;  191.039; -761.125; -639.774
528.477;  262.262;  -93.134;  -30.758
528.759;  157.826; -648.130; -522.766
529.040;   78.610; -569.123; -293.778
529.322;   49.392; -235.125;  -10.774
529.604;  144.028;  -47.130;   93.233
529.886;  122.008; -546.126; -302.773
530.167;  104.770;  232.870;  192.235
530.449;   52.726;    1.853;   63.265
530.731;   41.117; -572.122; -459.779
531.012;   74.988; -513.120; -216.784
531.294;   73.377; -118.116;  -43.792
531.575;  154.821;  290.875;  538.225
531.857;   59.382; -548.135; -266.757
532.138;  104.328; -113.141;   40.254
532.420;  168.753;  294.865;  403.244
532.701;  208.947; -722.133; -751.760
532.983;  331.275;  232.867;  182.239
533.264;  107.631; -243.126;  175.228
533.546;  -30.203; -491.136; -508.755
533.827;   51.819;  173.867;   -1.759
534.109;   24.907; -352.135;  -80.757
534.390;   83.083; -725.132; -582.762
534.671;  255.078; -270.135;  -82.756
534.953;  149.913; -751.123; -611.779
535.234;   32.587; -426.117; -255.789
535.515;  -80.054; -891.119; -735.785
535.796;  -10.354; -431.128; -193.770
536.078; -107.170;-1050.124; -904.777
536.359;    9.813;  -22.123;    3.221
536.640;   -7.109; -480.125; -197.774
536.921;  148.859;  225.871;  143.232
537.202;  395.451;  -87.138;  -16.751
537.483;  493.392;  251.869;  377.236
537.764;  186.670;   17.870;   98.235
538.045;  -29.739; -543.134; -371.758
538.326;  -13.715; -596.129; -447.768
538.607;   25.877; -686.127; -476.771
538.888;  184.929;   98.879;    5.218
539.169;  198.823; -704.122; -535.781
539.450;  352.208;  236.871;   16.233
539.731;  229.783; -361.121; -182.783
540.012;  114.338;  199.880;  412.216
540.293;   76.125;   82.876;  158.224
540.574;   15.498; -895.113; -717.796
540.855;  449.981;  435.879;  377.218
541.136;  539.571;   47.878;  139.220
541.416;  294.702; -161.130; -220.766
541.697;  205.962; -274.131; -170.763
541.978; 1132.255; -270.135; -315.757
542.259; 1413.827; -211.127; -236.771
542.539;  690.596; -191.116; -186.790
542.820;  200.821;  461.875;  480.225
543.101;  132.716;  -52.145;  -77.738
543.381;    5.052; -638.127; -591.771
543.662;  276.049;  159.873; -254.771
543.942;  610.547; -751.127; -830.770
544.223; 1138.522;  193.878;  161.219
544.504;  742.380; -275.124; -182.777
544.784;  618.733; -592.126; -408.773
545.065; 1770.525;  104.884; -254.791
545.345; 2126.146;  227.881;   14.215
545.626; 1377.147;  -14.113; -108.796
545.906;  961.770;   77.869;   98.235
546.186;  404.288;   92.874;  -95.773
546.467;  214.857;   99.877;  -95.778
546.747;  351.771;  264.884;  327.210
547.027;  386.728;   91.876;  111.223
547.308;  360.647; -376.127; -530.770
547.588;  422.136;  299.871;  371.232
547.868;  197.771;  458.870;  588.235
548.149;  202.957;  609.885;  593.207
548.429;  156.025; -347.127; -299.771
548.709;  225.662; -645.120; -461.784
548.989;  508.831;   84.882;   88.213
549.269; 2282.253;   10.868;  139.239
549.550; 5235.362;  215.877;  117.222
549.830; 4715.440; -758.111; -556.799
550.110;  927.598; -468.110; -320.801
550.390;  908.517; -128.122;  -56.779
550.670; 1224.793; -868.114; -783.795
550.950;  896.931; -509.121; -471.782
551.230;  194.977;  549.879;  460.218
551.510;    6.380; -381.121; -326.782
551.790;   39.781; -173.109; -127.803
552.070;  247.307;  940.877; 1181.223
552.350;  447.650; -492.119; -377.786
552.630;  646.250;   -2.121;   77.219
552.909;  384.650;  181.884;   73.209
553.189;  261.684;  -49.132;   33.237
553.469;  212.025; -703.119; -514.786
553.749;  204.378; -469.127; -357.772
554.029;  179.266;   33.883;  -24.790
554.308;  152.411; -154.115;  -37.794
554.588;   79.645; -196.128; -204.770
554.868;   68.507; -366.121;  -47.782
555.147;  172.934; -114.115;  -46.793
555.427;  634.278; -260.116; -250.792
555.707; 4254.506; -284.115; -200.793
555.986; 5174.044; -719.111; -538.800
556.266; 2723.169;   23.884;   72.210
556.546;  138.955; -888.121; -675.782
556.825;  285.016; -657.114; -556.794
557.105; 1971.018; -125.128;   17.230
557.384; 2310.824;  122.884;  187.209
557.664;  875.052; -717.116; -508.792
557.943;  146.381; -557.121; -411.782
558.222;  199.534; -345.118; -344.788
558.502;  306.735; -116.115;  -76.793
558.781;  536.130;  194.885;  499.208
559.061;  476.084; -232.118; -227.788
559.340;  330.539;  302.883;  353.211
559.619;  789.469;   93.884;  148.210
559.899; 1132.516; -239.117; -266.789
560.178; 1031.384; -778.115; -593.793
560.457; 3424.342; -623.117; -562.790
560.736; 4813.295; -472.111; -482.800
561.015; 3211.616; -500.128; -502.769
561.295;  400.926;  180.893;  215.193
561.574;  365.632;  119.885;  116.207
561.853;  524.835;  274.891;  303.197
562.132;  545.487;  -45.114;  182.206
562.411;  476.125;  396.879;  553.219
562.690;  172.905; -592.115; -458.792
562.969;  148.404;  472.888;  630.203
563.248;  489.248; 2966.878; 2487.219
563.527;  310.244; -290.111; -408.800
563.806;  436.450; -650.127; -521.771
564.085;  452.066; -297.105; -206.810
564.364;  285.719; -594.117; -405.790
564.643;  546.701; -276.121; -223.781
564.922; 2051.104;  221.890;  397.198
565.201; 2127.633; -640.109; -700.803
565.479;  897.379; -297.115; -219.792
565.758;  378.718; -810.128; -712.770
566.037;  527.584; -155.109; -100.803
566.316;  263.649; -286.116;  -28.791
566.595;   52.182;  -17.115;  -12.793
566.873;  102.196; -166.111;  -79.801
567.152;  -55.721; -490.113; -590.797
567.431;    7.420; -113.116;    6.210
567.709;   23.551; -344.107; -212.807
567.988;  284.141; -810.114; -769.794
568.266;  570.732; -160.115;  -68.793
568.545;  434.463; -644.100; -514.819
568.824;  627.828;  160.885;  356.208
569.102;  631.790; -351.114; -235.794
569.381;  262.377; -492.116; -407.792
569.659;  -45.300; -553.113; -553.796
569.938;   55.571; -743.122; -465.780
570.216;  106.611; -225.109; -225.804
570.494;  -24.456; -632.114; -572.795
570.773;   34.379;  202.879;  114.218
571.051;    2.560; -373.123; -357.778
571.330;   68.898; -221.113; -174.796
571.608;   47.181; -181.098; -173.823
571.886;  -54.862; -671.111; -581.799
572.164;  -54.843; -739.121; -621.782
572.443;  -44.755; -562.105; -512.811
572.721;  -27.658; -399.117; -289.790
572.999;  -16.664; -280.117; -168.788
573.277;   82.138;  379.894;  620.191
573.555;  319.315;   94.894;   37.190
573.834; 1494.161;  -86.117; -114.788
574.112; 1727.728;  880.893;  811.193
574.390;  535.595; -143.111;  -96.801
574.668;    1.755;  -91.112;  -61.797
574.946;   -9.409; -165.106; -187.810
575.224;   20.282;   71.891;  -16.803
575.502;  -30.103; -200.116; -204.791
575.780;  -71.444; -767.112; -829.798
576.058;  230.594; 1589.889; 1004.200
576.336;   -6.700; -210.110; -129.801
576.614;  -52.269; -511.112; -340.798
576.891;   87.186; -711.115; -823.794
577.169;  510.144; -158.108; -285.805
577.447;  613.453;  169.893;  202.193
577.725;  266.236;  629.888;  854.201
578.003;    5.934;  -71.112; -371.798
578.280;   97.179; -208.104; -242.812
578.558;   73.410; -450.115; -422.793
578.836;  132.768; -210.114; -145.795
579.114;   62.905; -630.112; -670.797
579.391;   72.337;   -6.117;  -18.789
579.669;  -69.688; -595.114; -704.794
579.947;  187.550; -326.107; -127.806
580.224;  358.099; -692.107; -524.806
580.502;  344.054;  127.893;   76.193
580.779;   35.268;  -42.117;   75.210
581.057;  -70.138; -584.109; -470.804
581.334;  -78.431; -726.102; -695.815
581.612;   46.316;   54.895;  511.190
581.889;  -24.518;  -83.101; -129.818
582.167;  -33.229; -298.099; -190.821
582.444;  -95.798; -845.102; -814.817
582.721;  109.802;  657.899;  715.183
582.999;   58.194; -326.100; -167.821
583.276;  588.815; -812.123; -713.779
583.553;  795.472; -364.102; -294.816
583.831;  270.475; -607.104; -631.812
584.108;   52.167;  349.892;  174.195
584.385;    5.668; -122.102;  -98.815
584.662;  -62.378; -651.111; -828.801
584.940;   35.796;  204.889;  204.199
585.217;  -13.650;  -73.113; -303.796
585.494;   33.955;   71.890;  118.198
585.771;  220.487; -250.109; -354.804
586.048;  531.275; -196.113;  -76.796
586.325;  345.149; -721.110; -773.801
586.602;   90.779;  230.896;  213.188
586.879;  -11.785; -499.100; -580.820
587.156;   65.167; -156.105; -331.810
587.433;  -30.425; -701.102; -667.817
587.710;   51.732;  152.888;  234.202
587.987;  326.472; -264.105; -236.811
588.264;  842.409;  315.888;  387.202
588.541; 1433.732;  -61.104;   26.187
588.818; 2854.590;   72.892;  171.196
589.095; 2418.552; -163.104; -174.812
589.371;  398.160; -459.109; -414.804
589.648;   33.378; -581.107; -437.807
589.925;   36.844; -517.114; -621.795
590.202;   27.332; -741.112; -607.798
590.478;   97.249; -166.105;  -73.811
590.755;  287.396; -241.108; -132.806
591.032; 2684.951; -741.110; -699.802
591.308; 3740.347; -732.094; -790.831
591.585; 1914.126; -573.110; -560.802
591.862;  193.876;-1056.102; -950.817
592.138;   70.793; -475.108; -474.805
592.415;  150.630; -486.104; -495.813
592.691; 1552.603;  460.896;  518.188
592.968; 1979.908; -208.098; -123.824
593.244;  956.321; -695.116; -595.790
593.521;   78.276; -105.102;  -42.817
593.797;   -5.732; -810.122; -720.780
594.074;  359.146; -611.096; -588.826
594.350;  696.907;  828.905;  729.172
594.626;  338.897; -303.111; -283.801
594.903;  134.077; -643.101; -645.817
595.179;  200.059;  243.896;  418.187
595.455;   19.055; -136.107; -150.807
595.731;    4.510;  -19.103;  -38.814
596.008;  -33.034; -464.111; -434.800
596.284;   38.968; -187.100; -242.820
596.560;   65.003; -501.093; -493.833
596.836;  224.869; -173.105;  -70.810
597.112;  361.419; -582.108; -437.805
597.388;  307.194;  -49.097;  -48.826
597.665;  132.927;  437.887;  530.203
597.941;  -67.392; -572.089; -658.839
598.217;   19.229; -323.110; -293.802
598.493;  281.389;   61.891; -204.804
598.769;  532.587; -175.100;  -50.819
599.045;  364.672; -490.108; -562.806
599.321;   59.942; -193.100; -261.820
599.597;  144.038; -355.109; -476.804
599.872;  536.232;  409.896;  429.187
600.148;  385.845;  -61.097; -172.826
600.424;  303.552;   91.893;  202.193
600.700;  275.229; -170.107; -280.807
600.976;  137.490; -442.097; -464.825
601.252;  277.460; -226.109; -272.803
601.527;  245.433; -833.104; -840.813
601.803;  143.775; -453.105; -404.812
602.079;  183.462; -124.100; -118.819
602.354;  605.138; -620.092; -531.835
602.630;  886.675; -140.113; -482.796
602.906; 2479.007; -910.101; -863.818
603.181; 7309.350; -627.119; -534.786
603.457; 6139.818;   98.903; -278.826
603.733;  905.184; -605.120; -626.783
604.008; 1002.841; -245.106; -164.810
604.284; 3297.278; -636.101; -580.817
604.559; 2833.686;   -3.112;  -42.799
604.835;  519.819; -163.105; -225.810
605.110;  461.147; -732.099; -892.821
605.385;  741.531;  224.907;  267.167
605.661;  692.985; -625.095; -729.829
605.936; 1295.697; -664.108; -737.806
606.211; 1072.417;  -17.103; -170.815
606.487;  226.364; -329.114; -376.794
606.762;   31.625; -791.119; -745.786
607.037;  -21.906; -501.105; -433.810
607.313;  -39.172; -589.096; -574.828
607.588;    8.566; -375.106; -137.810
607.863;   41.007;  -28.101; -143.818
608.138;  188.878;  513.890;  516.198
608.413;   50.626; -576.099; -592.822
608.688;   71.694; -203.108; -267.805
608.964;  238.810; -509.106; -218.809
609.239;  265.941; -107.105; -212.810
609.514;  270.224;  281.895;  240.188
609.789;  679.604; -187.104; -716.812
610.064;  928.877; -435.096; -609.827
610.339;  936.710; -855.109; -799.804
610.614; 1326.642; -131.100; -315.820
610.889;  737.275;  215.895;  107.188
611.163;   36.075; -407.104; -591.812
611.438;   83.940;   81.886; -167.794
611.713;    9.428; -467.101; -499.817
611.988;   64.356; -144.101; -328.818
612.263;  -11.831; -771.102; -717.815
612.538;  221.774;  385.887;  251.204
612.812;  196.093; -832.100; -911.820
613.087;  148.256; -358.098; -338.823
613.362;  -50.446; -497.107; -557.807
613.637;   50.588;  261.897;  138.186
613.911;    6.464; -256.092; -345.835
614.186;  140.853; -249.107; -292.807
614.460;  741.083; -842.081; -758.854
614.735;  851.656;  -55.087;  -17.843
615.010;  174.321;   43.912;  -82.841
615.284;  261.543;  360.892;  246.195
615.559;  405.787; -792.092; -955.835
615.833;  309.674;  -76.099;  -87.822
616.108;    8.699; -225.090; -390.837
616.382;  147.883;  274.913;  402.156
616.656;  186.700; -241.090; -232.837
616.931;  541.124; -785.099; -700.822
617.205; 1136.258; -973.104; -979.813
617.480; 1056.894;  -91.125;    6.225
617.754;  180.367; -396.125; -128.774
618.028;   15.787; -369.129; -382.768
618.302;   77.117;   73.892;  -25.805
618.577;  -46.536; -371.103; -518.815
618.851;  -42.593; -399.109; -600.803
619.125;  -42.858; -335.134; -378.759
619.399;  -25.192; -244.104; -374.813
619.673;  -58.872; -330.115; -515.792
619.947;  -32.557; -333.114; -448.795
620.222;  -18.002; -198.110; -204.801
620.496;    5.031;  -47.121;  -96.782
620.770;   14.698; -187.122;  -93.781
621.044;  222.267;  323.895;  346.190
621.318;  770.609; -653.120; -614.783
621.592;  735.207; -430.121; -409.783
621.866;  410.137; -476.112; -572.799
622.140;   49.372; -207.116; -356.791
622.413;   56.441;  138.889;  112.200
622.687;  -26.696; -746.101; -492.817
622.961;   20.417; -130.108; -143.805
623.235;  -52.158; -633.111; -661.800
623.509;  -94.901; -816.105; -848.811
623.783;   19.375;  -12.107;   48.193
624.056;  -13.540; -254.120; -280.783
624.330;   46.630;   63.888;   -3.797
624.604;   46.994; -271.116; -355.790
624.877;   86.727;  180.890;   26.198
625.151;   40.113; -249.114; -238.794
625.425;  -22.015; -150.103; -283.814
625.698;  -64.105; -367.119; -374.785
625.972;  -78.645; -799.110; -765.802
626.245;   64.596;  685.884;  484.210
626.519;  -52.911; -426.120; -340.784
626.792;  -34.346; -192.107; -380.807
627.066;  -77.659; -485.122; -662.779
627.339;  -96.825; -736.110; -663.802
627.613;   40.388;  351.880;  148.216
627.886;   53.381;  187.891; -612.803
628.160;   -9.891;  312.880; -161.783
628.433; -100.328; -695.125; -703.775
628.706;  -73.286; -517.120; -615.784
628.979;   20.403;  296.876;  117.223
629.253;  -81.351; -785.119; -833.786
629.526;  400.931; -334.126; -253.772
629.799;  392.811; -641.123; -479.778
630.072;  187.788; -497.128; -516.769
630.346;  -53.779;-1115.116;-1080.790
630.619;  491.580; -467.107; -545.808
630.892;  686.292;  709.889;  593.200
631.165;  348.858;  790.896;  679.187
631.438;  -70.566;-1092.112;-1055.798
631.711;   52.889;  453.877;  257.221
631.984;  -49.684; -523.117; -624.789
632.257;  -55.538; -636.117; -681.789
632.530;  -47.155; -412.119; -433.785
632.803;   21.536; -109.115;    7.207
633.076;  -58.493; -360.123; -422.777
633.349;    9.343;  173.872;  121.231
633.622;  -41.056; -187.119; -240.785
633.895; -121.815; -903.120; -823.783
634.167;  -62.192; -496.126; -525.773
634.440;  -15.773;  -19.116; -137.792
634.713;   -2.377;  -22.119; -120.786
634.986;   78.007;  593.871;  453.233
635.258;  -73.741; -507.115; -597.793
635.531;   94.358;  742.882; -343.788
635.804;  -27.535; -303.117; -318.789
636.077;  -88.677; -830.116; -852.791
636.349;   -8.818; -586.115; -474.793
636.622;  381.081; 1695.874; 1392.228
636.894;  253.840; -474.120; -909.784
637.167;  176.025; -836.127; -789.771
637.439;   28.771; -278.128; -213.770
637.712;  -44.693; -312.126; -293.772
637.984;  -78.851; -635.116; -707.791
638.257;  395.108;  515.877;  488.222
638.529;  604.523; -881.125; -924.776
638.802;  262.138; -508.128; -449.769
639.074; -105.928; -927.122; -952.781
639.346; -118.791; -942.135; -930.757
639.619;   -3.907;  -79.142; -319.744
639.891;   -7.059;  -83.122; -168.779
640.163;  -77.732; -689.122; -756.780
640.435;   32.545;  273.878;  103.220
640.708;   16.196;  -72.122; -132.780
640.980;  -17.127; -366.122; -362.781
641.252;  186.300;  -25.121;  -71.781
641.524; 1847.577;  580.879;  573.219
641.796; 1883.379;-1094.121; -907.782
642.068;  340.731; -191.121; -300.782
642.340;  -52.068; -486.121; -566.783
642.613;   28.309;  294.880;  323.217
642.885;  -95.564; -787.120; -878.783
643.157;  -36.187; -810.120; -658.784
643.428;   60.790;  170.880;  218.216
643.700;  -71.308; -498.120; -425.784
643.972;  -44.282;  -16.119; -133.785
644.244;  -99.330; -474.119; -559.785
644.516;  -54.503; -250.119; -114.786
644.788;   61.574;  662.881;  548.214
645.060;  -37.799;  -12.119; -124.786
645.332;  -95.747; -525.118; -535.787
645.603;   33.879;  479.882;  342.213
645.875;  -91.544; -334.118; -369.787
646.147;  151.758; 1487.882; 1242.212
646.418;  -51.090; -931.117; -918.788
646.690;  177.112; -714.117; -715.789
646.962;   36.939; -413.117; -451.789
647.233;  -10.534;   15.883;   11.211
647.505; -107.733; -595.117; -475.790
647.776;   12.819;  328.884;  229.210
648.048;   -9.479; -248.116; -418.790
648.320;  -67.177; -752.116; -679.791
648.591; -156.075;-1055.116; -958.791
648.862;  -82.123; -505.116; -577.792
649.134;    8.528;  115.885;  198.208
649.405;  -37.645; -661.115; -618.792
649.677;  -47.143; -475.115; -598.793
649.948;    6.684; -181.115; -296.793
650.219;   -6.014;  -37.115; -147.793
650.491;  -77.662; -431.114; -520.794
650.762; -114.486; -705.114; -731.794
651.033;  -80.234; -437.114; -424.795
651.304;  -90.482; -743.114; -728.795
651.576;  -54.005; -680.114; -645.795
651.847;  -42.078; -250.113; -140.796
652.118;  -33.301;  -32.113; -189.796
652.389; -110.300; -639.113; -722.796
652.660;  -39.648; -147.113;  -89.797
652.931; -148.946; -897.112; -871.797
653.202;  -89.894; -382.112; -541.798
653.473;  -64.467; -633.112; -533.798
653.744;  157.785; -595.112; -590.798
654.015;  145.237; -356.112; -303.799
654.286;  -69.737; -642.111; -663.799
654.557;  -56.660; -586.111; -521.799
654.828; -155.383;-1114.111;-1088.800
655.099;  -86.656; -404.111; -291.800
655.370;  -92.654; -427.111; -543.801
655.641; -119.927; -656.110; -714.801
655.911; -108.826; -618.110; -638.801
656.182;   42.626;  437.890;  387.198
656.453;   77.203;  830.890;  746.198
656.724;  -67.320; -466.110; -426.802
656.994;  -81.193; -553.109; -568.803
657.265; -106.966; -862.109; -873.803
657.536;  -86.890; -500.109; -377.804
657.806; -120.038; -561.109; -593.804
658.077; -137.086; -866.109; -950.804
658.347;  -81.434; -523.108; -598.805
658.618; -121.332; -646.108; -694.805
658.888;  -31.880;  -41.108;  112.195
659.159;  -83.353; -432.108; -548.806
659.429;  -14.802; -292.108; -349.806
659.700;    9.975; -435.107; -390.807
659.970;   -5.698; -370.107; -359.807
660.241;   27.279; -754.107; -921.807
660.511;  538.031; -147.107; -174.808
660.781;  105.933; -793.106; -748.808
661.052;  -59.941; -222.106; -381.808
661.322;  -20.039;   21.894;   -9.809
661.592;   10.538;  257.894;  148.191
661.862;  -84.760; -369.106; -382.810
662.133;  -87.133; -551.105; -502.810
662.403; -116.206; -770.105; -676.810
662.673;  -50.305; -256.105; -213.811
662.943; -105.903; -612.105; -551.811
663.213;  -11.776;  -85.105;  -81.811
663.483;  -79.599; -593.104; -568.812
663.753;  -53.847; -194.104; -152.812
664.023;  -25.195;   68.896;  -32.813
664.293;  -69.094; -319.104; -126.813
664.563; -120.167; -694.104; -648.813
664.833; -111.440; -743.103; -608.814
665.103; -124.138; -730.103; -793.814
665.373; -116.211; -766.103; -806.814
665.643;  -75.759; -863.103; -918.815
665.913;   47.968; -534.103; -714.815
666.182;  150.719; -685.102; -719.816
666.452;  282.771;  -22.102;  -89.816
666.722;  -18.127; -724.102; -784.816
666.992; -133.450; -948.102; -921.817
667.261;  -84.223; -824.102; -808.817
667.531;  194.779;  134.899;   45.183
667.801;  561.630; -440.101; -412.818
668.070;  230.782;  714.899;  697.182
668.340; -102.241; -883.101; -840.819
668.609;   75.036;  588.900;  301.181
668.879;  -80.862; -490.100; -558.819
669.149;  -71.335; -539.100; -516.820
669.418; -105.384; -698.100; -726.820
669.688;  -14.207; -482.100; -666.820
669.957;   93.045; -423.099; -546.821
670.226;  -32.003; -268.099; -331.821
670.496;  -93.551; -431.099; -635.822
670.765;  -69.349; -418.099; -501.822
671.034; -137.722; -872.099; -828.822
671.304;   -9.396;   55.902; -111.823
671.573; -145.444;-1085.098; -957.823
671.842;   92.358; -380.098; -294.823
672.112;   34.610; -692.098; -586.824
672.381;    0.387; -239.098; -214.824
672.650; -123.361;-1005.097;-1021.825
672.919;  -91.360; -631.097; -507.825
673.188;  -86.158; -681.097; -878.825
673.457; -137.631;-1101.097;-1143.826
673.726;  -77.779; -579.096; -646.826
673.995;  -37.377; -533.096; -479.826
674.265;  -15.525; -263.096; -333.827
674.534;   13.776; -183.096; -235.827
674.802;    7.403; -618.096; -703.828
675.071; 1039.430; -886.095; -801.828
675.340; 4219.382; -464.095; -339.828
675.609; 1414.334;  103.905;   82.171
675.878;  102.736; -949.095; -893.829
676.147;   32.012;  -26.095;   -8.829
676.416;   75.214; -210.094; -294.830
676.685;  799.341; 1000.906; -622.830
676.953;  128.243; -603.094; -452.831
677.222;  -31.405; -193.094; -273.831
677.491;  -45.578;  -24.094; -127.831
677.759;    0.074;   11.907;  172.168
678.028;  -11.525; -279.093; -222.832
678.297;   -6.923;   71.907;  197.168
678.565; -143.196; -898.093; -944.833
678.834;  -56.719; -311.093; -268.833
679.102;  -77.867; -411.092; -391.834
679.371; -135.065; -898.092; -727.834
679.639; -124.839; -797.092; -786.834
679.908; -133.712; -794.092; -724.835
680.176; -160.610; -895.091; -941.835
680.445;  -83.433; -346.091; -352.835
680.713;  -16.731;  -58.091;  -23.836
680.982;  -93.529; -523.091; -525.836
681.250; -102.953; -578.091; -507.837
681.518;  -95.251; -534.090; -751.837
681.787;  -36.449; -204.090; -167.837
682.055;  -52.547; -490.090; -422.838
682.323; -138.370; -993.090; -992.838
682.591;   41.932; -216.090; -538.838
682.859;   92.283;    9.911;  -35.839
683.128;   25.460;  232.911;  497.161
683.396; -164.863;-1102.089;-1122.840
683.664;  -35.286; -241.089;   21.160
683.932;    7.341;  144.911;  -76.840
684.200;  -84.807; -576.088; -320.841
684.468;  -31.755;  -73.088; -124.841
684.736;  -26.804; -214.088; -175.841
685.004; -122.777;-1024.088; -982.842
685.272;  -46.075; -880.088; -774.842
685.540;  -62.898; -499.087; -557.843
685.808;  -79.296; -651.087; -682.843
686.076;  -97.719; -894.087; -969.843
686.343;  -53.843; -601.087; -815.844
686.611;   38.009; -195.087; -224.844
686.879;  466.186; -530.086; -553.844
687.147; 3529.863; -483.086; -480.845
687.414; 1022.240;  -12.086; -169.845
687.682;    1.517; -658.086; -757.846
687.950;  337.118;  259.915;  263.154
688.217;   27.620; -792.085; -760.846
688.485;   -7.653; -632.085; -636.847
688.753;  561.524;  -11.085; -102.847
689.020;  200.601; -820.085; -851.847
689.288;  -87.847; -853.084; -787.848
689.555;  -45.395; -195.084; -148.848
689.823;  -34.619; -241.084; -345.849
690.090;  -84.817; -546.084; -651.849
690.358; -142.115; -877.084; -897.849
690.625;   -1.863;  120.917;   45.150
690.892;  -80.511; -403.083; -369.850
691.160;  -23.834;   72.917;  -35.850
691.427;    5.217;  141.917;  130.149
691.694; -127.381; -855.083; -929.851
691.962; -151.729;-1177.082;-1060.852
692.229;   13.798;  127.918;   56.148
692.496;   82.675;  130.918;  -49.852
692.763;   23.952; -164.082; -201.853
693.031;  -74.472; -739.082; -716.853
693.298;  -38.020; -509.081; -368.853
693.565;  299.957; -155.081; -163.854
693.832; 1352.859;   -5.081;   -9.854
694.099;  169.111; -643.081; -642.855
694.366;  -55.012; -882.081; -896.855
694.633;  -54.761; -920.080; -633.855
694.900;  736.791; 4367.920; -114.856
695.167;  446.093; -214.080; -380.856
695.434;  109.545; -646.080; -623.856
695.701;  199.922;  121.921;  -61.857
695.968;  476.149; -365.079; -361.857
696.234;  975.126; -415.079; -646.858
696.501;10188.177; -776.079; -614.858
696.768; 5342.854; -554.079; -617.858
697.035;  316.806; -632.078; -667.859
697.302;   26.033; -448.078; -552.859
697.568;    3.360; -458.078; -497.859
697.835;  -40.838; -683.078; -624.860
698.102;  -32.587; -498.078; -407.860
698.368;   69.565;  384.923;  396.139
698.635;  -23.533;  -47.077; -424.861
698.901;  -12.156; -240.077; -348.861
699.168;   81.946; -534.077; -456.862
699.435;   73.973;  -72.077;  -13.862
699.701; -113.426; -868.076; -764.862
699.968;    1.851;  144.924; -441.863
700.234; -116.472; -783.076; -822.863
700.500;  -61.445; -448.076; -539.864
700.767;   -2.718;   -1.075;   26.136
701.033; -131.916;-1015.075; -963.864
701.299;  -53.639; -450.075; -483.865
701.566;  110.212;  950.925;  763.135
701.832;   38.164;  -31.075;  -76.865
702.098;  -88.634;-1054.074;-1034.866
702.365;  -71.982;-1098.074;-1030.866
702.631;  -27.605;-1038.074;-1063.867
702.897; 1349.597; -765.074; -676.867
703.163; 2359.048;  348.926;  254.133
703.429;  167.675; -256.073; -273.868
703.695;  -32.698; -796.073; -792.868
703.961;    7.404; -214.073; -210.868
704.227;  -60.144; -630.073; -725.869
704.493;  109.783;  613.927;  510.131
704.759;  -19.266; -565.072; -540.870
705.025;   33.761; -203.072; -194.870
705.291;  -10.087; -666.072; -562.870
705.557;  191.015;  719.928;   34.129
705.823;   39.767; -742.072; -694.871
706.089;  139.594; -307.071; -326.871
706.355;  328.395; -315.071; -244.872
706.620; 5144.172; -776.071; -729.872
706.886; 7722.224; -309.071; -362.873
707.152;  727.551; -818.070; -973.873
707.418;  -24.797;-1153.070;-1186.873
707.683;    0.780; -550.070; -530.874
707.949;  -46.668; -547.070; -578.874
708.215;  -10.592; -129.070; -207.874
708.480;  -22.690; -520.069; -420.875
708.746;   94.387;   68.931;   28.125
709.011;  -68.486; -578.069; -612.876
709.277;  -76.009; -538.069; -543.876
709.542;  -46.357; -428.069; -387.876
709.808;  -18.381;  -59.068;   89.123
710.073;  -83.079; -577.068; -695.877
710.339;  -36.352; -242.068; -228.877
710.604;   65.325; -780.068; -845.878
710.869;  339.927; -277.068; -366.878
711.135;  -56.571; -715.067; -628.879
711.400;  -80.945; -507.067; -608.879
711.665;  -61.743; -404.067; -479.879
711.931;  -93.541; -661.067; -677.880
712.196; -127.814; -876.067; -954.880
712.461;  128.788; -402.066; -490.880
712.726;  172.340; -727.066; -771.881
712.991;  -68.209; -647.066; -664.881
713.256;  -54.757; -350.066; -332.882
713.521;  -57.705; -417.065; -381.882
713.787;  -52.903; -454.065; -472.882
714.052;  -41.801; -214.065; -400.883
714.317;  -97.599;-1045.065; -981.883
714.581;  948.453; -374.065; -268.883
714.846; 1386.929; -822.064; -888.884
715.111;  131.681;  261.936;  257.116
715.376;  -27.217;  -86.064; -223.885
715.641;  -18.690; -365.064; -367.885
715.906;  300.512;   15.936; -551.885
716.171;  136.264;  221.937;  209.114
716.436;   34.690;  -78.063; -104.886
716.700; -112.383; -818.063; -692.886
716.965; -120.931; -794.063; -807.887
717.230;  -70.804; -339.063; -392.887
717.494;  -23.977;  -40.062; -134.888
717.759;  -93.550; -784.062; -640.888
718.024;    3.976;  269.938;  250.112
718.288;   84.053;  685.938;  395.111
718.553; -146.820; -803.062; -977.889
718.817; -149.318; -883.061; -899.889
719.082;  -39.291; -115.061; -125.890
719.346; -127.514;-1000.061; -947.890
719.611;  -39.837; -300.061; -255.891
719.875;  -90.911; -568.060; -537.891
720.140;  -71.834; -453.060; -603.891
720.404;   44.693; -136.060; -249.892
720.668;  908.445; -475.060; -411.892
720.933;  351.472;  146.940;  137.108
721.197;  -91.801; -667.059; -600.893
721.461; -140.925; -851.059; -826.893
721.725;   -9.648;  -21.059; -250.894
721.990;  -40.671; -284.059; -204.894
722.254;  -27.744;  -26.059; -108.894
722.518;  -87.792; -286.058; -442.895
722.782;  -83.365; -743.058; -594.895
723.046;  139.411;  614.942;  570.105
723.310;   25.788;  374.942;  210.104
723.574;  -96.360; -654.058; -614.896
723.838; -105.133; -576.057; -642.897
724.102;  -43.256; -226.057; -239.897
724.366; -136.479;-1032.057; -978.897
724.630;  -81.428; -749.057; -571.898
724.894;  -73.901; -722.057; -514.898
725.158;   -9.374;   38.944; -295.898
725.422;  -58.622; -394.056; -327.899
725.685;  -65.845; -441.056; -349.899
725.949;  -80.318; -566.056; -519.900
726.213;  -69.691; -732.056; -811.900
726.477;  186.660;-1020.055; -933.900
726.740;  161.287; -274.055; -104.901
727.004;  329.064; -384.055; -510.901
727.268; 3231.916; -442.055; -400.901
727.531;  929.943; -961.055; -775.902
727.795;  -29.680; -713.054; -673.902
728.059;  -68.504; -552.054; -557.903
728.322;  -71.952; -841.054; -669.903
728.586;   43.625; -692.054; -701.903
728.849;  -84.948; -695.053; -756.904
729.112; -118.396; -812.053; -912.904
729.376; -117.544; -959.053; -905.904
729.639;  -59.918; -536.053; -536.905
729.903; -117.691; -733.053; -699.905
730.166;  -37.389; -437.052; -399.906
730.429;  -34.337; -317.052; -468.906
730.693;  -65.410; -355.052; -894.906
730.956;  191.367;  810.948;  651.093
731.219;  738.794; -310.052; -103.907
731.482;  118.970;-1003.051; -894.907
731.745;  122.297; -794.051; -935.908
732.009;   19.599;  -30.051;   50.092
732.272; -109.349; -904.051; -771.909
732.535;  -37.072; -300.051; -310.909
732.798; -149.695;-1083.050;-1166.909
733.061;  -54.519; -430.050; -456.910
733.324;   11.808;   31.950; -180.910
733.587;   67.035;  290.950;  365.090
733.850;  -72.413; -973.049;-1050.911
734.113;   30.939;   33.951;   32.089
734.376;   -8.884; -328.049; -447.912
734.639;  213.492; 1188.951; 1011.088
734.901;   65.219; -180.049; -402.912
735.164;  526.521; -883.048; -837.913
735.427; 1394.648; -166.048; -355.913
735.690;  137.650; -205.048; -234.913
735.952;  -20.173; -923.048; -925.914
736.215;  -15.822;-1113.048;-1009.914
736.478;   55.705; -771.047; -774.915
736.740;  220.457;   33.953;  129.085
737.003;  668.959; -658.047; -672.915
737.266; 4318.086;  -94.047;   46.084
737.528;  463.213; -682.047; -660.916
737.791;  323.465; -316.046; -327.916
738.053;  771.916;  465.954;  649.083
738.316;10411.993; -162.046; -136.917
738.578; 7827.945; -770.046; -736.918
738.841;  454.497; -382.046; -446.918
739.103;  161.224; -875.045; -777.918
739.365;  524.201;   79.955;  -69.919
739.628;    5.352; -884.045; -805.919
739.890;  -20.196; -758.045; -710.919
740.152;  -25.419; -692.044; -754.920
740.414;   -5.467; -408.044; -359.920
740.677;  -41.465; -785.044; -634.921
740.939;  -45.563; -587.044; -487.921
741.201;  280.463; -432.044; -572.921
741.463;   46.015; -689.043; -745.922
741.725;   22.067;  -21.043; -199.922
741.987;   42.469;  220.957;  116.078
742.249;   11.671; -751.043; -859.923
742.511;  222.023; -703.043; -794.923
742.773;   30.849; -546.042; -546.924
743.035;  135.776;  796.958;  533.076
743.297;  -33.372; -963.042;-1013.924
743.559;  801.905; -278.042; -262.925
743.821;   75.757; -735.042; -744.925
744.083;   16.784;  -44.041; -149.925
744.345;  -93.089; -869.041; -892.926
744.607;   25.487;   75.959;  122.074
744.868;  -56.186; -490.041; -554.927
745.130; -108.084; -994.041;-1008.927
745.392;   45.243;   -1.040;  -44.927
745.653;  -14.605; -411.040; -378.928
745.915;  136.672;  896.960;  631.072
746.177;   48.798;   35.960;  -43.928
746.438;   -1.275; -428.040; -543.929
746.700;  -40.173; -947.039; -988.929
746.961;   11.179; -659.039; -740.930
747.223;  135.206; -190.039;  -74.930
747.484;  101.433; -391.039; -471.930
747.746;  130.834;  -23.038; -106.931
748.007;  123.711; -647.038; -689.931
748.269;  313.838; -468.038; -440.931
748.530;  497.890; -852.038; -638.932
748.791;  269.942; -354.038; -420.932
749.053;  440.419;  286.963;  163.067
749.314;  472.296; -236.037; -169.933
749.575;  538.297; -945.037; -905.933
749.836;  877.799; -217.037;   86.066
750.098; 2411.126;  -60.037;  -21.934
750.359;37331.578;  414.964;  555.066
750.620;10200.755; -121.036; -220.935
750.881; 1057.407; -585.036; -513.935
751.142; 1389.683; -950.036; -938.936
751.403;16495.785; -789.036; -705.936
751.664; 7897.387;-1034.035; -999.936
751.925;  514.914; -175.035; -262.937
752.186;  280.666; -298.035; -278.937
752.447;  138.768; -590.035; -445.937
752.708;   47.419; -532.035; -648.938
752.969;    5.846; -566.034; -576.938
753.230;  -13.052; -777.034; -672.939
753.491;    7.325; -650.034; -631.939
753.751;   68.602;  109.966;   19.061
754.012;  100.079;  258.967;  181.060
754.273;   45.855; -174.033;  -71.940
754.534;   16.957; -487.033; -580.940
754.794;  -76.416; -926.033; -911.941
755.055;  156.436; 1051.967;  881.059
755.316;  -43.437; -700.032; -566.942
755.576;  -22.685; -606.032; -576.942
755.837;  -45.908; -527.032; -695.942
756.097;  -33.882; -530.032; -564.943
756.358;  -58.580; -725.032; -770.943
756.618;  -53.628; -705.031; -641.943
756.879;    6.574; -254.031; -349.944
757.139; -116.024;-1098.031;-1116.944
757.400;  -49.647; -538.031; -553.945
757.660;  -20.871; -365.031; -401.945
757.920;   13.856; -266.030; -228.945
758.181;  -15.517; -468.030; -351.946
758.441;  -94.815; -870.030; -809.946
758.701;  -28.313; -308.030; -215.946
758.961;  -21.786; -220.030; -278.947
759.222;  -42.035; -574.029; -502.947
759.482;  -68.908; -683.029; -723.948
759.742;  -88.056; -706.029; -547.948
760.002;   -0.129;  -83.029; -143.948
760.262;   36.923;   50.972;  182.051
760.522;  -45.100; -498.028; -574.949
760.782;  -47.698; -738.028; -612.949
761.042;  -29.097; -618.028; -573.950
761.302;   51.305;   55.972;  -18.950
761.562;   44.807; -164.027; -154.951
761.822;   87.984; -710.027; -551.951
762.082;  -48.039;-1104.027;-1093.951
762.342;   51.613; -328.027; -403.952
762.601;   70.764; -567.027; -506.952
762.861;  372.591; -281.026; -207.952
763.121;  394.443; -406.026; -411.953
763.381; 7044.145; -499.026; -485.953
763.640; 8427.947; -139.026; -307.954
763.900;  356.974; -242.026; -203.954
764.160;   87.675; -458.025; -491.954
764.419;  -18.073; -726.025; -782.955
764.679;  -82.496; -795.025; -726.955
764.939;   -1.869; -124.025; -210.955
765.198;  -76.967; -608.025; -563.956
765.458;  -81.815; -710.024; -612.956
765.717;  -88.714; -454.024; -590.957
765.976;  -48.262; -428.024; -411.957
766.236;  -60.810; -475.024; -610.957
766.495;   11.742;  260.977;   73.042
766.755;  -94.281;-1090.023; -987.958
767.014;    5.321; -594.023; -665.958
767.273;  -46.552; -373.023; -397.959
767.533;  -54.601; -228.023; -307.959
767.792;  -24.949; -151.022; -188.960
768.051;  -56.572; -228.022; -276.960
768.310;  -91.620; -546.022; -650.960
768.569;  -15.093; -161.022;    4.039
768.828;  -30.566; -285.022; -363.961
769.088; -120.340;-1050.021; -942.961
769.347;  -93.638; -755.021; -599.962
769.606;  -78.236; -876.021; -857.962
769.865; -115.409;-1016.021;-1033.963
770.124;  -16.682; -411.021; -336.963
770.383;  -57.105; -778.020; -910.963
770.641;    6.746; -398.020; -400.964
770.900;  -66.127; -953.020; -846.964
771.159;  -57.925; -851.020; -951.964
771.418;  -25.423; -917.020; -779.965
771.677;  118.104; -224.019; -293.965
771.936;  118.481; -794.019; -865.966
772.194; 1916.357; -465.019; -437.966
772.453;10888.109; -213.019; -391.966
772.712;  786.686;  416.982;  329.033
772.970;  115.138;   32.982;   63.033
773.229;   72.490;  -22.018;  102.033
773.488;  -78.583; -814.018; -770.968
773.746;   57.494;  296.982;  335.032
774.005;    7.520;  190.983;  -22.969
774.263;   -6.778;  243.983;  177.031
774.522;  -48.701; -422.017; -548.969
774.780;  -85.599; -484.017; -417.970
775.039;  -96.297; -551.017; -531.970
775.297;  -31.345; -135.016; -351.970
775.555; -113.769; -489.016; -612.971
775.814; -123.317; -618.016; -570.971
776.072; -122.015; -749.016; -740.971
776.330; -114.463; -630.016; -520.972
776.589; -123.086; -703.015; -721.972
776.847; -112.134; -645.015; -624.973
777.105; -178.808;-1016.015;-1032.973
777.363;  -93.631; -459.015; -454.973
777.621; -147.129; -660.015; -717.974
777.879;  -23.277;  -42.014;   32.026
778.138; -100.325; -554.014; -717.974
778.396;  -95.648; -585.014; -526.975
778.654; -163.746;-1015.014; -970.975
778.912;  -68.320; -269.014; -371.976
779.170; -126.093; -880.013; -803.976
779.427; -157.091; -922.013; -897.976
779.685; -115.289; -880.013; -832.977
779.943;  -89.037; -654.013; -593.977
780.201; -155.560; -964.012; -883.978
780.459; -117.409; -651.012; -610.978
780.717;  -78.232; -440.012; -390.978
780.974; -103.230; -449.012; -490.979
781.232;  -79.778; -358.012; -338.979
781.490;  -67.251; -551.011; -472.979
781.747; -103.474; -555.011; -476.980
782.005;   20.677;  462.989;  254.020
782.263; -161.271; -542.011;-1004.981
782.520;  -77.744; -326.011; -501.981
782.778; -171.492;-1013.010;-1051.981
783.035; -176.015; -962.010; -938.982
783.293;  -69.588; -248.010; -206.982
783.550;  -65.537; -134.010; -198.982
783.808; -124.235; -764.010; -776.983
784.065; -144.183; -745.009; -874.983
784.322;  -42.756;   25.991;  -86.984
784.580; -137.454; -915.009; -771.984
784.837; -104.927; -392.009; -466.984
785.094; -130.850; -783.009; -762.985
785.352;  -68.299; -304.008; -404.985
785.609; -102.797; -934.008; -839.985
785.866;  -83.595; -345.008; -401.986
786.123;  -61.868; -639.008; -583.986
786.380;  -94.616; -665.008; -604.987
786.637;  -49.814; -225.007; -380.987
786.895;  -24.588; -456.007; -543.987
787.152;  -50.761; -135.007; -267.988
787.409;  -55.409; -123.007; -225.988
787.666;  -90.682; -299.006; -378.988
787.923; -116.030; -616.006; -695.989
788.179;  -98.953; -551.006; -584.989
788.436; -110.927; -585.006; -585.990
788.693;  -44.075;  -92.006;  -87.990
788.950;  145.902; -125.005; -112.990
789.207;  258.729; -381.005; -372.991
789.464;  -54.519; -161.005; -301.991
789.720;   -1.167;  150.995;  110.009
789.977; -175.965;-1003.005; -671.992
790.234;  -41.839;   44.996;  -66.992
790.490; -159.787; -884.004;-1031.993
790.747;  -14.160;  -85.004;   22.007
791.004;  -12.783; -426.004; -348.993
791.260;  -76.681; -430.004; -560.994
791.517;  -90.329; -843.003; -788.994
791.773;  -36.828; -379.003; -342.994
792.030; -108.751; -596.003; -660.995
792.286;  -99.574; -686.003; -636.995
792.543;  -15.397;  -74.002; -159.995
792.799;  -54.745; -584.002; -382.996
793.055; -148.318;-1179.002;-1210.996
793.312;  -96.242; -827.002; -816.997
793.568;  -60.340; -746.002; -599.997
793.824;   15.512; -226.001; -284.997
794.081;   19.889; -447.001; -508.998
794.337;   64.166; -664.001; -561.998
794.593; 1186.143; -319.001; -271.999
794.849; 6673.269; -746.001; -772.999
795.105;  377.896; -270.000; -261.999
795.361;   15.698; -490.000; -457.000
795.617;  -63.050; -875.000; -945.000
795.873;  -35.100; -360.000; -407.000
796.129;  -50.125; -368.000; -306.000
796.385;  -27.325; -124.000; -156.000
796.641;   62.600;  412.000;  550.000
796.897;  -84.275; -666.000; -635.000
797.153;   64.075;  453.000;  357.000
797.409; -101.725; -785.000; -868.000
797.665;  -66.025; -625.000; -732.000
797.921;  -83.975; -775.000; -762.000
798.176;  -62.425; -744.000; -747.000
798.432;  -41.425; -824.000; -596.000
798.688;  -73.350;-1174.000;-1078.000
798.943;   82.925; -165.000; -147.000
799.199;    8.950;-1005.000; -959.000
799.455;  210.800;  369.000;  316.000
799.710;  123.475; -813.000; -380.000
799.966;  302.175; -162.000; -160.000
800.221;  465.475; -638.000; -721.000
800.477; 9801.150; -743.000; -710.000
800.732; 9750.375; -773.000; -800.000
800.988;  631.475;  205.000;  -19.000
801.243; 1517.325; -454.000; -344.000
801.498; 7347.625; -814.000; -739.000
801.754;  436.625; -289.000; -163.000
802.009;   80.100; -257.000; -335.000
802.264;  -52.000; -967.000;-1033.000
802.520;   12.925;  222.000;   -3.000
802.775;  -45.500; -524.000; -359.000
803.030;   53.700;  395.000;  356.000
803.285; -110.750; -840.000; -903.000
803.540;  -71.625; -686.000; -699.000
803.795;  -43.850; -648.000; -583.000
804.051;  -36.075; -279.000; -346.000
804.306;   31.525;  168.000;  128.000
804.561;  151.025;  451.000;  362.000
804.816;  123.125;  714.000;  861.000
805.071;    9.425; -185.000; -280.000
805.325;  213.450; -257.000; -427.000
805.580;  -92.900; -841.000; -877.000
805.835;  -21.575; -204.000; -297.000
806.090;  -75.350; -760.000; -676.000
806.345;  -22.500; -344.000; -264.000
806.600;  -22.475; -549.000; -632.000
806.854;  -20.075; -408.000; -538.000
807.109;  -13.175; -493.000; -577.000
807.364;   -8.450; -407.000; -328.000
807.618;   11.150; -415.000; -381.000
807.873;   38.625; -470.000; -494.000
808.128;  108.125; -257.000; -518.000
808.382;  106.000; -224.000; -332.000
808.637;   78.375; -440.000; -511.000
808.891;  172.925; -257.000; -180.000
809.146;   97.300; -902.000; -794.000
809.400;  265.350; -848.000; -923.000
809.654;  349.650; -779.000; -551.000
809.909;  478.150; -841.000; -927.000
810.163; 6354.800; -813.000; -651.000
810.418;18450.300; -940.000; -861.000
810.672; 1125.175; -685.000; -690.000
810.926;  720.975; -993.000; -973.000
811.180; 1325.600; -439.000; -372.000
811.434;29961.900;  240.000;  135.000
811.689;13566.625; -231.000; -365.000
811.943;  665.900; -936.000; -953.000
812.197;  319.775; -893.000; -671.000
812.451;  130.275; -379.000; -514.000
812.705;  -21.250; -809.000; -619.000
812.959;   -5.725; -263.000; -388.000
813.213;   -1.800; -283.000; -209.000
813.467;   57.550;  470.000;  253.000
813.721;  -92.850; -764.000; -792.000
813.975; -105.600; -826.000; -877.000
814.229;   29.975;  430.000;  353.000
814.482;  -75.500; -517.000; -566.000
814.736; -118.175; -766.000; -744.000
814.990; -138.725; -779.000; -872.000
815.244;  -40.450; -228.000; -285.000
815.497;  -88.950; -636.000; -601.000
815.751;  -15.275; -141.000;   82.000
816.005;  -91.200; -470.000; -586.000
816.258;  -70.100; -510.000; -363.000
816.512; -115.575; -693.000; -610.000
816.766;   -6.075;  121.000;  157.000
817.019;   27.725;  148.000;  149.000
817.273; -113.425;-1000.000; -802.000
817.526;  -34.300; -206.000; -173.000
817.779;  -51.350;-1049.000; -960.000
818.033;  -44.750; -693.000; -807.000
818.286; -120.825; -725.000; -792.000
818.540;  -83.850; -403.000; -403.000
818.793;  -66.900; -402.000; -489.000
819.046; -118.800; -582.000; -520.000
819.299;  -47.750; -157.000; -166.000
819.553; -108.750; -552.000; -592.000
819.806; -154.300;-1016.000; -838.000
820.059;  -70.700; -334.000; -354.000
820.312;    4.700;  152.000;  185.000
820.565;  -35.300;  110.000;  -27.000
820.818;  -55.725;  -59.000; -173.000
821.071; -162.175;-1041.000; -957.000
821.324; -103.175; -536.000; -540.000
821.577;  -92.350; -457.000; -483.000
821.830;  -64.675; -270.000; -172.000
822.083; -128.200; -733.000; -288.000
822.336;  -56.800; -261.000; -167.000
822.589; -141.625; -805.000; -688.000
822.842; -144.375; -875.000; -770.000
823.094; -171.975;-1076.000;-1114.000
823.347; -123.000; -925.000; -729.000
823.600;   10.775;  402.000;  187.000
823.853;  -56.050; -311.000; -267.000
824.105;  -74.650; -331.000; -575.000
824.358; -109.625; -617.000; -716.000
824.611;   30.625;  234.000;   40.000
824.863;  -44.275; -612.000; -591.000
825.116;   35.500;  -33.000;   27.000
825.368;   67.375; -366.000; -372.000
825.621;  164.600; -186.000; -240.000
825.873;   84.225; -704.000; -737.000
826.126;  535.250; -669.000; -641.000
826.378;11401.650; -389.000; -505.000
826.630; 3206.425; -890.000; -898.000
826.883;   51.400; -754.000; -693.000
827.135;   54.375; -279.000; -270.000
827.387; -107.275; -893.000; -839.000
827.639;  -25.325;  -86.000;   32.000
827.892; -123.825; -742.000; -582.000
828.144; -136.700; -848.000; -804.000
828.396;  -41.400;  104.000;  -80.000
828.648;  -98.175; -440.000; -333.000
828.900; -159.200; -702.000; -795.000
829.152; -104.800; -684.000; -683.000
829.404;  -69.200; -215.000; -267.000
829.656;   -4.400;  321.000;  214.000
829.908;  -19.075;  393.000;  229.000
830.160; -165.525;-1064.000;-1047.000
830.412; -101.500; -481.000; -430.000
830.664; -142.075; -557.000; -665.000
830.916;  -82.975; -268.000; -206.000
831.167; -179.675;-1073.000; -951.000
831.419; -111.750; -623.000; -566.000
831.671; -143.925; -764.000; -809.000
831.923;  -86.925; -311.000; -447.000
832.174;  -74.050; -273.000; -331.000
832.426; -111.775; -493.000; -582.000
832.678; -191.625;-1043.000;-1091.000
832.929; -162.725; -947.000; -935.000
833.181;  -62.525; -575.000; -677.000
833.432;  -55.525;  -59.000; -186.000
833.684;  -27.725;  112.000;  -27.000
833.935; -117.400; -610.000; -566.000
834.187; -133.400; -829.000; -823.000
834.438;  -50.425;  -58.000;  -25.000
834.689;  -65.600; -255.000; -123.000
834.941;  -70.400; -343.000; -244.000
835.192; -100.350; -590.000; -533.000
835.443; -110.100; -419.000; -506.000
835.695;  -15.525;  138.000;  -16.000
835.946; -100.125; -608.000; -378.000
836.197; -111.050; -599.000; -622.000
836.448;  -79.175; -528.000; -395.000
836.699;  -53.575; -253.000; -341.000
836.950;   -1.750;   72.000;    7.000
837.201; -150.050;-1003.000; -987.000
837.452;  -48.775; -356.000; -170.000
837.703; -127.250; -791.000; -737.000
837.954;  -45.675; -205.000; -365.000
838.205;  -81.100;-1029.000;-1008.000
838.456;  182.700; -196.000; -282.000
838.707;   16.350; -423.000; -519.000
838.958;   17.975; -634.000; -647.000
839.209;  301.600;   18.000;   40.000
839.460;  115.300; -439.000; -201.000
839.710;  160.925; -135.000; -297.000
839.961;  416.625;  730.000;  612.000
840.212;  346.950; -382.000; -497.000
840.462; 1071.975; -328.000; -277.000
840.713;17498.075; -571.000; -536.000
840.964; 7972.325;  -62.000; -143.000
841.214;  545.075; -384.000; -624.000
841.465;  591.250; -214.000; -141.000
841.715;  531.600; -417.000; -380.000
841.966;  695.025; -746.000; -685.000
842.216; 8729.600; -330.000; -431.000
842.466;37128.125; -169.000; -313.000
842.717; 2347.175; -964.000; -952.000
842.967;  343.875; -635.000; -641.000
843.217;  286.000;   20.000;   28.000
843.468;   75.050; -104.000; -132.000
843.718;  -29.625; -718.000; -726.000
843.968;  -88.825; -837.000; -765.000
844.218;   22.975; -315.000; -262.000
844.469;  -36.900; -577.000; -561.000
844.719;  -97.300; -537.000; -682.000
844.969;  -94.325; -550.000; -580.000
845.219; -139.000; -814.000; -862.000
845.469;  -80.750; -392.000; -342.000
845.719; -144.400; -792.000; -884.000
845.969;  -17.075;  119.000;  174.000
846.219; -122.700; -738.000; -720.000
846.469;   15.300;  464.000;  432.000
846.718;  -60.150; -115.000;   31.000
846.968; -134.000; -827.000; -827.000
847.218;  -59.125; -224.000; -371.000
847.468; -112.025; -586.000; -555.000
847.718; -139.800; -827.000; -798.000
847.967; -126.650; -826.000; -915.000
848.217;  -72.700; -449.000; -569.000
848.467;  -67.600; -405.000; -376.000
848.716; -104.925; -708.000; -725.000
848.966;    5.900; -372.000; -358.000
849.215;  -64.900; -428.000; -419.000
849.465; -106.500; -785.000; -615.000
849.714; -139.625;-1132.000;-1150.000
849.964;  -73.900; -551.000; -613.000
850.213;  -14.225; -393.000; -355.000
850.463;   70.425;  137.000;  340.000
850.712;   -6.000; -542.000; -567.000
850.961;   18.475; -739.000; -678.000
851.211;  106.475; -513.000; -504.000
851.460;  170.050; -635.000; -650.000
851.709;  548.900;  -25.000;   18.000
851.958; 9736.325; -912.000; -750.000
852.208;13548.875; -859.000; -879.000
852.457;  518.725; -181.000;  -13.000
852.706;   78.175; -791.000; -823.000
852.955;   16.950; -507.000; -528.000
853.204;  -60.850; -521.000; -461.000
853.453;  -77.000; -418.000; -458.000
853.702; -129.875; -660.000; -750.000
853.951; -122.275; -532.000; -520.000
854.200; -114.675; -613.000; -562.000
854.449; -129.775; -695.000; -661.000
854.698;  -89.600; -340.000; -279.000
854.946;  -73.000; -181.000; -284.000
855.195; -163.475; -843.000; -868.000
855.444;  -98.625; -395.000; -420.000
855.693; -127.125; -345.000; -432.000
855.941;  -98.875; -387.000; -516.000
856.190;  -55.950; -256.000; -382.000
856.439; -133.975; -652.000; -703.000
856.687;  -57.650;  -99.000;  -72.000
856.936; -115.025; -621.000; -323.000
857.184; -184.975;-1067.000;-1020.000
857.433; -106.875; -423.000; -512.000
857.681; -163.125; -989.000; -953.000
857.930;  -82.200; -282.000; -433.000
858.178; -171.200; -856.000; -929.000
858.427; -144.200; -802.000; -781.000
858.675; -134.075; -377.000; -544.000
858.923; -115.550; -527.000; -819.000
859.172; -172.225;-1094.000;-1070.000
859.420;  -82.650; -339.000; -239.000
859.668; -128.925; -624.000; -628.000
859.916;  -16.225;  109.000;  115.000
860.164; -128.825; -699.000; -603.000
860.413;  278.350; -878.000; -696.000
860.661;  283.050; -709.000; -577.000
860.909;  -83.300; -339.000; -325.000
861.157;  -95.225; -277.000; -444.000
861.405; -125.025; -534.000; -670.000
861.653;   25.125;  310.000;  310.000
861.901;  172.325; -543.000; -613.000
862.149;   18.225; -801.000; -824.000
862.396;  -81.150; -297.000; -187.000
862.644;  -86.000; -368.000; -347.000
862.892;  -48.300;   98.000;  138.000
863.140; -124.600; -549.000; -530.000
863.388; -153.150; -815.000; -759.000
863.635; -121.375; -642.000; -601.000
863.883;  -27.700;  231.000;  190.000
864.131; -100.925; -288.000; -357.000
864.378; -130.625; -675.000; -540.000
864.626;  -86.975; -347.000; -415.000
864.873; -119.150; -556.000; -505.000
865.121; -149.975; -714.000; -799.000
865.368;  -53.125; -173.000;   75.000
865.616;  -59.725;  -33.000;  -40.000
865.863;  -88.750; -462.000; -506.000
866.111; -116.875; -795.000; -824.000
866.358;   20.150; -426.000; -420.000
866.605; 1961.025;  -64.000; -804.000
866.853; 2288.950; -621.000; -537.000
867.100;  -48.675; -728.000; -775.000
867.347; -101.525; -672.000; -611.000
867.594;  -87.800; -740.000; -714.000
867.841;  107.600;   97.000;   17.000
868.089; -151.925; -746.000; -698.000
868.336;  -97.600; -477.000; -420.000
868.583; -133.600; -637.000; -741.000
868.830;  -58.775; -131.000; -170.000
869.077; -166.825; -859.000; -787.000
869.324; -128.525; -502.000; -458.000
869.571; -139.575; -398.000; -430.000
869.818; -131.925; -485.000; -439.000
870.065;  -98.725; -439.000; -513.000
870.311; -120.850; -456.000; -542.000
870.558; -115.050; -332.000; -311.000
870.805;  -96.825; -320.000; -384.000
871.052; -113.825; -494.000; -369.000
871.298;  -49.350; -204.000; -131.000
871.545;  -71.650; -151.000; -185.000
871.792; -107.600; -173.000; -222.000
872.038;  -60.975;   43.000; -126.000
872.285; -126.900; -496.000; -387.000
872.532; -112.875; -357.000; -387.000
872.778;    2.225;  556.000;  403.000
873.025;  -97.900; -384.000; -359.000
873.271;   18.800;  501.000;  578.000
873.517;  -33.200; -133.000; -209.000
873.764;  -38.275; -193.000;  -80.000
874.010;  -69.750; -143.000; -230.000
874.257;  -46.475;  123.000;   90.000
874.503; -123.375; -579.000; -479.000
874.749;  -65.300;   31.000;  275.000
874.995;  -70.400;  -80.000;  -20.000
875.242; -121.675; -540.000; -478.000
875.488; -111.300; -414.000; -439.000
875.734;  -66.850; -106.000; -234.000
875.980;  180.875; -872.000;-1032.000
876.226;  431.125; -157.000; -255.000
876.472;  -11.375;  343.000;  237.000
876.718;  -22.425;  184.000;  158.000
876.964;  -51.325;   56.000;   55.000
877.210; -154.900; -547.000; -677.000
877.456; -135.425; -630.000; -557.000
877.702; -180.575; -821.000; -832.000
877.948; -137.325; -377.000; -497.000
878.193;  -14.625;  361.000;  255.000
878.439;  -94.350; -487.000; -472.000
878.685; -101.050; -272.000; -343.000
878.931; -128.625; -618.000; -676.000
879.176;  -88.400; -201.000; -201.000
879.422; -186.500; -933.000; -820.000
879.668;   56.500;   10.000;   79.000
879.913;  137.450;   53.000;  137.000
880.159;  -56.775; -112.000;  -17.000
880.404;  -61.675; -152.000; -162.000
880.650;  -44.425;   91.000;  141.000
880.895; -153.850; -670.000; -710.000
881.141; -107.475; -454.000; -428.000
881.386; -143.100; -503.000; -658.000
881.631;  -93.600; -311.000; -166.000
881.877;  -48.775;  112.000;  -13.000
882.122; -133.925; -684.000; -600.000
882.367;  -95.900; -136.000; -186.000
882.612;  -79.750;  -80.000; -176.000
882.858; -170.950; -877.000; -823.000
883.103;  -95.675; -297.000; -267.000
883.348; -149.225; -759.000; -852.000
883.593; -147.125; -677.000; -602.000
883.838;  -70.075; -311.000;  -24.000
884.083;   24.350;  353.000;  288.000
884.328;  -97.500; -564.000; -545.000
884.573;  -47.825; -196.000; -143.000
884.818;  188.850; -694.000; -531.000
885.063;  219.750; -348.000; -315.000
885.308; -109.250; -475.000; -398.000
885.553;  -13.800;  245.000;  325.000
885.797; -135.175; -545.000; -615.000
886.042;  -65.900;    8.000;   58.000
886.287;  -74.825; -253.000; -211.000
886.532;  -65.875;   26.000;  204.000
886.776; -111.425; -407.000; -525.000
887.021; -143.375; -621.000; -574.000
887.265; -146.550; -685.000; -689.000
887.510; -132.000; -557.000; -496.000
887.755; -110.450; -194.000; -164.000
887.999; -143.050; -552.000; -575.000
888.244;  -65.775;  -58.000;  161.000
888.488;  -12.750;  371.000;  393.000
888.732; -134.025; -368.000; -520.000
888.977; -133.000; -622.000; -567.000
889.221; -140.800; -683.000; -659.000
889.465; -125.650; -422.000; -566.000
889.710;  -75.275;  -56.000; -299.000
889.954;    0.175;  579.000;  467.000
890.198; -149.450; -584.000; -707.000
890.442; -148.125; -716.000; -712.000
890.687; -170.025; -800.000; -753.000
890.931;  -77.575; -273.000; -210.000
891.175; -150.375; -502.000; -500.000
891.419;  -81.425; -105.000; -110.000
891.663;  -91.875; -239.000; -112.000
891.907; -159.025; -801.000; -545.000
892.151; -181.375; -920.000; -815.000
892.395; -110.675; -274.000; -387.000
892.638;  -28.325;  408.000;  291.000
892.882; -183.750; -780.000; -867.000
893.126;   -4.725;  758.000;  558.000
893.370;  -89.925; -167.000; -168.000
893.614; -145.175; -714.000; -715.000
893.857; -100.775; -183.000; -197.000
894.101; -140.325; -527.000; -631.000
894.345;  -53.450;  300.000;  150.000
894.588;   -0.100;  569.000;  380.000
894.832;  -85.550; -178.000;  -84.000
895.075;  -79.425;   15.000;  -92.000
895.319; -134.600; -552.000; -420.000
895.563; -121.450; -413.000; -353.000
895.806; -155.075; -628.000; -741.000
896.049;  -71.900; -576.000; -368.000
896.293;   97.300;  527.000;  405.000
896.536;  -80.850; -465.000; -468.000
896.779;  -56.675; -149.000;   -1.000
897.023; -144.350; -751.000; -714.000
897.266;  -28.425;  325.000;  269.000
897.509; -187.950; -900.000; -901.000
897.752;  -61.275;  149.000;  171.000
897.996; -196.050; -972.000; -864.000
898.239;  -58.400;  168.000;  102.000
898.482; -109.100; -431.000; -453.000
898.725;  -42.875;  101.000;   53.000
898.968; -155.525; -609.000; -744.000
899.211; -113.625; -513.000; -361.000
899.454; -117.900; -633.000; -539.000
899.697;  -63.600;   90.000;  -43.000
899.940; -168.025; -761.000; -757.000
900.182; -110.400; -335.000; -405.000
900.425;  -95.025; -150.000; -298.000
900.668;  -34.325;  491.000;  350.000
900.911; -105.250; -292.000; -345.000
901.154;  -71.225;  141.000;   -3.000
901.396; -125.900; -407.000; -412.000
901.639; -137.625; -430.000; -496.000
901.882; -192.675; -790.000; -809.000
902.124;  -85.200;  -29.000; -143.000
902.367; -130.500; -315.000; -361.000
902.609; -144.500; -476.000; -453.000
902.852;  -95.575; -108.000; -260.000
903.094; -142.400; -458.000; -337.000
903.337;  -67.925;  -26.000;   53.000
903.579; -119.825; -228.000; -441.000
903.821; -158.125; -597.000; -744.000
904.064;  -64.200;   85.000;  127.000
904.306; -101.025; -126.000; -166.000
904.548; -109.550; -152.000; -366.000
904.790; -104.025; -195.000; -340.000
905.033; -123.000; -625.000; -577.000
905.275; -117.550; -513.000; -524.000
905.517;   41.325;  468.000;  256.000
905.759;  -66.225; -667.000; -761.000
906.001;  -84.925; -322.000; -369.000
906.243;  -57.950; -162.000; -224.000
906.485;  117.375; -265.000; -207.000
906.727;  131.775; -499.000; -542.000
906.969;  -35.600;  -30.000; -135.000
907.211;  104.650; -316.000; -382.000
907.453;  285.425; -188.000; -237.000
907.695;   30.375; -158.000; -385.000
907.936;   36.500;  818.000;  706.000
908.178;  -48.825;   92.000; -135.000
908.420;  -74.125; -111.000; -162.000
908.662; -128.175; -633.000; -682.000
908.903; -102.675; -208.000; -123.000
909.145;  -69.125; -240.000; -305.000
909.386;   -2.600;  315.000;  280.000
909.628;   35.150;  363.000;  397.000
909.870;   -6.250;   29.000;  264.000
910.111;  -95.525; -809.000; -949.000
910.353;   20.050; -123.000; -161.000
910.594;    0.400; -574.000; -606.000
910.835;   79.775; -265.000; -326.000
911.077;  153.825; -503.000; -604.000
911.318;  278.000; -505.000; -471.000
911.559;  437.925; -577.000; -880.000
911.801; 1267.075; -284.000; -280.000
912.042; 9748.350;  -50.000; -159.000
912.283;27225.075;  404.000;  371.000
912.524; 4622.025; -396.000; -457.000
912.765;  498.675; -193.000;   79.000
913.006;  249.075; -307.000; -338.000
913.247;   64.975; -270.000; -290.000
913.488;   -1.150;  -43.000;   30.000
913.729;  -78.725; -373.000; -373.000
913.970;  -67.775;  -96.000; -292.000
914.211;  -83.675; -160.000; -198.000
914.452;  -47.300; -118.000;  -11.000
914.693;    4.100;  510.000;  592.000
914.934;   -7.175;  510.000;  440.000
915.175;  -74.650;   53.000;  -95.000
915.415;  -79.525; -137.000;   27.000
915.656;  -65.525;  -28.000;  192.000
915.897;  -81.500; -252.000;  -82.000
916.137;  -62.925;   74.000;   -9.000
916.378; -130.475; -573.000; -517.000
916.619;  -95.725; -159.000;  -63.000
916.859;  -37.600;  303.000;  330.000
917.100;  128.925; 1655.000; 1070.000
917.340;   50.300;  930.000;  728.000
917.581;   41.575;  965.000;  789.000
917.821;  -39.000; -171.000;  143.000
918.061;   30.150; -199.000;  -72.000
918.302;  -58.550; -152.000; -211.000
918.542;  -27.375;  -22.000;    3.000
918.782;   32.075;  369.000;  377.000
919.023;  126.975;  360.000;  427.000
919.263; 1300.750; 8131.000;  202.000
919.503; 1184.600; -137.000;  -54.000
919.743;  668.725;  390.000;  266.000
919.983;  305.100; -134.000;  -26.000
920.223;   64.750;  135.000;   14.000
920.463;  148.825;  631.000;  554.000
920.703;  127.025;   84.000;   39.000
920.943;  160.475; -110.000;   90.000
921.183;  234.900; -414.000; -405.000
921.423;  489.575;  307.000;  546.000
921.663;  703.750; -174.000; -257.000
921.903; 1511.400;  237.000;  173.000
922.143; 8170.525;  372.000;  389.000
922.383;32702.625;  158.000;  115.000
922.622;12269.975; -120.000;  -15.000
922.862; 1287.850;  796.000;  785.000
923.102;  461.425;  -51.000;   33.000
923.341;  201.025;   59.000;   74.000
923.581;   91.725;  450.000;  360.000
923.821;   23.650;  301.000;  398.000
924.060;    5.175;  351.000;  193.000
924.300;  -65.100;  -16.000; -128.000
924.539;  -14.275;  584.000;  473.000
924.779;    2.500;  812.000;  597.000
925.018;  -43.650;  247.000;  353.000
925.257;    4.925;  595.000;  666.000
925.497;  -51.650;  447.000;  412.000
925.736;  -73.775;  -35.000;  102.000
925.975;    4.175;  687.000;  669.000
926.214;   15.400;  907.000;  850.000
926.454;   15.775;  706.000;  757.000
926.693;  -44.325;  419.000;  543.000
926.932;   28.125; 1021.000;  825.000
927.171;   71.675; 1107.000; 1044.000
927.410;   50.250; 1144.000;  967.000
927.649;   20.400;  924.000;  742.000
927.888;  -17.125;  590.000;  564.000
928.127;   -4.550;  680.000;  678.000
928.366;   19.450;  842.000;  826.000
928.605;   45.775;  831.000;  737.000
928.844;  228.225; 1451.000; 1393.000
929.083;  622.650;  770.000;  613.000
929.321;  351.550; 1335.000; 1359.000
929.560;   85.900; 1158.000; 1122.000
929.799;  -28.575;  574.000;  475.000
930.038;   70.150; 1025.000; 1394.000
930.276;  -42.150;  334.000;  397.000
930.515;   -4.525;  827.000;  681.000
930.753;  -30.700;  614.000;  589.000
930.992;  -41.150;  664.000;  717.000
931.230;   11.900;  847.000;  847.000
931.469;  168.275; 2162.000;  892.000
931.707;   73.900;  840.000;  751.000
931.946;   60.425; 1278.000; 1344.000
932.184;   48.975; 1437.000; 1175.000
932.423;   44.275; 1265.000;  963.000
932.661;   90.975; 1296.000; 1428.000
932.899;   21.700;  987.000;  821.000
933.137;   14.400;  754.000;  564.000
933.376;  150.525; 1664.000; 1335.000
933.614;  152.750; 1759.000; 1196.000
933.852;   30.075; 1357.000; 1171.000
934.090;  111.225; 1722.000; 1747.000
934.328;  106.375; 1252.000; 1457.000
934.566;   73.425; 1431.000; 1110.000
934.804;  138.700; 1263.000; 1309.000
935.042;  431.475; 1861.000; 1850.000
935.280; 1624.725; 2088.000; 2063.000
935.518; 1653.450; 2113.000; 2007.000
935.756;  381.075; 2481.000; 2316.000
935.994;  156.250; 1808.000; 1751.000
936.231;  359.725; 2890.000; 2950.000
936.469;  183.625; 2367.000; 2378.000
936.707;  173.100; 2220.000; 2167.000
936.945;  214.350; 2825.000; 2882.000
937.182;  224.800; 2679.000; 2741.000
937.420;  299.600; 3602.000; 3031.000
937.657;  414.900; 3365.000; 3478.000
937.895;  337.300; 3331.000; 3488.000
938.133;  298.150; 3540.000; 3528.000
938.370;  352.375; 3896.000; 4191.000
938.607;  394.975; 4488.000; 4205.000
938.845;  538.000; 5587.000; 5549.000
939.082;  464.150; 5387.000; 5177.000
939.320;  534.850; 5799.000; 5728.000
939.557;  653.000; 6549.000; 6491.000
939.794;  714.750; 7285.000; 7097.000
940.031;  910.850; 8421.000; 8368.000
940.269; 1114.800; 9552.000; 9107.000
940.506; 1125.275;10901.000;10507.000

