
Integration time [ms]: 100.000
Averaging Nr. [scans]: 40
Smoothing Nr. [pixels]: 0
Data measured with spectrometer [name]: 2101013U2
Wave   ;Sample   ;Dark     ;Reference
[nm]   ;[counts] ;[counts] ;[counts] 

394.013;  -39.577; -450.257; -315.536
394.305;  -76.427; -461.258; -419.536
394.596;  -77.791; -676.269; -527.514
394.887;  -95.914; -796.268; -654.518
395.178;   10.290;  145.736;   11.476
395.470;  -30.658; -210.263; -356.526
395.761;   50.088;  305.734;  394.479
396.052;  -63.508; -545.284; -306.489
396.343;  -68.998; -557.276; -454.503
396.634;  -44.728; -200.279; -290.497
396.926;  -75.114; -618.268; -565.517
397.217;  -12.673;   11.725;  -17.504
397.508;  -29.196; -366.273; -154.507
397.799;  -83.503; -555.279; -571.497
398.090; -128.828; -973.280; -902.495
398.381;    8.382;   11.708;  -11.473
398.672;  -85.268; -585.292; -742.473
398.963;  -59.402; -348.279; -373.498
399.254;    8.109;   54.709; -209.475
399.545; -112.812;-1017.266; -883.520
399.836;  -52.000; -407.277; -343.501
400.127;  -19.821; -205.295; -209.468
400.418;  -34.746; -423.274; -392.506
400.709;  -41.480; -359.281; -333.493
401.000;  -30.766; -268.291; -309.476
401.290;   32.345;  225.698;  115.545
401.581;  -16.160; -166.286; -228.485
401.872;  -76.650; -542.298; -486.462
402.163;  -32.547; -313.296; -252.467
402.454;  -15.191; -123.291; -163.475
402.744; -106.473; -844.297; -813.465
403.035;  -34.819; -226.293;  -86.471
403.326;  -39.867; -366.292; -384.474
403.617;   -4.651;  204.701;  165.539
403.907;  -71.907; -593.283; -679.490
404.198;  -71.411; -545.307; -599.446
404.489;  -86.781; -618.283; -588.491
404.779;  -89.579; -618.302; -660.456
405.070;   -6.457;  -67.304; -174.451
405.360;  -36.544; -259.293; -238.472
405.651;   33.372;  125.699;   98.542
405.942;   15.364;  209.714;  127.516
406.232;  -58.784; -432.285; -413.487
406.523;   93.405;  641.706;  758.530
406.813;  -84.510; -579.286; -644.484
407.104;   41.757;  261.708;  144.527
407.394;  -95.550; -604.299; -591.462
407.685;   29.916;  336.715;  222.513
407.975;  -62.457; -400.283; -382.490
408.265;  -26.389; -134.289; -190.478
408.556;  -61.892; -472.291; -459.475
408.846;   79.555;  474.706;  429.530
409.137;  -15.263;   -1.288; -216.480
409.427;  -59.784; -193.285; -271.487
409.717;  -92.195; -776.273; -692.508
410.007;   -7.485;    4.715; -170.486
410.298;  -37.246; -360.295; -342.469
410.588;  -62.384; -495.285; -510.486
410.878; -114.687; -792.287; -873.482
411.168;  -52.874; -481.298; -478.463
411.459;  -27.182; -295.283; -242.489
411.749;  -86.167; -609.292; -507.474
412.039;  -95.939; -755.289; -386.480
412.329;   23.449;   40.722;  132.501
412.619;  -16.085;  -62.286; -148.485
412.909;   83.061;  639.711;  594.521
413.199;  -20.253; -130.280; -251.495
413.490;   53.635;  521.710;  352.523
413.780; -125.878;-1013.279; -913.496
414.070;   -0.523;  -46.276;  235.497
414.360;  -77.751; -729.278; -666.498
414.650; -104.562; -726.288; -688.482
414.940;  -62.728; -538.280; -441.496
415.230;    5.612;   50.712;   74.519
415.520;   18.109;  155.730;   66.486
415.809;  -24.355; -305.281; -125.493
416.099;  -26.000; -388.277; -229.501
416.389;   55.778;  435.726;  236.494
416.679;   17.392;   91.738;   85.473
416.969;  -75.336; -527.287; -503.483
417.259;   46.072;  341.721;  171.503
417.549;   51.270;  522.718;  318.508
417.838;  -25.214; -205.268; -147.518
418.128;   64.010;  650.710;  492.522
418.418;  -71.294; -491.272; -579.509
418.708;    6.928;    9.726;  -48.506
418.997;  -62.747; -474.275; -480.505
419.287; -112.546; -733.273; -790.507
419.577;  -24.782; -160.283; -123.489
419.866;  -76.025; -588.277; -498.501
420.156;  -27.567; -242.270;  -55.513
420.446;  -21.659; -112.263;  -26.526
420.735;  -80.967; -376.271; -446.512
421.025;  278.174; 1830.722;  315.502
421.314;  -24.418; -203.271; -226.512
421.604;   12.635;   89.732;  233.484
421.893;  -86.668; -705.271; -602.511
422.183;  -94.259; -487.263; -461.526
422.472;   -9.093;  -36.271; -107.511
422.762;  -77.511; -416.266; -379.521
423.051; -128.498; -916.276; -916.503
423.341;  -81.471; -491.273; -439.507
423.630;  -14.611; -121.265;   15.477
423.919;    3.703;   58.725;   49.495
424.209;  -17.708;  -31.263;   56.473
424.498;   -9.889;   68.732;  161.483
424.787;  -86.288; -535.267; -601.518
425.077;   -9.236;   34.735;   29.478
425.366; -105.132; -734.262; -744.528
425.655;   78.455;  639.727;  259.493
425.945;  -49.390; -313.247; -268.554
426.234;    2.496;  117.741;  300.467
426.523;  -51.728;  -86.259; -350.534
426.812;    5.713;  107.734;  159.480
427.101;   -9.815; -127.269; -323.515
427.390;  -20.291;  -55.270;  -86.514
427.680;  -79.951; -624.257; -411.538
427.969;  -50.824; -330.255; -301.540
428.258;  -76.402; -385.257; -477.536
428.547;   33.906;  449.728;  397.490
428.836;  -60.522; -421.253; -398.543
429.125;  -34.428; -199.259;  -72.534
429.414;  -48.369; -330.251; -294.548
429.703;  -54.944; -231.251; -213.548
429.992; -124.044; -938.250; -828.549
430.281;  -65.835; -397.264; -331.524
430.570;    2.805;  -21.252;   32.454
430.859;   24.896;  279.741;  352.466
431.148;   86.960;  636.752;  631.446
431.437;   42.154;  391.748;  367.454
431.725;  -68.502; -544.257; -481.536
432.014; -140.421; -845.253; -756.545
432.303;  -22.605; -149.239; -105.569
432.592;  -55.859; -460.263; -178.525
432.881;  -87.090; -601.248; -437.554
433.169;  -42.199; -343.255;  -61.540
433.458;   55.474;  445.765;  540.424
433.747;  -66.281; -397.261; -289.529
434.036;  -42.009; -275.242; -280.564
434.324;  -82.642; -395.249; -379.551
434.613;    8.441;   40.757;  159.437
434.902;   25.318;  333.760;  439.433
435.190;   15.869;   75.761;  295.431
435.479;  -24.837;  -52.245;   83.441
435.767;  -61.736; -411.244; -427.561
436.056;  -64.834; -340.242; -294.563
436.345;  -69.106; -372.240; -223.568
436.633;    7.032;   60.750;  383.450
436.922;   44.969;  208.760;  414.432
437.210;  -56.002; -194.236;    1.426
437.499;  -89.651; -583.235; -432.576
437.787;  -47.552; -339.236;  -10.574
438.075;   -0.430;   56.761;  162.430
438.364;  -18.929;  -44.238;  250.429
438.652;  -44.640; -286.226; -138.592
438.941;  -23.895;    3.770;  269.415
439.229;  -96.471; -665.252; -466.545
439.517;  -51.475; -160.234;  -85.577
439.806;  -77.913; -501.225; -290.595
440.094;   41.826;  377.766;  650.421
440.382;  -85.998; -653.233; -302.580
440.670;  -68.251; -361.235; -285.576
440.959;  -76.061; -347.223; -170.599
441.247;  -40.769; -151.229; -109.587
441.535;  -47.925; -266.235;   31.423
441.823;  -94.324; -497.234; -305.578
442.111;   29.732;  173.771;  327.412
442.400;  -91.412; -628.245; -335.559
442.688;  -17.699; -111.234; -620.579
442.976; -123.449; -786.213; -450.617
443.264;  -60.212; -324.224; -364.597
443.552;  -28.040; -258.226;   51.408
443.840;   64.925;  602.765;  876.423
444.128;   21.176;  265.767;  269.420
444.416;  -86.293; -694.228; -312.588
444.704;  -86.057; -465.219;  -92.605
444.992;  -25.415;   -0.226;  240.407
445.280;  -70.270; -517.230;  -94.585
445.568;  -94.874; -694.212; -396.618
445.856;  -22.909; -174.221;  357.398
446.143;  -64.883;  -54.220;   -7.604
446.431;    4.933;  -25.228;  625.411
446.719;   59.471;  489.783;  675.391
447.007;   53.929;  481.769;  705.416
447.295;   71.489;  597.777;  871.402
447.583;  -60.469; -464.229;  -34.587
447.870;  -75.285; -434.221; -202.601
448.158;  -31.495; -104.230;  129.415
448.446; -104.407; -800.219; -338.604
448.733;  -33.662;   13.776;  269.403
449.021;    2.526;   60.788;  341.382
449.309;  -34.772; -296.210;  208.379
449.596;   15.520;  128.783;   59.392
449.884; -102.835; -571.222; -325.600
450.172; -112.567; -756.227; -406.590
450.459;   60.973;  645.786;  780.387
450.747;  -81.605; -411.218; -147.608
451.034;   71.908;  493.772;  889.411
451.322;  -74.751; -413.214; -170.614
451.609;    3.138;  292.777;  508.403
451.897;  -81.813; -550.203; -183.634
452.184; -115.586; -622.223; -400.598
452.472;  -11.269;   97.792;  269.375
452.759;   61.843;  512.781;  864.395
453.047;  -67.774; -407.212; -125.617
453.334;  -94.156; -732.219; -216.606
453.621;  -76.351; -438.214; -161.615
453.909;   -9.639;   13.796;  384.368
454.196;  -39.708; -299.199; -123.641
454.483;   10.063;  317.798;  540.364
454.771;  -35.644; -215.208;  196.374
455.058;  -59.943; -316.207;  102.374
455.345;    2.774;   71.807;  344.347
455.632;  -29.893; -128.207;  235.373
455.919;  -12.005;  -82.196;  182.354
456.207; -125.108; -774.198; -450.642
456.494;  -96.710; -475.200;  -66.639
456.781;  -89.012; -399.202; -198.635
457.068;  -30.717; -253.206;  -29.628
457.355;  -98.992; -698.206; -401.629
457.642;  -86.316; -552.205; -290.630
457.929; -112.002; -778.194; -417.651
458.216;  -98.949; -575.212; -354.617
458.503;  -38.277; -173.193;  -19.652
458.790; -116.369; -864.208; -630.625
459.077;  -41.887;  -77.202;  110.364
459.364;  -65.278; -350.195; -210.649
459.651;   -3.592;  -46.206;  220.372
459.938; -143.145; -864.209; -665.623
460.225;  -14.336;  132.799;  276.363
460.512; -122.106; -836.197; -688.645
460.799;  -24.080;  -32.218;  320.392
461.086;  -67.734; -370.200; -251.640
461.372;  -89.633; -509.198; -279.642
461.659;  -22.130; -165.196;  108.354
461.946;  -49.002; -445.193;  -54.651
462.233;  113.940;  842.800;  888.361
462.519; -118.335; -814.201; -464.639
462.806; -120.856; -768.197; -497.645
463.093;  -68.399; -445.191;  -66.656
463.380; -144.419; -920.186; -824.664
463.666;  -40.730; -259.197;  -18.646
463.953;  -51.629; -406.195; -243.648
464.239;  -59.604; -173.195;  -77.648
464.526;   43.973;  413.806;  743.350
464.813;  -96.122; -565.190; -304.658
465.099;   53.873;  606.807;  607.348
465.386;   97.599;  903.807;  921.348
465.672; -101.931; -694.197; -522.645
465.959; -103.720; -598.188; -520.662
466.245;  -85.526; -468.193; -359.652
466.532;  -28.354; -109.195;   63.352
466.818;  -71.094; -357.186; -216.664
467.104;  -95.913; -488.182; -415.672
467.391;  -96.222; -628.189; -459.658
467.677;  -57.318; -289.186;    9.335
467.964;  -88.046; -682.189; -471.660
468.250;  -55.218; -331.186; -160.665
468.536;   -5.947;   90.811;  180.341
468.822; -112.991; -821.184; -574.668
469.109;   66.598;  351.827;  471.311
469.395;   71.250;  729.808;  787.346
469.681;  -17.222;   46.811;  156.341
469.967; -101.071; -699.188; -382.660
470.254;  -55.695; -494.188; -306.662
470.540;  -87.430; -601.196; -476.646
470.826;  -74.012; -488.181; -397.675
471.112;   -2.341;  288.816;  113.331
471.398;  -28.740; -253.183;  -58.670
471.684;  -99.408; -626.177; -447.680
471.970; -155.711; -918.180; -981.675
472.256;  -77.850; -521.192; -441.654
472.542;  -82.376; -499.171; -434.691
472.828; -127.914; -743.182; -607.672
473.114;  -74.170; -380.166; -283.700
473.400;  -88.431; -504.175; -293.684
473.686;  -75.069; -452.166; -400.701
473.972;  -46.754; -230.174; -131.687
474.258; -125.427; -925.173; -843.689
474.544;  -27.934; -183.178;   -2.679
474.830;  -20.930;  -65.175;   45.316
475.116;  -56.997; -123.190; -196.658
475.401;  -88.311; -558.180; -467.676
475.687; -122.236; -725.180; -718.676
475.973; -115.088; -673.181; -770.673
476.259;   81.770;  736.825;  764.315
476.544;  -84.407; -539.176; -437.682
476.830;  -81.876; -398.172; -322.690
477.116;  -58.607; -430.177; -336.682
477.401;   23.664;  346.820;  358.324
477.687;  -66.731; -289.175; -405.684
477.973;  -20.787;   21.819;   28.326
478.258;  -65.567; -448.163; -348.706
478.544;  -26.892;   21.815;   61.334
478.829; -112.125; -818.171; -738.692
479.115; -111.627; -749.172; -651.690
479.401;  -68.054; -444.174; -449.686
479.686;  -42.886; -253.180;  -74.676
479.972; -133.283; -886.178; -776.680
480.257;  -46.645; -258.166;  -65.700
480.542;  -78.550; -614.170; -469.693
480.828;  144.619; 1288.824; 1392.317
481.113;  -78.681; -464.176; -426.683
481.399;  -58.713; -236.161; -202.711
481.684;  -88.970; -620.166; -462.700
481.969;  -33.662; -158.159;  -73.713
482.255;  -76.948; -439.169; -285.695
482.540; -101.658; -569.178; -441.680
482.825;  -72.394; -395.187; -404.663
483.110;  -33.873;  -85.169; -105.696
483.396; -110.609; -840.157; -652.718
483.681;   63.946;  543.826;  730.313
483.966; -109.687; -696.160; -700.712
484.251;  -87.504; -404.174; -310.687
484.536;  -72.944; -356.165; -378.703
484.822;  -59.928; -205.173; -218.687
485.107;  -93.629; -599.152; -502.726
485.392;   54.332;  662.836;  541.296
485.677;   14.829;  354.832;  163.302
485.962;    2.491;  160.843;  270.283
486.247;  -12.790;  -14.162;   -8.707
486.532;  -64.470; -178.166; -325.701
486.817;   42.536;  381.839;  431.291
487.102;  -97.156; -453.154; -514.722
487.387;  -98.258; -637.156; -652.718
487.672;  -32.892; -154.164;  -38.705
487.957;  -55.488; -394.160; -286.711
488.241;  -55.451; -290.150; -314.729
488.526;  -46.453; -280.152; -148.726
488.811; -143.158; -881.177; -818.680
489.096; -118.980; -666.154; -702.723
489.381;  -18.179;    3.847;  162.275
489.666;  -78.863; -428.161; -510.710
489.950;   61.020;  558.846;  627.277
490.235;  -92.152; -480.151; -458.728
490.520; -115.689; -756.161; -723.710
490.804; -118.133; -827.156; -736.719
491.089;  -78.324; -469.149; -299.732
491.374;  -23.792; -132.164;  -75.704
491.658; -119.273; -817.147; -717.735
491.943; -109.778; -657.152; -609.727
492.227;  -48.181; -178.155;  -38.721
492.512;  -56.609; -294.157; -341.717
492.797; -117.050; -713.149; -716.731
493.081; -109.322; -588.147; -598.735
493.366; -118.338; -751.161; -635.711
493.650;   96.685;  831.859;  917.254
493.935; -110.273; -648.147; -447.734
494.219; -119.592; -778.142; -687.743
494.503; -109.551; -585.150; -487.730
494.788;  -16.310;   46.842;   74.285
495.072;   14.649;  184.850;  434.271
495.356;  -78.549; -463.148; -343.733
495.641; -145.371; -812.146; -736.736
495.925; -142.858; -976.156; -903.719
496.209; -102.449; -599.149; -451.732
496.494; -109.392; -763.142; -544.744
496.778;  -62.231; -364.154; -360.722
497.062; -115.083; -819.156; -627.719
497.346; -119.088; -869.160; -640.711
497.631;   63.527;  580.852;  560.266
497.915;  -11.595;  -64.145;  175.261
498.199;  -62.334; -341.157; -277.718
498.483;  -84.304; -562.152; -508.725
498.767;   22.599;  301.850;  300.271
499.051;  -22.775; -126.149; -100.732
499.335; -111.975; -693.149; -739.731
499.619;  -90.702; -381.129; -423.767
499.903;  -41.257; -272.155;  -65.721
500.187; -108.905; -588.153; -316.724
500.471; -131.703; -796.152; -595.727
500.755;  -44.238;   62.839;  -96.710
501.039;  -58.857; -270.155; -357.721
501.323;    3.660;  -21.141;  264.254
501.607;  -69.341; -447.163; -503.706
501.891;  -98.633; -607.156; -512.718
502.174;  -97.219; -726.144; -585.741
502.458;  -12.402;   89.849;  370.273
502.742;  -28.787; -180.138; -191.751
503.026;  -63.423; -412.147; -254.734
503.310;  -64.062; -437.159; -375.713
503.593;  -75.573; -464.147; -325.735
503.877;  -48.206; -232.133; -156.760
504.161;  -48.280;    2.847;  -50.724
504.444; -104.435; -841.158; -710.716
504.728; -100.892; -487.164; -522.704
505.012;  -42.226; -257.150;  -76.729
505.295;  -75.063; -417.161; -212.711
505.579;  -51.008; -256.156; -496.719
505.862;  -94.671; -555.145; -333.738
506.146;  -99.161; -681.159; -758.714
506.429;   45.364;  568.841;  461.286
506.713; -121.452; -732.151; -667.728
506.996;  -10.131;   90.846;  295.278
507.280;  -89.793; -633.165; -474.703
507.563;  -87.707; -469.155; -261.721
507.847;  -95.180; -423.153; -112.724
508.130; -110.438; -665.161; -456.711
508.413; -107.821; -758.167; -577.700
508.697;  -30.945; -151.167;   12.300
508.980;  -77.855; -422.153; -312.724
509.263;  -87.507; -466.155; -450.720
509.547;  -40.826; -124.150;   82.271
509.830;  -34.188; -172.160;  140.289
510.113;    8.117;  128.844;  298.281
510.396;  -91.429; -530.152; -300.725
510.680; -139.370; -818.145; -812.738
510.963;    6.595;  184.846;  180.277
511.246;  -92.575; -493.150; -357.730
511.529;  -74.320; -482.145;  -83.739
511.812;  -41.532; -250.134;   10.241
512.095; -115.702; -740.151; -396.728
512.378;  -56.122; -317.147; -245.736
512.661; -118.611; -703.137; -623.753
512.944; -119.542; -750.142; -637.744
513.227;  -50.711; -170.137; -171.752
513.510;  -88.069; -479.144; -671.741
513.793; -100.639; -485.140; -435.747
514.076;  -31.849;  -43.127;  -39.771
514.359;  -60.849; -294.149; -135.732
514.642;  -98.816; -442.142; -567.744
514.925;   48.060;  581.860;  561.253
515.208;  -83.982; -498.134; -443.758
515.491;  -64.931; -276.133; -182.761
515.773;  -88.518; -410.143; -337.742
516.056;   14.590;  249.864;  409.246
516.339; -122.834; -754.136; -652.755
516.622; -116.401; -518.150; -488.730
516.904;  122.733;  882.857;  975.257
517.187; -128.611; -730.138; -523.752
517.470;  -87.017; -568.143; -510.743
517.752; -104.834; -624.136; -470.756
518.035; -114.763; -708.139; -725.749
518.318; -147.059; -799.136; -744.755
518.600;  -66.455; -300.132; -325.762
518.883;    4.384;  310.858;   88.256
519.165;  -89.262; -585.138; -426.751
519.448;  -28.230;  -61.132;  -19.762
519.730; -103.598; -573.126; -415.773
520.013;   54.869;  588.867;  664.240
520.295;  -36.957;  -94.134;  -15.759
520.578;  -68.203; -335.131; -305.764
520.860;  -38.780; -254.132;   56.238
521.143; -118.359; -763.135; -584.756
521.425;  -71.396; -251.125; -279.775
521.707;  -99.449; -622.127; -380.771
521.990;  -24.424; -199.127;  167.229
522.272;  -45.714; -116.140;   -4.748
522.554;  -53.218; -237.143; -157.742
522.836;  -43.757;  -24.134;   99.241
523.119;  -84.523; -496.148; -189.734
523.401;  -82.552; -448.130; -314.766
523.683; -151.536; -865.137; -693.753
523.965;    1.888;  408.862;  260.248
524.247;  -18.043;   54.878;  170.220
524.529;  -94.632; -451.134; -367.759
524.812;  -23.427;   -3.130;  191.234
525.094; -141.087; -773.138; -631.751
525.376;  -47.445; -143.124;   78.223
525.658; -100.310; -441.136; -339.754
525.940; -137.854; -805.131; -671.764
526.222;  -74.909; -188.136;  -88.755
526.504;  -40.379; -190.131;   32.237
526.786; -152.531; -960.133; -647.760
527.068;  -68.544; -124.123;  -67.778
527.349; -135.135; -865.137; -774.754
527.631;  -20.105; -137.132;   22.238
527.913; -129.449; -664.127; -450.771
528.195; -136.622; -761.125; -639.774
528.477;  -37.532;  -93.134;  -30.758
528.759; -108.102; -648.130; -522.766
529.040;  -88.044; -569.123; -293.778
529.322;  -57.647; -235.125;  -10.774
529.604;  -32.427;  -47.130;   93.233
529.886;  -81.223; -546.126; -302.773
530.167;  -14.278;  232.870;  192.235
530.449;   -7.972;    1.853;   63.265
530.731; -104.069; -572.122; -459.779
531.012;  -91.016; -513.120; -216.784
531.294;  -55.586; -118.116;  -43.792
531.575;   35.679;  290.875;  538.225
531.857; -105.608; -548.135; -266.757
532.138;  -43.340; -113.141;   40.254
532.420;    5.716;  294.865;  403.244
532.701; -135.081; -722.133; -751.760
532.983;   10.794;  232.867;  182.239
533.264;  -40.298; -243.126;  175.228
533.546;  -91.034; -491.136; -508.755
533.827;  -27.882;  173.867;   -1.759
534.109; -104.233; -352.135;  -80.757
534.390; -124.655; -725.132; -582.762
534.671;  -56.759; -270.135;  -82.756
534.953; -123.844; -751.123; -611.779
535.234;  -94.438; -426.117; -255.789
535.515; -152.115; -891.119; -735.785
535.796;  -85.500; -431.128; -193.770
536.078; -172.720;-1050.124; -904.777
536.359;  -64.544;  -22.123;    3.221
536.640;  -73.072; -480.125; -197.774
536.921;   -7.426;  225.871;  143.232
537.202;  -51.462;  -87.138;  -16.751
537.483;   -4.978;  251.869;  377.236
537.764;  -16.853;   17.870;   98.235
538.045; -100.907; -543.134; -371.758
538.326; -105.776; -596.129; -447.768
538.607; -141.174; -686.127; -476.771
538.888;  -35.817;   98.879;    5.218
539.169; -122.343; -704.122; -535.781
539.450;  -17.076;  236.871;   16.233
539.731;  -76.266; -361.121; -182.783
540.012;  -19.966;  199.880;  412.216
540.293;  -44.596;   82.876;  158.224
540.574; -148.008; -895.113; -717.796
540.855;   11.908;  435.879;  377.218
541.136;  -12.068;   47.878;  139.220
541.416;  -75.027; -161.130; -220.766
541.697;  -69.379; -274.131; -170.763
541.978;  -81.483; -270.135; -315.757
542.259;  -75.424; -211.127; -236.771
542.539;  -73.836; -191.116; -186.790
542.820;   18.079;  461.875;  480.225
543.101;  -61.895;  -52.145;  -77.738
543.381; -134.049; -638.127; -591.771
543.662;  -29.824;  159.873; -254.771
543.942; -157.674; -751.127; -830.770
544.223;  -30.668;  193.878;  161.219
544.504;  -77.245; -275.124; -182.777
544.784; -119.748; -592.126; -408.773
545.065;  -87.311;  104.884; -254.791
545.345;  -49.040;  227.881;   14.215
545.626;  -43.483;  -14.113; -108.796
545.906;  -40.228;   77.869;   98.235
546.186;  -59.822;   92.874;  -95.773
546.467;  -52.695;   99.877;  -95.778
546.747;    5.764;  264.884;  327.210
547.027;  -25.445;   91.876;  111.223
547.308;  -96.275; -376.127; -530.770
547.588;   -7.976;  299.871;  371.232
547.868;   28.472;  458.870;  588.235
548.149;   55.090;  609.885;  593.207
548.429;  -80.849; -347.127; -299.771
548.709; -115.941; -645.120; -461.784
548.989;  -31.638;   84.882;   88.213
549.269;  -49.080;   10.868;  139.239
549.550;  -33.494;  215.877;  117.222
549.830; -145.455; -758.111; -556.799
550.110;  -86.029; -468.110; -320.801
550.390;  -69.443; -128.122;  -56.779
550.670; -141.958; -868.114; -783.795
550.950; -110.492; -509.121; -471.782
551.230;   36.358;  549.879;  460.218
551.510; -112.767; -381.121; -326.782
551.790;  -65.378; -173.109; -127.803
552.070;  104.980;  940.877; 1181.223
552.350;  -88.614; -492.119; -377.786
552.630;  -35.917;   -2.121;   77.219
552.909;  -15.861;  181.884;   73.209
553.189;  -59.104;  -49.132;   33.237
553.469; -119.964; -703.119; -514.786
553.749; -110.949; -469.127; -357.772
554.029;  -45.162;   33.883;  -24.790
554.308;  -62.109; -154.115;  -37.794
554.588;  -70.275; -196.128; -204.770
554.868;  -79.692; -366.121;  -47.782
555.147;  -59.860; -114.115;  -46.793
555.427;  -94.335; -260.116; -250.792
555.707;  -74.135; -284.115; -200.793
555.986; -138.680; -719.111; -538.800
556.266;  -34.212;   23.884;   72.210
556.546; -130.617; -888.121; -675.782
556.825; -132.384; -657.114; -556.794
557.105;  -44.375; -125.128;   17.230
557.384;  -27.486;  122.884;  187.209
557.664; -132.961; -717.116; -508.792
557.943; -107.542; -557.121; -411.782
558.222; -105.538; -345.118; -344.788
558.502;  -43.534; -116.115;  -76.793
558.781;   11.615;  194.885;  499.208
559.061;  -73.438; -232.118; -227.788
559.340;   -8.837;  302.883;  353.211
559.619;  -25.287;   93.884;  148.210
559.899;  -97.087; -239.117; -266.789
560.178; -128.060; -778.115; -593.793
560.457; -126.012; -623.117; -562.790
560.736; -110.355; -472.111; -482.800
561.015; -129.400; -500.128; -502.769
561.295;  -30.126;  180.893;  215.193
561.574;  -39.135;  119.885;  116.207
561.853;    0.922;  274.891;  303.197
562.132;  -55.384;  -45.114;  182.206
562.411;   35.383;  396.879;  553.219
562.690; -127.535; -592.115; -458.792
562.969;   47.618;  472.888;  630.203
563.248;  363.232; 2966.878; 2487.219
563.527;  -87.355; -290.111; -408.800
563.806; -134.549; -650.127; -521.771
564.085;  -70.099; -297.105; -206.810
564.364; -117.012; -594.117; -405.790
564.643;  -77.967; -276.121; -223.781
564.922;  -21.754;  221.890;  397.198
565.201; -138.278; -640.109; -700.803
565.479;  -80.860; -297.115; -219.792
565.758; -141.800; -810.128; -712.770
566.037;  -56.903; -155.109; -100.803
566.316;  -60.161; -286.116;  -28.791
566.595;  -36.935;  -17.115;  -12.793
566.873;   40.245; -166.111;  -79.801
567.152; -130.932; -490.113; -590.797
567.431;  -41.911; -113.116;    6.210
567.709;  -80.226; -344.107; -212.807
567.988; -161.434; -810.114; -769.794
568.266;  -73.710; -160.115;  -68.793
568.545; -116.242; -644.100; -514.819
568.824;   -6.310;  160.885;  356.208
569.102;  -80.134; -351.114; -235.794
569.381; -117.760; -492.116; -407.792
569.659; -110.257; -553.113; -553.796
569.938; -144.068; -743.122; -465.780
570.216;  -78.228; -225.109; -225.804
570.494; -132.008; -632.114; -572.795
570.773;   -5.817;  202.879;  114.218
571.051;  -94.569; -373.123; -357.778
571.330;  -51.858; -221.113; -174.796
571.608;  -73.140; -181.098; -173.823
571.886; -142.906; -671.111; -581.799
572.164; -132.942; -739.121; -621.782
572.443; -108.573; -562.105; -512.811
572.721;  -96.962; -399.117; -289.790
572.999;  -82.638; -280.117; -168.788
573.277;   20.876;  379.894;  620.191
573.555;  -41.199;   94.894;   37.190
573.834;  -70.288;  -86.117; -114.788
574.112;   71.875;  880.893;  811.193
574.390;  -42.655; -143.111;  -96.801
574.668;  -58.257;  -91.112;  -61.797
574.946;  -81.674; -165.106; -187.810
575.224;  -47.403;   71.891;  -16.803
575.502;  -76.161; -200.116; -204.791
575.780; -144.582; -767.112; -829.798
576.058;  135.720; 1589.889; 1004.200
576.336;  -58.804; -210.110; -129.801
576.614; -107.707; -511.112; -340.798
576.891; -145.484; -711.115; -823.794
577.169;  -79.827; -158.108; -285.805
577.447;    3.424;  169.893;  202.193
577.725;   48.294;  629.888;  854.201
578.003;  -61.531;  -71.112; -371.798
578.280;  -67.272; -208.104; -242.812
578.558; -118.709; -450.115; -422.793
578.836;  -68.708; -210.114; -145.795
579.114; -130.232; -630.112; -670.797
579.391;  -55.912;   -6.117;  -18.789
579.669; -142.134; -595.114; -704.794
579.947;  -83.651; -326.107; -127.806
580.224; -116.226; -692.107; -524.806
580.502;  -39.050;  127.893;   76.193
580.779;  -27.062;  -42.117;   75.210
581.057; -126.553; -584.109; -470.804
581.334; -145.170; -726.102; -695.815
581.612;    6.951;   54.895;  511.190
581.889;  -74.618;  -83.101; -129.818
582.167;  -93.966; -298.099; -190.821
582.444; -152.319; -845.102; -814.817
582.721;   52.031;  657.899;  715.183
582.999;  -71.667; -326.100; -167.821
583.276; -137.194; -812.123; -713.779
583.553;  -86.295; -364.102; -294.816
583.831; -138.472; -607.104; -631.812
584.108;   -8.127;  349.892;  174.195
584.385;  -81.995; -122.102;  -98.815
584.662; -141.430; -651.111; -828.801
584.940;  -31.080;  204.889;  204.199
585.217;  -69.133;  -73.113; -303.796
585.494;  -39.554;   71.890;  118.198
585.771;  -79.353; -250.109; -354.804
586.048;  -71.333; -196.113;  -76.796
586.325; -138.754; -721.110; -773.801
586.602;  -31.822;  230.896;  213.188
586.879; -117.217; -499.100; -580.820
587.156;  -79.424; -156.105; -331.810
587.433; -139.944; -701.102; -667.817
587.710;  -36.507;  152.888;  234.202
587.987;  -78.248; -264.105; -236.811
588.264;    9.644;  315.888;  387.202
588.541;  -41.697;  -61.104;   26.187
588.818;  -43.502;   72.892;  171.196
589.095;  -80.972; -163.104; -174.812
589.371; -118.353; -459.109; -414.804
589.648; -111.100; -581.107; -437.807
589.925; -129.308; -517.114; -621.795
590.202; -129.282; -741.112; -607.798
590.478;  -61.898; -166.105;  -73.811
590.755;  -68.426; -241.108; -132.806
591.032; -136.854; -741.110; -699.802
591.308; -154.385; -732.094; -790.831
591.585; -122.079; -573.110; -560.802
591.862; -167.044;-1056.102; -950.817
592.138; -108.202; -475.108; -474.805
592.415; -116.572; -486.104; -495.813
592.691;   13.628;  460.896;  518.188
592.968;  -72.515; -208.098; -123.824
593.244; -131.336; -695.116; -595.790
593.521;  -48.944; -105.102;  -42.817
593.797; -152.843; -810.122; -720.780
594.074; -126.238; -611.096; -588.826
594.350;   70.163;  828.905;  729.172
594.626;  -85.180; -303.111; -283.801
594.903; -131.244; -643.101; -645.817
595.179;   -0.846;  243.896;  418.187
595.455;  -61.150; -136.107; -150.807
595.731;  -57.471;  -19.103;  -38.814
596.008; -105.180; -464.111; -434.800
596.284;  -65.292; -187.100; -242.820
596.560; -117.834; -501.093; -493.833
596.836;  -63.748; -173.105;  -70.810
597.112; -112.227; -582.108; -437.805
597.388;  -53.813;  -49.097;  -48.826
597.665;    7.243;  437.887;  530.203
597.941; -134.955; -572.089; -658.839
598.217;  -90.704; -323.110; -293.802
598.493;  -54.127;   61.891; -204.804
598.769;  -55.818; -175.100;  -50.819
599.045; -117.551; -490.108; -562.806
599.321;  -85.442; -193.100; -261.820
599.597;  -92.152; -355.109; -476.804
599.872;    3.053;  409.896;  429.187
600.148;  -74.838;  -61.097; -172.826
600.424;  -25.301;   91.893;  202.193
600.700;  -74.675; -170.107; -280.807
600.976; -108.239; -442.097; -464.825
601.252;  -83.628; -226.109; -272.803
601.527; -171.822; -833.104; -840.813
601.803;  -99.098; -453.105; -404.812
602.079;  -74.268; -124.100; -118.819
602.354; -118.358; -620.092; -531.835
602.630;  -83.433; -140.113; -482.796
602.906; -144.243; -910.101; -863.818
603.181; -121.639; -627.119; -534.786
603.457;  -58.539;   98.903; -278.826
603.733; -126.916; -605.120; -626.783
604.008;  -54.074; -245.106; -164.810
604.284;  -57.869; -636.101; -580.817
604.559;  -55.056;   -3.112;  -42.799
604.835;  -69.048; -163.105; -225.810
605.110; -146.016; -732.099; -892.821
605.385;  -14.409;  224.907;  267.167
605.661; -144.136; -625.095; -729.829
605.936; -143.801; -664.108; -737.806
606.211;  -41.420;  -17.103; -170.815
606.487;  -85.159; -329.114; -376.794
606.762; -145.314; -791.119; -745.786
607.037;  -96.748; -501.105; -433.810
607.313; -122.037; -589.096; -574.828
607.588;  -66.699; -375.106; -137.810
607.863;  -52.568;  -28.101; -143.818
608.138;   21.796;  513.890;  516.198
608.413; -115.216; -576.099; -592.822
608.688;  -78.177; -203.108; -267.805
608.964;  -76.550; -509.106; -218.809
609.239;  -59.549; -107.105; -212.810
609.514;   -4.998;  281.895;  240.188
609.789; -147.797; -187.104; -716.812
610.064; -104.662; -435.096; -609.827
610.339; -157.878; -855.109; -799.804
610.614;  -62.717; -131.100; -315.820
610.889;  -27.373;  215.895;  107.188
611.163; -111.273; -407.104; -591.812
611.438;  -63.884;   81.886; -167.794
611.713; -116.969; -467.101; -499.817
611.988;  -75.169; -144.101; -328.818
612.263; -152.320; -771.102; -717.815
612.538;   19.792;  385.887;  251.204
612.812; -155.717; -832.100; -911.820
613.087;  -90.415; -358.098; -338.823
613.362; -110.275; -497.107; -557.807
613.637;  -15.196;  261.897;  138.186
613.911;  -73.832; -256.092; -345.835
614.186;  -91.801; -249.107; -292.807
614.460; -149.320; -842.081; -758.854
614.735;  -55.477;  -55.087;  -17.843
615.010;  -36.453;   43.912;  -82.841
615.284;    1.373;  360.892;  246.195
615.559; -152.983; -792.092; -955.835
615.833;  -64.091;  -76.099;  -87.822
616.108;  -73.831; -225.090; -390.837
616.382;    7.848;  274.913;  402.156
616.656;  -86.131; -241.090; -232.837
616.931; -156.141; -785.099; -700.822
617.205; -160.072; -973.104; -979.813
617.480;  -57.322;  -91.125;    6.225
617.754;  -89.797; -396.125; -128.774
618.028;  -93.626; -369.129; -382.768
618.302;  -29.877;   73.892;  -25.805
618.577; -119.121; -371.103; -518.815
618.851; -113.028; -399.109; -600.803
619.125;  -97.832; -335.134; -378.759
619.399;  -64.646; -244.104; -374.813
619.673; -107.635; -330.115; -515.792
619.947;  -93.708; -333.114; -448.795
620.222;  -70.929; -198.110; -204.801
620.496;  -57.492;  -47.121;  -96.782
620.770;  -68.818; -187.122;  -93.781
621.044;   15.151;  323.895;  346.190
621.318; -131.291; -653.120; -614.783
621.592;  -77.492; -430.121; -409.783
621.866; -126.981; -476.112; -572.799
622.140;  -78.261; -207.116; -356.791
622.413;  -18.230;  138.889;  112.200
622.687; -110.169; -746.101; -492.817
622.961;  -37.502; -130.108; -143.805
623.235; -125.130; -633.111; -661.800
623.509; -141.398; -816.105; -848.811
623.783;  -24.801;  -12.107;   48.193
624.056;  -91.491; -254.120; -280.783
624.330;  -10.957;   63.888;   -3.797
624.604;  -72.912; -271.116; -355.790
624.877;  -24.554;  180.890;   26.198
625.151;  -71.884; -249.114; -238.794
625.425;  -69.196; -150.103; -283.814
625.698; -102.615; -367.119; -374.785
625.972; -140.579; -799.110; -765.802
626.245;   33.064;  685.884;  484.210
626.519;  -83.241; -426.120; -340.784
626.792;  -71.400; -192.107; -380.807
627.066; -114.219; -485.122; -662.779
627.339; -136.554; -736.110; -663.802
627.613;   -7.616;  351.880;  148.216
627.886; -122.378;  187.891; -612.803
628.160;  -70.616;  312.880; -161.783
628.433; -141.771; -695.125; -703.775
628.706; -114.091; -517.120; -615.784
628.979;  -15.520;  296.876;  117.223
629.253; -145.439; -785.119; -833.786
629.526;  -91.948; -334.126; -253.772
629.799; -111.844; -641.123; -479.778
630.072; -116.976; -497.128; -516.769
630.346; -184.936;-1115.116;-1080.790
630.619; -114.500; -467.107; -545.808
630.892;   53.795;  709.889;  593.200
631.165;   50.379;  790.896;  679.187
631.438; -194.081;-1092.112;-1055.798
631.711;   18.031;  453.877;  257.221
631.984;  -93.537; -523.117; -624.789
632.257; -128.937; -636.117; -681.789
632.530;  -96.115; -412.119; -433.785
632.803;   -1.284; -109.115;    7.207
633.076;  -94.470; -360.123; -422.777
633.349;  -16.950;  173.872;  121.231
633.622;  -62.840; -187.119; -240.785
633.895; -174.591; -903.120; -823.783
634.167;  -97.398; -496.126; -525.773
634.440;  -52.811;  -19.116; -137.792
634.713;  -34.539;  -22.119; -120.786
634.986;   25.074;  593.871;  453.233
635.258; -116.560; -507.115; -597.793
635.531;   53.087;  742.882; -343.788
635.804;  -82.112; -303.117; -318.789
636.077; -159.636; -830.116; -852.791
636.349; -126.535; -586.115; -474.793
636.622;  213.502; 1695.874; 1392.228
636.894; -103.790; -474.120; -909.784
637.167; -148.224; -836.127; -789.771
637.439;  -67.325; -278.128; -213.770
637.712;  -94.923; -312.126; -293.772
637.984; -138.686; -635.116; -707.791
638.257;   28.030;  515.877;  488.222
638.529; -159.396; -881.125; -924.776
638.802; -113.126; -508.128; -449.769
639.074; -167.118; -927.122; -952.781
639.346; -171.708; -942.135; -930.757
639.619;  -34.617;  -79.142; -319.744
639.891;  -60.444;  -83.122; -168.779
640.163; -135.943; -689.122; -756.780
640.435;  -23.993;  273.878;  103.220
640.708;  -49.393;  -72.122; -132.780
640.980; -108.443; -366.122; -362.781
641.252;  -38.392;  -25.121;  -71.781
641.524;   21.308;  580.879;  573.219
641.796; -167.792;-1094.121; -907.782
642.068;  -71.142; -191.121; -300.782
642.340; -116.416; -486.121; -566.783
642.613;    1.159;  294.880;  323.217
642.885; -145.791; -787.120; -878.783
643.157; -138.891; -810.120; -658.784
643.428;   -6.515;  170.880;  218.216
643.700;  -93.840; -498.120; -425.784
643.972;  -52.965;  -16.119; -133.785
644.244; -122.465; -474.119; -559.785
644.516;  -70.415; -250.119; -114.786
644.788;   29.061;  662.881;  548.214
645.060;  -37.739;  -12.119; -124.786
645.332; -117.314; -525.118; -535.787
645.603;    9.586;  479.882;  342.213
645.875; -102.488; -334.118; -369.787
646.147;  163.912; 1487.882; 1242.212
646.418; -173.763; -931.117; -918.788
646.690; -137.788; -714.117; -715.789
646.962; -105.762; -413.117; -451.789
647.233;  -25.337;   15.883;   11.211
647.505; -120.312; -595.117; -475.790
647.776;    5.713;  328.884;  229.210
648.048;  -90.961; -248.116; -418.790
648.320; -141.361; -752.116; -679.791
648.591; -179.411;-1055.116; -958.791
648.862;  -88.236; -505.116; -577.792
649.134;  -21.485;  115.885;  198.208
649.405; -117.410; -661.115; -618.792
649.677; -121.410; -475.115; -598.793
649.948;  -75.060; -181.115; -296.793
650.219;  -40.309;  -37.115; -147.793
650.491;  -96.909; -431.114; -520.794
650.762; -146.534; -705.114; -731.794
651.033; -102.809; -437.114; -424.795
651.304; -166.008; -743.114; -728.795
651.576; -128.708; -680.114; -645.795
651.847;  -62.658; -250.113; -140.796
652.118;  -48.358;  -32.113; -189.796
652.389; -130.557; -639.113; -722.796
652.660;  -51.882; -147.113;  -89.797
652.931; -170.232; -897.112; -871.797
653.202; -101.557; -382.112; -541.798
653.473; -124.681; -633.112; -533.798
653.744; -118.056; -595.112; -590.798
654.015; -110.181; -356.112; -303.799
654.286; -117.631; -642.111; -663.799
654.557; -122.580; -586.111; -521.799
654.828; -186.605;-1114.111;-1088.800
655.099;  -98.730; -404.111; -291.800
655.370;  -99.730; -427.111; -543.801
655.641; -136.030; -656.110; -714.801
655.911; -125.454; -618.110; -638.801
656.182;    8.346;  437.890;  387.198
656.453;   51.371;  830.890;  746.198
656.724; -105.679; -466.110; -426.802
656.994; -114.028; -553.109; -568.803
657.265; -159.603; -862.109; -873.803
657.536;  -97.053; -500.109; -377.804
657.806; -131.653; -561.109; -593.804
658.077; -153.427; -866.109; -950.804
658.347; -117.302; -523.108; -598.805
658.618; -128.252; -646.108; -694.805
658.888;  -51.677;  -41.108;  112.195
659.159;  -91.876; -432.108; -548.806
659.429;  -86.501; -292.108; -349.806
659.700;  -94.051; -435.107; -390.807
659.970; -101.276; -370.107; -359.807
660.241; -171.775; -754.107; -921.807
660.511;  -60.275; -147.107; -174.808
660.781; -140.550; -793.106; -748.808
661.052;  -82.200; -222.106; -381.808
661.322;  -44.624;   21.894;   -9.809
661.592;   -9.474;  257.894;  148.191
661.862;  -93.199; -369.106; -382.810
662.133; -131.124; -551.105; -502.810
662.403; -143.223; -770.105; -676.810
662.673;  -72.923; -256.105; -213.811
662.943; -125.048; -612.105; -551.811
663.213;  -69.073;  -85.105;  -81.811
663.483; -112.097; -593.104; -568.812
663.753;  -61.422; -194.104; -152.812
664.023;  -20.097;   68.896;  -32.813
664.293;  -82.847; -319.104; -126.813
664.563; -134.171; -694.104; -648.813
664.833; -146.196; -743.103; -608.814
665.103; -140.896; -730.103; -793.814
665.373; -154.246; -766.103; -806.814
665.643; -169.395; -863.103; -918.815
665.913; -132.195; -534.103; -714.815
666.182; -149.995; -685.102; -719.816
666.452;  -64.670;  -22.102;  -89.816
666.722; -145.895; -724.102; -784.816
666.992; -171.169; -948.102; -921.817
667.261; -155.419; -824.102; -808.817
667.531;  -38.169;  134.899;   45.183
667.801; -100.569; -440.101; -412.818
668.070;   50.957;  714.899;  697.182
668.340; -154.768; -883.101; -840.819
668.609;   28.532;  588.900;  301.181
668.879; -121.593; -490.100; -558.819
669.149; -122.292; -539.100; -516.820
669.418; -133.242; -698.100; -726.820
669.688; -124.417; -482.100; -666.820
669.957; -106.792; -423.099; -546.821
670.226;  -96.191; -268.099; -331.821
670.496; -114.816; -431.099; -635.822
670.765;  -99.341; -418.099; -501.822
671.034; -159.566; -872.099; -828.822
671.304;  -49.215;   55.902; -111.823
671.573; -183.465;-1085.098; -957.823
671.842;  -91.740; -380.098; -294.823
672.112; -128.165; -692.098; -586.824
672.381;  -77.764; -239.098; -214.824
672.650; -174.614;-1005.097;-1021.825
672.919; -137.514; -631.097; -507.825
673.188; -116.514; -681.097; -878.825
673.457; -203.963;-1101.097;-1143.826
673.726; -121.513; -579.096; -646.826
673.995; -111.063; -533.096; -479.826
674.265;  -80.263; -263.096; -333.827
674.534;  -66.987; -183.096; -235.827
674.802;  -97.262; -618.096; -703.828
675.071; -154.212; -886.095; -801.828
675.340; -106.437; -464.095; -339.828
675.609;  -31.611;  103.905;   82.171
675.878; -155.411; -949.095; -893.829
676.147;  -51.386;  -26.095;   -8.829
676.416;  -78.461; -210.094; -294.830
676.685;  110.865; 1000.906; -622.830
676.953; -114.235; -603.094; -452.831
677.222;  -86.885; -193.094; -273.831
677.491;  -56.035;  -24.094; -127.831
677.759;  -52.910;   11.907;  172.168
678.028;  -71.259; -279.093; -222.832
678.297;  -51.134;   71.907;  197.168
678.565; -160.534; -898.093; -944.833
678.834;  -82.984; -311.093; -268.833
679.102;  -97.508; -411.092; -391.834
679.371; -168.683; -898.092; -727.834
679.639; -150.758; -797.092; -786.834
679.908; -147.883; -794.092; -724.835
680.176; -167.857; -895.091; -941.835
680.445;  -98.957; -346.091; -352.835
680.713;  -33.957;  -58.091;  -23.836
680.982; -134.982; -523.091; -525.836
681.250; -120.056; -578.091; -507.837
681.518; -118.281; -534.090; -751.837
681.787;  -72.006; -204.090; -167.837
682.055; -108.081; -490.090; -422.838
682.323; -172.405; -993.090; -992.838
682.591;  -74.805; -216.090; -538.838
682.859;  -51.505;    9.911;  -35.839
683.128;  -13.805;  232.911;  497.161
683.396; -195.654;-1102.089;-1122.840
683.664;  -76.854; -241.089;   21.160
683.932;  -30.679;  144.911;  -76.840
684.200; -117.429; -576.088; -320.841
684.468;  -54.528;  -73.088; -124.841
684.736;  -83.103; -214.088; -175.841
685.004; -174.428;-1024.088; -982.842
685.272; -150.728; -880.088; -774.842
685.540; -118.727; -499.087; -557.843
685.808; -147.702; -651.087; -682.843
686.076; -169.427; -894.087; -969.843
686.343; -144.427; -601.087; -815.844
686.611;  -52.376; -195.087; -224.844
686.879; -121.651; -530.086; -553.844
687.147;  -99.951; -483.086; -480.845
687.414;  -69.901;  -12.086; -169.845
687.682; -141.625; -658.086; -757.846
687.950;   -7.450;  259.915;  263.154
688.217; -150.025; -792.085; -760.846
688.485; -131.175; -632.085; -636.847
688.753;  -64.925;  -11.085; -102.847
689.020; -168.724; -820.085; -851.847
689.288; -152.799; -853.084; -787.848
689.555;  -63.374; -195.084; -148.848
689.823;  -76.674; -241.084; -345.849
690.090; -120.198; -546.084; -651.849
690.358; -174.823; -877.084; -897.849
690.625;  -29.598;  120.917;   45.150
690.892; -106.648; -403.083; -369.850
691.160;  -44.672;   72.917;  -35.850
691.427;  -23.072;  141.917;  130.149
691.694; -182.347; -855.083; -929.851
691.962; -191.347;-1177.082;-1060.852
692.229;  -53.921;  127.918;   56.148
692.496;  -36.471;  130.918;  -49.852
692.763;  -81.046; -164.082; -201.853
693.031; -124.071; -739.082; -716.853
693.298; -122.145; -509.081; -368.853
693.565;  -66.870; -155.081; -163.854
693.832;  -44.020;   -5.081;   -9.854
694.099; -132.420; -643.081; -642.855
694.366; -159.019; -882.081; -896.855
694.633; -174.119; -920.080; -633.855
694.900;  611.081; 4367.920; -114.856
695.167;  -52.519; -214.080; -380.856
695.434; -140.718; -646.080; -623.856
695.701;   -6.793;  121.921;  -61.857
695.968; -114.868; -365.079; -361.857
696.234; -131.543; -415.079; -646.858
696.501; -129.492; -776.079; -614.858
696.768; -126.492; -554.079; -617.858
697.035; -148.817; -632.078; -667.859
697.302; -122.267; -448.078; -552.859
697.568; -113.766; -458.078; -497.859
697.835; -135.766; -683.078; -624.860
698.102; -111.066; -498.078; -407.860
698.368;    6.834;  384.923;  396.139
698.635; -109.565;  -47.077; -424.861
698.901;  -78.740; -240.077; -348.861
699.168;  -97.590; -534.077; -456.862
699.435;  -49.465;  -72.077;  -13.862
699.701; -173.065; -868.076; -764.862
699.968;  -95.514;  144.924; -441.863
700.234; -163.964; -783.076; -822.863
700.500; -114.539; -448.076; -539.864
700.767;  -43.764;   -1.075;   26.136
701.033; -180.088;-1015.075; -963.864
701.299; -104.763; -450.075; -483.865
701.566;   64.087;  950.925;  763.135
701.832;  -41.863;  -31.075;  -76.865
702.098; -174.462;-1054.074;-1034.866
702.365; -190.212;-1098.074;-1030.866
702.631; -194.612;-1038.074;-1063.867
702.897; -146.887; -765.074; -676.867
703.163;    3.589;  348.926;  254.133
703.429; -103.636; -256.073; -273.868
703.695; -122.936; -796.073; -792.868
703.961;  -70.711; -214.073; -210.868
704.227; -120.385; -630.073; -725.869
704.493;   34.240;  613.927;  510.131
704.759; -126.160; -565.072; -540.870
705.025;  -67.835; -203.072; -194.870
705.291; -116.584; -666.072; -562.870
705.557;   59.516;  719.928;   34.129
705.823; -144.359; -742.072; -694.871
706.089;  -85.959; -307.071; -326.871
706.355;  -78.558; -315.071; -244.872
706.620; -168.658; -776.071; -729.872
706.886;  -93.908; -309.071; -362.873
707.152; -166.833; -818.070; -973.873
707.418; -204.382;-1153.070;-1186.873
707.683; -115.282; -550.070; -530.874
707.949; -128.732; -547.070; -578.874
708.215;  -72.557; -129.070; -207.874
708.480; -107.481; -520.069; -420.875
708.746;  -37.381;   68.931;   28.125
709.011; -116.331; -578.069; -612.876
709.277; -136.931; -538.069; -543.876
709.542;  -95.280; -428.069; -387.876
709.808;  -49.755;  -59.068;   89.123
710.073; -136.280; -577.068; -695.877
710.339;  -91.530; -242.068; -228.877
710.604; -159.930; -780.068; -845.878
710.869;  -92.104; -277.068; -366.878
711.135; -136.054; -715.067; -628.879
711.400; -125.579; -507.067; -608.879
711.665; -100.204; -404.067; -479.879
711.931; -142.278; -661.067; -677.880
712.196; -168.053; -876.067; -954.880
712.461; -110.703; -402.066; -490.880
712.726; -155.778; -727.066; -771.881
712.991; -148.577; -647.066; -664.881
713.256; -100.002; -350.066; -332.882
713.521; -112.127; -417.065; -381.882
713.787; -117.227; -454.065; -472.882
714.052;  -93.576; -214.065; -400.883
714.317; -189.526;-1045.065; -981.883
714.581;  -90.451; -374.065; -268.883
714.846; -177.451; -822.064; -888.884
715.111;  -13.450;  261.936;  257.116
715.376;  -85.075;  -86.064; -223.885
715.641;  -94.925; -365.064; -367.885
715.906; -115.475;   15.936; -551.885
716.171;   -8.299;  221.937;  209.114
716.436;  -48.099;  -78.063; -104.886
716.700; -156.424; -818.063; -692.886
716.965; -157.949; -794.063; -807.887
717.230; -112.098; -339.063; -392.887
717.494;  -57.723;  -40.062; -134.888
717.759; -139.223; -784.062; -640.888
718.024;   -8.648;  269.938;  250.112
718.288;   34.603;  685.938;  395.111
718.553; -176.222; -803.062; -977.889
718.817; -178.122; -883.061; -899.889
719.082;  -51.722; -115.061; -125.890
719.346; -174.146;-1000.061; -947.890
719.611;  -74.371; -300.061; -255.891
719.875; -132.071; -568.060; -537.891
720.140; -103.771; -453.060; -603.891
720.404;  -77.720; -136.060; -249.892
720.668;  -92.345; -475.060; -411.892
720.933;  -36.270;  146.940;  137.108
721.197; -146.645; -667.059; -600.893
721.461; -169.720; -851.059; -826.893
721.725;  -40.144;  -21.059; -250.894
721.990;  -87.269; -284.059; -204.894
722.254;  -56.144;  -26.059; -108.894
722.518; -101.944; -286.058; -442.895
722.782; -115.118; -743.058; -594.895
723.046;   28.857;  614.942;  570.105
723.310;    2.982;  374.942;  210.104
723.574; -139.168; -654.058; -614.896
723.838; -128.767; -576.057; -642.897
724.102;  -81.617; -226.057; -239.897
724.366; -172.117;-1032.057; -978.897
724.630; -143.167; -749.057; -571.898
724.894; -124.741; -722.057; -514.898
725.158;  -62.566;   38.944; -295.898
725.422; -108.766; -394.056; -327.899
725.685; -125.191; -441.056; -349.899
725.949; -140.540; -566.056; -519.900
726.213; -161.990; -732.056; -811.900
726.477; -185.090;-1020.055; -933.900
726.740;  -90.140; -274.055; -104.901
727.004; -113.689; -384.055; -510.901
727.268; -112.414; -442.055; -400.901
727.531; -176.789; -961.055; -775.902
727.795; -144.114; -713.054; -673.902
728.059; -130.438; -552.054; -557.903
728.322; -166.888; -841.054; -669.903
728.586; -123.313; -692.054; -701.903
728.849; -155.938; -695.053; -756.904
729.112; -157.837; -812.053; -912.904
729.376; -164.187; -959.053; -905.904
729.639; -107.787; -536.053; -536.905
729.903; -154.237; -733.053; -699.905
730.166;  -99.711; -437.052; -399.906
730.429;  -67.836; -317.052; -468.906
730.693; -121.236; -355.052; -894.906
730.956;   58.914;  810.948;  651.093
731.219;  -65.210; -310.052; -103.907
731.482; -177.485;-1003.051; -894.907
731.745; -176.035; -794.051; -935.908
732.009;  -51.960;  -30.051;   50.092
732.272; -144.960; -904.051; -771.909
732.535;  -98.334; -300.051; -310.909
732.798; -199.709;-1083.050;-1166.909
733.061; -128.759; -430.050; -456.910
733.324;  -54.759;   31.950; -180.910
733.587;    6.442;  290.950;  365.090
733.850; -141.933; -973.049;-1050.911
734.113;  -44.483;   33.951;   32.089
734.376; -111.358; -328.049; -447.912
734.639;   95.868; 1188.951; 1011.088
734.901;  -74.007; -180.049; -402.912
735.164; -170.707; -883.048; -837.913
735.427;  -82.207; -166.048; -355.913
735.690;  -89.381; -205.048; -234.913
735.952; -195.631; -923.048; -925.914
736.215; -205.031;-1113.048;-1009.914
736.478; -164.456; -771.047; -774.915
736.740;  -49.055;   33.953;  129.085
737.003; -141.930; -658.047; -672.915
737.266;   44.720;  -94.047;   46.084
737.528; -136.355; -682.047; -660.916
737.791; -107.429; -316.046; -327.916
738.053;   -4.729;  465.954;  649.083
738.316;  -85.729; -162.046; -136.917
738.578; -157.504; -770.046; -736.918
738.841; -116.978; -382.046; -446.918
739.103; -160.228; -875.045; -777.918
739.365;  -61.478;   79.955;  -69.919
739.628; -166.428; -884.045; -805.919
739.890; -139.852; -758.045; -710.919
740.152; -142.402; -692.044; -754.920
740.414; -112.027; -408.044; -359.920
740.677; -128.277; -785.044; -634.921
740.939; -139.726; -587.044; -487.921
741.201; -113.326; -432.044; -572.921
741.463; -133.201; -689.043; -745.922
741.725;  -72.126;  -21.043; -199.922
741.987;  -21.350;  220.957;  116.078
742.249; -155.725; -751.043; -859.923
742.511; -155.200; -703.043; -794.923
742.773; -121.300; -546.042; -546.924
743.035;   54.950;  796.958;  533.076
743.297; -184.999; -963.042;-1013.924
743.559;  -73.324; -278.042; -262.925
743.821; -154.649; -735.042; -744.925
744.083;  -71.799;  -44.041; -149.925
744.345; -175.123; -869.041; -892.926
744.607;  -50.373;   75.959;  122.074
744.868; -119.698; -490.041; -554.927
745.130; -198.898; -994.041;-1008.927
745.392;  -38.997;   -1.040;  -44.927
745.653; -106.897; -411.040; -378.928
745.915;   62.478;  896.960;  631.072
746.177;  -75.572;   35.960;  -43.928
746.438; -123.371; -428.040; -543.929
746.700; -178.346; -947.039; -988.929
746.961; -152.246; -659.039; -740.930
747.223;  -69.996; -190.039;  -74.930
747.484; -115.245; -391.039; -471.930
747.746;  -79.395;  -23.038; -106.931
748.007; -158.420; -647.038; -689.931
748.269; -105.595; -468.038; -440.931
748.530; -149.294; -852.038; -638.932
748.791; -105.894; -354.038; -420.932
749.053;  -10.244;  286.963;  163.067
749.314;  -84.544; -236.037; -169.933
749.575; -162.593; -945.037; -905.933
749.836;  -66.068; -217.037;   86.066
750.098;  -53.593;  -60.037;  -21.934
750.359;    3.457;  414.964;  555.066
750.620;  -64.192; -121.036; -220.935
750.881; -144.292; -585.036; -513.935
751.142; -172.117; -950.036; -938.936
751.403; -156.367; -789.036; -705.936
751.664; -182.166;-1034.035; -999.936
751.925;  -82.941; -175.035; -262.937
752.186;  -86.416; -298.035; -278.937
752.447; -127.041; -590.035; -445.937
752.708; -133.765; -532.035; -648.938
752.969; -146.240; -566.034; -576.938
753.230; -152.690; -777.034; -672.939
753.491; -142.015; -650.034; -631.939
753.751;  -39.765;  109.966;   19.061
754.012;  -26.414;  258.967;  181.060
754.273;  -64.139; -174.033;  -71.940
754.534; -128.639; -487.033; -580.940
754.794; -171.039; -926.033; -911.941
755.055;   70.387; 1051.967;  881.059
755.316; -144.588; -700.032; -566.942
755.576; -115.688; -606.032; -576.942
755.837; -126.488; -527.032; -695.942
756.097; -129.062; -530.032; -564.943
756.358; -147.762; -725.032; -770.943
756.618; -137.912; -705.031; -641.943
756.879;  -97.412; -254.031; -349.944
757.139; -212.386;-1098.031;-1116.944
757.400; -135.511; -538.031; -553.945
757.660; -104.836; -365.031; -401.945
757.920;  -91.886; -266.030; -228.945
758.181;  -91.735; -468.030; -351.946
758.441; -170.960; -870.030; -809.946
758.701;  -97.535; -308.030; -215.946
758.961;  -76.085; -220.030; -278.947
759.222; -125.859; -574.029; -502.947
759.482; -157.709; -683.029; -723.948
759.742; -164.284; -706.029; -547.948
760.002;  -51.059;  -83.029; -143.948
760.262;  -61.433;   50.972;  182.051
760.522; -117.408; -498.028; -574.949
760.782; -151.133; -738.028; -612.949
761.042; -137.883; -618.028; -573.950
761.302;  -46.907;   55.972;  -18.950
761.562;  -68.957; -164.027; -154.951
761.822; -131.632; -710.027; -551.951
762.082; -205.157;-1104.027;-1093.951
762.342; -105.581; -328.027; -403.952
762.601; -123.131; -567.027; -506.952
762.861;  -96.481; -281.026; -207.952
763.121; -103.081; -406.026; -411.953
763.381; -132.580; -499.026; -485.953
763.640;  -60.730; -139.026; -307.954
763.900; -109.830; -242.026; -203.954
764.160; -105.255; -458.025; -491.954
764.419; -149.655; -726.025; -782.955
764.679; -159.329; -795.025; -726.955
764.939;  -78.804; -124.025; -210.955
765.198; -140.704; -608.025; -563.956
765.458; -143.554; -710.024; -612.956
765.717; -128.828; -454.024; -590.957
765.976; -111.628; -428.024; -411.957
766.236; -133.453; -475.024; -610.957
766.495;  -35.428;  260.977;   73.042
766.755; -185.677;-1090.023; -987.958
767.014; -141.852; -594.023; -665.958
767.273;  -97.052; -373.023; -397.959
767.533;  -83.152; -228.023; -307.959
767.792;  -75.926; -151.022; -188.960
768.051; -100.426; -228.022; -276.960
768.310; -132.526; -546.022; -650.960
768.569;  -47.626; -161.022;    4.039
768.828; -107.675; -285.022; -363.961
769.088; -198.150;-1050.021; -942.961
769.347; -136.875; -755.021; -599.962
769.606; -182.400; -876.021; -857.962
769.865; -206.649;-1016.021;-1033.963
770.124;  -87.874; -411.021; -336.963
770.383; -172.524; -778.020; -910.963
770.641; -128.499; -398.020; -400.964
770.900; -177.773; -953.020; -846.964
771.159; -180.623; -851.020; -951.964
771.418; -172.848; -917.020; -779.965
771.677;  -78.723; -224.019; -293.965
771.936; -160.022; -794.019; -865.966
772.194; -164.697; -465.019; -437.966
772.453;  -86.222; -213.019; -391.966
772.712;   -5.647;  416.982;  329.033
772.970;  -45.196;   32.982;   63.033
773.229;  -54.821;  -22.018;  102.033
773.488; -169.496; -814.018; -770.968
773.746;   -7.371;  296.982;  335.032
774.005;  -36.395;  190.983;  -22.969
774.263;  -33.995;  243.983;  177.031
774.522; -131.620; -422.017; -548.969
774.780; -113.020; -484.017; -417.970
775.039; -123.370; -551.017; -531.970
775.297;  -64.569; -135.016; -351.970
775.555; -134.769; -489.016; -612.971
775.814; -161.394; -618.016; -570.971
776.072; -147.944; -749.016; -740.971
776.330; -133.793; -630.016; -520.972
776.589; -149.068; -703.015; -721.972
776.847; -151.543; -645.015; -624.973
777.105; -195.368;-1016.015;-1032.973
777.363; -109.192; -459.015; -454.973
777.621; -171.767; -660.015; -717.974
777.879;  -58.892;  -42.014;   32.026
778.138; -125.967; -554.014; -717.974
778.396; -141.616; -585.014; -526.975
778.654; -195.016;-1015.014; -970.975
778.912;  -98.641; -269.014; -371.976
779.170; -157.666; -880.013; -803.976
779.427; -188.365; -922.013; -897.976
779.685; -178.140; -880.013; -832.977
779.943; -149.940; -654.013; -593.977
780.201; -187.265; -964.012; -883.978
780.459; -152.014; -651.012; -610.978
780.717; -105.739; -440.012; -390.978
780.974; -119.289; -449.012; -490.979
781.232; -103.914; -358.012; -338.979
781.490; -143.463; -551.011; -472.979
781.747; -127.138; -555.011; -476.980
782.005;   -3.713;  462.989;  254.020
782.263; -203.788; -542.011;-1004.981
782.520; -111.037; -326.011; -501.981
782.778; -187.637;-1013.010;-1051.981
783.035; -189.912; -962.010; -938.982
783.293;  -75.087; -248.010; -206.982
783.550;  -82.811; -134.010; -198.982
783.808; -158.186; -764.010; -776.983
784.065; -185.436; -745.009; -874.983
784.322;  -58.936;   25.991;  -86.984
784.580; -170.460; -915.009; -771.984
784.837;  -98.210; -392.009; -466.984
785.094; -175.935; -783.009; -762.985
785.352; -111.910; -304.008; -404.985
785.609; -179.760; -934.008; -839.985
785.866; -110.509; -345.008; -401.986
786.123; -158.609; -639.008; -583.986
786.380; -153.159; -665.008; -604.987
786.637; -101.859; -225.007; -380.987
786.895; -125.058; -456.007; -543.987
787.152;  -87.258; -135.007; -267.988
787.409;  -66.658; -123.007; -225.988
787.666; -113.283; -299.006; -378.988
787.923; -129.382; -616.006; -695.989
788.179; -141.632; -551.006; -584.989
788.436; -134.982; -585.006; -585.990
788.693;  -67.007;  -92.006;  -87.990
788.950;  -59.756; -125.005; -112.990
789.207; -122.606; -381.005; -372.991
789.464;  -83.681; -161.005; -301.991
789.720;  -41.031;  150.995;  110.009
789.977; -206.380;-1003.005; -671.992
790.234;  -64.955;   44.996;  -66.992
790.490; -184.830; -884.004;-1031.993
790.747;  -63.280;  -85.004;   22.007
791.004; -112.854; -426.004; -348.993
791.260; -127.579; -430.004; -560.994
791.517; -156.079; -843.003; -788.994
791.773; -117.879; -379.003; -342.994
792.030; -150.403; -596.003; -660.995
792.286; -149.928; -686.003; -636.995
792.543;  -69.553;  -74.002; -159.995
792.799; -118.428; -584.002; -382.996
793.055; -223.502;-1179.002;-1210.996
793.312; -187.852; -827.002; -816.997
793.568; -140.627; -746.002; -599.997
793.824;  -90.302; -226.001; -284.997
794.081; -114.251; -447.001; -508.998
794.337; -139.501; -664.001; -561.998
794.593;  -86.226; -319.001; -271.999
794.849; -158.601; -746.001; -772.999
795.105;  -90.525; -270.000; -261.999
795.361; -118.100; -490.000; -457.000
795.617; -169.025; -875.000; -945.000
795.873; -117.150; -360.000; -407.000
796.129; -104.950; -368.000; -306.000
796.385;  -85.725; -124.000; -156.000
796.641;    3.600;  412.000;  550.000
796.897; -143.625; -666.000; -635.000
797.153;    1.500;  453.000;  357.000
797.409; -180.250; -785.000; -868.000
797.665; -150.825; -625.000; -732.000
797.921; -172.425; -775.000; -762.000
798.176; -149.925; -744.000; -747.000
798.432; -172.250; -824.000; -596.000
798.688; -204.775;-1174.000;-1078.000
798.943;  -81.975; -165.000; -147.000
799.199; -187.750;-1005.000; -959.000
799.455;   -4.625;  369.000;  316.000
799.710; -158.650; -813.000; -380.000
799.966; -113.450; -162.000; -160.000
800.221; -141.275; -638.000; -721.000
800.477; -147.875; -743.000; -710.000
800.732; -180.525; -773.000; -800.000
800.988;  -34.750;  205.000;  -19.000
801.243;  -97.025; -454.000; -344.000
801.498; -158.950; -814.000; -739.000
801.754;  -71.800; -289.000; -163.000
802.009;  -80.375; -257.000; -335.000
802.264; -190.600; -967.000;-1033.000
802.520;  -76.950;  222.000;   -3.000
802.775; -136.875; -524.000; -359.000
803.030;   -9.175;  395.000;  356.000
803.285; -178.150; -840.000; -903.000
803.540; -155.800; -686.000; -699.000
803.795; -145.825; -648.000; -583.000
804.051;  -93.850; -279.000; -346.000
804.306;  -38.900;  168.000;  128.000
804.561;  -14.825;  451.000;  362.000
804.816;   48.250;  714.000;  861.000
805.071;  -86.025; -185.000; -280.000
805.325; -103.025; -257.000; -427.000
805.580; -191.975; -841.000; -877.000
805.835;  -78.750; -204.000; -297.000
806.090; -172.300; -760.000; -676.000
806.345;  -99.475; -344.000; -264.000
806.600; -137.050; -549.000; -632.000
806.854; -118.650; -408.000; -538.000
807.109; -127.700; -493.000; -577.000
807.364; -101.850; -407.000; -328.000
807.618; -127.975; -415.000; -381.000
807.873; -144.500; -470.000; -494.000
808.128;  -91.175; -257.000; -518.000
808.382;  -95.950; -224.000; -332.000
808.637; -118.100; -440.000; -511.000
808.891;  -79.650; -257.000; -180.000
809.146; -198.200; -902.000; -794.000
809.400; -177.000; -848.000; -923.000
809.654; -163.025; -779.000; -551.000
809.909; -182.650; -841.000; -927.000
810.163; -161.175; -813.000; -651.000
810.418; -182.950; -940.000; -861.000
810.672; -155.500; -685.000; -690.000
810.926; -192.500; -993.000; -973.000
811.180; -129.000; -439.000; -372.000
811.434;  -29.525;  240.000;  135.000
811.689; -124.250; -231.000; -365.000
811.943; -197.350; -936.000; -953.000
812.197; -168.825; -893.000; -671.000
812.451; -117.200; -379.000; -514.000
812.705; -194.550; -809.000; -619.000
812.959; -103.250; -263.000; -388.000
813.213;  -97.600; -283.000; -209.000
813.467;    0.800;  470.000;  253.000
813.721; -180.650; -764.000; -792.000
813.975; -171.175; -826.000; -877.000
814.229;  -25.225;  430.000;  353.000
814.482; -137.975; -517.000; -566.000
814.736; -180.175; -766.000; -744.000
814.990; -176.700; -779.000; -872.000
815.244; -102.600; -228.000; -285.000
815.497; -154.700; -636.000; -601.000
815.751;  -80.550; -141.000;   82.000
816.005; -125.575; -470.000; -586.000
816.258; -117.275; -510.000; -363.000
816.512; -153.375; -693.000; -610.000
816.766;  -58.725;  121.000;  157.000
817.019;  -27.525;  148.000;  149.000
817.273; -202.875;-1000.000; -802.000
817.526;  -77.500; -206.000; -173.000
817.779; -208.875;-1049.000; -960.000
818.033; -165.650; -693.000; -807.000
818.286; -162.825; -725.000; -792.000
818.540; -125.325; -403.000; -403.000
818.793; -124.225; -402.000; -489.000
819.046; -145.700; -582.000; -520.000
819.299;  -92.175; -157.000; -166.000
819.553; -149.675; -552.000; -592.000
819.806; -206.450;-1016.000; -838.000
820.059; -101.725; -334.000; -354.000
820.312;  -49.125;  152.000;  185.000
820.565;  -45.575;  110.000;  -27.000
820.818;  -90.650;  -59.000; -173.000
821.071; -192.525;-1041.000; -957.000
821.324; -144.225; -536.000; -540.000
821.577; -135.175; -457.000; -483.000
821.830; -123.600; -270.000; -172.000
822.083; -166.325; -733.000; -288.000
822.336;  -96.875; -261.000; -167.000
822.589; -166.850; -805.000; -688.000
822.842; -188.875; -875.000; -770.000
823.094; -215.925;-1076.000;-1114.000
823.347; -176.875; -925.000; -729.000
823.600;  -24.925;  402.000;  187.000
823.853; -100.400; -311.000; -267.000
824.105;  -97.700; -331.000; -575.000
824.358; -182.650; -617.000; -716.000
824.611;  -40.425;  234.000;   40.000
824.863; -154.875; -612.000; -591.000
825.116;  -48.300;  -33.000;   27.000
825.368; -132.425; -366.000; -372.000
825.621;  -81.200; -186.000; -240.000
825.873; -171.875; -704.000; -737.000
826.126; -152.975; -669.000; -641.000
826.378; -130.250; -389.000; -505.000
826.630; -186.600; -890.000; -898.000
826.883; -175.525; -754.000; -693.000
827.135; -101.775; -279.000; -270.000
827.387; -188.050; -893.000; -839.000
827.639;  -77.200;  -86.000;   32.000
827.892; -160.725; -742.000; -582.000
828.144; -174.250; -848.000; -804.000
828.396;  -60.275;  104.000;  -80.000
828.648; -122.450; -440.000; -333.000
828.900; -168.400; -702.000; -795.000
829.152; -165.600; -684.000; -683.000
829.404;  -96.950; -215.000; -267.000
829.656;  -72.725;  321.000;  214.000
829.908;  -43.950;  393.000;  229.000
830.160; -199.175;-1064.000;-1047.000
830.412; -138.200; -481.000; -430.000
830.664; -153.900; -557.000; -665.000
830.916; -115.425; -268.000; -206.000
831.167; -204.675;-1073.000; -951.000
831.419; -155.150; -623.000; -566.000
831.671; -169.300; -764.000; -809.000
831.923; -109.625; -311.000; -447.000
832.174; -111.625; -273.000; -331.000
832.426; -152.275; -493.000; -582.000
832.678; -206.025;-1043.000;-1091.000
832.929; -190.475; -947.000; -935.000
833.181; -153.375; -575.000; -677.000
833.432;  -94.575;  -59.000; -186.000
833.684;  -45.000;  112.000;  -27.000
833.935; -150.700; -610.000; -566.000
834.187; -152.825; -829.000; -823.000
834.438;  -69.225;  -58.000;  -25.000
834.689;  -92.825; -255.000; -123.000
834.941;  -99.325; -343.000; -244.000
835.192; -150.575; -590.000; -533.000
835.443; -152.275; -419.000; -506.000
835.695;  -46.025;  138.000;  -16.000
835.946; -132.700; -608.000; -378.000
836.197; -153.650; -599.000; -622.000
836.448; -151.125; -528.000; -395.000
836.699; -112.025; -253.000; -341.000
836.950;  -64.825;   72.000;    7.000
837.201; -207.675;-1003.000; -987.000
837.452; -111.225; -356.000; -170.000
837.703; -185.175; -791.000; -737.000
837.954; -110.850; -205.000; -365.000
838.205; -197.450;-1029.000;-1008.000
838.456; -108.875; -196.000; -282.000
838.707; -122.750; -423.000; -519.000
838.958; -156.425; -634.000; -647.000
839.209;  -60.925;   18.000;   40.000
839.460; -107.200; -439.000; -201.000
839.710; -105.750; -135.000; -297.000
839.961;   15.450;  730.000;  612.000
840.212; -129.175; -382.000; -497.000
840.462; -125.925; -328.000; -277.000
840.713; -126.150; -571.000; -536.000
840.964;  -92.075;  -62.000; -143.000
841.214; -140.100; -384.000; -624.000
841.465;  -93.200; -214.000; -141.000
841.715; -106.575; -417.000; -380.000
841.966; -170.125; -746.000; -685.000
842.216; -124.725; -330.000; -431.000
842.466; -108.300; -169.000; -313.000
842.717; -206.100; -964.000; -952.000
842.967; -155.625; -635.000; -641.000
843.217;  -79.550;   20.000;   28.000
843.468;  -84.850; -104.000; -132.000
843.718; -162.225; -718.000; -726.000
843.968; -192.725; -837.000; -765.000
844.218; -107.000; -315.000; -262.000
844.469; -135.550; -577.000; -561.000
844.719; -139.900; -537.000; -682.000
844.969; -141.975; -550.000; -580.000
845.219; -181.125; -814.000; -862.000
845.469; -117.800; -392.000; -342.000
845.719; -174.525; -792.000; -884.000
845.969;  -47.700;  119.000;  174.000
846.219; -160.700; -738.000; -720.000
846.469;  -21.725;  464.000;  432.000
846.718;  -81.525; -115.000;   31.000
846.968; -190.925; -827.000; -827.000
847.218;  -85.350; -224.000; -371.000
847.468;  -45.750; -586.000; -555.000
847.718; -184.925; -827.000; -798.000
847.967; -192.400; -826.000; -915.000
848.217; -118.625; -449.000; -569.000
848.467; -113.875; -405.000; -376.000
848.716; -163.250; -708.000; -725.000
848.966; -118.725; -372.000; -358.000
849.215; -124.550; -428.000; -419.000
849.465; -162.750; -785.000; -615.000
849.714; -223.300;-1132.000;-1150.000
849.964; -141.600; -551.000; -613.000
850.213; -110.275; -393.000; -355.000
850.463;  -38.950;  137.000;  340.000
850.712; -145.125; -542.000; -567.000
850.961; -164.825; -739.000; -678.000
851.211; -134.250; -513.000; -504.000
851.460; -164.950; -635.000; -650.000
851.709;  -74.900;  -25.000;   18.000
851.958; -173.625; -912.000; -750.000
852.208; -179.175; -859.000; -879.000
852.457;  -96.750; -181.000;  -13.000
852.706; -182.125; -791.000; -823.000
852.955; -139.950; -507.000; -528.000
853.204; -140.150; -521.000; -461.000
853.453; -140.375; -418.000; -458.000
853.702; -177.675; -660.000; -750.000
853.951; -145.125; -532.000; -520.000
854.200; -151.300; -613.000; -562.000
854.449; -170.725; -695.000; -661.000
854.698; -111.525; -340.000; -279.000
854.946;  -93.525; -181.000; -284.000
855.195; -188.525; -843.000; -868.000
855.444; -117.125; -395.000; -420.000
855.693; -141.125; -345.000; -432.000
855.941; -153.775; -387.000; -516.000
856.190; -105.525; -256.000; -382.000
856.439; -166.125; -652.000; -703.000
856.687;  -74.800;  -99.000;  -72.000
856.936; -136.750; -621.000; -323.000
857.184; -211.375;-1067.000;-1020.000
857.433; -134.000; -423.000; -512.000
857.681; -212.625; -989.000; -953.000
857.930; -112.375; -282.000; -433.000
858.178; -182.700; -856.000; -929.000
858.427; -176.400; -802.000; -781.000
858.675; -130.900; -377.000; -544.000
858.923; -143.475; -527.000; -819.000
859.172; -216.075;-1094.000;-1070.000
859.420; -120.350; -339.000; -239.000
859.668; -155.775; -624.000; -628.000
859.916;  -54.175;  109.000;  115.000
860.164; -150.400; -699.000; -603.000
860.413; -194.700; -878.000; -696.000
860.661; -164.800; -709.000; -577.000
860.909; -111.675; -339.000; -325.000
861.157; -107.200; -277.000; -444.000
861.405; -166.375; -534.000; -670.000
861.653;  -29.650;  310.000;  310.000
861.901; -139.825; -543.000; -613.000
862.149; -184.175; -801.000; -824.000
862.396; -108.650; -297.000; -187.000
862.644; -105.500; -368.000; -347.000
862.892;  -55.425;   98.000;  138.000
863.140; -120.825; -549.000; -530.000
863.388; -192.175; -815.000; -759.000
863.635; -154.550; -642.000; -601.000
863.883;  -41.300;  231.000;  190.000
864.131; -126.475; -288.000; -357.000
864.378; -161.850; -675.000; -540.000
864.626; -107.725; -347.000; -415.000
864.873; -153.275; -556.000; -505.000
865.121; -163.000; -714.000; -799.000
865.368; -107.175; -173.000;   75.000
865.616;  -88.750;  -33.000;  -40.000
865.863; -145.700; -462.000; -506.000
866.111; -193.025; -795.000; -824.000
866.358; -127.100; -426.000; -420.000
866.605;  -66.000;  -64.000; -804.000
866.853; -162.500; -621.000; -537.000
867.100; -168.675; -728.000; -775.000
867.347; -170.850; -672.000; -611.000
867.594; -162.850; -740.000; -714.000
867.841;  -60.075;   97.000;   17.000
868.089; -175.225; -746.000; -698.000
868.336; -132.725; -477.000; -420.000
868.583; -150.375; -637.000; -741.000
868.830;  -76.650; -131.000; -170.000
869.077; -182.475; -859.000; -787.000
869.324; -150.950; -502.000; -458.000
869.571; -140.850; -398.000; -430.000
869.818; -149.575; -485.000; -439.000
870.065; -129.975; -439.000; -513.000
870.311; -137.425; -456.000; -542.000
870.558; -115.700; -332.000; -311.000
870.805; -113.275; -320.000; -384.000
871.052; -123.875; -494.000; -369.000
871.298;  -96.175; -204.000; -131.000
871.545;  -77.150; -151.000; -185.000
871.792; -124.875; -173.000; -222.000
872.038;  -86.700;   43.000; -126.000
872.285; -131.900; -496.000; -387.000
872.532; -122.525; -357.000; -387.000
872.778;  -19.725;  556.000;  403.000
873.025; -103.300; -384.000; -359.000
873.271;   -9.825;  501.000;  578.000
873.517;  -85.125; -133.000; -209.000
873.764;  -94.350; -193.000;  -80.000
874.010;  -91.350; -143.000; -230.000
874.257;  -60.550;  123.000;   90.000
874.503; -136.500; -579.000; -479.000
874.749;  -91.650;   31.000;  275.000
874.995;  -73.600;  -80.000;  -20.000
875.242; -156.575; -540.000; -478.000
875.488; -133.425; -414.000; -439.000
875.734; -109.650; -106.000; -234.000
875.980; -202.075; -872.000;-1032.000
876.226;  -98.375; -157.000; -255.000
876.472;  -21.850;  343.000;  237.000
876.718;  -71.450;  184.000;  158.000
876.964;  -44.975;   56.000;   55.000
877.210; -206.425; -547.000; -677.000
877.456; -147.975; -630.000; -557.000
877.702; -203.175; -821.000; -832.000
877.948; -122.600; -377.000; -497.000
878.193;  -25.150;  361.000;  255.000
878.439; -144.750; -487.000; -472.000
878.685; -139.875; -272.000; -343.000
878.931; -154.600; -618.000; -676.000
879.176; -113.475; -201.000; -201.000
879.422; -195.175; -933.000; -820.000
879.668;  -21.700;   10.000;   79.000
879.913;  -71.750;   53.000;  137.000
880.159;  -83.175; -112.000;  -17.000
880.404;  -80.300; -152.000; -162.000
880.650;  -60.900;   91.000;  141.000
880.895; -174.075; -670.000; -710.000
881.141; -146.925; -454.000; -428.000
881.386; -156.800; -503.000; -658.000
881.631; -105.125; -311.000; -166.000
881.877;  -54.550;  112.000;  -13.000
882.122; -159.500; -684.000; -600.000
882.367; -103.900; -136.000; -186.000
882.612;  -92.650;  -80.000; -176.000
882.858; -191.675; -877.000; -823.000
883.103; -125.425; -297.000; -267.000
883.348; -163.225; -759.000; -852.000
883.593; -174.850; -677.000; -602.000
883.838;  -96.125; -311.000;  -24.000
884.083;  -43.300;  353.000;  288.000
884.328; -112.600; -564.000; -545.000
884.573; -107.050; -196.000; -143.000
884.818; -163.700; -694.000; -531.000
885.063; -125.925; -348.000; -315.000
885.308; -134.025; -475.000; -398.000
885.553;  -38.425;  245.000;  325.000
885.797; -161.150; -545.000; -615.000
886.042;  -59.625;    8.000;   58.000
886.287; -106.750; -253.000; -211.000
886.532;  -88.950;   26.000;  204.000
886.776; -118.700; -407.000; -525.000
887.021; -170.075; -621.000; -574.000
887.265; -172.225; -685.000; -689.000
887.510; -166.075; -557.000; -496.000
887.755;  -99.675; -194.000; -164.000
887.999; -164.925; -552.000; -575.000
888.244;  -67.525;  -58.000;  161.000
888.488;  -26.750;  371.000;  393.000
888.732; -147.625; -368.000; -520.000
888.977; -151.100; -622.000; -567.000
889.221; -183.750; -683.000; -659.000
889.465; -159.250; -422.000; -566.000
889.710;  -91.450;  -56.000; -299.000
889.954;   -8.650;  579.000;  467.000
890.198; -142.900; -584.000; -707.000
890.442; -177.450; -716.000; -712.000
890.687; -177.225; -800.000; -753.000
890.931; -117.500; -273.000; -210.000
891.175; -153.125; -502.000; -500.000
891.419;  -91.275; -105.000; -110.000
891.663; -101.525; -239.000; -112.000
891.907; -176.225; -801.000; -545.000
892.151; -190.875; -920.000; -815.000
892.395; -135.050; -274.000; -387.000
892.638;  -36.325;  408.000;  291.000
892.882; -195.100; -780.000; -867.000
893.126;    2.900;  758.000;  558.000
893.370; -114.175; -167.000; -168.000
893.614; -159.500; -714.000; -715.000
893.857; -123.550; -183.000; -197.000
894.101; -159.050; -527.000; -631.000
894.345;  -78.250;  300.000;  150.000
894.588;   -5.700;  569.000;  380.000
894.832;  -95.550; -178.000;  -84.000
895.075;  -94.500;   15.000;  -92.000
895.319; -150.325; -552.000; -420.000
895.563; -132.500; -413.000; -353.000
895.806; -172.075; -628.000; -741.000
896.049; -140.175; -576.000; -368.000
896.293;  -25.875;  527.000;  405.000
896.536; -137.625; -465.000; -468.000
896.779;  -90.925; -149.000;   -1.000
897.023; -187.925; -751.000; -714.000
897.266;  -60.575;  325.000;  269.000
897.509; -195.300; -900.000; -901.000
897.752;  -66.100;  149.000;  171.000
897.996; -198.650; -972.000; -864.000
898.239;  -56.850;  168.000;  102.000
898.482; -149.650; -431.000; -453.000
898.725;  -78.625;  101.000;   53.000
898.968; -176.550; -609.000; -744.000
899.211; -147.325; -513.000; -361.000
899.454; -162.225; -633.000; -539.000
899.697;  -91.675;   90.000;  -43.000
899.940; -183.650; -761.000; -757.000
900.182; -142.275; -335.000; -405.000
900.425; -115.250; -150.000; -298.000
900.668;  -24.850;  491.000;  350.000
900.911; -116.200; -292.000; -345.000
901.154;  -63.950;  141.000;   -3.000
901.396; -155.750; -407.000; -412.000
901.639; -155.900; -430.000; -496.000
901.882; -201.700; -790.000; -809.000
902.124; -102.675;  -29.000; -143.000
902.367; -126.200; -315.000; -361.000
902.609; -159.025; -476.000; -453.000
902.852; -105.675; -108.000; -260.000
903.094; -140.000; -458.000; -337.000
903.337;  -86.775;  -26.000;   53.000
903.579; -128.025; -228.000; -441.000
903.821; -175.700; -597.000; -744.000
904.064;  -72.250;   85.000;  127.000
904.306; -106.900; -126.000; -166.000
904.548; -122.150; -152.000; -366.000
904.790; -112.050; -195.000; -340.000
905.033; -165.100; -625.000; -577.000
905.275; -161.275; -513.000; -524.000
905.517;  -49.875;  468.000;  256.000
905.759; -173.075; -667.000; -761.000
906.001; -157.725; -322.000; -369.000
906.243; -123.825; -162.000; -224.000
906.485; -112.625; -265.000; -207.000
906.727; -153.150; -499.000; -542.000
906.969; -115.225;  -30.000; -135.000
907.211; -142.150; -316.000; -382.000
907.453; -117.000; -188.000; -237.000
907.695; -110.950; -158.000; -385.000
907.936;    2.000;  818.000;  706.000
908.178;  -95.750;   92.000; -135.000
908.420; -117.125; -111.000; -162.000
908.662; -183.050; -633.000; -682.000
908.903; -122.675; -208.000; -123.000
909.145;  -96.350; -240.000; -305.000
909.386;  -48.000;  315.000;  280.000
909.628;  -23.525;  363.000;  397.000
909.870;  -70.825;   29.000;  264.000
910.111; -203.750; -809.000; -949.000
910.353; -120.125; -123.000; -161.000
910.594; -174.875; -574.000; -606.000
910.835; -131.100; -265.000; -326.000
911.077; -170.025; -503.000; -604.000
911.318; -151.475; -505.000; -471.000
911.559; -195.450; -577.000; -880.000
911.801; -145.475; -284.000; -280.000
912.042;  -82.525;  -50.000; -159.000
912.283;  -43.825;  404.000;  371.000
912.524; -134.225; -396.000; -457.000
912.765; -114.125; -193.000;   79.000
913.006; -141.325; -307.000; -338.000
913.247; -145.275; -270.000; -290.000
913.488;  -96.450;  -43.000;   30.000
913.729; -154.950; -373.000; -373.000
913.970; -105.300;  -96.000; -292.000
914.211; -111.900; -160.000; -198.000
914.452; -106.325; -118.000;  -11.000
914.693;  -31.225;  510.000;  592.000
914.934;  -11.900;  510.000;  440.000
915.175; -100.300;   53.000;  -95.000
915.415;  -98.750; -137.000;   27.000
915.656;  -96.275;  -28.000;  192.000
915.897; -121.800; -252.000;  -82.000
916.137; -103.775;   74.000;   -9.000
916.378; -158.500; -573.000; -517.000
916.619; -123.525; -159.000;  -63.000
916.859;  -54.650;  303.000;  330.000
917.100;  105.625; 1655.000; 1070.000
917.340;   16.700;  930.000;  728.000
917.581;    6.750;  965.000;  789.000
917.821; -119.150; -171.000;  143.000
918.061; -113.875; -199.000;  -72.000
918.302; -103.950; -152.000; -211.000
918.542; -102.275;  -22.000;    3.000
918.782;  -37.525;  369.000;  377.000
919.023;  -46.300;  360.000;  427.000
919.263;  977.775; 8131.000;  202.000
919.503; -114.825; -137.000;  -54.000
919.743;  -43.625;  390.000;  266.000
919.983;  -93.000; -134.000;  -26.000
920.223;  -91.250;  135.000;   14.000
920.463;  -48.400;  631.000;  554.000
920.703;  -88.525;   84.000;   39.000
920.943; -108.050; -110.000;   90.000
921.183; -154.450; -414.000; -405.000
921.423;  -58.900;  307.000;  546.000
921.663; -124.475; -174.000; -257.000
921.903;  -72.150;  237.000;  173.000
922.143;  -60.325;  372.000;  389.000
922.383;  -97.950;  158.000;  115.000
922.622; -105.625; -120.000;  -15.000
922.862;    1.875;  796.000;  785.000
923.102;  -94.225;  -51.000;   33.000
923.341; -102.450;   59.000;   74.000
923.581;  -40.450;  450.000;  360.000
923.821;  -57.350;  301.000;  398.000
924.060;  -52.000;  351.000;  193.000
924.300; -121.025;  -16.000; -128.000
924.539;  -48.400;  584.000;  473.000
924.779;  -12.725;  812.000;  597.000
925.018;  -61.325;  247.000;  353.000
925.257;  -39.200;  595.000;  666.000
925.497;  -52.525;  447.000;  412.000
925.736; -109.950;  -35.000;  102.000
925.975;   -7.525;  687.000;  669.000
926.214;    3.275;  907.000;  850.000
926.454;   -6.200;  706.000;  757.000
926.693;  -62.250;  419.000;  543.000
926.932;   20.725; 1021.000;  825.000
927.171;   36.675; 1107.000; 1044.000
927.410;   26.275; 1144.000;  967.000
927.649;    2.350;  924.000;  742.000
927.888;  -34.775;  590.000;  564.000
928.127;  -27.675;  680.000;  678.000
928.366;   -8.575;  842.000;  826.000
928.605;  -16.800;  831.000;  737.000
928.844;   72.575; 1451.000; 1393.000
929.083;  -31.300;  770.000;  613.000
929.321;   66.000; 1335.000; 1359.000
929.560;   42.600; 1158.000; 1122.000
929.799;  -48.300;  574.000;  475.000
930.038;   64.950; 1025.000; 1394.000
930.276;  -71.150;  334.000;  397.000
930.515;  -19.175;  827.000;  681.000
930.753;  -33.950;  614.000;  589.000
930.992;  -35.800;  664.000;  717.000
931.230;  -13.325;  847.000;  847.000
931.469;  145.225; 2162.000;  892.000
931.707;   58.100;  840.000;  751.000
931.946;   46.950; 1278.000; 1344.000
932.184;   50.000; 1437.000; 1175.000
932.423;   31.450; 1265.000;  963.000
932.661;   47.725; 1296.000; 1428.000
932.899;  -39.950;  987.000;  821.000
933.137;  -31.200;  754.000;  564.000
933.376;   56.225; 1664.000; 1335.000
933.614;  116.675; 1759.000; 1196.000
933.852;   14.650; 1357.000; 1171.000
934.090;  100.100; 1722.000; 1747.000
934.328;   58.450; 1252.000; 1457.000
934.566;   41.100; 1431.000; 1110.000
934.804;   25.200; 1263.000; 1309.000
935.042;   86.800; 1861.000; 1850.000
935.280;  122.625; 2088.000; 2063.000
935.518;  122.000; 2113.000; 2007.000
935.756;  153.400; 2481.000; 2316.000
935.994;   58.650; 1808.000; 1751.000
936.231;  236.425; 2890.000; 2950.000
936.469;  155.800; 2367.000; 2378.000
936.707;  132.550; 2220.000; 2167.000
936.945;  226.750; 2825.000; 2882.000
937.182;  163.300; 2679.000; 2741.000
937.420;  275.975; 3602.000; 3031.000
937.657;  299.925; 3365.000; 3478.000
937.895;  283.725; 3331.000; 3488.000
938.133;  283.475; 3540.000; 3528.000
938.370;  327.250; 3896.000; 4191.000
938.607;  366.925; 4488.000; 4205.000
938.845;  539.975; 5587.000; 5549.000
939.082;  474.425; 5387.000; 5177.000
939.320;  544.175; 5799.000; 5728.000
939.557;  630.100; 6549.000; 6491.000
939.794;  709.000; 7285.000; 7097.000
940.031;  840.875; 8421.000; 8368.000
940.269;  924.700; 9552.000; 9107.000
940.506; 1069.950;10901.000;10507.000

