
Integration time [ms]: 100.000
Averaging Nr. [scans]: 40
Smoothing Nr. [pixels]: 0
Data measured with spectrometer [name]: 2101013U2
Wave   ;Sample   ;Dark     ;Reference
[nm]   ;[counts] ;[counts] ;[counts] 

394.013;   49.518; -450.257; -315.536
394.305;  243.640; -461.258; -419.536
394.596; 1163.310; -676.269; -527.514
394.887; 2744.727; -796.268; -654.518
395.178; 1034.208;  145.736;   11.476
395.470;   91.195; -210.263; -356.526
395.761;  195.592;  305.734;  394.479
396.052;  389.982; -545.284; -306.489
396.343;  380.528; -557.276; -454.503
396.634;  126.471; -200.279; -290.497
396.926;  133.974; -618.268; -565.517
397.217;  116.458;   11.725;  -17.504
397.508;   48.824; -366.273; -154.507
397.799;   55.721; -555.279; -571.497
398.090;   13.416; -973.280; -902.495
398.381;  113.155;   11.708;  -11.473
398.672;   -6.494; -585.292; -742.473
398.963;   55.503; -348.279; -373.498
399.254;  117.116;   54.709; -209.475
399.545;  -15.786;-1017.266; -883.520
399.836;   51.917; -407.277; -343.501
400.127;   62.156; -205.295; -209.468
400.418;   63.794; -423.274; -392.506
400.709;   75.327; -359.281; -333.493
401.000;   53.470; -268.291; -309.476
401.290;   98.691;  225.698;  115.545
401.581;   75.864; -166.286; -228.485
401.872;   14.602; -542.298; -486.462
402.163;   67.998; -313.296; -252.467
402.454;   93.341; -123.291; -163.475
402.744;   84.339; -844.297; -813.465
403.035;  455.921; -226.293;  -86.471
403.326;  597.534; -366.292; -384.474
403.617;  387.096;  204.701;  165.539
403.907;  258.413; -593.283; -679.490
404.198; 2421.944; -545.307; -599.446
404.489; 6385.218; -618.283; -588.491
404.779; 2131.744; -618.302; -660.456
405.070;  237.223;  -67.304; -174.451
405.360;  335.698; -259.293; -238.472
405.651;  374.956;  125.699;   98.542
405.942;  204.759;  209.714;  127.516
406.232;  297.499; -432.285; -413.487
406.523;  520.591;  641.706;  758.530
406.813;   99.137; -579.286; -644.484
407.104;  373.029;  261.708;  144.527
407.394;  208.248; -604.299; -591.462
407.685;  169.298;  336.715;  222.513
407.975;   71.841; -400.283; -382.490
408.265;  127.856; -134.289; -190.478
408.556;   78.988; -472.291; -459.475
408.846;  175.892;  474.706;  429.530
409.137;   81.690;   -1.288; -216.480
409.427;   55.199; -193.285; -271.487
409.717;   39.702; -776.273; -692.508
410.007;  152.767;    4.715; -170.486
410.298;   92.008; -360.295; -342.469
410.588;   71.746; -495.285; -510.486
410.878;   29.951; -792.287; -873.482
411.168;  129.130; -481.298; -478.463
411.459;  119.761; -295.283; -242.489
411.749;   67.362; -609.292; -507.474
412.039;   49.863; -755.289; -386.480
412.329;  220.985;   40.722;  132.501
412.619;  204.712;  -62.286; -148.485
412.909;  368.184;  639.711;  594.521
413.199;  351.416; -130.280; -251.495
413.490;  409.199;  521.710;  352.523
413.780;  139.345;-1013.279; -913.496
414.070;  344.529;  -46.276;  235.497
414.360;  381.931; -729.278; -666.498
414.650;  444.797; -726.288; -688.482
414.940;  552.994; -538.280; -441.496
415.230;  950.619;   50.712;   74.519
415.520; 6238.259;  155.730;   66.486
415.809;24589.277; -305.281; -125.493
416.099;18718.194; -388.277; -229.501
416.389; 5207.191;  435.726;  236.494
416.679; 3013.498;   91.738;   85.473
416.969;  539.581; -527.287; -503.483
417.259;  495.547;  341.721;  171.503
417.549;  715.526;  522.718;  318.508
417.838; 1690.951; -205.268; -147.518
418.128; 5576.455;  650.710;  492.522
418.418; 4581.109; -491.272; -579.509
418.708; 3122.616;    9.726;  -48.506
418.997;11772.437; -474.275; -480.505
419.287;12106.373; -733.273; -790.507
419.577;11434.310; -160.283; -123.489
419.866;38392.692; -588.277; -498.501
420.156;39179.355; -242.270;  -55.513
420.446; 6857.416; -112.263;  -26.526
420.735;  882.649; -376.271; -446.512
421.025;  846.180; 1830.722;  315.502
421.314;  725.772; -203.271; -226.512
421.604; 1512.969;   89.732;  233.484
421.893;  878.868; -705.271; -602.511
422.183;  245.091; -487.263; -461.526
422.472;  385.145;  -36.271; -107.511
422.762;  474.695; -416.266; -379.521
423.051;  278.130; -916.276; -916.503
423.341;  339.025; -491.273; -439.507
423.630;  441.676; -121.265;   15.477
423.919;  405.886;   58.725;   49.495
424.209;  375.947;  -31.263;   56.473
424.498;  502.949;   68.732;  161.483
424.787; 1100.905; -535.267; -601.518
425.077; 3451.049;   34.735;   29.478
425.366; 4886.802; -734.262; -744.528
425.655; 9989.726;  639.727;  259.493
425.945;21643.609; -313.247; -268.554
426.234;11813.351;  117.741;  300.467
426.523; 5137.231;  -86.259; -350.534
426.812; 7071.941;  107.734;  159.480
427.101;10355.790; -127.269; -323.515
427.390;13048.984;  -55.270;  -86.514
427.680; 2978.676; -624.257; -411.538
427.969;  502.612; -330.255; -301.540
428.258;  326.867; -385.257; -477.536
428.547;  557.013;  449.728;  397.490
428.836; 1331.078; -421.253; -398.543
429.125; 1878.508; -199.259;  -72.534
429.414;  849.702; -330.251; -294.548
429.703; 3174.752; -231.251; -213.548
429.992; 9468.180; -938.250; -828.549
430.281; 6160.184; -397.264; -331.524
430.570;  591.967;  -21.252;   32.454
430.859;  610.180;  279.741;  352.466
431.148;  439.730;  636.752;  631.446
431.437;  304.516;  391.748;  367.454
431.725;  150.744; -544.257; -481.536
432.014;  155.661; -845.253; -756.545
432.303;  399.857; -149.239; -105.569
432.592;  656.465; -460.263; -178.525
432.881; 1073.556; -601.248; -437.554
433.169; 6210.213; -343.255;  -61.540
433.458;12662.667;  445.765;  540.424
433.747; 5264.308; -397.261; -289.529
434.036;  938.633; -275.242; -280.564
434.324; 2106.968; -395.249; -379.551
434.613; 3682.001;   40.757;  159.437
434.902; 1213.722;  333.760;  439.433
435.190;  604.406;   75.761;  295.431
435.479;  333.557;  -52.245;   83.441
435.767;  115.466; -411.244; -427.561
436.056;  223.278; -340.242; -294.563
436.345;  389.250; -372.240; -223.568
436.633;  415.563;   60.750;  383.450
436.922;  271.627;  208.760;  414.432
437.210;  652.807; -194.236;    1.426
437.499; 2052.390; -583.235; -432.576
437.787; 2243.581; -339.236;  -10.574
438.075;  575.662;   56.761;  162.430
438.364;  807.589;  -44.238;  250.429
438.652;  473.596; -286.226; -138.592
438.941;  132.610;    3.770;  269.415
439.229;   12.739; -665.252; -466.545
439.517;   43.499; -160.234;  -85.577
439.806;   10.438; -501.225; -290.595
440.094;  189.531;  377.766;  650.421
440.382;  222.560; -653.233; -302.580
440.670;  242.215; -361.235; -285.576
440.959;   30.880; -347.223; -170.599
441.247;   74.021; -151.229; -109.587
441.535;  103.247; -266.235;   31.423
441.823;   47.879; -497.234; -305.578
442.111;  188.226;  173.771;  327.412
442.400;  568.757; -628.245; -335.559
442.688; 1488.006; -111.234; -620.579
442.976; 1069.795; -786.213; -450.617
443.264;  120.169; -324.224; -364.597
443.552;   98.998; -258.226;   51.408
443.840;  161.846;  602.765;  876.423
444.128;  117.434;  265.767;  269.420
444.416;   12.128; -694.228; -312.588
444.704;   29.611; -465.219;  -92.605
444.992;   76.201;   -0.226;  240.407
445.280;   66.110; -517.230;  -94.585
445.568;   54.224; -694.212; -396.618
445.856;  359.744; -174.221;  357.398
446.143;  810.857;  -54.220;   -7.604
446.431;  659.282;  -25.228;  625.411
446.719;  236.755;  489.783;  675.391
447.007;  187.655;  481.769;  705.416
447.295;  194.552;  597.777;  871.402
447.583;  101.619; -464.229;  -34.587
447.870;  156.141; -434.221; -202.601
448.158;  443.184; -104.230;  129.415
448.446;  328.533; -800.219; -338.604
448.733;  185.096;   13.776;  269.403
449.021;  255.773;   60.788;  341.382
449.309;  176.639; -296.210;  208.379
449.596;  214.977;  128.783;   59.392
449.884;  153.785; -571.222; -325.600
450.172;  143.713; -756.227; -406.590
450.459;  437.978;  645.786;  780.387
450.747; 2359.250; -411.218; -147.608
451.034; 7656.633;  493.772;  889.411
451.322; 6207.881; -413.214; -170.614
451.609;  518.247;  292.777;  508.403
451.897;  611.578; -550.203; -183.634
452.184; 1813.753; -622.223; -400.598
452.472; 1684.085;   97.792;  269.375
452.759;  339.584;  512.781;  864.395
453.047;  145.721; -407.212; -125.617
453.334;   90.542; -732.219; -216.606
453.621;   88.958; -438.214; -161.615
453.909;  128.545;   13.796;  384.368
454.196;  117.116; -299.199; -123.641
454.483;  217.241;  317.798;  540.364
454.771;  119.264; -215.208;  196.374
455.058;   52.017; -316.207;  102.374
455.345;   93.648;   71.807;  344.347
455.632;   88.120; -128.207;  235.373
455.919;   49.114;  -82.196;  182.354
456.207;  -53.079; -774.198; -450.642
456.494;  -20.421; -475.200;  -66.639
456.781;   12.012; -399.202; -198.635
457.068;   65.577; -253.206;  -29.628
457.355;    3.078; -698.206; -401.629
457.642;    0.509; -552.205; -290.630
457.929;   13.013; -778.194; -417.651
458.216;   56.221; -575.212; -354.617
458.503;  234.868; -173.193;  -19.652
458.790;  231.736; -864.208; -630.625
459.077;  282.492;  -77.202;  110.364
459.364;  794.931; -350.195; -210.649
459.651; 1704.100;  -46.206;  220.372
459.938;  764.502; -864.209; -665.623
460.225;  161.245;  132.799;  276.363
460.512;  -27.664; -836.197; -688.645
460.799;  103.174;  -32.218;  320.392
461.086;   71.008; -370.200; -251.640
461.372;   47.446; -509.198; -279.642
461.659;  120.865; -165.196;  108.354
461.946;   91.317; -445.193;  -54.651
462.233;  225.206;  842.800;  888.361
462.519;  366.778; -814.201; -464.639
462.806; 1022.187; -768.197; -497.645
463.093;  891.038; -445.191;  -66.656
463.380;  -14.845; -920.186; -824.664
463.666;   61.989; -259.197;  -18.646
463.953;   95.726; -406.195; -243.648
464.239;  212.826; -173.195;  -77.648
464.526;  393.462;  413.806;  743.350
464.813;  348.000; -565.190; -304.658
465.099;  357.018;  606.807;  607.348
465.386;  337.047;  903.807;  921.348
465.672;   30.462; -694.197; -522.645
465.959;   40.218; -598.188; -520.662
466.245;   21.697; -468.193; -359.652
466.532;   92.174; -109.195;   63.352
466.818;   79.230; -357.186; -216.664
467.104;   -0.379; -488.182; -415.672
467.391;   -6.398; -628.189; -459.658
467.677;   32.008; -289.186;    9.335
467.964;   18.608; -682.189; -471.660
468.250;   61.386; -331.186; -160.665
468.536;   73.028;   90.811;  180.341
468.822;  -20.652; -821.184; -574.668
469.109;  138.803;  351.827;  471.311
469.395;  192.582;  729.808;  787.346
469.681;  201.206;   46.811;  156.341
469.967; 1236.461; -699.188; -382.660
470.254; 2719.344; -494.188; -306.662
470.540; 1700.289; -601.196; -476.646
470.826;  254.082; -488.181; -397.675
471.112;  304.127;  288.816;  113.331
471.398;  104.632; -253.183;  -58.670
471.684;   46.586; -626.177; -447.680
471.970;   -6.989; -918.180; -981.675
472.256;   29.931; -521.192; -441.654
472.542;    6.664; -499.171; -434.691
472.828;   11.817; -743.182; -607.672
473.114;   35.609; -380.166; -283.700
473.400;   14.953; -504.175; -293.684
473.686;   26.790; -452.166; -400.701
473.972;   40.718; -230.174; -131.687
474.258;  -45.097; -925.173; -843.689
474.544;  204.453; -183.178;   -2.679
474.830;  296.880;  -65.175;   45.316
475.116;  469.751; -123.190; -196.658
475.401;  653.388; -558.180; -467.676
475.687;  192.912; -725.180; -718.676
475.973;    9.775; -673.181; -770.673
476.259;  244.032;  736.825;  764.315
476.544;  367.444; -539.176; -437.682
476.830;  827.860; -398.172; -322.690
477.116;  687.518; -430.177; -336.682
477.401;  133.188;  346.820;  358.324
477.687;  -17.297; -289.175; -405.684
477.973;   41.503;   21.819;   28.326
478.258;  -11.314; -448.163; -348.706
478.544;   64.617;   21.815;   61.334
478.829;  -50.255; -818.171; -738.692
479.115;  -48.715; -749.172; -651.690
479.401;  -25.562; -444.174; -449.686
479.686;   39.362; -253.180;  -74.676
479.972;  -29.417; -886.178; -776.680
480.257;   40.685; -258.166;  -65.700
480.542;  -19.751; -614.170; -469.693
480.828;  217.151; 1288.824; 1392.317
481.113;  -40.451; -464.176; -426.683
481.399;   -6.989; -236.161; -202.711
481.684;  -56.540; -620.166; -462.700
481.969;    6.149; -158.159;  -73.713
482.255;  -17.015; -439.169; -285.695
482.540;    6.608; -569.178; -441.680
482.825;   -7.925; -395.187; -404.663
483.110;   89.588;  -85.169; -105.696
483.396;  174.096; -840.157; -652.718
483.681;  488.718;  543.826;  730.313
483.966;  150.093; -696.160; -700.712
484.251;   -1.783; -404.174; -310.687
484.536;   -4.079; -356.165; -378.703
484.822;   13.395; -205.173; -218.687
485.107;  -26.415; -599.152; -502.726
485.392;  116.302;  662.836;  541.296
485.677;   86.423;  354.832;  163.302
485.962;  106.544;  160.843;  270.283
486.247;   89.694;  -14.162;   -8.707
486.532;   39.387; -178.166; -325.701
486.817;  175.805;  381.839;  431.291
487.102;  129.868; -453.154; -514.722
487.387;  663.198; -637.156; -652.718
487.672; 1155.957; -154.164;  -38.705
487.957;  706.137; -394.160; -286.711
488.241;  220.252; -290.150; -314.729
488.526;  723.787; -280.152; -148.726
488.811; 1174.110; -881.177; -818.680
489.096;  877.846; -666.154; -702.723
489.381;  497.933;    3.847;  162.275
489.666;  368.810; -428.161; -510.710
489.950;  154.949;  558.846;  627.277
490.235;  -36.578; -480.151; -458.728
490.520;  -49.866; -756.161; -723.710
490.804;  -42.175; -827.156; -736.719
491.089;    0.393; -469.149; -299.732
491.374;   34.455; -132.164;  -75.704
491.658;   -0.845; -817.147; -717.735
491.943;  188.116; -657.152; -609.727
492.227;  281.564; -178.155;  -38.721
492.512;   56.768; -294.157; -341.717
492.797;  -65.438; -713.149; -716.731
493.081;  -48.567; -588.147; -598.735
493.366;  -28.039; -751.161; -635.711
493.650;  198.762;  831.859;  917.254
493.935;   31.004; -648.147; -447.734
494.219;  -39.101; -778.142; -687.743
494.503;  -36.843; -585.150; -487.730
494.788;   48.360;   46.842;   74.285
495.072;  103.579;  184.850;  434.271
495.356;  183.347; -463.148; -343.733
495.641;  470.890; -812.146; -736.736
495.925;  449.655; -976.156; -903.719
496.209;   38.118; -599.149; -451.732
496.494;  -36.750; -763.142; -544.744
496.778;    9.593; -364.154; -360.722
497.062;  -66.995; -819.156; -627.719
497.346;  -22.086; -869.160; -640.711
497.631;  136.825;  580.852;  560.266
497.915;   63.500;  -64.145;  175.261
498.199;   52.846; -341.157; -277.718
498.483;   23.010; -562.152; -508.725
498.767;  190.105;  301.850;  300.271
499.051;  189.490; -126.149; -100.732
499.335;   34.564; -693.149; -739.731
499.619;  -33.035; -381.129; -423.767
499.903;    7.037; -272.155;  -65.721
500.187;   39.700; -588.153; -316.724
500.471;   35.465; -796.152; -595.727
500.755;  118.485;   62.839;  -96.710
501.039;   29.013; -270.155; -357.721
501.323;   86.289;  -21.141;  264.254
501.607;   32.612; -447.163; -503.706
501.891;    7.723; -607.156; -512.718
502.174;  -35.913; -726.144; -585.741
502.458;   75.319;   89.849;  370.273
502.742;   48.288; -180.138; -191.751
503.026;   94.654; -412.147; -254.734
503.310;  178.623; -437.159; -375.713
503.593;  105.206; -464.147; -325.735
503.877;  125.429; -232.133; -156.760
504.161;  196.728;    2.847;  -50.724
504.444;  128.437; -841.158; -710.716
504.728;  446.205; -487.164; -522.704
505.012;  692.602; -257.150;  -76.729
505.295;  533.336; -417.161; -212.711
505.579;  525.580; -256.156; -496.719
505.862;  747.572; -555.145; -333.738
506.146;  699.826; -681.159; -758.714
506.429;  380.201;  568.841;  461.286
506.713;   68.699; -732.151; -667.728
506.996;  314.067;   90.846;  295.278
507.280;  323.250; -633.165; -474.703
507.563;  201.736; -469.155; -261.721
507.847;  107.926; -423.153; -112.724
508.130;   79.436; -665.161; -456.711
508.413;   93.381; -758.167; -577.700
508.697;  248.206; -151.167;   12.300
508.980;  139.477; -422.153; -312.724
509.263;    0.607; -466.155; -450.720
509.547;   25.026; -124.150;   82.271
509.830;   59.614; -172.160;  140.289
510.113;   77.454;  128.844;  298.281
510.396;   33.533; -530.152; -300.725
510.680;  170.923; -818.145; -812.738
510.963;  664.922;  184.846;  180.277
511.246;  560.359; -493.150; -357.730
511.529;  268.978; -482.145;  -83.739
511.812;  358.751; -250.134;   10.241
512.095;  262.571; -740.151; -396.728
512.378;   74.110; -317.147; -245.736
512.661;   33.821; -703.137; -623.753
512.944;   20.751; -750.142; -637.744
513.227;   69.768; -170.137; -171.752
513.510;   14.262; -479.144; -671.741
513.793;   42.618; -485.140; -435.747
514.076;  125.812;  -43.127;  -39.771
514.359;  110.269; -294.149; -135.732
514.642;   81.429; -442.142; -567.744
514.925;  738.492;  581.860;  561.253
515.208;  991.722; -498.134; -443.758
515.491;  642.336; -276.133; -182.761
515.773;  359.590; -410.143; -337.742
516.056; 2057.228;  249.864;  409.246
516.339; 2806.332; -754.136; -652.755
516.622; 1935.132; -518.150; -488.730
516.904; 1334.848;  882.857;  975.257
517.187;  613.867; -730.138; -523.752
517.470;  405.271; -568.143; -510.743
517.752;  433.184; -624.136; -470.756
518.035;  344.454; -708.139; -725.749
518.318;  357.157; -799.136; -744.755
518.600; 2373.115; -300.132; -325.762
518.883; 3296.929;  310.858;   88.256
519.165; 1579.009; -585.138; -426.751
519.448;  414.540;  -61.132;  -19.762
519.730;  195.119; -573.126; -415.773
520.013;  308.057;  588.867;  664.240
520.295;  922.803;  -94.134;  -15.759
520.578; 2045.678; -335.131; -305.764
520.860; 2251.690; -254.132;   56.238
521.143; 1162.587; -763.135; -584.756
521.425;  473.207; -251.125; -279.775
521.707;  683.837; -622.127; -380.771
521.990; 1747.587; -199.127;  167.229
522.272; 2011.620; -116.140;   -4.748
522.554;  900.341; -237.143; -157.742
522.836;  407.850;  -24.134;   99.241
523.119;  247.903; -496.148; -189.734
523.401;  154.835; -448.130; -314.766
523.683;   88.147; -865.137; -693.753
523.965;  272.540;  408.862;  260.248
524.247;  276.304;   54.878;  170.220
524.529;  197.877; -451.134; -367.759
524.812;  330.987;   -3.130;  191.234
525.094;  843.664; -773.138; -631.751
525.376; 1326.017; -143.124;   78.223
525.658;  814.304; -441.136; -339.754
525.940;   28.275; -805.131; -671.764
526.222;   50.082; -188.136;  -88.755
526.504;  118.747; -190.131;   32.237
526.786;  227.655; -960.133; -647.760
527.068;  337.422; -124.123;  -67.778
527.349;  155.875; -865.137; -774.754
527.631;  137.539; -137.132;   22.238
527.913;  150.011; -664.127; -450.771
528.195;  170.400; -761.125; -639.774
528.477;  239.297;  -93.134;  -30.758
528.759;  126.187; -648.130; -522.766
529.040;   65.271; -569.123; -293.778
529.322;   68.078; -235.125;  -10.774
529.604;  142.664;  -47.130;   93.233
529.886;  134.694; -546.126; -302.773
530.167;  113.581;  232.870;  192.235
530.449;   26.884;    1.853;   63.265
530.731;   29.803; -572.122; -459.779
531.012;   71.649; -513.120; -216.784
531.294;   62.464; -118.116;  -43.792
531.575;  134.582;  290.875;  538.225
531.857;   58.317; -548.135; -266.757
532.138;   91.537; -113.141;   40.254
532.420;  187.763;  294.865;  403.244
532.701;  239.657; -722.133; -751.760
532.983;  353.661;  232.867;  182.239
533.264;  135.792; -243.126;  175.228
533.546;  -20.443; -491.136; -508.755
533.827;   40.579;  173.867;   -1.759
534.109;   49.317; -352.135;  -80.757
534.390;  103.544; -725.132; -582.762
534.671;  253.063; -270.135;  -82.756
534.953;  144.549; -751.123; -611.779
535.234;   22.599; -426.117; -255.789
535.515;  -82.017; -891.119; -735.785
535.796;  -14.868; -431.128; -193.770
536.078; -111.259;-1050.124; -904.777
536.359;   -0.650;  -22.123;    3.221
536.640;  -14.498; -480.125; -197.774
536.921;  158.019;  225.871;  143.232
537.202;  363.986;  -87.138;  -16.751
537.483;  462.677;  251.869;  377.236
537.764;  176.281;   17.870;   98.235
538.045;  -35.304; -543.134; -371.758
538.326;  -23.454; -596.129; -447.768
538.607;    4.488; -686.127; -476.771
538.888;  161.040;   98.879;    5.218
539.169;  187.060; -704.122; -535.781
539.450;  329.493;  236.871;   16.233
539.731;  218.494; -361.121; -182.783
540.012;  148.249;  199.880;  412.216
540.293;   89.436;   82.876;  158.224
540.574;   14.685; -895.113; -717.796
540.855;  452.968;  435.879;  377.218
541.136;  523.282;   47.878;  139.220
541.416;  275.662; -161.130; -220.766
541.697;  188.748; -274.131; -170.763
541.978; 1031.315; -270.135; -315.757
542.259; 1316.763; -211.127; -236.771
542.539;  610.508; -191.116; -186.790
542.820;  173.732;  461.875;  480.225
543.101;  135.775;  -52.145;  -77.738
543.381;   41.587; -638.127; -591.771
543.662;  259.685;  159.873; -254.771
543.942;  573.933; -751.127; -830.770
544.223; 1045.834;  193.878;  161.219
544.504;  683.041; -275.124; -182.777
544.784;  582.494; -592.126; -408.773
545.065; 1639.437;  104.884; -254.791
545.345; 1989.233;  227.881;   14.215
545.626; 1258.810;  -14.113; -108.796
545.906;  861.680;   77.869;   98.235
546.186;  347.599;   92.874;  -95.773
546.467;  199.894;   99.877;  -95.778
546.747;  321.233;  264.884;  327.210
547.027;  364.165;   91.876;  111.223
547.308;  327.032; -376.127; -530.770
547.588;  383.622;  299.871;  371.232
547.868;  188.606;  458.870;  588.235
548.149;  183.669;  609.885;  593.207
548.429;  129.386; -347.127; -299.771
548.709;  195.749; -645.120; -461.784
548.989;  483.768;   84.882;   88.213
549.269; 2053.388;   10.868;  139.239
549.550; 4778.873;  215.877;  117.222
549.830; 4268.378; -758.111; -556.799
550.110;  824.661; -468.110; -320.801
550.390;  798.554; -128.122;  -56.779
550.670; 1154.355; -868.114; -783.795
550.950;  784.317; -509.121; -471.782
551.230;  192.614;  549.879;  460.218
551.510;  -10.734; -381.121; -326.782
551.790;   25.819; -173.109; -127.803
552.070;  241.819;  940.877; 1181.223
552.350;  381.662; -492.119; -377.786
552.630;  566.886;   -2.121;   77.219
552.909;  341.987;  181.884;   73.209
553.189;  217.270;  -49.132;   33.237
553.469;  168.112; -703.119; -514.786
553.749;  183.964; -469.127; -357.772
554.029;  144.103;   33.883;  -24.790
554.308;  145.249; -154.115;  -37.794
554.588;   64.906; -196.128; -204.770
554.868;   66.518; -366.121;  -47.782
555.147;  136.296; -114.115;  -46.793
555.427;  571.865; -260.116; -250.792
555.707; 3841.169; -284.115; -200.793
555.986; 4679.906; -719.111; -538.800
556.266; 2412.982;   23.884;   72.210
556.546;  122.341; -888.121; -675.782
556.825;  238.728; -657.114; -556.794
557.105; 1761.154; -125.128;   17.230
557.384; 2060.261;  122.884;  187.209
557.664;  774.339; -717.116; -508.792
557.943;  118.368; -557.121; -411.782
558.222;  180.771; -345.118; -344.788
558.502;  266.097; -116.115;  -76.793
558.781;  492.643;  194.885;  499.208
559.061;  404.246; -232.118; -227.788
559.340;  273.326;  302.883;  353.211
559.619;  674.056;   93.884;  148.210
559.899; 1003.578; -239.117; -266.789
560.178;  911.422; -778.115; -593.793
560.457; 3079.704; -623.117; -562.790
560.736; 4356.458; -472.111; -482.800
561.015; 2853.252; -500.128; -502.769
561.295;  370.289;  180.893;  215.193
561.574;  355.769;  119.885;  116.207
561.853;  499.773;  274.891;  303.197
562.132;  471.749;  -45.114;  182.206
562.411;  417.137;  396.879;  553.219
562.690;  131.742; -592.115; -458.792
562.969;  137.742;  472.888;  630.203
563.248;  469.034; 2966.878; 2487.219
563.527;  271.882; -290.111; -408.800
563.806;  379.836; -650.127; -521.771
564.085;  397.054; -297.105; -206.810
564.364;  234.731; -594.117; -405.790
564.643;  478.012; -276.121; -223.781
564.922; 1864.792;  221.890;  397.198
565.201; 1874.945; -640.109; -700.803
565.479;  811.116; -297.115; -219.792
565.758;  335.879; -810.128; -712.770
566.037;  472.797; -155.109; -100.803
566.316;  225.587; -286.116;  -28.791
566.595;   33.819;  -17.115;  -12.793
566.873;   89.384; -166.111;  -79.801
567.152;  -52.409; -490.113; -590.797
567.431;   -0.743; -113.116;    6.210
567.709;   15.489; -344.107; -212.807
567.988;  246.778; -810.114; -769.794
568.266;  522.544; -160.115;  -68.793
568.545;  389.527; -644.100; -514.819
568.824;  564.190;  160.885;  356.208
569.102;  530.602; -351.114; -235.794
569.381;  220.265; -492.116; -407.792
569.659;  -29.512; -553.113; -553.796
569.938;   39.332; -743.122; -465.780
570.216;  106.199; -225.109; -225.804
570.494;  -15.769; -632.114; -572.795
570.773;   34.291;  202.879;  114.218
571.051;   11.472; -373.123; -357.778
571.330;   55.285; -221.113; -174.796
571.608;   23.020; -181.098; -173.823
571.886;  -83.749; -671.111; -581.799
572.164;  -56.732; -739.121; -621.782
572.443;  -46.967; -562.105; -512.811
572.721;  -37.670; -399.117; -289.790
572.999;  -28.652; -280.117; -168.788
573.277;   86.826;  379.894;  620.191
573.555;  270.504;   94.894;   37.190
573.834; 1314.223;  -86.117; -114.788
574.112; 1521.891;  880.893;  811.193
574.390;  467.083; -143.111;  -96.801
574.668;    4.018;  -91.112;  -61.797
574.946;  -13.571; -165.106; -187.810
575.224;   11.520;   71.891;  -16.803
575.502;  -24.816; -200.116; -204.791
575.780;  -76.031; -767.112; -829.798
576.058;  234.407; 1589.889; 1004.200
576.336;  -24.362; -210.110; -129.801
576.614;  -61.806; -511.112; -340.798
576.891;   43.773; -711.115; -823.794
577.169;  479.882; -158.108; -285.805
577.447;  566.491;  169.893;  202.193
577.725;  250.473;  629.888;  854.201
578.003;   14.471;  -71.112; -371.798
578.280;   79.667; -208.104; -242.812
578.558;   70.247; -450.115; -422.793
578.836;  126.706; -210.114; -145.795
579.114;   48.992; -630.112; -670.797
579.391;   63.899;   -6.117;  -18.789
579.669;  -68.801; -595.114; -704.794
579.947;  157.763; -326.107; -127.806
580.224;  322.362; -692.107; -524.806
580.502;  304.067;  127.893;   76.193
580.779;   29.305;  -42.117;   75.210
581.057;  -67.700; -584.109; -470.804
581.334;  -97.143; -726.102; -695.815
581.612;   20.755;   54.895;  511.190
581.889;  -27.304;  -83.101; -129.818
582.167;  -31.640; -298.099; -190.821
582.444; -106.710; -845.102; -814.817
582.721;   87.866;  657.899;  715.183
582.999;   40.658; -326.100; -167.821
583.276;  500.926; -812.123; -713.779
583.553;  679.786; -364.102; -294.816
583.831;  211.389; -607.104; -631.812
584.108;   46.555;  349.892;  174.195
584.385;   15.382; -122.102;  -98.815
584.662;  -82.041; -651.111; -828.801
584.940;   21.509;  204.889;  204.199
585.217;  -22.463;  -73.113; -303.796
585.494;   34.543;   71.890;  118.198
585.771;  198.675; -250.109; -354.804
586.048;  498.462; -196.113;  -76.796
586.325;  307.737; -721.110; -773.801
586.602;   88.668;  230.896;  213.188
586.879;  -19.371; -499.100; -580.820
587.156;   53.555; -156.105; -331.810
587.433;  -47.162; -701.102; -667.817
587.710;   78.794;  152.888;  234.202
587.987;  289.286; -264.105; -236.811
588.264;  804.221;  315.888;  387.202
588.541; 1311.920;  -61.104;   26.187
588.818; 2676.953;   72.892;  171.196
589.095; 2285.616; -163.104; -174.812
589.371;  380.498; -459.109; -414.804
589.648;    7.516; -581.107; -437.807
589.925;   11.907; -517.114; -621.795
590.202;    9.644; -741.112; -607.798
590.478;   90.413; -166.105;  -73.811
590.755;  246.459; -241.108; -132.806
591.032; 2427.839; -741.110; -699.802
591.308; 3406.561; -732.094; -790.831
591.585; 1728.339; -573.110; -560.802
591.862;  124.040;-1056.102; -950.817
592.138;   50.156; -475.108; -474.805
592.415;  120.168; -486.104; -495.813
592.691; 1400.366;  460.896;  518.188
592.968; 1856.872; -208.098; -123.824
593.244;  892.633; -695.116; -595.790
593.521;   67.240; -105.102;  -42.817
593.797;  -19.870; -810.122; -720.780
594.074;  333.810; -611.096; -588.826
594.350;  647.672;  828.905;  729.172
594.626;  289.909; -303.111; -283.801
594.903;  106.641; -643.101; -645.817
595.179;  181.597;  243.896;  418.187
595.455;   -7.382; -136.107; -150.807
595.731;    1.624;  -19.103;  -38.814
596.008;  -33.471; -464.111; -434.800
596.284;   35.482; -187.100; -242.820
596.560;   68.693; -501.093; -493.833
596.836;  187.457; -173.105;  -70.810
597.112;  329.557; -582.108; -437.805
597.388;  264.933;  -49.097;  -48.826
597.665;  115.290;  437.887;  530.203
597.941;  -62.427; -572.089; -658.839
598.217;   10.192; -323.110; -293.802
598.493;  247.352;   61.891; -204.804
598.769;  500.401; -175.100;  -50.819
599.045;  307.910; -490.108; -562.806
599.321;   38.780; -193.100; -261.820
599.597;  116.926; -355.109; -476.804
599.872;  454.995;  409.896;  429.187
600.148;  369.785;  -61.097; -172.826
600.424;  279.115;   91.893;  202.193
600.700;  230.417; -170.107; -280.807
600.976;  106.104; -442.097; -464.825
601.252;  247.273; -226.109; -272.803
601.527;  213.846; -833.104; -840.813
601.803;  142.763; -453.105; -404.812
602.079;  171.251; -124.100; -118.819
602.354;  545.478; -620.092; -531.835
602.630;  803.812; -140.113; -482.796
602.906; 2201.171; -910.101; -863.818
603.181; 6517.237; -627.119; -534.786
603.457; 5576.407;   98.903; -278.826
603.733;  821.170; -605.120; -626.783
604.008;  915.454; -245.106; -164.810
604.284; 2994.967; -636.101; -580.817
604.559; 2575.023;   -3.112;  -42.799
604.835;  464.132; -163.105; -225.810
605.110;  386.411; -732.099; -892.821
605.385;  662.671;  224.907;  267.167
605.661;  635.149; -625.095; -729.829
605.936; 1137.485; -664.108; -737.806
606.211;  967.806;  -17.103; -170.815
606.487;  194.801; -329.114; -376.794
606.762;    9.987; -791.119; -745.786
607.037;  -29.818; -501.105; -433.810
607.313;  -46.582; -589.096; -574.828
607.588;   -7.396; -375.106; -137.810
607.863;   31.170;  -28.101; -143.818
608.138;  176.766;  513.890;  516.198
608.413;   26.140; -576.099; -592.822
608.688;   38.907; -203.108; -267.805
608.964;  184.623; -509.106; -218.809
609.239;  254.405; -107.105; -212.810
609.514;  246.563;  281.895;  240.188
609.789;  643.492; -187.104; -716.812
610.064;  843.841; -435.096; -609.827
610.339;  843.023; -855.109; -799.804
610.614; 1158.381; -131.100; -315.820
610.889;  645.288;  215.895;  107.188
611.163;   41.489; -407.104; -591.812
611.438;   72.953;   81.886; -167.794
611.713;   -2.983; -467.101; -499.817
611.988;   62.444; -144.101; -328.818
612.263;  -17.043; -771.102; -717.815
612.538;  201.762;  385.887;  251.204
612.812;  179.007; -832.100; -911.820
613.087;  124.570; -358.098; -338.823
613.362;  -56.708; -497.107; -557.807
613.637;   36.927;  261.897;  138.186
613.911;  -19.121; -256.092; -345.835
614.186;  102.616; -249.107; -292.807
614.460;  665.249; -842.081; -758.854
614.735;  754.172;  -55.087;  -17.843
615.010;  149.486;   43.912;  -82.841
615.284;  228.206;  360.892;  246.195
615.559;  372.702; -792.092; -955.835
615.833;  283.863;  -76.099;  -87.822
616.108;    7.739; -225.090; -390.837
616.382;  141.823;  274.913;  402.156
616.656;  144.840; -241.090; -232.837
616.931;  487.388; -785.099; -700.822
617.205; 1046.446; -973.104; -979.813
617.480;  952.530;  -91.125;    6.225
617.754;  151.578; -396.125; -128.774
618.028;   13.223; -369.129; -382.768
618.302;   49.830;   73.892;  -25.805
618.577;  -52.222; -371.103; -518.815
618.851;  -55.130; -399.109; -600.803
619.125;  -47.173; -335.134; -378.759
619.399;  -41.603; -244.104; -374.813
619.673;  -38.334; -330.115; -515.792
619.947;  -50.320; -333.114; -448.795
620.222;  -17.565; -198.110; -204.801
620.496;  -12.407;  -47.121;  -96.782
620.770;   12.309; -187.122;  -93.781
621.044;  189.255;  323.895;  346.190
621.318;  704.871; -653.120; -614.783
621.592;  656.244; -430.121; -409.783
621.866;  357.174; -476.112; -572.799
622.140;   20.434; -207.116; -356.791
622.413;   56.278;  138.889;  112.200
622.687;  -54.508; -746.101; -492.817
622.961;   13.955; -130.108; -143.805
623.235;  -67.121; -633.111; -661.800
623.509; -101.338; -816.105; -848.811
623.783;   -6.787;  -12.107;   48.193
624.056;  -34.578; -254.120; -280.783
624.330;   33.393;   63.888;   -3.797
624.604;   44.306; -271.116; -355.790
624.877;   56.790;  180.890;   26.198
625.151;   35.400; -249.114; -238.794
625.425;  -36.601; -150.103; -283.814
625.698;  -51.219; -367.119; -374.785
625.972;  -94.058; -799.110; -765.802
626.245;   77.358;  685.884;  484.210
626.519;  -76.149; -426.120; -340.784
626.792;  -40.908; -192.107; -380.807
627.066;  -80.723; -485.122; -662.779
627.339;  -97.812; -736.110; -663.802
627.613;   33.250;  351.880;  148.216
627.886;   54.594;  187.891; -612.803
628.160;   -9.705;  312.880; -161.783
628.433;  -99.317; -695.125; -703.775
628.706;  -91.949; -517.120; -615.784
628.979;   13.490;  296.876;  117.223
629.253; -100.114; -785.119; -833.786
629.526;  331.617; -334.126; -253.772
629.799;  322.747; -641.123; -479.778
630.072;  146.224; -497.128; -516.769
630.346;  -68.192;-1115.116;-1080.790
630.619;  446.168; -467.107; -545.808
630.892;  599.880;  709.889;  593.200
631.165;  325.747;  790.896;  679.187
631.438;  -87.879;-1092.112;-1055.798
631.711;   37.525;  453.877;  257.221
631.984;  -59.897; -523.117; -624.789
632.257;  -64.776; -636.117; -681.789
632.530;  -45.843; -412.119; -433.785
632.803;    9.548; -109.115;    7.207
633.076;  -77.781; -360.123; -422.777
633.349;    3.753;  173.872;  121.231
633.622;  -52.195; -187.119; -240.785
633.895; -126.678; -903.120; -823.783
634.167;  -73.431; -496.126; -525.773
634.440;  -12.061;  -19.116; -137.792
634.713;    4.335;  -22.119; -120.786
634.986;   82.618;  593.871;  453.233
635.258;  -82.729; -507.115; -597.793
635.531;   86.520;  742.882; -343.788
635.804;  -32.948; -303.117; -318.789
636.077;  -92.765; -830.116; -852.791
636.349;   -3.780; -586.115; -474.793
636.622;  368.742; 1695.874; 1392.228
636.894;  226.226; -474.120; -909.784
637.167;  139.785; -836.127; -789.771
637.439;   28.907; -278.128; -213.770
637.712;  -64.832; -312.126; -293.772
637.984;  -87.264; -635.116; -707.791
638.257;  367.594;  515.877;  488.222
638.529;  577.984; -881.125; -924.776
638.802;  239.874; -508.128; -449.769
639.074; -111.841; -927.122; -952.781
639.346; -117.131; -942.135; -930.757
639.619;   -8.873;  -79.142; -319.744
639.891;   -3.073;  -83.122; -168.779
640.163;  -91.746; -689.122; -756.780
640.435;   25.056;  273.878;  103.220
640.708;   -3.492;  -72.122; -132.780
640.980;  -37.565; -366.122; -362.781
641.252;  181.637;  -25.121;  -71.781
641.524; 1758.988;  580.879;  573.219
641.796; 1818.190;-1094.121; -907.782
642.068;  317.792; -191.121; -300.782
642.340;  -63.606; -486.121; -566.783
642.613;   28.596;  294.880;  323.217
642.885; -112.202; -787.120; -878.783
643.157;  -49.000; -810.120; -658.784
643.428;   58.801;  170.880;  218.216
643.700;  -80.372; -498.120; -425.784
643.972;  -44.420;  -16.119; -133.785
644.244;  -90.468; -474.119; -559.785
644.516;  -58.266; -250.119; -114.786
644.788;   44.136;  662.881;  548.214
645.060;  -34.462;  -12.119; -124.786
645.332;  -89.786; -525.118; -535.787
645.603;   13.966;  479.882;  342.213
645.875;  -73.382; -334.118; -369.787
646.147;  150.070; 1487.882; 1242.212
646.418;  -59.903; -931.117; -918.788
646.690;  120.374; -714.117; -715.789
646.962;   19.376; -413.117; -451.789
647.233;  -18.072;   15.883;   11.211
647.505; -118.721; -595.117; -475.790
647.776;   13.956;  328.884;  229.210
648.048;  -11.342; -248.116; -418.790
648.320;  -79.140; -752.116; -679.791
648.591; -147.788;-1055.116; -958.791
648.862; -107.386; -505.116; -577.792
649.134;   16.466;  115.885;  198.208
649.405;  -34.133; -661.115; -618.792
649.677;  -64.756; -475.115; -598.793
649.948;   -6.554; -181.115; -296.793
650.219;  -12.802;  -37.115; -147.793
650.491;  -84.575; -431.114; -520.794
650.762; -118.573; -705.114; -731.794
651.033;  -94.071; -437.114; -424.795
651.304; -101.545; -743.114; -728.795
651.576;  -68.443; -680.114; -645.795
651.847;  -46.541; -250.113; -140.796
652.118;  -28.514;  -32.113; -189.796
652.389; -108.137; -639.113; -722.796
652.660;  -59.910; -147.113;  -89.797
652.931; -127.608; -897.112; -871.797
653.202;  -89.881; -382.112; -541.798
653.473;  -70.905; -633.112; -533.798
653.744;  147.872; -595.112; -590.798
654.015;  130.324; -356.112; -303.799
654.286;  -70.324; -642.111; -663.799
654.557;  -57.897; -586.111; -521.799
654.828; -159.095;-1114.111;-1088.800
655.099;  -92.543; -404.111; -291.800
655.370;  -99.342; -427.111; -543.801
655.641; -126.015; -656.110; -714.801
655.911; -117.213; -618.110; -638.801
656.182;   39.989;  437.890;  387.198
656.453;   74.791;  830.890;  746.198
656.724;  -73.157; -466.110; -426.802
656.994;  -83.255; -553.109; -568.803
657.265; -111.204; -862.109; -873.803
657.536;  -89.152; -500.109; -377.804
657.806; -117.000; -561.109; -593.804
658.077; -138.448; -866.109; -950.804
658.347;  -92.621; -523.108; -598.805
658.618; -126.994; -646.108; -694.805
658.888;  -25.267;  -41.108;  112.195
659.159;  -90.915; -432.108; -548.806
659.429;  -12.414; -292.108; -349.806
659.700;    0.613; -435.107; -390.807
659.970;   -0.660; -370.107; -359.807
660.241;   -1.383; -754.107; -921.807
660.511;  487.819; -147.107; -174.808
660.781;   95.421; -793.106; -748.808
661.052;  -53.127; -222.106; -381.808
661.322;  -26.801;   21.894;   -9.809
661.592;   11.826;  257.894;  148.191
661.862;  -76.172; -369.106; -382.810
662.133;  -93.970; -551.105; -502.810
662.403; -114.893; -770.105; -676.810
662.673;  -75.241; -256.105; -213.811
662.943; -115.039; -612.105; -551.811
663.213;  -24.087;  -85.105;  -81.811
663.483;  -81.186; -593.104; -568.812
663.753;  -47.884; -194.104; -152.812
664.023;  -17.932;   68.896;  -32.813
664.293;  -63.305; -319.104; -126.813
664.563; -109.178; -694.104; -648.813
664.833; -125.601; -743.103; -608.814
665.103; -139.374; -730.103; -793.814
665.373; -114.498; -766.103; -806.814
665.643;  -93.196; -863.103; -918.815
665.913;   28.581; -534.103; -714.815
666.182;  122.008; -685.102; -719.816
666.452;  255.435;  -22.102;  -89.816
666.722;  -39.588; -724.102; -784.816
666.992; -121.111; -948.102; -921.817
667.261;  -99.585; -824.102; -808.817
667.531;  183.342;  134.899;   45.183
667.801;  558.294; -440.101; -412.818
668.070;  236.871;  714.899;  697.182
668.340; -101.927; -883.101; -840.819
668.609;   70.625;  588.900;  301.181
668.879;  -99.373; -490.100; -558.819
669.149;  -81.146; -539.100; -516.820
669.418; -104.445; -698.100; -726.820
669.688;  -45.143; -482.100; -666.820
669.957;   60.559; -423.099; -546.821
670.226;  -29.764; -268.099; -331.821
670.496;  -94.287; -431.099; -635.822
670.765;  -82.210; -418.099; -501.822
671.034; -141.208; -872.099; -828.822
671.304;  -20.357;   55.902; -111.823
671.573; -166.430;-1085.098; -957.823
671.842;   82.722; -380.098; -294.823
672.112;   10.424; -692.098; -586.824
672.381;    0.551; -239.098; -214.824
672.650; -129.897;-1005.097;-1021.825
672.919; -102.395; -631.097; -507.825
673.188; -100.594; -681.097; -878.825
673.457; -152.142;-1101.097;-1143.826
673.726;  -80.415; -579.096; -646.826
673.995;  -33.413; -533.096; -479.826
674.265;  -26.636; -263.096; -333.827
674.534;   13.366; -183.096; -235.827
674.802;   -1.957; -618.096; -703.828
675.071;  916.020; -886.095; -801.828
675.340; 3851.321; -464.095; -339.828
675.609; 1267.623;  103.905;   82.171
675.878;   70.750; -949.095; -893.829
676.147;   27.577;  -26.095;   -8.829
676.416;   65.204; -210.094; -294.830
676.685;  699.181; 1000.906; -622.830
676.953;  100.358; -603.094; -452.831
677.222;  -42.266; -193.094; -273.831
677.491;  -32.764;  -24.094; -127.831
677.759;  -16.412;   11.907;  172.168
678.028;  -26.210; -279.093; -222.832
678.297;   -5.458;   71.907;  197.168
678.565; -140.406; -898.093; -944.833
678.834;  -60.954; -311.093; -268.833
679.102;  -91.478; -411.092; -391.834
679.371; -150.126; -898.092; -727.834
679.639; -131.549; -797.092; -786.834
679.908; -120.347; -794.092; -724.835
680.176; -154.170; -895.091; -941.835
680.445;  -92.543; -346.091; -352.835
680.713;  -30.916;  -58.091;  -23.836
680.982;  -97.764; -523.091; -525.836
681.250; -103.663; -578.091; -507.837
681.518; -107.386; -534.090; -751.837
681.787;  -30.034; -204.090; -167.837
682.055;  -64.707; -490.090; -422.838
682.323; -152.880; -993.090; -992.838
682.591;   22.072; -216.090; -538.838
682.859;   73.724;    9.911;  -35.839
683.128;   11.075;  232.911;  497.161
683.396; -161.098;-1102.089;-1122.840
683.664;  -48.271; -241.089;   21.160
683.932;  -19.394;  144.911;  -76.840
684.200;  -90.842; -576.088; -320.841
684.468;  -37.340;  -73.088; -124.841
684.736;  -17.488; -214.088; -175.841
685.004; -128.612;-1024.088; -982.842
685.272;  -63.360; -880.088; -774.842
685.540;  -74.483; -499.087; -557.843
685.808;  -77.356; -651.087; -682.843
686.076; -109.679; -894.087; -969.843
686.343;  -48.577; -601.087; -815.844
686.611;   47.550; -195.087; -224.844
686.879;  412.827; -530.086; -553.844
687.147; 3244.403; -483.086; -480.845
687.414;  944.055;  -12.086; -169.845
687.682;  -15.093; -658.086; -757.846
687.950;  291.184;  259.915;  263.154
688.217;   -7.664; -792.085; -760.846
688.485;  -14.712; -632.085; -636.847
688.753;  482.465;  -11.085; -102.847
689.020;  157.341; -820.085; -851.847
689.288; -103.482; -853.084; -787.848
689.555;  -41.455; -195.084; -148.848
689.823;  -51.078; -241.084; -345.849
690.090;  -85.501; -546.084; -651.849
690.358; -143.874; -877.084; -897.849
690.625;    8.853;  120.917;   45.150
690.892;  -80.471; -403.083; -369.850
691.160;  -23.319;   72.917;  -35.850
691.427;   -3.742;  141.917;  130.149
691.694; -121.040; -855.083; -929.851
691.962; -138.263;-1177.082;-1060.852
692.229;    4.264;  127.918;   56.148
692.496;   75.066;  130.918;  -49.852
692.763;    5.218; -164.082; -201.853
693.031;  -68.706; -739.082; -716.853
693.298;  -42.979; -509.081; -368.853
693.565;  271.648; -155.081; -163.854
693.832; 1253.950;   -5.081;   -9.854
694.099;  149.202; -643.081; -642.855
694.366;  -58.446; -882.081; -896.855
694.633;  -45.544; -920.080; -633.855
694.900;  724.232; 4367.920; -114.856
695.167;  426.759; -214.080; -380.856
695.434;  104.211; -646.080; -623.856
695.701;  203.263;  121.921;  -61.857
695.968;  459.065; -365.079; -361.857
696.234;  963.117; -415.079; -646.858
696.501;10553.519; -776.079; -614.858
696.768; 5657.920; -554.079; -617.858
697.035;  345.547; -632.078; -667.859
697.302;   42.749; -448.078; -552.859
697.568;   19.826; -458.078; -497.859
697.835;  -48.447; -683.078; -624.860
698.102;  -28.445; -498.078; -407.860
698.368;   72.857;  384.923;  396.139
698.635;  -41.616;  -47.077; -424.861
698.901;  -28.565; -240.077; -348.861
699.168;   60.962; -534.077; -456.862
699.435;   68.789;  -72.077;  -13.862
699.701; -105.234; -868.076; -764.862
699.968;    5.943;  144.924; -441.863
700.234; -102.680; -783.076; -822.863
700.500;  -72.328; -448.076; -539.864
700.767;   -8.352;   -1.075;   26.136
701.033; -135.125;-1015.075; -963.864
701.299;  -63.623; -450.075; -483.865
701.566;  100.554;  950.925;  763.135
701.832;   21.031;  -31.075;  -76.865
702.098; -104.467;-1054.074;-1034.866
702.365;  -88.765;-1098.074;-1030.866
702.631;  -39.314;-1038.074;-1063.867
702.897; 1287.413; -765.074; -676.867
703.163; 2307.715;  348.926;  254.133
703.429;  154.292; -256.073; -273.868
703.695;  -36.756; -796.073; -792.868
703.961;   15.946; -214.073; -210.868
704.227;  -64.577; -630.073; -725.869
704.493;  130.225;  613.927;  510.131
704.759;  -30.274; -565.072; -540.870
705.025;   35.453; -203.072; -194.870
705.291;   -2.395; -666.072; -562.870
705.557;  182.882;  719.928;   34.129
705.823;   33.834; -742.072; -694.871
706.089;  149.486; -307.071; -326.871
706.355;  354.663; -315.071; -244.872
706.620; 5590.514; -776.071; -729.872
706.886; 8275.166; -309.071; -362.873
707.152;  773.618; -818.070; -973.873
707.418;    0.670;-1153.070;-1186.873
707.683;   -7.678; -550.070; -530.874
707.949;  -42.326; -547.070; -578.874
708.215;    6.001; -129.070; -207.874
708.480;  -25.773; -520.069; -420.875
708.746;   77.304;   68.931;   28.125
709.011;  -59.744; -578.069; -612.876
709.277;  -68.467; -538.069; -543.876
709.542;  -45.790; -428.069; -387.876
709.808;    4.562;  -59.068;   89.123
710.073;  -91.536; -577.068; -695.877
710.339;  -26.384; -242.068; -228.877
710.604;   61.867; -780.068; -845.878
710.869;  325.419; -277.068; -366.878
711.135;  -76.879; -715.067; -628.879
711.400;  -84.702; -507.067; -608.879
711.665;  -66.175; -404.067; -479.879
711.931;  -97.223; -661.067; -677.880
712.196; -136.621; -876.067; -954.880
712.461;   91.680; -402.066; -490.880
712.726;  131.082; -727.066; -771.881
712.991;  -87.191; -647.066; -664.881
713.256;  -48.689; -350.066; -332.882
713.521;  -70.937; -417.065; -381.882
713.787;  -62.385; -454.065; -472.882
714.052;  -32.708; -214.065; -400.883
714.317;  -92.432;-1045.065; -981.883
714.581; 1008.445; -374.065; -268.883
714.846; 1526.172; -822.064; -888.884
715.111;  142.224;  261.936;  257.116
715.376;  -40.374;  -86.064; -223.885
715.641;  -34.272; -365.064; -367.885
715.906;  287.905;   15.936; -551.885
716.171;  130.932;  221.937;  209.114
716.436;   39.483;  -78.063; -104.886
716.700; -118.765; -818.063; -692.886
716.965; -123.513; -794.063; -807.887
717.230;  -78.686; -339.063; -392.887
717.494;  -24.209;  -40.062; -134.888
717.759;  -97.007; -784.062; -640.888
718.024;  -11.430;  269.938;  250.112
718.288;   65.996;  685.938;  395.111
718.553; -139.452; -803.062; -977.889
718.817; -144.975; -883.061; -899.889
719.082;  -38.423; -115.061; -125.890
719.346; -142.021;-1000.061; -947.890
719.611;  -51.994; -300.061; -255.891
719.875;  -93.867; -568.060; -537.891
720.140;  -60.541; -453.060; -603.891
720.404;   23.436; -136.060; -249.892
720.668;  797.738; -475.060; -411.892
720.933;  344.465;  146.940;  137.108
721.197; -110.308; -667.059; -600.893
721.461; -134.831; -851.059; -826.893
721.725;  -14.704;  -21.059; -250.894
721.990;  -65.127; -284.059; -204.894
722.254;  -28.376;  -26.059; -108.894
722.518;  -73.899; -286.058; -442.895
722.782; -105.672; -743.058; -594.895
723.046;  102.305;  614.942;  570.105
723.310;   16.332;  374.942;  210.104
723.574; -107.166; -654.058; -614.896
723.838; -109.914; -576.057; -642.897
724.102;  -42.063; -226.057; -239.897
724.366; -148.961;-1032.057; -978.897
724.630; -104.059; -749.057; -571.898
724.894; -100.582; -722.057; -514.898
725.158;  -18.780;   38.944; -295.898
725.422;  -47.878; -394.056; -327.899
725.685;  -59.751; -441.056; -349.899
725.949;  -93.225; -566.056; -519.900
726.213;  -75.723; -732.056; -811.900
726.477;  135.454;-1020.055; -933.900
726.740;  151.306; -274.055; -104.901
727.004;  315.658; -384.055; -510.901
727.268; 3361.785; -442.055; -400.901
727.531; 1009.937; -961.055; -775.902
727.795;  -39.661; -713.054; -673.902
728.059;  -72.685; -552.054; -557.903
728.322;  -89.433; -841.054; -669.903
728.586;   15.319; -692.054; -701.903
728.849;  -84.304; -695.053; -756.904
729.112; -116.802; -812.053; -912.904
729.376; -121.425; -959.053; -905.904
729.639; -101.498; -536.053; -536.905
729.903; -101.722; -733.053; -699.905
730.166;  -61.770; -437.052; -399.906
730.429;  -29.568; -317.052; -468.906
730.693;  -78.391; -355.052; -894.906
730.956;  181.561;  810.948;  651.093
731.219;  685.113; -310.052; -103.907
731.482;   97.865;-1003.051; -894.907
731.745;   98.742; -794.051; -935.908
732.009;    9.693;  -30.051;   50.092
732.272; -109.205; -904.051; -771.909
732.535;  -42.528; -300.051; -310.909
732.798; -157.076;-1083.050;-1166.909
733.061;  -59.874; -430.050; -456.910
733.324;   -6.722;   31.950; -180.910
733.587;   58.130;  290.950;  365.090
733.850;  -79.019; -973.049;-1050.911
734.113;   26.783;   33.951;   32.089
734.376;   -3.015; -328.049; -447.912
734.639;  201.187; 1188.951; 1011.088
734.901;   49.889; -180.049; -402.912
735.164;  457.616; -883.048; -837.913
735.427; 1299.918; -166.048; -355.913
735.690;  122.544; -205.048; -234.913
735.952;  -42.379; -923.048; -925.914
736.215;  -16.752;-1113.048;-1009.914
736.478;   30.850; -771.047; -774.915
736.740;  217.652;   33.953;  129.085
737.003;  574.904; -658.047; -672.915
737.266; 4015.131;  -94.047;   46.084
737.528;  455.358; -682.047; -660.916
737.791;  323.109; -316.046; -327.916
738.053;  759.111;  465.954;  649.083
738.316;10590.163; -162.046; -136.917
738.578; 8298.365; -770.046; -736.918
738.841;  458.667; -382.046; -446.918
739.103;  168.744; -875.045; -777.918
739.365;  499.046;   79.955;  -69.919
739.628;    2.797; -884.045; -805.919
739.890;  -19.401; -758.045; -710.919
740.152;  -39.299; -692.044; -754.920
740.414;  -16.797; -408.044; -359.920
740.677;  -56.245; -785.044; -634.921
740.939;  -46.168; -587.044; -487.921
741.201;  243.234; -432.044; -572.921
741.463;   46.710; -689.043; -745.922
741.725;    5.662;  -21.043; -199.922
741.987;   52.689;  220.957;  116.078
742.249;   -7.584; -751.043; -859.923
742.511;  201.693; -703.043; -794.923
742.773;   23.270; -546.042; -546.924
743.035;  114.497;  796.958;  533.076
743.297;  -58.576; -963.042;-1013.924
743.559;  709.475; -278.042; -262.925
743.821;   71.252; -735.042; -744.925
744.083;   16.079;  -44.041; -149.925
744.345;  -94.269; -869.041; -892.926
744.607;   42.033;   75.959;  122.074
744.868;  -55.390; -490.041; -554.927
745.130; -120.188; -994.041;-1008.927
745.392;   27.813;   -1.040;  -44.927
745.653;  -21.460; -411.040; -378.928
745.915;  127.342;  896.960;  631.072
746.177;   44.094;   35.960;  -43.928
746.438;    4.946; -428.040; -543.929
746.700;  -37.127; -947.039; -988.929
746.961;   -4.475; -659.039; -740.930
747.223;  135.701; -190.039;  -74.930
747.484;   84.228; -391.039; -471.930
747.746;  137.255;  -23.038; -106.931
748.007;  112.807; -647.038; -689.931
748.269;  286.684; -468.038; -440.931
748.530;  498.886; -852.038; -638.932
748.791;  257.788; -354.038; -420.932
749.053;  423.740;  286.963;  163.067
749.314;  456.866; -236.037; -169.933
749.575;  503.368; -945.037; -905.933
749.836;  842.870; -217.037;   86.066
750.098; 2267.772;  -60.037;  -21.934
750.359;35801.199;  414.964;  555.066
750.620;10180.051; -121.036; -220.935
750.881; 1055.703; -585.036; -513.935
751.142; 1356.054; -950.036; -938.936
751.403;16183.106; -789.036; -705.936
751.664; 8096.808;-1034.035; -999.936
751.925;  511.160; -175.035; -262.937
752.186;  272.237; -298.035; -278.937
752.447;  142.814; -590.035; -445.937
752.708;   39.566; -532.035; -648.938
752.969;   12.892; -566.034; -576.938
753.230;   -5.556; -777.034; -672.939
753.491;   -2.729; -650.034; -631.939
753.751;   57.648;  109.966;   19.061
754.012;   82.650;  258.967;  181.060
754.273;   46.977; -174.033;  -71.940
754.534;    6.729; -487.033; -580.940
754.794;  -83.294; -926.033; -911.941
755.055;  136.582; 1051.967;  881.059
755.316;  -55.066; -700.032; -566.942
755.576;  -28.864; -606.032; -576.942
755.837;  -56.937; -527.032; -695.942
756.097;  -41.860; -530.032; -564.943
756.358;  -66.358; -725.032; -770.943
756.618;  -50.156; -705.031; -641.943
756.879;  -10.680; -254.031; -349.944
757.139; -117.678;-1098.031;-1116.944
757.400;  -64.076; -538.031; -553.945
757.660;  -19.074; -365.031; -401.945
757.920;   -4.447; -266.030; -228.945
758.181;  -11.120; -468.030; -351.946
758.441;  -89.068; -870.030; -809.946
758.701;  -44.217; -308.030; -215.946
758.961;  -26.440; -220.030; -278.947
759.222;  -60.413; -574.029; -502.947
759.482;  -95.611; -683.029; -723.948
759.742;  -71.559; -706.029; -547.948
760.002;   14.793;  -83.029; -143.948
760.262;   26.020;   50.972;  182.051
760.522;  -28.103; -498.028; -574.949
760.782;  -42.852; -738.028; -612.949
761.042;  -21.250; -618.028; -573.950
761.302;   44.277;   55.972;  -18.950
761.562;   44.379; -164.027; -154.951
761.822;   89.906; -710.027; -551.951
762.082;  -29.942;-1104.027;-1093.951
762.342;   87.285; -328.027; -403.952
762.601;   60.836; -567.027; -506.952
762.861;  362.188; -281.026; -207.952
763.121;  397.040; -406.026; -411.953
763.381; 7254.667; -499.026; -485.953
763.640; 9160.194; -139.026; -307.954
763.900;  381.221; -242.026; -203.954
764.160;   85.273; -458.025; -491.954
764.419;    5.949; -726.025; -782.955
764.679;  -71.349; -795.025; -726.955
764.939;  -15.722; -124.025; -210.955
765.198;  -80.820; -608.025; -563.956
765.458;  -76.343; -710.024; -612.956
765.717;  -85.216; -454.024; -590.957
765.976;  -64.339; -428.024; -411.957
766.236;  -77.112; -475.024; -610.957
766.495;   24.889;  260.977;   73.042
766.755; -101.684;-1090.023; -987.958
767.014;  -10.232; -594.023; -665.958
767.273;  -65.830; -373.023; -397.959
767.533;  -41.853; -228.023; -307.959
767.792;  -41.376; -151.022; -188.960
768.051;  -51.149; -228.022; -276.960
768.310;  -84.923; -546.022; -650.960
768.569;  -12.721; -161.022;    4.039
768.828;  -42.594; -285.022; -363.961
769.088; -111.467;-1050.021; -942.961
769.347;  -97.790; -755.021; -599.962
769.606;  -91.463; -876.021; -857.962
769.865; -120.636;-1016.021;-1033.963
770.124;   -5.135; -411.021; -336.963
770.383;  -53.658; -778.020; -910.963
770.641;   -1.981; -398.020; -400.964
770.900;  -66.854; -953.020; -846.964
771.159;  -42.977; -851.020; -951.964
771.418;  -23.575; -917.020; -779.965
771.677;  135.252; -224.019; -293.965
771.936;  148.304; -794.019; -865.966
772.194; 2004.980; -465.019; -437.966
772.453;11806.582; -213.019; -391.966
772.712;  878.159;  416.982;  329.033
772.970;  119.911;   32.982;   63.033
773.229;   89.313;  -22.018;  102.033
773.488;  -93.710; -814.018; -770.968
773.746;   45.617;  296.982;  335.032
774.005;  -10.732;  190.983;  -22.969
774.263;   -2.205;  243.983;  177.031
774.522;  -51.753; -422.017; -548.969
774.780;  -84.001; -484.017; -417.970
775.039; -105.824; -551.017; -531.970
775.297;  -26.322; -135.016; -351.970
775.555; -120.870; -489.016; -612.971
775.814; -116.344; -618.016; -570.971
776.072; -132.092; -749.016; -740.971
776.330; -102.940; -630.016; -520.972
776.589; -112.963; -703.015; -721.972
776.847; -122.011; -645.015; -624.973
777.105; -166.534;-1016.015;-1032.973
777.363;  -90.832; -459.015; -454.973
777.621; -133.305; -660.015; -717.974
777.879;  -39.079;  -42.014;   32.026
778.138;  -95.302; -554.014; -717.974
778.396; -102.475; -585.014; -526.975
778.654; -166.048;-1015.014; -970.975
778.912;  -79.196; -269.014; -371.976
779.170; -127.544; -880.013; -803.976
779.427; -156.117; -922.013; -897.976
779.685; -142.616; -880.013; -832.977
779.943;  -88.714; -654.013; -593.977
780.201; -168.237; -964.012; -883.978
780.459; -112.885; -651.012; -610.978
780.717;  -91.983; -440.012; -390.978
780.974; -105.581; -449.012; -490.979
781.232;  -71.229; -358.012; -338.979
781.490;  -84.928; -551.011; -472.979
781.747;  -91.526; -555.011; -476.980
782.005;   29.926;  462.989;  254.020
782.263; -168.022; -542.011;-1004.981
782.520;  -86.070; -326.011; -501.981
782.778; -170.543;-1013.010;-1051.981
783.035; -171.866; -962.010; -938.982
783.293;  -69.539; -248.010; -206.982
783.550;  -45.438; -134.010; -198.982
783.808; -142.661; -764.010; -776.983
784.065; -161.109; -745.009; -874.983
784.322;  -47.607;   25.991;  -86.984
784.580; -137.330; -915.009; -771.984
784.837;  -99.153; -392.009; -466.984
785.094; -132.801; -783.009; -762.985
785.352;  -90.500; -304.008; -404.985
785.609; -116.248; -934.008; -839.985
785.866;  -81.196; -345.008; -401.986
786.123;  -73.094; -639.008; -583.986
786.380;  -94.192; -665.008; -604.987
786.637;  -53.065; -225.007; -380.987
786.895;  -41.663; -456.007; -543.987
787.152;  -53.012; -135.007; -267.988
787.409;  -44.960; -123.007; -225.988
787.666;  -84.258; -299.006; -378.988
787.923; -106.406; -616.006; -695.989
788.179; -108.854; -551.006; -584.989
788.436; -118.777; -585.006; -585.990
788.693;  -46.700;  -92.006;  -87.990
788.950;  114.677; -125.005; -112.990
789.207;  222.903; -381.005; -372.991
789.464;  -62.595; -161.005; -301.991
789.720;  -10.918;  150.995;  110.009
789.977; -162.766;-1003.005; -671.992
790.234;  -29.814;   44.996;  -66.992
790.490; -151.937; -884.004;-1031.993
790.747;  -33.685;  -85.004;   22.007
791.004;  -39.209; -426.004; -348.993
791.260;  -84.882; -430.004; -560.994
791.517;  -97.180; -843.003; -788.994
791.773;  -49.578; -379.003; -342.994
792.030; -119.176; -596.003; -660.995
792.286;  -98.449; -686.003; -636.995
792.543;  -25.647;  -74.002; -159.995
792.799;  -62.146; -584.002; -382.996
793.055; -165.469;-1179.002;-1210.996
793.312; -110.567; -827.002; -816.997
793.568;  -53.315; -746.002; -599.997
793.824;    4.437; -226.001; -284.997
794.081;   14.164; -447.001; -508.998
794.337;   59.041; -664.001; -561.998
794.593; 1171.468; -319.001; -271.999
794.849; 7014.919; -746.001; -772.999
795.105;  390.346; -270.000; -261.999
795.361;   14.098; -490.000; -457.000
795.617;  -61.825; -875.000; -945.000
795.873;  -45.425; -360.000; -407.000
796.129;  -51.675; -368.000; -306.000
796.385;  -30.575; -124.000; -156.000
796.641;   54.300;  412.000;  550.000
796.897;  -84.850; -666.000; -635.000
797.153;   49.900;  453.000;  357.000
797.409;  -98.775; -785.000; -868.000
797.665;  -65.200; -625.000; -732.000
797.921;  -79.475; -775.000; -762.000
798.176;  -58.575; -744.000; -747.000
798.432;  -48.925; -824.000; -596.000
798.688;  -62.875;-1174.000;-1078.000
798.943;   80.625; -165.000; -147.000
799.199;    6.475;-1005.000; -959.000
799.455;  233.650;  369.000;  316.000
799.710;  132.575; -813.000; -380.000
799.966;  311.600; -162.000; -160.000
800.221;  485.825; -638.000; -721.000
800.477; 9839.850; -743.000; -710.000
800.732;10429.350; -773.000; -800.000
800.988;  676.625;  205.000;  -19.000
801.243; 1671.100; -454.000; -344.000
801.498; 8616.575; -814.000; -739.000
801.754;  536.925; -289.000; -163.000
802.009;   82.650; -257.000; -335.000
802.264;  -44.925; -967.000;-1033.000
802.520;   18.825;  222.000;   -3.000
802.775;  -59.625; -524.000; -359.000
803.030;   54.075;  395.000;  356.000
803.285; -114.950; -840.000; -903.000
803.540;  -63.475; -686.000; -699.000
803.795;  -48.550; -648.000; -583.000
804.051;  -37.675; -279.000; -346.000
804.306;    8.550;  168.000;  128.000
804.561;  119.350;  451.000;  362.000
804.816;  112.400;  714.000;  861.000
805.071;  -16.075; -185.000; -280.000
805.325;  206.550; -257.000; -427.000
805.580;  -94.025; -841.000; -877.000
805.835;  -18.825; -204.000; -297.000
806.090;  -81.875; -760.000; -676.000
806.345;  -30.950; -344.000; -264.000
806.600;  -38.550; -549.000; -632.000
806.854;  -34.900; -408.000; -538.000
807.109;  -15.175; -493.000; -577.000
807.364;  -15.400; -407.000; -328.000
807.618;    2.000; -415.000; -381.000
807.873;   43.350; -470.000; -494.000
808.128;   97.700; -257.000; -518.000
808.382;  108.725; -224.000; -332.000
808.637;   76.900; -440.000; -511.000
808.891;  194.925; -257.000; -180.000
809.146;  124.800; -902.000; -794.000
809.400;  259.275; -848.000; -923.000
809.654;  349.425; -779.000; -551.000
809.909;  491.475; -841.000; -927.000
810.163; 5878.850; -813.000; -651.000
810.418;18123.425; -940.000; -861.000
810.672; 1159.275; -685.000; -690.000
810.926;  754.100; -993.000; -973.000
811.180; 1423.925; -439.000; -372.000
811.434;31775.100;  240.000;  135.000
811.689;15467.925; -231.000; -365.000
811.943;  746.225; -936.000; -953.000
812.197;  373.675; -893.000; -671.000
812.451;  157.075; -379.000; -514.000
812.705;  -11.825; -809.000; -619.000
812.959;  -11.750; -263.000; -388.000
813.213;   -0.100; -283.000; -209.000
813.467;   57.425;  470.000;  253.000
813.721;  -92.500; -764.000; -792.000
813.975; -123.675; -826.000; -877.000
814.229;   41.500;  430.000;  353.000
814.482;  -69.875; -517.000; -566.000
814.736; -117.275; -766.000; -744.000
814.990; -132.225; -779.000; -872.000
815.244;  -55.300; -228.000; -285.000
815.497;  -94.175; -636.000; -601.000
815.751;  -15.425; -141.000;   82.000
816.005;  -92.850; -470.000; -586.000
816.258;  -67.600; -510.000; -363.000
816.512; -109.500; -693.000; -610.000
816.766;   -4.950;  121.000;  157.000
817.019;   10.175;  148.000;  149.000
817.273; -115.425;-1000.000; -802.000
817.526;  -46.850; -206.000; -173.000
817.779;  -62.025;-1049.000; -960.000
818.033;  -70.050; -693.000; -807.000
818.286; -128.950; -725.000; -792.000
818.540;  -94.625; -403.000; -403.000
818.793;  -74.675; -402.000; -489.000
819.046; -101.900; -582.000; -520.000
819.299;  -45.600; -157.000; -166.000
819.553; -117.725; -552.000; -592.000
819.806; -158.325;-1016.000; -838.000
820.059;  -68.625; -334.000; -354.000
820.312;    4.100;  152.000;  185.000
820.565;  -19.825;  110.000;  -27.000
820.818;  -47.775;  -59.000; -173.000
821.071; -158.600;-1041.000; -957.000
821.324; -111.950; -536.000; -540.000
821.577; -106.550; -457.000; -483.000
821.830;  -74.575; -270.000; -172.000
822.083; -123.475; -733.000; -288.000
822.336;  -48.900; -261.000; -167.000
822.589; -140.025; -805.000; -688.000
822.842; -156.525; -875.000; -770.000
823.094; -178.650;-1076.000;-1114.000
823.347; -134.900; -925.000; -729.000
823.600;    1.975;  402.000;  187.000
823.853;  -51.900; -311.000; -267.000
824.105;  -84.450; -331.000; -575.000
824.358; -108.825; -617.000; -716.000
824.611;   14.400;  234.000;   40.000
824.863;  -65.975; -612.000; -591.000
825.116;   45.000;  -33.000;   27.000
825.368;   71.325; -366.000; -372.000
825.621;  160.575; -186.000; -240.000
825.873;  108.625; -704.000; -737.000
826.126;  520.750; -669.000; -641.000
826.378;11327.050; -389.000; -505.000
826.630; 3458.800; -890.000; -898.000
826.883;   51.525; -754.000; -693.000
827.135;   43.025; -279.000; -270.000
827.387; -110.675; -893.000; -839.000
827.639;  -34.375;  -86.000;   32.000
827.892; -120.550; -742.000; -582.000
828.144; -151.500; -848.000; -804.000
828.396;  -35.800;  104.000;  -80.000
828.648; -112.900; -440.000; -333.000
828.900; -159.725; -702.000; -795.000
829.152; -124.500; -684.000; -683.000
829.404;  -67.500; -215.000; -267.000
829.656;  -17.200;  321.000;  214.000
829.908;  -22.400;  393.000;  229.000
830.160; -171.950;-1064.000;-1047.000
830.412; -120.125; -481.000; -430.000
830.664; -118.925; -557.000; -665.000
830.916;  -89.875; -268.000; -206.000
831.167; -177.350;-1073.000; -951.000
831.419; -113.075; -623.000; -566.000
831.671; -153.525; -764.000; -809.000
831.923;  -88.525; -311.000; -447.000
832.174;  -85.625; -273.000; -331.000
832.426; -129.075; -493.000; -582.000
832.678; -190.875;-1043.000;-1091.000
832.929; -165.425; -947.000; -935.000
833.181;  -76.900; -575.000; -677.000
833.432;  -67.725;  -59.000; -186.000
833.684;  -36.625;  112.000;  -27.000
833.935; -125.075; -610.000; -566.000
834.187; -130.050; -829.000; -823.000
834.438;  -40.775;  -58.000;  -25.000
834.689;  -64.100; -255.000; -123.000
834.941;  -64.050; -343.000; -244.000
835.192;  -90.425; -590.000; -533.000
835.443; -103.750; -419.000; -506.000
835.695;  -24.150;  138.000;  -16.000
835.946;  -89.275; -608.000; -378.000
836.197; -118.225; -599.000; -622.000
836.448;  -90.325; -528.000; -395.000
836.699;  -68.975; -253.000; -341.000
836.950;  -18.700;   72.000;    7.000
837.201; -159.400;-1003.000; -987.000
837.452;  -57.025; -356.000; -170.000
837.703; -112.950; -791.000; -737.000
837.954;  -50.450; -205.000; -365.000
838.205;  -90.200;-1029.000;-1008.000
838.456;  177.950; -196.000; -282.000
838.707;  -12.125; -423.000; -519.000
838.958;   11.750; -634.000; -647.000
839.209;  286.800;   18.000;   40.000
839.460;  118.625; -439.000; -201.000
839.710;  164.825; -135.000; -297.000
839.961;  406.000;  730.000;  612.000
840.212;  339.025; -382.000; -497.000
840.462; 1055.000; -328.000; -277.000
840.713;17204.950; -571.000; -536.000
840.964; 8419.100;  -62.000; -143.000
841.214;  523.600; -384.000; -624.000
841.465;  578.850; -214.000; -141.000
841.715;  520.725; -417.000; -380.000
841.966;  662.775; -746.000; -685.000
842.216; 7871.250; -330.000; -431.000
842.466;35843.175; -169.000; -313.000
842.717; 2465.625; -964.000; -952.000
842.967;  324.350; -635.000; -641.000
843.217;  267.800;   20.000;   28.000
843.468;   57.350; -104.000; -132.000
843.718;  -44.825; -718.000; -726.000
843.968;  -90.700; -837.000; -765.000
844.218;   13.325; -315.000; -262.000
844.469;  -41.200; -577.000; -561.000
844.719; -119.450; -537.000; -682.000
844.969;  -96.650; -550.000; -580.000
845.219; -149.575; -814.000; -862.000
845.469;  -83.350; -392.000; -342.000
845.719; -141.350; -792.000; -884.000
845.969;   -3.375;  119.000;  174.000
846.219; -119.550; -738.000; -720.000
846.469;   25.625;  464.000;  432.000
846.718;  -54.250; -115.000;   31.000
846.968; -122.900; -827.000; -827.000
847.218;  -63.425; -224.000; -371.000
847.468;  -20.675; -586.000; -555.000
847.718; -143.350; -827.000; -798.000
847.967; -131.350; -826.000; -915.000
848.217;  -93.850; -449.000; -569.000
848.467;  -73.450; -405.000; -376.000
848.716; -114.975; -708.000; -725.000
848.966;    2.525; -372.000; -358.000
849.215;  -66.025; -428.000; -419.000
849.465;  -94.150; -785.000; -615.000
849.714; -147.325;-1132.000;-1150.000
849.964;  -72.725; -551.000; -613.000
850.213;  -30.850; -393.000; -355.000
850.463;   62.125;  137.000;  340.000
850.712;   -1.875; -542.000; -567.000
850.961;   23.350; -739.000; -678.000
851.211;   99.000; -513.000; -504.000
851.460;  169.650; -635.000; -650.000
851.709;  535.800;  -25.000;   18.000
851.958; 9605.275; -912.000; -750.000
852.208;14225.075; -859.000; -879.000
852.457;  550.900; -181.000;  -13.000
852.706;   71.250; -791.000; -823.000
852.955;   12.175; -507.000; -528.000
853.204;  -70.200; -521.000; -461.000
853.453;  -78.125; -418.000; -458.000
853.702; -144.575; -660.000; -750.000
853.951; -100.700; -532.000; -520.000
854.200; -129.125; -613.000; -562.000
854.449; -135.775; -695.000; -661.000
854.698;  -94.375; -340.000; -279.000
854.946;  -82.575; -181.000; -284.000
855.195; -160.750; -843.000; -868.000
855.444;  -99.500; -395.000; -420.000
855.693; -118.050; -345.000; -432.000
855.941; -119.500; -387.000; -516.000
856.190;  -71.550; -256.000; -382.000
856.439; -146.800; -652.000; -703.000
856.687;  -76.975;  -99.000;  -72.000
856.936; -123.425; -621.000; -323.000
857.184; -194.150;-1067.000;-1020.000
857.433; -102.675; -423.000; -512.000
857.681; -167.675; -989.000; -953.000
857.930;  -82.500; -282.000; -433.000
858.178; -169.775; -856.000; -929.000
858.427; -161.300; -802.000; -781.000
858.675; -129.150; -377.000; -544.000
858.923; -119.475; -527.000; -819.000
859.172; -174.300;-1094.000;-1070.000
859.420;  -91.800; -339.000; -239.000
859.668; -142.050; -624.000; -628.000
859.916;  -26.150;  109.000;  115.000
860.164; -123.375; -699.000; -603.000
860.413;  235.650; -878.000; -696.000
860.661;  249.525; -709.000; -577.000
860.909;  -83.925; -339.000; -325.000
861.157; -100.425; -277.000; -444.000
861.405; -135.300; -534.000; -670.000
861.653;    5.150;  310.000;  310.000
861.901;  136.850; -543.000; -613.000
862.149;   22.325; -801.000; -824.000
862.396;  -90.375; -297.000; -187.000
862.644; -106.450; -368.000; -347.000
862.892;  -45.800;   98.000;  138.000
863.140; -130.700; -549.000; -530.000
863.388; -159.800; -815.000; -759.000
863.635; -141.700; -642.000; -601.000
863.883;  -23.575;  231.000;  190.000
864.131; -109.350; -288.000; -357.000
864.378; -132.350; -675.000; -540.000
864.626; -105.550; -347.000; -415.000
864.873; -124.800; -556.000; -505.000
865.121; -144.925; -714.000; -799.000
865.368;  -47.400; -173.000;   75.000
865.616;  -63.425;  -33.000;  -40.000
865.863;  -77.800; -462.000; -506.000
866.111; -120.525; -795.000; -824.000
866.358;   31.000; -426.000; -420.000
866.605; 2106.725;  -64.000; -804.000
866.853; 2684.025; -621.000; -537.000
867.100;  -33.675; -728.000; -775.000
867.347; -100.225; -672.000; -611.000
867.594; -100.625; -740.000; -714.000
867.841;   78.275;   97.000;   17.000
868.089; -158.250; -746.000; -698.000
868.336; -108.925; -477.000; -420.000
868.583; -150.425; -637.000; -741.000
868.830;  -45.400; -131.000; -170.000
869.077; -176.050; -859.000; -787.000
869.324; -148.375; -502.000; -458.000
869.571; -145.800; -398.000; -430.000
869.818; -135.050; -485.000; -439.000
870.065; -110.975; -439.000; -513.000
870.311; -120.150; -456.000; -542.000
870.558; -118.375; -332.000; -311.000
870.805; -106.100; -320.000; -384.000
871.052; -111.725; -494.000; -369.000
871.298;  -64.825; -204.000; -131.000
871.545;  -86.225; -151.000; -185.000
871.792;  -97.175; -173.000; -222.000
872.038;  -83.925;   43.000; -126.000
872.285; -141.100; -496.000; -387.000
872.532; -116.425; -357.000; -387.000
872.778;  -19.350;  556.000;  403.000
873.025; -113.150; -384.000; -359.000
873.271;    6.450;  501.000;  578.000
873.517;  -42.775; -133.000; -209.000
873.764;  -35.150; -193.000;  -80.000
874.010;  -76.800; -143.000; -230.000
874.257;  -60.500;  123.000;   90.000
874.503; -127.225; -579.000; -479.000
874.749;  -64.400;   31.000;  275.000
874.995;  -83.550;  -80.000;  -20.000
875.242; -119.550; -540.000; -478.000
875.488; -120.050; -414.000; -439.000
875.734;  -62.950; -106.000; -234.000
875.980;  139.775; -872.000;-1032.000
876.226;  400.775; -157.000; -255.000
876.472;  -10.275;  343.000;  237.000
876.718;  -65.150;  184.000;  158.000
876.964;  -52.425;   56.000;   55.000
877.210; -138.350; -547.000; -677.000
877.456; -143.250; -630.000; -557.000
877.702; -192.975; -821.000; -832.000
877.948; -134.400; -377.000; -497.000
878.193;   -6.075;  361.000;  255.000
878.439; -110.700; -487.000; -472.000
878.685; -109.325; -272.000; -343.000
878.931; -150.325; -618.000; -676.000
879.176;  -89.900; -201.000; -201.000
879.422; -194.400; -933.000; -820.000
879.668;   51.075;   10.000;   79.000
879.913;  137.075;   53.000;  137.000
880.159;  -53.000; -112.000;  -17.000
880.404;  -66.950; -152.000; -162.000
880.650;  -65.475;   91.000;  141.000
880.895; -165.150; -670.000; -710.000
881.141; -129.600; -454.000; -428.000
881.386; -157.275; -503.000; -658.000
881.631;  -81.575; -311.000; -166.000
881.877;  -48.275;  112.000;  -13.000
882.122; -130.725; -684.000; -600.000
882.367;  -93.800; -136.000; -186.000
882.612;  -81.025;  -80.000; -176.000
882.858; -182.300; -877.000; -823.000
883.103; -104.300; -297.000; -267.000
883.348; -163.500; -759.000; -852.000
883.593; -148.925; -677.000; -602.000
883.838;  -78.625; -311.000;  -24.000
884.083;   27.875;  353.000;  288.000
884.328; -100.750; -564.000; -545.000
884.573;  -63.500; -196.000; -143.000
884.818;  153.075; -694.000; -531.000
885.063;  219.800; -348.000; -315.000
885.308; -104.675; -475.000; -398.000
885.553;  -29.300;  245.000;  325.000
885.797; -138.625; -545.000; -615.000
886.042;  -59.050;    8.000;   58.000
886.287;  -95.850; -253.000; -211.000
886.532;  -62.800;   26.000;  204.000
886.776; -106.200; -407.000; -525.000
887.021; -153.725; -621.000; -574.000
887.265; -151.875; -685.000; -689.000
887.510; -136.950; -557.000; -496.000
887.755; -103.625; -194.000; -164.000
887.999; -134.650; -552.000; -575.000
888.244;  -65.325;  -58.000;  161.000
888.488;  -16.850;  371.000;  393.000
888.732; -132.325; -368.000; -520.000
888.977; -131.125; -622.000; -567.000
889.221; -154.775; -683.000; -659.000
889.465; -132.775; -422.000; -566.000
889.710; -107.525;  -56.000; -299.000
889.954;  -24.775;  579.000;  467.000
890.198; -155.000; -584.000; -707.000
890.442; -164.850; -716.000; -712.000
890.687; -191.825; -800.000; -753.000
890.931;  -94.525; -273.000; -210.000
891.175; -137.825; -502.000; -500.000
891.419;  -91.125; -105.000; -110.000
891.663;  -96.050; -239.000; -112.000
891.907; -173.125; -801.000; -545.000
892.151; -179.500; -920.000; -815.000
892.395; -114.975; -274.000; -387.000
892.638;  -37.775;  408.000;  291.000
892.882; -187.300; -780.000; -867.000
893.126;   -0.050;  758.000;  558.000
893.370; -102.675; -167.000; -168.000
893.614; -155.725; -714.000; -715.000
893.857;  -99.125; -183.000; -197.000
894.101; -154.375; -527.000; -631.000
894.345;  -53.850;  300.000;  150.000
894.588;    2.225;  569.000;  380.000
894.832;  -86.900; -178.000;  -84.000
895.075; -104.950;   15.000;  -92.000
895.319; -131.250; -552.000; -420.000
895.563; -128.875; -413.000; -353.000
895.806; -152.325; -628.000; -741.000
896.049;  -63.650; -576.000; -368.000
896.293;   89.175;  527.000;  405.000
896.536;  -79.025; -465.000; -468.000
896.779;  -56.400; -149.000;   -1.000
897.023; -148.075; -751.000; -714.000
897.266;  -48.250;  325.000;  269.000
897.509; -190.975; -900.000; -901.000
897.752;  -55.575;  149.000;  171.000
897.996; -207.100; -972.000; -864.000
898.239;  -43.650;  168.000;  102.000
898.482; -128.025; -431.000; -453.000
898.725;  -43.800;  101.000;   53.000
898.968; -163.325; -609.000; -744.000
899.211; -116.825; -513.000; -361.000
899.454; -145.350; -633.000; -539.000
899.697;  -72.575;   90.000;  -43.000
899.940; -178.100; -761.000; -757.000
900.182; -114.725; -335.000; -405.000
900.425;  -96.350; -150.000; -298.000
900.668;  -39.625;  491.000;  350.000
900.911; -110.375; -292.000; -345.000
901.154;  -59.475;  141.000;   -3.000
901.396; -142.450; -407.000; -412.000
901.639; -146.200; -430.000; -496.000
901.882; -189.550; -790.000; -809.000
902.124;  -84.750;  -29.000; -143.000
902.367; -129.000; -315.000; -361.000
902.609; -140.825; -476.000; -453.000
902.852; -103.625; -108.000; -260.000
903.094; -129.300; -458.000; -337.000
903.337;  -77.450;  -26.000;   53.000
903.579; -110.625; -228.000; -441.000
903.821; -154.000; -597.000; -744.000
904.064;  -83.300;   85.000;  127.000
904.306; -111.975; -126.000; -166.000
904.548; -115.900; -152.000; -366.000
904.790; -111.000; -195.000; -340.000
905.033; -146.950; -625.000; -577.000
905.275; -134.175; -513.000; -524.000
905.517;   25.175;  468.000;  256.000
905.759;  -61.175; -667.000; -761.000
906.001; -110.375; -322.000; -369.000
906.243;  -74.250; -162.000; -224.000
906.485;   82.775; -265.000; -207.000
906.727;  110.875; -499.000; -542.000
906.969;  -50.525;  -30.000; -135.000
907.211;   80.925; -316.000; -382.000
907.453;  272.350; -188.000; -237.000
907.695;   16.750; -158.000; -385.000
907.936;   34.675;  818.000;  706.000
908.178;  -98.225;   92.000; -135.000
908.420;  -91.350; -111.000; -162.000
908.662; -140.925; -633.000; -682.000
908.903;  -98.650; -208.000; -123.000
909.145;  -44.300; -240.000; -305.000
909.386;   -0.900;  315.000;  280.000
909.628;   19.750;  363.000;  397.000
909.870;  -11.900;   29.000;  264.000
910.111;  -88.800; -809.000; -949.000
910.353;   17.725; -123.000; -161.000
910.594;   -7.275; -574.000; -606.000
910.835;   91.725; -265.000; -326.000
911.077;  147.675; -503.000; -604.000
911.318;  285.000; -505.000; -471.000
911.559;  459.975; -577.000; -880.000
911.801; 1313.450; -284.000; -280.000
912.042; 9795.250;  -50.000; -159.000
912.283;28973.975;  404.000;  371.000
912.524; 5301.000; -396.000; -457.000
912.765;  557.525; -193.000;   79.000
913.006;  260.725; -307.000; -338.000
913.247;   71.850; -270.000; -290.000
913.488;  -14.625;  -43.000;   30.000
913.729;  -75.250; -373.000; -373.000
913.970;  -75.900;  -96.000; -292.000
914.211;  -78.375; -160.000; -198.000
914.452;  -80.600; -118.000;  -11.000
914.693;   -5.925;  510.000;  592.000
914.934;   13.650;  510.000;  440.000
915.175;  -70.350;   53.000;  -95.000
915.415;  -76.550; -137.000;   27.000
915.656;  -59.875;  -28.000;  192.000
915.897;  -99.975; -252.000;  -82.000
916.137;  -70.425;   74.000;   -9.000
916.378; -133.200; -573.000; -517.000
916.619; -105.025; -159.000;  -63.000
916.859;  -30.450;  303.000;  330.000
917.100;  116.075; 1655.000; 1070.000
917.340;   33.200;  930.000;  728.000
917.581;   41.000;  965.000;  789.000
917.821;  -43.450; -171.000;  143.000
918.061;   -4.175; -199.000;  -72.000
918.302;  -66.850; -152.000; -211.000
918.542;  -44.950;  -22.000;    3.000
918.782;   20.850;  369.000;  377.000
919.023;  115.425;  360.000;  427.000
919.263; 1583.800; 8131.000;  202.000
919.503; 1180.900; -137.000;  -54.000
919.743;  613.000;  390.000;  266.000
919.983;  300.075; -134.000;  -26.000
920.223;   85.825;  135.000;   14.000
920.463;  153.900;  631.000;  554.000
920.703;  122.875;   84.000;   39.000
920.943;  173.275; -110.000;   90.000
921.183;  235.725; -414.000; -405.000
921.423;  519.975;  307.000;  546.000
921.663;  730.075; -174.000; -257.000
921.903; 1563.750;  237.000;  173.000
922.143; 8278.275;  372.000;  389.000
922.383;34069.475;  158.000;  115.000
922.622;13683.725; -120.000;  -15.000
922.862; 1419.500;  796.000;  785.000
923.102;  491.125;  -51.000;   33.000
923.341;  215.025;   59.000;   74.000
923.581;   83.500;  450.000;  360.000
923.821;   11.400;  301.000;  398.000
924.060;    4.475;  351.000;  193.000
924.300;  -68.325;  -16.000; -128.000
924.539;    0.000;  584.000;  473.000
924.779;   15.200;  812.000;  597.000
925.018;  -53.975;  247.000;  353.000
925.257;   -2.675;  595.000;  666.000
925.497;  -36.675;  447.000;  412.000
925.736;  -78.450;  -35.000;  102.000
925.975;   -8.500;  687.000;  669.000
926.214;   14.400;  907.000;  850.000
926.454;   -8.925;  706.000;  757.000
926.693;  -40.500;  419.000;  543.000
926.932;   29.050; 1021.000;  825.000
927.171;   61.725; 1107.000; 1044.000
927.410;   46.850; 1144.000;  967.000
927.649;   16.950;  924.000;  742.000
927.888;  -10.125;  590.000;  564.000
928.127;  -21.975;  680.000;  678.000
928.366;   11.800;  842.000;  826.000
928.605;   19.200;  831.000;  737.000
928.844;  207.200; 1451.000; 1393.000
929.083;  600.375;  770.000;  613.000
929.321;  357.500; 1335.000; 1359.000
929.560;   82.575; 1158.000; 1122.000
929.799;  -34.350;  574.000;  475.000
930.038;   66.225; 1025.000; 1394.000
930.276;  -53.800;  334.000;  397.000
930.515;    0.625;  827.000;  681.000
930.753;  -27.375;  614.000;  589.000
930.992;  -28.025;  664.000;  717.000
931.230;    2.175;  847.000;  847.000
931.469;  169.975; 2162.000;  892.000
931.707;   62.425;  840.000;  751.000
931.946;   60.000; 1278.000; 1344.000
932.184;   57.700; 1437.000; 1175.000
932.423;   39.100; 1265.000;  963.000
932.661;   77.500; 1296.000; 1428.000
932.899;   14.950;  987.000;  821.000
933.137;   11.350;  754.000;  564.000
933.376;  136.475; 1664.000; 1335.000
933.614;  142.500; 1759.000; 1196.000
933.852;   60.225; 1357.000; 1171.000
934.090;  134.925; 1722.000; 1747.000
934.328;   99.875; 1252.000; 1457.000
934.566;   94.100; 1431.000; 1110.000
934.804;  112.825; 1263.000; 1309.000
935.042;  442.175; 1861.000; 1850.000
935.280; 1787.975; 2088.000; 2063.000
935.518; 1905.775; 2113.000; 2007.000
935.756;  404.775; 2481.000; 2316.000
935.994;  142.550; 1808.000; 1751.000
936.231;  323.575; 2890.000; 2950.000
936.469;  184.900; 2367.000; 2378.000
936.707;  160.350; 2220.000; 2167.000
936.945;  208.050; 2825.000; 2882.000
937.182;  195.775; 2679.000; 2741.000
937.420;  290.725; 3602.000; 3031.000
937.657;  403.325; 3365.000; 3478.000
937.895;  334.350; 3331.000; 3488.000
938.133;  299.850; 3540.000; 3528.000
938.370;  321.400; 3896.000; 4191.000
938.607;  391.825; 4488.000; 4205.000
938.845;  540.800; 5587.000; 5549.000
939.082;  468.075; 5387.000; 5177.000
939.320;  521.350; 5799.000; 5728.000
939.557;  631.025; 6549.000; 6491.000
939.794;  678.325; 7285.000; 7097.000
940.031;  880.900; 8421.000; 8368.000
940.269; 1099.700; 9552.000; 9107.000
940.506; 1109.675;10901.000;10507.000

