
Integration time [ms]: 200.000
Averaging Nr. [scans]: 10
Smoothing Nr. [pixels]: 0
Data measured with spectrometer [name]: 2101013U2
Wave   ;Sample   ;Dark     ;Reference
[nm]   ;[counts] ;[counts] ;[counts] 

394.013;   96.058; -450.257; -315.536
394.305;  402.854; -461.258; -419.536
394.596; 1981.988; -676.269; -527.514
394.887; 4501.715; -796.268; -654.518
395.178; 1820.864;  145.736;   11.476
395.470;  109.782; -210.263; -356.526
395.761;  368.939;  305.734;  394.479
396.052;  567.886; -545.284; -306.489
396.343;  568.898; -557.276; -454.503
396.634;  166.448; -200.279; -290.497
396.926;  127.110; -618.268; -565.517
397.217;  146.006;   11.725;  -17.504
397.508;   56.831; -366.273; -154.507
397.799;    6.448; -555.279; -571.497
398.090;  -54.161; -973.280; -902.495
398.381;  201.764;   11.708;  -11.473
398.672;  -63.434; -585.292; -742.473
398.963;   34.258; -348.279; -373.498
399.254;  186.081;   54.709; -209.475
399.545; -104.267;-1017.266; -883.520
399.836;   79.481; -407.277; -343.501
400.127;   81.926; -205.295; -209.468
400.418;   65.922; -423.274; -392.506
400.709;   52.518; -359.281; -333.493
401.000;   80.487; -268.291; -309.476
401.290;  174.324;  225.698;  115.545
401.581;  143.458; -166.286; -228.485
401.872;   16.881; -542.298; -486.462
402.163;   58.614; -313.296; -252.467
402.454;  137.782; -123.291; -163.475
402.744;   43.500; -844.297; -813.465
403.035;  596.350; -226.293;  -86.471
403.326;  784.471; -366.292; -384.474
403.617;  609.872;  204.701;  165.539
403.907;  399.895; -593.283; -679.490
404.198; 4135.949; -545.307; -599.446
404.489;10369.103; -618.283; -588.491
404.779; 3519.929; -618.302; -660.456
405.070;  379.195;  -67.304; -174.451
405.360;  569.653; -259.293; -238.472
405.651;  624.047;  125.699;   98.542
405.942;  289.350;  209.714;  127.516
406.232;  321.974; -432.285; -413.487
406.523;  771.542;  641.706;  758.530
406.813;   93.654; -579.286; -644.484
407.104;  527.163;  261.708;  144.527
407.394;  206.474; -604.299; -591.462
407.685;  254.172;  336.715;  222.513
407.975;  105.600; -400.283; -382.490
408.265;  155.005; -134.289; -190.478
408.556;   99.477; -472.291; -459.475
408.846;  320.043;  474.706;  429.530
409.137;  131.919;   -1.288; -216.480
409.427;   86.673; -193.285; -271.487
409.717;   56.236; -776.273; -692.508
410.007;  197.363;    4.715; -170.486
410.298;  144.430; -360.295; -342.469
410.588;  118.869; -495.285; -510.486
410.878;   16.137; -792.287; -873.482
411.168;  141.285; -481.298; -478.463
411.459;  208.392; -295.283; -242.489
411.749;   88.975; -609.292; -507.474
412.039;   50.016; -755.289; -386.480
412.329;  353.969;   40.722;  132.501
412.619;  306.154;  -62.286; -148.485
412.909;  620.910;  639.711;  594.521
413.199;  533.739; -130.280; -251.495
413.490;  644.394;  521.710;  352.523
413.780;  182.046;-1013.279; -913.496
414.070;  538.400;  -46.276;  235.497
414.360;  534.163; -729.278; -666.498
414.650;  646.330; -726.288; -688.482
414.940;  846.245; -538.280; -441.496
415.230; 1491.526;   50.712;   74.519
415.520;10551.287;  155.730;   66.486
415.809;39641.517; -305.281; -125.493
416.099;31552.384; -388.277; -229.501
416.389; 8710.519;  435.726;  236.494
416.679; 5268.988;   91.738;   85.473
416.969;  906.144; -527.287; -503.483
417.259; 1080.849;  341.721;  171.503
417.549; 1197.915;  522.718;  318.508
417.838; 2845.314; -205.268; -147.518
418.128; 9293.003;  650.710;  492.522
418.418; 7794.947; -491.272; -579.509
418.708; 5349.419;    9.726;  -48.506
418.997;19746.412; -474.275; -480.505
419.287;20757.830; -733.273; -790.507
419.577;20295.791; -160.283; -123.489
419.866;62244.181; -588.277; -498.501
420.156;62686.380; -242.270;  -55.513
420.446;12136.676; -112.263;  -26.526
420.735; 1365.970; -376.271; -446.512
421.025; 1526.662; 1830.722;  315.502
421.314; 1040.867; -203.271; -226.512
421.604; 1912.502;   89.732;  233.484
421.893; 1091.261; -705.271; -602.511
422.183;  380.576; -487.263; -461.526
422.472;  619.664;  -36.271; -107.511
422.762;  715.743; -416.266; -379.521
423.051;  380.901; -916.276; -916.503
423.341;  493.433; -491.273; -439.507
423.630;  584.053; -121.265;   15.477
423.919;  618.711;   58.725;   49.495
424.209;  633.985;  -31.263;   56.473
424.498;  851.310;   68.732;  161.483
424.787; 1831.320; -535.267; -601.518
425.077; 5426.850;   34.735;   29.478
425.366; 7340.494; -734.262; -744.528
425.655;16917.034;  639.727;  259.493
425.945;36664.202; -313.247; -268.554
426.234;21367.531;  117.741;  300.467
426.523; 8453.039;  -86.259; -350.534
426.812;11669.436;  107.734;  159.480
427.101;17164.496; -127.269; -323.515
427.390;21399.386;  -55.270;  -86.514
427.680; 4492.871; -624.257; -411.538
427.969;  809.888; -330.255; -301.540
428.258;  521.657; -385.257; -477.536
428.547;  874.353;  449.728;  397.490
428.836; 1774.014; -421.253; -398.543
429.125; 2461.342; -199.259;  -72.534
429.414; 1237.351; -330.251; -294.548
429.703; 5410.451; -231.251; -213.548
429.992;15585.757; -938.250; -828.549
430.281;10393.665; -397.264; -331.524
430.570; 1019.836;  -21.252;   32.454
430.859;  855.438;  279.741;  352.466
431.148;  752.196;  636.752;  631.446
431.437;  513.335;  391.748;  367.454
431.725;  224.260; -544.257; -481.536
432.014;  189.426; -845.253; -756.545
432.303;  609.718; -149.239; -105.569
432.592;  903.275; -460.263; -178.525
432.881; 1736.697; -601.248; -437.554
433.169;10717.690; -343.255;  -61.540
433.458;21186.172;  445.765;  540.424
433.747; 8984.603; -397.261; -289.529
434.036; 1426.679; -275.242; -280.564
434.324; 3515.077; -395.249; -379.551
434.613; 6089.468;   40.757;  159.437
434.902; 2074.702;  333.760;  439.433
435.190;  797.516;   75.761;  295.431
435.479;  436.839;  -52.245;   83.441
435.767;  146.252; -411.244; -427.561
436.056;  353.572; -340.242; -294.563
436.345;  563.106; -372.240; -223.568
436.633;  663.369;   60.750;  383.450
436.922;  440.609;  208.760;  414.432
437.210;  786.856; -194.236;    1.426
437.499; 2249.369; -583.235; -432.576
437.787; 2626.156; -339.236;  -10.574
438.075;  752.425;   56.761;  162.430
438.364;  983.729;  -44.238;  250.429
438.652;  569.798; -286.226; -138.592
438.941;  206.440;    3.770;  269.415
439.229;    3.031; -665.252; -466.545
439.517;   72.283; -160.234;  -85.577
439.806;    3.123; -501.225; -290.595
440.094;  294.995;  377.766;  650.421
440.382;  225.101; -653.233; -302.580
440.670;  267.969; -361.235; -285.576
440.959;   15.251; -347.223; -170.599
441.247;   80.758; -151.229; -109.587
441.535;  179.780; -266.235;   31.423
441.823;   21.491; -497.234; -305.578
442.111;  307.765;  173.771;  327.412
442.400;  706.238; -628.245; -335.559
442.688; 1729.495; -111.234; -620.579
442.976; 1147.793; -786.213; -450.617
443.264;  134.034; -324.224; -364.597
443.552;  134.300; -258.226;   51.408
443.840;  290.478;  602.765;  876.423
444.128;  213.400;  265.767;  269.420
444.416;  -32.431; -694.228; -312.588
444.704;   58.899; -465.219;  -92.605
444.992;  107.704;   -0.226;  240.407
445.280;   64.441; -517.230;  -94.585
445.568;   17.099; -694.212; -396.618
445.856;  495.474; -174.221;  357.398
446.143;  906.093;  -54.220;   -7.604
446.431;  827.675;  -25.228;  625.411
446.719;  388.730;  489.783;  675.391
447.007;  328.732;  481.769;  705.416
447.295;  311.947;  597.777;  871.402
447.583;  132.955; -464.229;  -34.587
447.870;  204.869; -434.221; -202.601
448.158;  572.539; -104.230;  129.415
448.446;  387.895; -800.219; -338.604
448.733;  255.636;   13.776;  269.403
449.021;  400.998;   60.788;  341.382
449.309;  297.822; -296.210;  208.379
449.596;  363.024;  128.783;   59.392
449.884;  279.358; -571.222; -325.600
450.172;  233.184; -756.227; -406.590
450.459;  782.066;  645.786;  780.387
450.747; 4338.222; -411.218; -147.608
451.034;13045.777;  493.772;  889.411
451.322;10871.371; -413.214; -170.614
451.609;  992.139;  292.777;  508.403
451.897; 1046.424; -550.203; -183.634
452.184; 2962.347; -622.223; -400.598
452.472; 2861.157;   97.792;  269.375
452.759;  607.296;  512.781;  864.395
453.047;  150.394; -407.212; -125.617
453.334;   71.109; -732.219; -216.606
453.621;  137.175; -438.214; -161.615
453.909;  209.111;   13.796;  384.368
454.196;  194.584; -299.199; -123.641
454.483;  379.045;  317.798;  540.364
454.771;  214.662; -215.208;  196.374
455.058;  109.267; -316.207;  102.374
455.345;  242.073;   71.807;  344.347
455.632;  161.272; -128.207;  235.373
455.919;  109.321;  -82.196;  182.354
456.207; -134.508; -774.198; -450.642
456.494;  -24.036; -475.200;  -66.639
456.781;  -27.262; -399.202; -198.635
457.068;   95.083; -253.206;  -29.628
457.355;  -44.315; -698.206; -401.629
457.642;  -37.207; -552.205; -290.630
457.929;  -47.341; -778.194; -417.651
458.216;   94.895; -575.212; -354.617
458.503;  446.566; -173.193;  -19.652
458.790;  363.858; -864.208; -630.625
459.077;  457.646;  -77.202;  110.364
459.364; 1377.347; -350.195; -210.649
459.651; 2762.980;  -46.206;  220.372
459.938; 1359.643; -864.209; -665.623
460.225;  247.551;  132.799;  276.363
460.512;  -92.984; -836.197; -688.645
460.799;  157.020;  -32.218;  320.392
461.086;  110.772; -370.200; -251.640
461.372;   20.792; -509.198; -279.642
461.659;  179.323; -165.196;  108.354
461.946;  102.664; -445.193;  -54.651
462.233;  451.868;  842.800;  888.361
462.519;  623.663; -814.201; -464.639
462.806; 1651.417; -768.197; -497.645
463.093; 1473.397; -445.191;  -66.656
463.380;  -77.336; -920.186; -824.664
463.666;  103.420; -259.197;  -18.646
463.953;  164.339; -406.195; -243.648
464.239;  305.839; -173.195;  -77.648
464.526;  652.156;  413.806;  743.350
464.813;  484.116; -565.190; -304.658
465.099;  626.266;  606.807;  607.348
465.386;  559.272;  903.807;  921.348
465.672;   12.417; -694.197; -522.645
465.959;   16.645; -598.188; -520.662
466.245;   -0.028; -468.193; -359.652
466.532;  148.736; -109.195;   63.352
466.818;   92.663; -357.186; -216.664
467.104;  -13.272; -488.182; -415.672
467.391;   -7.681; -628.189; -459.658
467.677;   70.769; -289.186;    9.335
467.964;    2.130; -682.189; -471.660
468.250;   86.574; -331.186; -160.665
468.536;  154.821;   90.811;  180.341
468.822; -102.807; -821.184; -574.668
469.109;  314.158;  351.827;  471.311
469.395;  379.088;  729.808;  787.346
469.681;  372.726;   46.811;  156.341
469.967; 2193.333; -699.188; -382.660
470.254; 4428.346; -494.188; -306.662
470.540; 3022.120; -601.196; -476.646
470.826;  409.346; -488.181; -397.675
471.112;  546.698;  288.816;  113.331
471.398;  150.206; -253.183;  -58.670
471.684;   61.792; -626.177; -447.680
471.970;  -17.548; -918.180; -981.675
472.256;   54.786; -521.192; -441.654
472.542;   32.476; -499.171; -434.691
472.828;   -9.278; -743.182; -607.672
473.114;   61.446; -380.166; -283.700
473.400;  -12.682; -504.175; -293.684
473.686;   35.956; -452.166; -400.701
473.972;  123.442; -230.174; -131.687
474.258;  -95.541; -925.173; -843.689
474.544;  392.879; -183.178;   -2.679
474.830;  589.021;  -65.175;   45.316
475.116;  857.319; -123.190; -196.658
475.401; 1091.856; -558.180; -467.676
475.687;  308.354; -725.180; -718.676
475.973;  -11.165; -673.181; -770.673
476.259;  453.325;  736.825;  764.315
476.544;  677.305; -539.176; -437.682
476.830; 1488.670; -398.172; -322.690
477.116; 1313.003; -430.177; -336.682
477.401;  293.955;  346.820;  358.324
477.687;   -2.181; -289.175; -405.684
477.973;   77.840;   21.819;   28.326
478.258;  -10.011; -448.163; -348.706
478.544;   89.682;   21.815;   61.334
478.829;  -82.615; -818.171; -738.692
479.115; -107.331; -749.172; -651.690
479.401;  -16.965; -444.174; -449.686
479.686;   47.553; -253.180;  -74.676
479.972;  -71.913; -886.178; -776.680
480.257;   81.749; -258.166;  -65.700
480.542;   -4.509; -614.170; -469.693
480.828;  492.616; 1288.824; 1392.317
481.113;  -54.288; -464.176; -426.683
481.399;  -25.972; -236.161; -202.711
481.684;  -79.952; -620.166; -462.700
481.969;   42.749; -158.159;  -73.713
482.255;  -12.991; -439.169; -285.695
482.540;  -33.513; -569.178; -441.680
482.825;   12.456; -395.187; -404.663
483.110;  194.514;  -85.169; -105.696
483.396;  320.284; -840.157; -652.718
483.681;  924.042;  543.826;  730.313
483.966;  284.340; -696.160; -700.712
484.251;   15.641; -404.174; -310.687
484.536;   20.865; -356.165; -378.703
484.822;   23.545; -205.173; -218.687
485.107;  -37.554; -599.152; -502.726
485.392;  294.074;  662.836;  541.296
485.677;  155.430;  354.832;  163.302
485.962;  239.280;  160.843;  270.283
486.247;  157.602;  -14.162;   -8.707
486.532;   88.650; -178.166; -325.701
486.817;  303.519;  381.839;  431.291
487.102;  192.318; -453.154; -514.722
487.387; 1254.287; -637.156; -652.718
487.672; 2038.683; -154.164;  -38.705
487.957; 1391.230; -394.160; -286.711
488.241;  377.073; -290.150; -314.729
488.526; 1388.948; -280.152; -148.726
488.811; 2096.890; -881.177; -818.680
489.096; 1589.723; -666.154; -702.723
489.381;  885.542;    3.847;  162.275
489.666;  702.427; -428.161; -510.710
489.950;  371.428;  558.846;  627.277
490.235;  -54.635; -480.151; -458.728
490.520;  -81.674; -756.161; -723.710
490.804;  -99.710; -827.156; -736.719
491.089;   30.698; -469.149; -299.732
491.374;  113.380; -132.164;  -75.704
491.658;   -7.484; -817.147; -717.735
491.943;  266.055; -657.152; -609.727
492.227;  385.312; -178.155;  -38.721
492.512;   97.079; -294.157; -341.717
492.797; -131.512; -713.149; -716.731
493.081; -109.979; -588.147; -598.735
493.366;  -62.872; -751.161; -635.711
493.650;  441.307;  831.859;  917.254
493.935;   38.116; -648.147; -447.734
494.219;  -65.214; -778.142; -687.743
494.503;  -68.620; -585.150; -487.730
494.788;  123.666;   46.842;   74.285
495.072;  214.975;  184.850;  434.271
495.356;  305.603; -463.148; -343.733
495.641;  718.132; -812.146; -736.736
495.925;  638.698; -976.156; -903.719
496.209;   62.797; -599.149; -451.732
496.494;  -47.413; -763.142; -544.744
496.778;   25.518; -364.154; -360.722
497.062; -106.102; -819.156; -627.719
497.346;  -55.567; -869.160; -640.711
497.631;  305.409;  580.852;  560.266
497.915;  144.848;  -64.145;  175.261
498.199;   67.984; -341.157; -277.718
498.483;   65.645; -562.152; -508.725
498.767;  335.577;  301.850;  300.271
499.051;  347.493; -126.149; -100.732
499.335;   59.090; -693.149; -739.731
499.619;  -62.930; -381.129; -423.767
499.903;   87.709; -272.155;  -65.721
500.187;   40.730; -588.153; -316.724
500.471;   10.654; -796.152; -595.727
500.755;  190.726;   62.839;  -96.710
501.039;   52.710; -270.155; -357.721
501.323;  154.109;  -21.141;  264.254
501.607;   62.890; -447.163; -503.706
501.891;   -7.713; -607.156; -512.718
502.174;  -75.433; -726.144; -585.741
502.458;  138.860;   89.849;  370.273
502.742;  115.248; -180.138; -191.751
503.026;  219.315; -412.147; -254.734
503.310;  299.348; -437.159; -375.713
503.593;  188.018; -464.147; -325.735
503.877;  231.913; -232.133; -156.760
504.161;  300.634;    2.847;  -50.724
504.444;  206.270; -841.158; -710.716
504.728;  789.179; -487.164; -522.704
505.012; 1240.672; -257.150;  -76.729
505.295;  997.328; -417.161; -212.711
505.579;  955.997; -256.156; -496.719
505.862; 1447.943; -555.145; -333.738
506.146; 1308.852; -681.159; -758.714
506.429;  825.452;  568.841;  461.286
506.713;  104.167; -732.151; -667.728
506.996;  604.717;   90.846;  295.278
507.280;  626.271; -633.165; -474.703
507.563;  444.107; -469.155; -261.721
507.847;  215.431; -423.153; -112.724
508.130;  170.929; -665.161; -456.711
508.413;  236.942; -758.167; -577.700
508.697;  460.042; -151.167;   12.300
508.980;  265.733; -422.153; -312.724
509.263;    9.601; -466.155; -450.720
509.547;  101.871; -124.150;   82.271
509.830;   79.832; -172.160;  140.289
510.113;  214.797;  128.844;  298.281
510.396;   97.443; -530.152; -300.725
510.680;  180.545; -818.145; -812.738
510.963;  838.925;  184.846;  180.277
511.246;  645.084; -493.150; -357.730
511.529;  464.853; -482.145;  -83.739
511.812;  682.807; -250.134;   10.241
512.095;  457.662; -740.151; -396.728
512.378;  178.024; -317.147; -245.736
512.661;   62.560; -703.137; -623.753
512.944;   49.689; -750.142; -637.744
513.227;  132.056; -170.137; -171.752
513.510;   69.066; -479.144; -671.741
513.793;   48.016; -485.140; -435.747
514.076;  283.503;  -43.127;  -39.771
514.359;  184.498; -294.149; -135.732
514.642;  185.394; -442.142; -567.744
514.925; 1476.214;  581.860;  561.253
515.208; 1757.601; -498.134; -443.758
515.491; 1187.224; -276.133; -182.761
515.773;  697.172; -410.143; -337.742
516.056; 3927.670;  249.864;  409.246
516.339; 4812.477; -754.136; -652.755
516.622; 3217.480; -518.150; -488.730
516.904; 1811.484;  882.857;  975.257
517.187;  768.154; -730.138; -523.752
517.470;  623.582; -568.143; -510.743
517.752;  741.781; -624.136; -470.756
518.035;  628.033; -708.139; -725.749
518.318;  742.077; -799.136; -744.755
518.600; 4567.129; -300.132; -325.762
518.883; 5944.193;  310.858;   88.256
519.165; 2965.742; -585.138; -426.751
519.448;  669.429;  -61.132;  -19.762
519.730;  338.215; -573.126; -415.773
520.013;  567.017;  588.867;  664.240
520.295; 1201.010;  -94.134;  -15.759
520.578; 2501.250; -335.131; -305.764
520.860; 2820.929; -254.132;   56.238
521.143; 1575.985; -763.135; -584.756
521.425;  827.136; -251.125; -279.775
521.707; 1259.104; -622.127; -380.771
521.990; 3351.204; -199.127;  167.229
522.272; 3531.519; -116.140;   -4.748
522.554; 1645.674; -237.143; -157.742
522.836;  555.506;  -24.134;   99.241
523.119;  361.413; -496.148; -189.734
523.401;  240.261; -448.130; -314.766
523.683;  152.061; -865.137; -693.753
523.965;  557.850;  408.862;  260.248
524.247;  519.370;   54.878;  170.220
524.529;  385.510; -451.134; -367.759
524.812;  661.464;   -3.130;  191.234
525.094; 1659.649; -773.138; -631.751
525.376; 2464.151; -143.124;   78.223
525.658; 1521.372; -441.136; -339.754
525.940;   63.144; -805.131; -671.764
526.222;   46.478; -188.136;  -88.755
526.504;  170.341; -190.131;   32.237
526.786;  237.214; -960.133; -647.760
527.068;  425.759; -124.123;  -67.778
527.349;  149.267; -865.137; -774.754
527.631;  233.129; -137.132;   22.238
527.913;  255.702; -664.127; -450.771
528.195;  308.925; -761.125; -639.774
528.477;  439.302;  -93.134;  -30.758
528.759;  250.364; -648.130; -522.766
529.040;  127.257; -569.123; -293.778
529.322;  125.629; -235.125;  -10.774
529.604;  210.567;  -47.130;   93.233
529.886;  170.215; -546.126; -302.773
530.167;  225.654;  232.870;  192.235
530.449;  113.923;    1.853;   63.265
530.731;   80.069; -572.122; -459.779
531.012;  144.402; -513.120; -216.784
531.294;  163.065; -118.116;  -43.792
531.575;  383.136;  290.875;  538.225
531.857;  106.093; -548.135; -266.757
532.138;  272.207; -113.141;   40.254
532.420;  318.387;  294.865;  403.244
532.701;  313.818; -722.133; -751.760
532.983;  555.622;  232.867;  182.239
533.264;  226.312; -243.126;  175.228
533.546;  -56.922; -491.136; -508.755
533.827;  114.212;  173.867;   -1.759
534.109;   59.093; -352.135;  -80.757
534.390;  161.635; -725.132; -582.762
534.671;  392.287; -270.135;  -82.756
534.953;  224.162; -751.123; -611.779
535.234;   32.841; -426.117; -255.789
535.515; -153.684; -891.119; -735.785
535.796;   18.196; -431.128; -193.770
536.078; -225.750;-1050.124; -904.777
536.359;   51.563;  -22.123;    3.221
536.640;  -22.573; -480.125; -197.774
536.921;  309.576;  225.871;  143.232
537.202;  700.644;  -87.138;  -16.751
537.483;  815.649;  251.869;  377.236
537.764;  320.854;   17.870;   98.235
538.045;  -96.400; -543.134; -371.758
538.326;  -59.121; -596.129; -447.768
538.607;   49.205; -686.127; -476.771
538.888;  323.788;   98.879;    5.218
539.169;  354.779; -704.122; -535.781
539.450;  594.974;  236.871;   16.233
539.731;  371.394; -361.121; -182.783
540.012;  293.902;  199.880;  412.216
540.293;  171.541;   82.876;  158.224
540.574;   -5.702; -895.113; -717.796
540.855;  810.192;  435.879;  377.218
541.136;  920.375;   47.878;  139.220
541.416;  446.165; -161.130; -220.766
541.697;  424.942; -274.131; -170.763
541.978; 1955.391; -270.135; -315.757
542.259; 2272.505; -211.127; -236.771
542.539; 1151.055; -191.116; -186.790
542.820;  378.235;  461.875;  480.225
543.101;  247.347;  -52.145;  -77.738
543.381;   32.304; -638.127; -591.771
543.662;  475.500;  159.873; -254.771
543.942; 1014.298; -751.127; -830.770
544.223; 1852.377;  193.878;  161.219
544.504; 1264.250; -275.124; -182.777
544.784; 1131.714; -592.126; -408.773
545.065; 3028.761;  104.884; -254.791
545.345; 3462.316;  227.881;   14.215
545.626; 2394.197;  -14.113; -108.796
545.906; 1584.153;   77.869;   98.235
546.186;  698.922;   92.874;  -95.773
546.467;  399.554;   99.877;  -95.778
546.747;  610.955;  264.884;  327.210
547.027;  694.747;   91.876;  111.223
547.308;  581.996; -376.127; -530.770
547.588;  708.880;  299.871;  371.232
547.868;  386.455;  458.870;  588.235
548.149;  418.773;  609.885;  593.207
548.429;  247.102; -347.127; -299.771
548.709;  375.802; -645.120; -461.784
548.989;  902.831;   84.882;   88.213
549.269; 4161.426;   10.868;  139.239
549.550; 8757.460;  215.877;  117.222
549.830; 7593.126; -758.111; -556.799
550.110; 1654.338; -468.110; -320.801
550.390; 1584.069; -128.122;  -56.779
550.670; 1961.090; -868.114; -783.795
550.950; 1450.891; -509.121; -471.782
551.230;  403.585;  549.879;  460.218
551.510;    1.089; -381.121; -326.782
551.790;  122.551; -173.109; -127.803
552.070;  599.254;  940.877; 1181.223
552.350;  754.622; -492.119; -377.786
552.630; 1101.181;   -2.121;   77.219
552.909;  675.362;  181.884;   73.209
553.189;  511.337;  -49.132;   33.237
553.469;  365.022; -703.119; -514.786
553.749;  383.707; -469.127; -357.772
554.029;  340.548;   33.883;  -24.790
554.308;  316.580; -154.115;  -37.794
554.588;  167.194; -196.128; -204.770
554.868;  155.492; -366.121;  -47.782
555.147;  319.675; -114.115;  -46.793
555.427; 1252.366; -260.116; -250.792
555.707; 7288.872; -284.115; -200.793
555.986; 8172.631; -719.111; -538.800
556.266; 4573.953;   23.884;   72.210
556.546;  238.489; -888.121; -675.782
556.825;  539.587; -657.114; -556.794
557.105; 3381.691; -125.128;   17.230
557.384; 3669.260;  122.884;  187.209
557.664; 1479.265; -717.116; -508.792
557.943;  224.391; -557.121; -411.782
558.222;  360.236; -345.118; -344.788
558.502;  500.478; -116.115;  -76.793
558.781;  964.970;  194.885;  499.208
559.061;  746.536; -232.118; -227.788
559.340;  623.244;  302.883;  353.211
559.619; 1366.553;   93.884;  148.210
559.899; 1893.447; -239.117; -266.789
560.178; 1790.577; -778.115; -593.793
560.457; 6002.449; -623.117; -562.790
560.736; 7502.934; -472.111; -482.800
561.015; 5321.587; -500.128; -502.769
561.295;  735.783;  180.893;  215.193
561.574;  639.173;  119.885;  116.207
561.853;  953.358;  274.891;  303.197
562.132;  964.081;  -45.114;  182.206
562.411;  888.082;  396.879;  553.219
562.690;  257.270; -592.115; -458.792
562.969;  338.209;  472.888;  630.203
563.248; 1053.578; 2966.878; 2487.219
563.527;  503.132; -290.111; -408.800
563.806;  720.102; -650.127; -521.771
564.085;  814.907; -297.105; -206.810
564.364;  445.752; -594.117; -405.790
564.643; 1013.483; -276.121; -223.781
564.922; 3476.748;  221.890;  397.198
565.201; 3357.554; -640.109; -700.803
565.479; 1563.368; -297.115; -219.792
565.758;  608.791; -810.128; -712.770
566.037;  875.356; -155.109; -100.803
566.316;  477.061; -286.116;  -28.791
566.595;  118.272;  -17.115;  -12.793
566.873;  257.436; -166.111;  -79.801
567.152;  -75.592; -490.113; -590.797
567.431;   88.754; -113.116;    6.210
567.709;   50.783; -344.107; -212.807
567.988;  513.486; -810.114; -769.794
568.266;  932.372; -160.115;  -68.793
568.545;  761.583; -644.100; -514.819
568.824; 1141.767;  160.885;  356.208
569.102;  996.086; -351.114; -235.794
569.381;  465.666; -492.116; -407.792
569.659;  -60.798; -553.113; -553.796
569.938;   73.775; -743.122; -465.780
570.216;  207.960; -225.109; -225.804
570.494;  -31.709; -632.114; -572.795
570.773;  130.989;  202.879;  114.218
571.051;   36.358; -373.123; -357.778
571.330;  145.498; -221.113; -174.796
571.608;  103.212; -181.098; -173.823
571.886; -103.077; -671.111; -581.799
572.164;  -70.308; -739.121; -621.782
572.443;  -38.787; -562.105; -512.811
572.721;  -41.550; -399.117; -289.790
572.999;  -31.161; -280.117; -168.788
573.277;  210.803;  379.894;  620.191
573.555;  611.806;   94.894;   37.190
573.834; 2508.639;  -86.117; -114.788
574.112; 2823.787;  880.893;  811.193
574.390;  954.834; -143.111;  -96.801
574.668;   32.710;  -91.112;  -61.797
574.946;   -9.594; -165.106; -187.810
575.224;   62.154;   71.891;  -16.803
575.502;  -16.943; -200.116; -204.791
575.780; -121.389; -767.112; -829.798
576.058;  299.033; 1589.889; 1004.200
576.336;   -3.358; -210.110; -129.801
576.614;  -83.288; -511.112; -340.798
576.891;  106.979; -711.115; -823.794
577.169;  870.473; -158.108; -285.805
577.447; 1045.886;  169.893;  202.193
577.725;  543.919;  629.888;  854.201
578.003;   49.616;  -71.112; -371.798
578.280;  193.228; -208.104; -242.812
578.558;  112.278; -450.115; -422.793
578.836;  234.391; -210.114; -145.795
579.114;   99.709; -630.112; -670.797
579.391;  143.542;   -6.117;  -18.789
579.669; -138.019; -595.114; -704.794
579.947;  362.481; -326.107; -127.806
580.224;  562.481; -692.107; -524.806
580.502;  583.187;  127.893;   76.193
580.779;  101.351;  -42.117;   75.210
581.057; -119.340; -584.109; -470.804
581.334; -146.748; -726.102; -695.815
581.612;  129.508;   54.895;  511.190
581.889;  -24.527;  -83.101; -129.818
582.167;  -38.504; -298.099; -190.821
582.444; -185.736; -845.102; -814.817
582.721;  199.665;  657.899;  715.183
582.999;  159.192; -326.100; -167.821
583.276; 1028.865; -812.123; -713.779
583.553; 1267.257; -364.102; -294.816
583.831;  478.622; -607.104; -631.812
584.108;  166.669;  349.892;  174.195
584.385;   21.051; -122.102;  -98.815
584.662; -133.164; -651.111; -828.801
584.940;  115.435;  204.889;  204.199
585.217;   -6.999;  -73.113; -303.796
585.494;  109.749;   71.890;  118.198
585.771;  413.262; -250.109; -354.804
586.048;  876.901; -196.113;  -76.796
586.325;  535.640; -721.110; -773.801
586.602;  217.628;  230.896;  213.188
586.879;   11.386; -499.100; -580.820
587.156;  112.709; -156.105; -331.810
587.433;  -46.639; -701.102; -667.817
587.710;  149.613;  152.888;  234.202
587.987;  611.817; -264.105; -236.811
588.264; 1386.415;  315.888;  387.202
588.541; 2587.232;  -61.104;   26.187
588.818; 4684.865;   72.892;  171.196
589.095; 4021.025; -163.104; -174.812
589.371;  697.758; -459.109; -414.804
589.648;   50.287; -581.107; -437.807
589.925;   85.892; -517.114; -621.795
590.202;   61.212; -741.112; -607.798
590.478;  179.520; -166.105;  -73.811
590.755;  552.575; -241.108; -132.806
591.032; 4700.444; -741.110; -699.802
591.308; 5825.776; -732.094; -790.831
591.585; 3272.543; -573.110; -560.802
591.862;  285.563;-1056.102; -950.817
592.138;  176.971; -475.108; -474.805
592.415;  321.830; -486.104; -495.813
592.691; 2797.026;  460.896;  518.188
592.968; 3155.715; -208.098; -123.824
593.244; 1555.355; -695.116; -595.790
593.521;  171.464; -105.102;  -42.817
593.797;  -15.529; -810.122; -720.780
594.074;  624.735; -611.096; -588.826
594.350; 1177.053;  828.905;  729.172
594.626;  557.936; -303.111; -283.801
594.903;  197.265; -643.101; -645.817
595.179;  413.836;  243.896;  418.187
595.455;   26.889; -136.107; -150.807
595.731;   54.538;  -19.103;  -38.814
596.008;  -63.373; -464.111; -434.800
596.284;  103.090; -187.100; -242.820
596.560;  127.886; -501.093; -493.833
596.836;  411.912; -173.105;  -70.810
597.112;  640.072; -582.108; -437.805
597.388;  521.532;  -49.097;  -48.826
597.665;  227.205;  437.887;  530.203
597.941; -109.866; -572.089; -658.839
598.217;   38.049; -323.110; -293.802
598.493;  562.064;   61.891; -204.804
598.769;  906.480; -175.100;  -50.819
599.045;  538.077; -490.108; -562.806
599.321;  116.888; -193.100; -261.820
599.597;  291.263; -355.109; -476.804
599.872;  918.632;  409.896;  429.187
600.148;  675.734;  -61.097; -172.826
600.424;  612.585;   91.893;  202.193
600.700;  446.988; -170.107; -280.807
600.976;  243.025; -442.097; -464.825
601.252;  464.557; -226.109; -272.803
601.527;  388.834; -833.104; -840.813
601.803;  319.821; -453.105; -404.812
602.079;  384.080; -124.100; -118.819
602.354; 1087.802; -620.092; -531.835
602.630; 1455.401; -140.113; -482.796
602.906; 4577.773; -910.101; -863.818
603.181;11785.622; -627.119; -534.786
603.457;10126.530;   98.903; -278.826
603.733; 1593.095; -605.120; -626.783
604.008; 1965.107; -245.106; -164.810
604.284; 5245.067; -636.101; -580.817
604.559; 4723.019;   -3.112;  -42.799
604.835;  926.612; -163.105; -225.810
605.110;  825.597; -732.099; -892.821
605.385; 1229.391;  224.907;  267.167
605.661; 1296.157; -625.095; -729.829
605.936; 2075.377; -664.108; -737.806
606.211; 1806.949;  -17.103; -170.815
606.487;  385.084; -329.114; -376.794
606.762;   50.322; -791.119; -745.786
607.037;  -19.588; -501.105; -433.810
607.313;  -47.154; -589.096; -574.828
607.588;   34.107; -375.106; -137.810
607.863;  126.672;  -28.101; -143.818
608.138;  377.847;  513.890;  516.198
608.413;  100.403; -576.099; -592.822
608.688;  113.771; -203.108; -267.805
608.964;  404.597; -509.106; -218.809
609.239;  471.308; -107.105; -212.810
609.514;  549.821;  281.895;  240.188
609.789; 1156.528; -187.104; -716.812
610.064; 1540.944; -435.096; -609.827
610.339; 1627.058; -855.109; -799.804
610.614; 2150.789; -131.100; -315.820
610.889; 1282.021;  215.895;  107.188
611.163;   85.822; -407.104; -591.812
611.438;  174.286;   81.886; -167.794
611.713;   51.767; -467.101; -499.817
611.988;  127.670; -144.101; -328.818
612.263;  -18.148; -771.102; -717.815
612.538;  463.800;  385.887;  251.204
612.812;  309.491; -832.100; -911.820
613.087;  269.511; -358.098; -338.823
613.362;  -66.611; -497.107; -557.807
613.637;  116.342;  261.897;  138.186
613.911;   13.503; -256.092; -345.835
614.186;  309.886; -249.107; -292.807
614.460; 1251.255; -842.081; -758.854
614.735; 1410.371;  -55.087;  -17.843
615.010;  350.255;   43.912;  -82.841
615.284;  485.070;  360.892;  246.195
615.559;  637.901; -792.092; -955.835
615.833;  534.700;  -76.099;  -87.822
616.108;   26.020; -225.090; -390.837
616.382;  294.874;  274.913;  402.156
616.656;  303.921; -241.090; -232.837
616.931;  893.601; -785.099; -700.822
617.205; 1887.234; -973.104; -979.813
617.480; 1739.932;  -91.125;    6.225
617.754;  317.128; -396.125; -128.774
618.028;   50.581; -369.129; -382.768
618.302;  173.468;   73.892;  -25.805
618.577;  -71.855; -371.103; -518.815
618.851;  -98.947; -399.109; -600.803
619.125;  -77.890; -335.134; -378.759
619.399;    3.635; -244.104; -374.813
619.673;  -61.333; -330.115; -515.792
619.947;  -40.709; -333.114; -448.795
620.222;  -12.462; -198.110; -204.801
620.496;   50.092;  -47.121;  -96.782
620.770;   81.879; -187.122;  -93.781
621.044;  445.409;  323.895;  346.190
621.318; 1323.896; -653.120; -614.783
621.592; 1230.493; -430.121; -409.783
621.866;  653.020; -476.112; -572.799
622.140;  101.657; -207.116; -356.791
622.413;  152.927;  138.889;  112.200
622.687;  -36.133; -746.101; -492.817
622.961;   55.368; -130.108; -143.805
623.235;  -96.172; -633.111; -661.800
623.509; -175.380; -816.105; -848.811
623.783;   71.582;  -12.107;   48.193
624.056;   27.998; -254.120; -280.783
624.330;  147.510;   63.888;   -3.797
624.604;  114.452; -271.116; -355.790
624.877;  164.645;  180.890;   26.198
625.151;   98.382; -249.114; -238.794
625.425;  -12.962; -150.103; -283.814
625.698;  -82.987; -367.119; -374.785
625.972; -164.251; -799.110; -765.802
626.245;  170.955;  685.884;  484.210
626.519;  -68.795; -426.120; -340.784
626.792;  -33.412; -192.107; -380.807
627.066; -123.933; -485.122; -662.779
627.339; -165.158; -736.110; -663.802
627.613;  104.302;  351.880;  148.216
627.886;  147.152;  187.891; -612.803
628.160;    7.196;  312.880; -161.783
628.433; -159.663; -695.125; -703.775
628.706; -112.995; -517.120; -615.784
628.979;   85.447;  296.876;  117.223
629.253; -122.579; -785.119; -833.786
629.526;  731.412; -334.126; -253.772
629.799;  616.459; -641.123; -479.778
630.072;  314.883; -497.128; -516.769
630.346;  -77.445;-1115.116;-1080.790
630.619;  866.090; -467.107; -545.808
630.892; 1130.729;  709.889;  593.200
631.165;  697.835;  790.896;  679.187
631.438; -129.784;-1092.112;-1055.798
631.711;  128.764;  453.877;  257.221
631.984;  -76.553; -523.117; -624.789
632.257; -104.158; -636.117; -681.789
632.530;  -48.286; -412.119; -433.785
632.803;   76.579; -109.115;    7.207
633.076;  -97.546; -360.123; -422.777
633.349;   58.490;  173.872;  121.231
633.622;   -5.388; -187.119; -240.785
633.895; -192.802; -903.120; -823.783
634.167;  -95.885; -496.126; -525.773
634.440;   38.665;  -19.116; -137.792
634.713;   30.119;  -22.119; -120.786
634.986;  184.474;  593.871;  453.233
635.258; -126.024; -507.115; -597.793
635.531;  244.435;  742.882; -343.788
635.804;  -30.255; -303.117; -318.789
636.077; -139.041; -830.116; -852.791
636.349;   30.573; -586.115; -474.793
636.622;  772.611; 1695.874; 1392.228
636.894;  463.105; -474.120; -909.784
637.167;  248.101; -836.127; -789.771
637.439;  109.995; -278.128; -213.770
637.712;  -45.986; -312.126; -293.772
637.984; -132.840; -635.116; -707.791
638.257;  776.754;  515.877;  488.222
638.529;  906.939; -881.125; -924.776
638.802;  455.283; -508.128; -449.769
639.074; -180.823; -927.122; -952.781
639.346; -228.804; -942.135; -930.757
639.619;   33.291;  -79.142; -319.744
639.891;   14.967;  -83.122; -168.779
640.163; -127.330; -689.122; -756.780
640.435;   94.473;  273.878;  103.220
640.708;   32.176;  -72.122; -132.780
640.980;  -23.121; -366.122; -362.781
641.252;  415.782;  -25.121;  -71.781
641.524; 3164.785;  580.879;  573.219
641.796; 3079.988;-1094.121; -907.782
642.068;  565.491; -191.121; -300.782
642.340; -101.406; -486.121; -566.783
642.613;  127.497;  294.880;  323.217
642.885; -166.901; -787.120; -878.783
643.157;  -82.798; -810.120; -658.784
643.428;  161.105;  170.880;  218.216
643.700;  -93.092; -498.120; -425.784
643.972;  -29.589;  -16.119; -133.785
644.244; -118.986; -474.119; -559.785
644.516;  -57.783; -250.119; -114.786
644.788;  181.220;  662.881;  548.214
645.060;   12.723;  -12.119; -124.786
645.332; -170.274; -525.118; -535.787
645.603;  141.529;  479.882;  342.213
645.875;  -86.268; -334.118; -369.787
646.147;  407.035; 1487.882; 1242.212
646.418;  -95.162; -931.117; -918.788
646.690;  294.141; -714.117; -715.789
646.962;   94.144; -413.117; -451.789
647.233;   56.247;   15.883;   11.211
647.505; -159.450; -595.117; -475.790
647.776;   91.852;  328.884;  229.210
648.048;   32.255; -248.116; -418.790
648.320; -117.042; -752.116; -679.791
648.591; -284.339;-1055.116; -958.791
648.862; -131.836; -505.116; -577.792
649.134;   91.967;  115.885;  198.208
649.405;  -62.230; -661.115; -618.792
649.677;  -62.227; -475.115; -598.793
649.948;   -3.824; -181.115; -296.793
650.219;   24.879;  -37.115; -147.793
650.491; -130.318; -431.114; -520.794
650.762; -210.815; -705.114; -731.794
651.033; -127.712; -437.114; -424.795
651.304; -153.109; -743.114; -728.795
651.576; -116.106; -680.114; -645.795
651.847;  -26.803; -250.113; -140.796
652.118;   -0.700;  -32.113; -189.796
652.389; -178.498; -639.113; -722.796
652.660;   -3.395; -147.113;  -89.797
652.931; -264.292; -897.112; -871.797
653.202; -129.389; -382.112; -541.798
653.473; -119.586; -633.112; -533.798
653.744;  265.717; -595.112; -590.798
654.015;  241.220; -356.112; -303.799
654.286; -104.577; -642.111; -663.799
654.557;  -65.174; -586.111; -521.799
654.828; -273.471;-1114.111;-1088.800
655.099; -139.968; -404.111; -291.800
655.370; -149.665; -427.111; -543.801
655.641; -219.962; -656.110; -714.801
655.911; -153.559; -618.110; -638.801
656.182;  126.144;  437.890;  387.198
656.453;  271.947;  830.890;  746.198
656.724; -111.150; -466.110; -426.802
656.994; -111.348; -553.109; -568.803
657.265; -174.145; -862.109; -873.803
657.536;  -88.242; -500.109; -377.804
657.806; -143.839; -561.109; -593.804
658.077; -237.336; -866.109; -950.804
658.347; -120.533; -523.108; -598.805
658.618; -198.330; -646.108; -694.805
658.888;   -1.127;  -41.108;  112.195
659.159;  -99.824; -432.108; -548.806
659.429;  -28.121; -292.108; -349.806
659.700;   71.682; -435.107; -390.807
659.970;   -3.915; -370.107; -359.807
660.241;   79.688; -754.107; -921.807
660.511;  898.791; -147.107; -174.808
660.781;  187.194; -793.106; -748.808
661.052;  -46.903; -222.106; -381.808
661.322;   -1.800;   21.894;   -9.809
661.592;   62.002;  257.894;  148.191
661.862; -100.495; -369.106; -382.810
662.133; -156.892; -551.105; -502.810
662.403; -221.589; -770.105; -676.810
662.673;  -53.486; -256.105; -213.811
662.943; -143.583; -612.105; -551.811
663.213;   28.620;  -85.105;  -81.811
663.483; -107.377; -593.104; -568.812
663.753;  -39.574; -194.104; -152.812
664.023;   26.129;   68.896;  -32.813
664.293;  -86.568; -319.104; -126.813
664.563; -179.165; -694.104; -648.813
664.833; -199.862; -743.103; -608.814
665.103; -217.359; -730.103; -793.814
665.373; -194.656; -766.103; -806.814
665.643; -127.653; -863.103; -918.815
665.913;   79.250; -534.103; -714.815
666.182;  253.953; -685.102; -719.816
666.452;  546.255;  -22.102;  -89.816
666.722;  -13.742; -724.102; -784.816
666.992; -245.039; -948.102; -921.817
667.261; -144.036; -824.102; -808.817
667.531;  394.167;  134.899;   45.183
667.801;  900.370; -440.101; -412.818
668.070;  452.473;  714.899;  697.182
668.340; -155.424; -883.101; -840.819
668.609;  214.379;  588.900;  301.181
668.879; -103.918; -490.100; -558.819
669.149;  -86.415; -539.100; -516.820
669.418; -157.312; -698.100; -726.820
669.688;  -24.809; -482.100; -666.820
669.957;  111.694; -423.099; -546.821
670.226;  -32.603; -268.099; -331.821
670.496; -140.200; -431.099; -635.822
670.765; -103.197; -418.099; -501.822
671.034; -225.195; -872.099; -828.822
671.304;   24.108;   55.902; -111.823
671.573; -256.989;-1085.098; -957.823
671.842;  217.614; -380.098; -294.823
672.112;   41.217; -692.098; -586.824
672.381;   27.520; -239.098; -214.824
672.650; -217.177;-1005.097;-1021.825
672.919; -170.574; -631.097; -507.825
673.188; -108.671; -681.097; -878.825
673.457; -267.868;-1101.097;-1143.826
673.726; -116.765; -579.096; -646.826
673.995;  -70.262; -533.096; -479.826
674.265;   -3.759; -263.096; -333.827
674.534;   17.244; -183.096; -235.827
674.802;   48.047; -618.096; -703.828
675.071; 1982.050; -886.095; -801.828
675.340; 6639.353; -464.095; -339.828
675.609; 2368.755;  103.905;   82.171
675.878;  138.158; -949.095; -893.829
676.147;  112.361;  -26.095;   -8.829
676.416;  235.464; -210.094; -294.830
676.685; 1362.167; 1000.906; -622.830
676.953;  221.670; -603.094; -452.831
677.222;   -2.427; -193.094; -273.831
677.491;    1.676;  -24.094; -127.831
677.759;   44.279;   11.907;  172.168
678.028;    9.982; -279.093; -222.832
678.297;   22.785;   71.907;  197.168
678.565; -230.312; -898.093; -944.833
678.834;  -81.709; -311.093; -268.833
679.102; -129.106; -411.092; -391.834
679.371; -239.803; -898.092; -727.834
679.639; -225.900; -797.092; -786.834
679.908; -211.097; -794.092; -724.835
680.176; -251.595; -895.091; -941.835
680.445; -126.492; -346.091; -352.835
680.713;   34.611;  -58.091;  -23.836
680.982; -144.286; -523.091; -525.836
681.250; -136.383; -578.091; -507.837
681.518; -159.980; -534.090; -751.837
681.787;   30.823; -204.090; -167.837
682.055;  -67.874; -490.090; -422.838
682.323; -237.571; -993.090; -992.838
682.591;  148.532; -216.090; -538.838
682.859;  201.635;    9.911;  -35.839
683.128;   49.438;  232.911;  497.161
683.396; -266.359;-1102.089;-1122.840
683.664;  -44.456; -241.089;   21.160
683.932;   65.547;  144.911;  -76.840
684.200; -107.550; -576.088; -320.841
684.468;  -14.047;  -73.088; -124.841
684.736;  -27.744; -214.088; -175.841
685.004; -222.342;-1024.088; -982.842
685.272;  -79.739; -880.088; -774.842
685.540;  -76.836; -499.087; -557.843
685.808; -118.833; -651.087; -682.843
686.076; -172.430; -894.087; -969.843
686.343;  -90.427; -601.087; -815.844
686.611;  155.676; -195.087; -224.844
686.879;  961.879; -530.086; -553.844
687.147; 5630.882; -483.086; -480.845
687.414; 1625.185;  -12.086; -169.845
687.682;   19.088; -658.086; -757.846
687.950;  592.091;  259.915;  263.154
688.217;   39.194; -792.085; -760.846
688.485;   75.697; -632.085; -636.847
688.753;  931.500;  -11.085; -102.847
689.020;  288.003; -820.085; -851.847
689.288; -141.894; -853.084; -787.848
689.555;   -8.492; -195.084; -148.848
689.823;  -42.889; -241.084; -345.849
690.090; -131.786; -546.084; -651.849
690.358; -213.183; -877.084; -897.849
690.625;   66.120;  120.917;   45.150
690.892;  -80.577; -403.083; -369.850
691.160;   34.526;   72.917;  -35.850
691.427;   21.729;  141.917;  130.149
691.694; -239.068; -855.083; -929.851
691.962; -235.065;-1177.082;-1060.852
692.229;   72.838;  127.918;   56.148
692.496;  211.341;  130.918;  -49.852
692.763;   81.944; -164.082; -201.853
693.031; -100.853; -739.082; -716.853
693.298;  -47.450; -509.081; -368.853
693.565;  649.653; -155.081; -163.854
693.832; 2226.656;   -5.081;   -9.854
694.099;  315.458; -643.081; -642.855
694.366;  -97.939; -882.081; -896.855
694.633; -100.136; -920.080; -633.855
694.900; 1594.867; 4367.920; -114.856
695.167;  750.870; -214.080; -380.856
695.434;  190.873; -646.080; -623.856
695.701;  420.976;  121.921;  -61.857
695.968;  840.179; -365.079; -361.857
696.234; 1912.582; -415.079; -646.858
696.501;17445.285; -776.079; -614.858
696.768; 8386.488; -554.079; -617.858
697.035;  571.191; -632.078; -667.859
697.302;  110.694; -448.078; -552.859
697.568;   62.197; -458.078; -497.859
697.835;  -46.500; -683.078; -624.860
698.102;  -14.197; -498.078; -407.860
698.368;  219.106;  384.923;  396.139
698.635;   -1.292;  -47.077; -424.861
698.901;   39.211; -240.077; -348.861
699.168;  178.114; -534.077; -456.862
699.435;  201.217;  -72.077;  -13.862
699.701; -190.380; -868.076; -764.862
699.968;  -27.177;  144.924; -441.863
700.234; -146.674; -783.076; -822.863
700.500;  -52.671; -448.076; -539.864
700.767;   66.932;   -1.075;   26.136
701.033; -193.065;-1015.075; -963.864
701.299;  -53.262; -450.075; -483.865
701.566;  283.441;  950.925;  763.135
701.832;   81.844;  -31.075;  -76.865
702.098; -148.153;-1054.074;-1034.866
702.365; -140.350;-1098.074;-1030.866
702.631;  -34.947;-1038.074;-1063.867
702.897; 2379.756; -765.074; -676.867
703.163; 3667.759;  348.926;  254.133
703.429;  297.261; -256.073; -273.868
703.695;  -94.136; -796.073; -792.868
703.961;   65.467; -214.073; -210.868
704.227;  -67.530; -630.073; -725.869
704.493;  310.773;  613.927;  510.131
704.759;  -22.424; -565.072; -540.870
705.025;   81.179; -203.072; -194.870
705.291;   40.482; -666.072; -562.870
705.557;  403.385;  719.928;   34.129
705.823;  100.088; -742.072; -694.871
706.089;  251.291; -307.071; -326.871
706.355;  704.694; -315.071; -244.872
706.620; 9619.497; -776.071; -729.872
706.886;12339.200; -309.071; -362.873
707.152; 1238.003; -818.070; -973.873
707.418;  -23.094;-1153.070;-1186.873
707.683;   -9.291; -550.070; -530.874
707.949;  -45.289; -547.070; -578.874
708.215;   50.014; -129.070; -207.874
708.480;   -0.583; -520.069; -420.875
708.746;  238.520;   68.931;   28.125
709.011;  -76.877; -578.069; -612.876
709.277; -132.774; -538.069; -543.876
709.542;   -9.671; -428.069; -387.876
709.808;   77.732;  -59.068;   89.123
710.073;  -74.365; -577.068; -695.877
710.339;  -15.262; -242.068; -228.877
710.604;  174.141; -780.068; -845.878
710.869;  559.544; -277.068; -366.878
711.135;  -99.053; -715.067; -628.879
711.400; -110.150; -507.067; -608.879
711.665;  -76.047; -404.067; -479.879
711.931; -113.744; -661.067; -677.880
712.196; -174.241; -876.067; -954.880
712.461;  252.661; -402.066; -490.880
712.726;  262.564; -727.066; -771.881
712.991; -118.633; -647.066; -664.881
713.256;  -52.130; -350.066; -332.882
713.521;  -56.427; -417.065; -381.882
713.787;  -62.824; -454.065; -472.882
714.052;  -36.821; -214.065; -400.883
714.317; -177.818;-1045.065; -981.883
714.581; 1780.285; -374.065; -268.883
714.846; 2085.188; -822.064; -888.884
715.111;  309.691;  261.936;  257.116
715.376;  -22.106;  -86.064; -223.885
715.641;   56.697; -365.064; -367.885
715.906;  553.100;   15.936; -551.885
716.171;  299.303;  221.937;  209.114
716.436;  144.906;  -78.063; -104.886
716.700; -136.991; -818.063; -692.886
716.965; -188.088; -794.063; -807.887
717.230;  -73.186; -339.063; -392.887
717.494;    4.717;  -40.062; -134.888
717.759; -161.780; -784.062; -640.888
718.024;   76.023;  269.938;  250.112
718.288;  193.226;  685.938;  395.111
718.553; -219.171; -803.062; -977.889
718.817; -238.068; -883.061; -899.889
719.082;   -1.265; -115.061; -125.890
719.346; -235.462;-1000.061; -947.890
719.611;  -18.259; -300.061; -255.891
719.875; -151.356; -568.060; -537.891
720.140;  -88.853; -453.060; -603.891
720.404;  143.650; -136.060; -249.892
720.668; 1539.753; -475.060; -411.892
720.933;  562.456;  146.940;  137.108
721.197; -133.241; -667.059; -600.893
721.461; -205.538; -851.059; -826.893
721.725;   39.964;  -21.059; -250.894
721.990;  -45.633; -284.059; -204.894
722.254;   22.370;  -26.059; -108.894
722.518;  -86.127; -286.058; -442.895
722.782;  -96.624; -743.058; -594.895
723.046;  282.879;  614.942;  570.105
723.310;  133.482;  374.942;  210.104
723.574; -140.315; -654.058; -614.896
723.838; -150.212; -576.057; -642.897
724.102;  -32.909; -226.057; -239.897
724.366; -200.206;-1032.057; -978.897
724.630; -129.503; -749.057; -571.898
724.894; -101.300; -722.057; -514.898
725.158;   59.703;   38.944; -295.898
725.422;  -38.594; -394.056; -327.899
725.685;  -90.091; -441.056; -349.899
725.949;  -81.988; -566.056; -519.900
726.213; -101.286; -732.056; -811.900
726.477;  360.517;-1020.055; -933.900
726.740;  276.720; -274.055; -104.901
727.004;  674.123; -384.055; -510.901
727.268; 5514.326; -442.055; -400.901
727.531; 1385.529; -961.055; -775.902
727.795;  -35.768; -713.054; -673.902
728.059;  -64.265; -552.054; -557.903
728.322; -107.862; -841.054; -669.903
728.586;   89.841; -692.054; -701.903
728.849; -145.256; -695.053; -756.904
729.112; -189.153; -812.053; -912.904
729.376; -181.450; -959.053; -905.904
729.639;  -98.647; -536.053; -536.905
729.903; -142.344; -733.053; -699.905
730.166;  -57.441; -437.052; -399.906
730.429;  -67.438; -317.052; -468.906
730.693;  -97.736; -355.052; -894.906
730.956;  497.767;  810.948;  651.093
731.219; 1188.170; -310.052; -103.907
731.482;  268.673;-1003.051; -894.907
731.745;  159.976; -794.051; -935.908
732.009;  119.979;  -30.051;   50.092
732.272; -136.918; -904.051; -771.909
732.535;  -30.215; -300.051; -310.909
732.798; -277.112;-1083.050;-1166.909
733.061;  -71.709; -430.050; -456.910
733.324;   84.694;   31.950; -180.910
733.587;  191.797;  290.950;  365.090
733.850;  -82.900; -973.049;-1050.911
734.113;  141.303;   33.951;   32.089
734.376;   53.106; -328.049; -447.912
734.639;  519.309; 1188.951; 1011.088
734.901;  191.012; -180.049; -402.912
735.164;  934.015; -883.048; -837.913
735.427; 2226.917; -166.048; -355.913
735.690;  248.520; -205.048; -234.913
735.952;   -8.877; -923.048; -925.914
736.215;  -23.074;-1113.048;-1009.914
736.478;  103.129; -771.047; -774.915
736.740;  455.532;   33.953;  129.085
737.003; 1442.935; -658.047; -672.915
737.266; 6887.138;  -94.047;   46.084
737.528;  793.341; -682.047; -660.916
737.791;  590.144; -316.046; -327.916
738.053; 1541.747;  465.954;  649.083
738.316;18845.350; -162.046; -136.917
738.578;11761.253; -770.046; -736.918
738.841;  783.356; -382.046; -446.918
739.103;  362.259; -875.045; -777.918
739.365;  901.262;   79.955;  -69.919
739.628;   36.365; -884.045; -805.919
739.890;    3.767; -758.045; -710.919
740.152;   -9.930; -692.044; -754.920
740.414;   32.773; -408.044; -359.920
740.677;   -8.124; -785.044; -634.921
740.939;  -30.721; -587.044; -487.921
741.201;  547.982; -432.044; -572.921
741.463;   95.685; -689.043; -745.922
741.725;   77.488;  -21.043; -199.922
741.987;  170.791;  220.957;  116.078
742.249;   65.194; -751.043; -859.923
742.511;  403.597; -703.043; -794.923
742.773;   96.800; -546.042; -546.924
743.035;  284.403;  796.958;  533.076
743.297;    1.206; -963.042;-1013.924
743.559; 1343.409; -278.042; -262.925
743.821;   96.812; -735.042; -744.925
744.083;   90.215;  -44.041; -149.925
744.345;  -98.483; -869.041; -892.926
744.607;  158.420;   75.959;  122.074
744.868;  -30.877; -490.041; -554.927
745.130; -170.374; -994.041;-1008.927
745.392;  160.029;   -1.040;  -44.927
745.653;   24.132; -411.040; -378.928
745.915;  372.435;  896.960;  631.072
746.177;  168.638;   35.960;  -43.928
746.438;   33.741; -428.040; -543.929
746.700;  -37.356; -947.039; -988.929
746.961;   37.447; -659.039; -740.930
747.223;  290.050; -190.039;  -74.930
747.484;  221.853; -391.039; -471.930
747.746;  347.256;  -23.038; -106.931
748.007;  271.759; -647.038; -689.931
748.269;  587.962; -468.038; -440.931
748.530;  832.465; -852.038; -638.932
748.791;  530.067; -354.038; -420.932
749.053;  845.470;  286.963;  163.067
749.314;  846.273; -236.037; -169.933
749.575;  891.276; -945.037; -905.933
749.836; 1561.079; -217.037;   86.066
750.098; 5003.382;  -60.037;  -21.934
750.359;60996.485;  414.964;  555.066
750.620;14637.188; -121.036; -220.935
750.881; 1911.591; -585.036; -513.935
751.142; 2542.694; -950.036; -938.936
751.403;29584.297; -789.036; -705.936
751.664;11578.700;-1034.035; -999.936
751.925;  938.103; -175.035; -262.937
752.186;  552.106; -298.035; -278.937
752.447;  316.109; -590.035; -445.937
752.708;  164.912; -532.035; -648.938
752.969;   74.015; -566.034; -576.938
753.230;   52.918; -777.034; -672.939
753.491;   51.120; -650.034; -631.939
753.751;  225.023;  109.966;   19.061
754.012;  261.026;  258.967;  181.060
754.273;  197.929; -174.033;  -71.940
754.534;   67.832; -487.033; -580.940
754.794; -114.165; -926.033; -911.941
755.055;  391.538; 1051.967;  881.059
755.316;   -7.859; -700.032; -566.942
755.576;    6.144; -606.032; -576.942
755.837;  -27.953; -527.032; -695.942
756.097;  -38.250; -530.032; -564.943
756.358;  -82.147; -725.032; -770.943
756.618;  -40.844; -705.031; -641.943
756.879;   89.959; -254.031; -349.944
757.139; -188.538;-1098.031;-1116.944
757.400;  -34.135; -538.031; -553.945
757.660;   23.168; -365.031; -401.945
757.920;   73.370; -266.030; -228.945
758.181;    2.773; -468.030; -351.946
758.441; -117.824; -870.030; -809.946
758.701;   -3.521; -308.030; -215.946
758.961;   13.982; -220.030; -278.947
759.222;   -6.215; -574.029; -502.947
759.482;  -92.212; -683.029; -723.948
759.742; -133.509; -706.029; -547.948
760.002;   63.594;  -83.029; -143.948
760.262;  102.197;   50.972;  182.051
760.522;  -27.800; -498.028; -574.949
760.782;  -73.397; -738.028; -612.949
761.042;   -4.294; -618.028; -573.950
761.302;  150.309;   55.972;  -18.950
761.562;  156.112; -164.027; -154.951
761.822;  174.415; -710.027; -551.951
762.082;  -51.282;-1104.027;-1093.951
762.342;  198.120; -328.027; -403.952
762.601;  211.223; -567.027; -506.952
762.861;  678.026; -281.026; -207.952
763.121;  825.929; -406.026; -411.953
763.381;13966.632; -499.026; -485.953
763.640;13072.135; -139.026; -307.954
763.900;  724.938; -242.026; -203.954
764.160;  205.041; -458.025; -491.954
764.419;   13.944; -726.025; -782.955
764.679;  -95.153; -795.025; -726.955
764.939;   31.650; -124.025; -210.955
765.198;  -69.247; -608.025; -563.956
765.458;  -93.844; -710.024; -612.956
765.717; -124.141; -454.024; -590.957
765.976;  -36.738; -428.024; -411.957
766.236;  -58.635; -475.024; -610.957
766.495;  102.468;  260.977;   73.042
766.755; -128.630;-1090.023; -987.958
767.014;   41.773; -594.023; -665.958
767.273;  -56.024; -373.023; -397.959
767.533;  -18.621; -228.023; -307.959
767.792;   16.282; -151.022; -188.960
768.051;  -81.715; -228.022; -276.960
768.310;  -88.712; -546.022; -650.960
768.569;   48.191; -161.022;    4.039
768.828;   16.294; -285.022; -363.961
769.088; -198.903;-1050.021; -942.961
769.347; -109.600; -755.021; -599.962
769.606; -106.697; -876.021; -857.962
769.865; -205.094;-1016.021;-1033.963
770.124;   58.709; -411.021; -336.963
770.383;  -55.588; -778.020; -910.963
770.641;   12.915; -398.020; -400.964
770.900; -122.482; -953.020; -846.964
771.159;  -93.779; -851.020; -951.964
771.418;  -12.677; -917.020; -779.965
771.677;  264.826; -224.019; -293.965
771.936;  263.329; -794.019; -865.966
772.194; 4350.932; -465.019; -437.966
772.453;17666.635; -213.019; -391.966
772.712; 1348.338;  416.982;  329.033
772.970;  266.841;   32.982;   63.033
773.229;  228.344;  -22.018;  102.033
773.488;  -88.753; -814.018; -770.968
773.746;  180.650;  296.982;  335.032
774.005;   99.653;  190.983;  -22.969
774.263;   97.256;  243.983;  177.031
774.522; -119.441; -422.017; -548.969
774.780;  -96.238; -484.017; -417.970
775.039;  -96.035; -551.017; -531.970
775.297;   11.368; -135.016; -351.970
775.555; -119.829; -489.016; -612.971
775.814; -157.727; -618.016; -570.971
776.072; -167.524; -749.016; -740.971
776.330; -139.421; -630.016; -520.972
776.589; -195.018; -703.015; -721.972
776.847; -179.015; -645.015; -624.973
777.105; -294.812;-1016.015;-1032.973
777.363; -124.509; -459.015; -454.973
777.621; -200.906; -660.015; -717.974
777.879;   -2.603;  -42.014;   32.026
778.138; -142.200; -554.014; -717.974
778.396; -150.797; -585.014; -526.975
778.654; -277.094;-1015.014; -970.975
778.912;  -77.491; -269.014; -371.976
779.170; -191.688; -880.013; -803.976
779.427; -234.985; -922.013; -897.976
779.685; -226.082; -880.013; -832.977
779.943; -104.579; -654.013; -593.977
780.201; -234.477; -964.012; -883.978
780.459; -158.474; -651.012; -610.978
780.717; -100.671; -440.012; -390.978
780.974; -114.968; -449.012; -490.979
781.232; -110.365; -358.012; -338.979
781.490; -104.662; -551.011; -472.979
781.747;  -97.259; -555.011; -476.980
782.005;  119.644;  462.989;  254.020
782.263; -268.653; -542.011;-1004.981
782.520;  -77.250; -326.011; -501.981
782.778; -305.747;-1013.010;-1051.981
783.035; -262.044; -962.010; -938.982
783.293;  -42.041; -248.010; -206.982
783.550;  -61.938; -134.010; -198.982
783.808; -194.835; -764.010; -776.983
784.065; -274.832; -745.009; -874.983
784.322;  -41.229;   25.991;  -86.984
784.580; -218.827; -915.009; -771.984
784.837; -113.224; -392.009; -466.984
785.094; -181.621; -783.009; -762.985
785.352;  -75.318; -304.008; -404.985
785.609; -171.015; -934.008; -839.985
785.866;  -83.612; -345.008; -401.986
786.123;  -81.309; -639.008; -583.986
786.380; -122.006; -665.008; -604.987
786.637;   -4.203; -225.007; -380.987
786.895;  -14.000; -456.007; -543.987
787.152;  -13.497; -135.007; -267.988
787.409;  -19.194; -123.007; -225.988
787.666; -126.491; -299.006; -378.988
787.923; -118.088; -616.006; -695.989
788.179; -168.085; -551.006; -584.989
788.436; -148.082; -585.006; -585.990
788.693;    8.721;  -92.006;  -87.990
788.950;  347.324; -125.005; -112.990
789.207;  368.126; -381.005; -372.991
789.464;  -22.071; -161.005; -301.991
789.720;   62.332;  150.995;  110.009
789.977; -280.365;-1003.005; -671.992
790.234;   13.538;   44.996;  -66.992
790.490; -243.859; -884.004;-1031.993
790.747;   15.944;  -85.004;   22.007
791.004;   30.247; -426.004; -348.993
791.260; -135.650; -430.004; -560.994
791.517; -101.647; -843.003; -788.994
791.773;  -52.644; -379.003; -342.994
792.030; -137.441; -596.003; -660.995
792.286;  -96.638; -686.003; -636.995
792.543;   43.665;  -74.002; -159.995
792.799;  -60.132; -584.002; -382.996
793.055; -252.829;-1179.002;-1210.996
793.312; -146.726; -827.002; -816.997
793.568;  -75.024; -746.002; -599.997
793.824;   64.879; -226.001; -284.997
794.081;  109.382; -447.001; -508.998
794.337;  167.985; -664.001; -561.998
794.593; 2980.188; -319.001; -271.999
794.849;11241.191; -746.001; -772.999
795.105;  602.394; -270.000; -261.999
795.361;   51.597; -490.000; -457.000
795.617;  -57.900; -875.000; -945.000
795.873;  -47.400; -360.000; -407.000
796.129;    4.000; -368.000; -306.000
796.385;   38.700; -124.000; -156.000
796.641;  191.300;  412.000;  550.000
796.897; -118.400; -666.000; -635.000
797.153;  223.800;  453.000;  357.000
797.409; -162.700; -785.000; -868.000
797.665;  -98.800; -625.000; -732.000
797.921; -102.600; -775.000; -762.000
798.176;  -78.300; -744.000; -747.000
798.432;  -74.100; -824.000; -596.000
798.688; -132.800;-1174.000;-1078.000
798.943;  208.400; -165.000; -147.000
799.199;   22.300;-1005.000; -959.000
799.455;  490.100;  369.000;  316.000
799.710;  271.300; -813.000; -380.000
799.966;  532.200; -162.000; -160.000
800.221;  862.100; -638.000; -721.000
800.477;18931.600; -743.000; -710.000
800.732;13644.800; -773.000; -800.000
800.988; 1092.600;  205.000;  -19.000
801.243; 3579.300; -454.000; -344.000
801.498;12282.400; -814.000; -739.000
801.754;  718.200; -289.000; -163.000
802.009;  236.600; -257.000; -335.000
802.264;  -80.900; -967.000;-1033.000
802.520;   86.200;  222.000;   -3.000
802.775;  -48.500; -524.000; -359.000
803.030;  153.200;  395.000;  356.000
803.285; -163.400; -840.000; -903.000
803.540;  -38.800; -686.000; -699.000
803.795;  -47.800; -648.000; -583.000
804.051;   18.700; -279.000; -346.000
804.306;  102.400;  168.000;  128.000
804.561;  339.100;  451.000;  362.000
804.816;  319.000;  714.000;  861.000
805.071;  104.900; -185.000; -280.000
805.325;  417.100; -257.000; -427.000
805.580; -185.300; -841.000; -877.000
805.835;   49.200; -204.000; -297.000
806.090;  -86.500; -760.000; -676.000
806.345;   39.400; -344.000; -264.000
806.600;   -8.100; -549.000; -632.000
806.854;   21.900; -408.000; -538.000
807.109;    7.000; -493.000; -577.000
807.364;   56.800; -407.000; -328.000
807.618;   67.500; -415.000; -381.000
807.873;  141.500; -470.000; -494.000
808.128;  227.200; -257.000; -518.000
808.382;  263.300; -224.000; -332.000
808.637;  178.900; -440.000; -511.000
808.891;  391.400; -257.000; -180.000
809.146;  224.700; -902.000; -794.000
809.400;  493.200; -848.000; -923.000
809.654;  626.500; -779.000; -551.000
809.909;  927.200; -841.000; -927.000
810.163;13706.500; -813.000; -651.000
810.418;28513.900; -940.000; -861.000
810.672; 1749.100; -685.000; -690.000
810.926; 1304.600; -993.000; -973.000
811.180; 2697.900; -439.000; -372.000
811.434;54758.900;  240.000;  135.000
811.689;18062.800; -231.000; -365.000
811.943; 1037.900; -936.000; -953.000
812.197;  570.500; -893.000; -671.000
812.451;  247.800; -379.000; -514.000
812.705;  -10.400; -809.000; -619.000
812.959;   42.900; -263.000; -388.000
813.213;   44.400; -283.000; -209.000
813.467;  228.500;  470.000;  253.000
813.721; -132.800; -764.000; -792.000
813.975; -144.800; -826.000; -877.000
814.229;  158.600;  430.000;  353.000
814.482;  -76.600; -517.000; -566.000
814.736; -181.400; -766.000; -744.000
814.990; -158.700; -779.000; -872.000
815.244;  -30.700; -228.000; -285.000
815.497; -119.900; -636.000; -601.000
815.751;   46.500; -141.000;   82.000
816.005; -102.200; -470.000; -586.000
816.258;  -40.900; -510.000; -363.000
816.512; -139.300; -693.000; -610.000
816.766;   94.400;  121.000;  157.000
817.019;  139.800;  148.000;  149.000
817.273; -151.000;-1000.000; -802.000
817.526;   19.800; -206.000; -173.000
817.779;  -21.600;-1049.000; -960.000
818.033;  -68.000; -693.000; -807.000
818.286; -162.100; -725.000; -792.000
818.540; -146.200; -403.000; -403.000
818.793;  -50.800; -402.000; -489.000
819.046; -134.500; -582.000; -520.000
819.299;   -3.100; -157.000; -166.000
819.553; -187.000; -552.000; -592.000
819.806; -257.900;-1016.000; -838.000
820.059;  -16.000; -334.000; -354.000
820.312;  131.800;  152.000;  185.000
820.565;   42.900;  110.000;  -27.000
820.818;    5.300;  -59.000; -173.000
821.071; -245.300;-1041.000; -957.000
821.324; -137.000; -536.000; -540.000
821.577; -136.100; -457.000; -483.000
821.830;  -42.400; -270.000; -172.000
822.083; -184.400; -733.000; -288.000
822.336;  -31.200; -261.000; -167.000
822.589; -202.100; -805.000; -688.000
822.842; -195.500; -875.000; -770.000
823.094; -282.800;-1076.000;-1114.000
823.347; -221.600; -925.000; -729.000
823.600;  105.800;  402.000;  187.000
823.853;  -49.500; -311.000; -267.000
824.105;  -68.200; -331.000; -575.000
824.358; -151.600; -617.000; -716.000
824.611;  124.200;  234.000;   40.000
824.863;  -47.500; -612.000; -591.000
825.116;  174.600;  -33.000;   27.000
825.368;  199.400; -366.000; -372.000
825.621;  331.700; -186.000; -240.000
825.873;  176.800; -704.000; -737.000
826.126; 1297.600; -669.000; -641.000
826.378;20530.100; -389.000; -505.000
826.630; 3880.300; -890.000; -898.000
826.883;   93.900; -754.000; -693.000
827.135;  147.400; -279.000; -270.000
827.387; -157.500; -893.000; -839.000
827.639;   -4.400;  -86.000;   32.000
827.892; -220.500; -742.000; -582.000
828.144; -218.500; -848.000; -804.000
828.396;  -19.300;  104.000;  -80.000
828.648; -103.400; -440.000; -333.000
828.900; -229.700; -702.000; -795.000
829.152; -156.100; -684.000; -683.000
829.404;  -73.500; -215.000; -267.000
829.656;   69.600;  321.000;  214.000
829.908;   54.200;  393.000;  229.000
830.160; -269.700;-1064.000;-1047.000
830.412; -111.500; -481.000; -430.000
830.664; -186.600; -557.000; -665.000
830.916; -104.600; -268.000; -206.000
831.167; -266.200;-1073.000; -951.000
831.419; -155.800; -623.000; -566.000
831.671; -221.800; -764.000; -809.000
831.923;  -77.000; -311.000; -447.000
832.174;  -59.500; -273.000; -331.000
832.426; -179.900; -493.000; -582.000
832.678; -325.300;-1043.000;-1091.000
832.929; -267.600; -947.000; -935.000
833.181;  -74.100; -575.000; -677.000
833.432;  -47.700;  -59.000; -186.000
833.684;   53.400;  112.000;  -27.000
833.935; -171.500; -610.000; -566.000
834.187; -191.300; -829.000; -823.000
834.438;  -29.000;  -58.000;  -25.000
834.689;  -38.600; -255.000; -123.000
834.941;  -34.700; -343.000; -244.000
835.192; -124.500; -590.000; -533.000
835.443; -115.500; -419.000; -506.000
835.695;   55.800;  138.000;  -16.000
835.946; -137.300; -608.000; -378.000
836.197; -143.200; -599.000; -622.000
836.448; -103.900; -528.000; -395.000
836.699;  -60.300; -253.000; -341.000
836.950;   53.800;   72.000;    7.000
837.201; -204.800;-1003.000; -987.000
837.452;  -44.400; -356.000; -170.000
837.703; -175.300; -791.000; -737.000
837.954;  -20.300; -205.000; -365.000
838.205; -103.500;-1029.000;-1008.000
838.456;  334.300; -196.000; -282.000
838.707;   35.200; -423.000; -519.000
838.958;   63.800; -634.000; -647.000
839.209;  610.800;   18.000;   40.000
839.460;  223.400; -439.000; -201.000
839.710;  456.000; -135.000; -297.000
839.961;  813.000;  730.000;  612.000
840.212;  646.700; -382.000; -497.000
840.462; 2219.600; -328.000; -277.000
840.713;32444.900; -571.000; -536.000
840.964;10491.100;  -62.000; -143.000
841.214;  894.500; -384.000; -624.000
841.465; 1044.000; -214.000; -141.000
841.715;  958.500; -417.000; -380.000
841.966; 1209.500; -746.000; -685.000
842.216;19586.800; -330.000; -431.000
842.466;57514.800; -169.000; -313.000
842.717; 2419.300; -964.000; -952.000
842.967;  648.500; -635.000; -641.000
843.217;  572.100;   20.000;   28.000
843.468;  187.900; -104.000; -132.000
843.718;  -28.500; -718.000; -726.000
843.968; -129.000; -837.000; -765.000
844.218;  115.500; -315.000; -262.000
844.469;  -61.100; -577.000; -561.000
844.719; -144.100; -537.000; -682.000
844.969; -136.000; -550.000; -580.000
845.219; -204.400; -814.000; -862.000
845.469;  -47.200; -392.000; -342.000
845.719; -202.900; -792.000; -884.000
845.969;   70.000;  119.000;  174.000
846.219; -169.900; -738.000; -720.000
846.469;   95.400;  464.000;  432.000
846.718;   -9.900; -115.000;   31.000
846.968; -205.700; -827.000; -827.000
847.218;    2.800; -224.000; -371.000
847.468; -162.400; -586.000; -555.000
847.718; -215.200; -827.000; -798.000
847.967; -190.900; -826.000; -915.000
848.217; -102.800; -449.000; -569.000
848.467;  -62.900; -405.000; -376.000
848.716; -166.900; -708.000; -725.000
848.966;   71.200; -372.000; -358.000
849.215;  -35.200; -428.000; -419.000
849.465; -118.500; -785.000; -615.000
849.714; -209.600;-1132.000;-1150.000
849.964;  -42.800; -551.000; -613.000
850.213;   26.900; -393.000; -355.000
850.463;  169.700;  137.000;  340.000
850.712;   63.700; -542.000; -567.000
850.961;   73.500; -739.000; -678.000
851.211;  227.900; -513.000; -504.000
851.460;  300.800; -635.000; -650.000
851.709; 1113.700;  -25.000;   18.000
851.958;19825.500; -912.000; -750.000
852.208;19317.700; -859.000; -879.000
852.457;  756.000; -181.000;  -13.000
852.706;  166.800; -791.000; -823.000
852.955;   65.900; -507.000; -528.000
853.204;  -51.700; -521.000; -461.000
853.453; -101.900; -418.000; -458.000
853.702; -190.200; -660.000; -750.000
853.951; -148.300; -532.000; -520.000
854.200; -154.800; -613.000; -562.000
854.449; -213.800; -695.000; -661.000
854.698;  -95.300; -340.000; -279.000
854.946;  -55.400; -181.000; -284.000
855.195; -219.200; -843.000; -868.000
855.444; -124.600; -395.000; -420.000
855.693; -152.200; -345.000; -432.000
855.941; -113.900; -387.000; -516.000
856.190;  -38.500; -256.000; -382.000
856.439; -177.400; -652.000; -703.000
856.687;  -34.600;  -99.000;  -72.000
856.936; -182.100; -621.000; -323.000
857.184; -299.000;-1067.000;-1020.000
857.433; -138.400; -423.000; -512.000
857.681; -259.900; -989.000; -953.000
857.930;  -94.300; -282.000; -433.000
858.178; -264.500; -856.000; -929.000
858.427; -245.000; -802.000; -781.000
858.675; -174.500; -377.000; -544.000
858.923; -144.900; -527.000; -819.000
859.172; -277.300;-1094.000;-1070.000
859.420;  -93.400; -339.000; -239.000
859.668; -220.900; -624.000; -628.000
859.916;   27.600;  109.000;  115.000
860.164; -161.400; -699.000; -603.000
860.413;  617.400; -878.000; -696.000
860.661;  365.400; -709.000; -577.000
860.909;  -91.100; -339.000; -325.000
861.157;  -93.000; -277.000; -444.000
861.405; -186.500; -534.000; -670.000
861.653;  147.300;  310.000;  310.000
861.901;  406.000; -543.000; -613.000
862.149;   -7.900; -801.000; -824.000
862.396;  -90.000; -297.000; -187.000
862.644;  -95.600; -368.000; -347.000
862.892;    4.800;   98.000;  138.000
863.140; -161.000; -549.000; -530.000
863.388; -236.900; -815.000; -759.000
863.635; -189.500; -642.000; -601.000
863.883;   57.100;  231.000;  190.000
864.131; -119.200; -288.000; -357.000
864.378; -191.000; -675.000; -540.000
864.626; -127.500; -347.000; -415.000
864.873; -169.700; -556.000; -505.000
865.121; -215.200; -714.000; -799.000
865.368;   -9.300; -173.000;   75.000
865.616;    0.800;  -33.000;  -40.000
865.863;  -96.300; -462.000; -506.000
866.111; -169.600; -795.000; -824.000
866.358;   89.500; -426.000; -420.000
866.605; 4287.400;  -64.000; -804.000
866.853; 3360.700; -621.000; -537.000
867.100;  -47.000; -728.000; -775.000
867.347; -128.600; -672.000; -611.000
867.594; -101.600; -740.000; -714.000
867.841;  220.500;   97.000;   17.000
868.089; -225.200; -746.000; -698.000
868.336; -138.300; -477.000; -420.000
868.583; -210.800; -637.000; -741.000
868.830;  -25.900; -131.000; -170.000
869.077; -245.100; -859.000; -787.000
869.324; -178.900; -502.000; -458.000
869.571; -183.100; -398.000; -430.000
869.818; -159.300; -485.000; -439.000
870.065; -124.800; -439.000; -513.000
870.311; -153.300; -456.000; -542.000
870.558; -105.000; -332.000; -311.000
870.805; -106.400; -320.000; -384.000
871.052; -108.700; -494.000; -369.000
871.298;  -29.300; -204.000; -131.000
871.545;  -46.500; -151.000; -185.000
871.792; -101.100; -173.000; -222.000
872.038;  -35.900;   43.000; -126.000
872.285; -170.500; -496.000; -387.000
872.532; -107.100; -357.000; -387.000
872.778;  113.600;  556.000;  403.000
873.025; -136.500; -384.000; -359.000
873.271;  103.300;  501.000;  578.000
873.517;   32.400; -133.000; -209.000
873.764;  -33.900; -193.000;  -80.000
874.010;  -41.900; -143.000; -230.000
874.257;    1.500;  123.000;   90.000
874.503; -193.200; -579.000; -479.000
874.749;  -69.900;   31.000;  275.000
874.995;  -29.800;  -80.000;  -20.000
875.242; -170.600; -540.000; -478.000
875.488; -138.700; -414.000; -439.000
875.734;  -42.200; -106.000; -234.000
875.980;  511.700; -872.000;-1032.000
876.226;  694.000; -157.000; -255.000
876.472;   68.400;  343.000;  237.000
876.718;   20.100;  184.000;  158.000
876.964;   14.700;   56.000;   55.000
877.210; -218.600; -547.000; -677.000
877.456; -192.400; -630.000; -557.000
877.702; -307.400; -821.000; -832.000
877.948; -156.200; -377.000; -497.000
878.193;  136.900;  361.000;  255.000
878.439; -124.000; -487.000; -472.000
878.685; -109.200; -272.000; -343.000
878.931; -172.600; -618.000; -676.000
879.176;  -93.600; -201.000; -201.000
879.422; -268.000; -933.000; -820.000
879.668;  239.300;   10.000;   79.000
879.913;  299.500;   53.000;  137.000
880.159;  -68.000; -112.000;  -17.000
880.404;  -19.100; -152.000; -162.000
880.650;  -23.600;   91.000;  141.000
880.895; -216.800; -670.000; -710.000
881.141; -156.800; -454.000; -428.000
881.386; -191.300; -503.000; -658.000
881.631; -145.100; -311.000; -166.000
881.877;    6.000;  112.000;  -13.000
882.122; -208.400; -684.000; -600.000
882.367; -105.900; -136.000; -186.000
882.612;  -43.400;  -80.000; -176.000
882.858; -270.700; -877.000; -823.000
883.103; -119.300; -297.000; -267.000
883.348; -243.800; -759.000; -852.000
883.593; -204.300; -677.000; -602.000
883.838;  -35.000; -311.000;  -24.000
884.083;  119.400;  353.000;  288.000
884.328;  -92.900; -564.000; -545.000
884.573;  -46.000; -196.000; -143.000
884.818;  516.600; -694.000; -531.000
885.063;  311.900; -348.000; -315.000
885.308; -118.100; -475.000; -398.000
885.553;   42.400;  245.000;  325.000
885.797; -193.000; -545.000; -615.000
886.042;  -49.100;    8.000;   58.000
886.287;  -76.000; -253.000; -211.000
886.532;  -26.900;   26.000;  204.000
886.776; -148.300; -407.000; -525.000
887.021; -238.500; -621.000; -574.000
887.265; -209.600; -685.000; -689.000
887.510; -198.900; -557.000; -496.000
887.755;  -97.200; -194.000; -164.000
887.999; -217.200; -552.000; -575.000
888.244;  -17.700;  -58.000;  161.000
888.488;   49.000;  371.000;  393.000
888.732; -145.800; -368.000; -520.000
888.977; -195.600; -622.000; -567.000
889.221; -247.900; -683.000; -659.000
889.465; -162.600; -422.000; -566.000
889.710;  -82.800;  -56.000; -299.000
889.954;   99.400;  579.000;  467.000
890.198; -206.400; -584.000; -707.000
890.442; -258.600; -716.000; -712.000
890.687; -250.100; -800.000; -753.000
890.931; -111.800; -273.000; -210.000
891.175; -175.700; -502.000; -500.000
891.419;  -46.400; -105.000; -110.000
891.663;  -98.600; -239.000; -112.000
891.907; -261.700; -801.000; -545.000
892.151; -283.000; -920.000; -815.000
892.395; -141.700; -274.000; -387.000
892.638;   39.300;  408.000;  291.000
892.882; -273.200; -780.000; -867.000
893.126;  132.500;  758.000;  558.000
893.370;  -98.400; -167.000; -168.000
893.614; -211.600; -714.000; -715.000
893.857; -135.800; -183.000; -197.000
894.101; -184.400; -527.000; -631.000
894.345;  -49.700;  300.000;  150.000
894.588;  130.100;  569.000;  380.000
894.832; -121.600; -178.000;  -84.000
895.075; -106.600;   15.000;  -92.000
895.319; -196.900; -552.000; -420.000
895.563; -141.200; -413.000; -353.000
895.806; -234.800; -628.000; -741.000
896.049;  -25.700; -576.000; -368.000
896.293;  238.400;  527.000;  405.000
896.536;  -62.900; -465.000; -468.000
896.779;  -35.100; -149.000;   -1.000
897.023; -212.800; -751.000; -714.000
897.266;   24.200;  325.000;  269.000
897.509; -275.600; -900.000; -901.000
897.752;   -4.100;  149.000;  171.000
897.996; -305.200; -972.000; -864.000
898.239;   -2.200;  168.000;  102.000
898.482; -178.200; -431.000; -453.000
898.725;   18.500;  101.000;   53.000
898.968; -237.800; -609.000; -744.000
899.211; -152.100; -513.000; -361.000
899.454; -183.600; -633.000; -539.000
899.697;  -85.100;   90.000;  -43.000
899.940; -230.100; -761.000; -757.000
900.182; -140.400; -335.000; -405.000
900.425;  -95.900; -150.000; -298.000
900.668;   39.400;  491.000;  350.000
900.911; -106.200; -292.000; -345.000
901.154;  -20.400;  141.000;   -3.000
901.396; -198.400; -407.000; -412.000
901.639; -207.200; -430.000; -496.000
901.882; -280.300; -790.000; -809.000
902.124;  -75.400;  -29.000; -143.000
902.367; -157.000; -315.000; -361.000
902.609; -189.300; -476.000; -453.000
902.852;  -95.900; -108.000; -260.000
903.094; -156.700; -458.000; -337.000
903.337;   -5.600;  -26.000;   53.000
903.579; -144.400; -228.000; -441.000
903.821; -232.100; -597.000; -744.000
904.064;  -56.700;   85.000;  127.000
904.306;  -70.400; -126.000; -166.000
904.548; -127.500; -152.000; -366.000
904.790; -106.300; -195.000; -340.000
905.033; -217.500; -625.000; -577.000
905.275; -154.800; -513.000; -524.000
905.517;  176.000;  468.000;  256.000
905.759; -105.200; -667.000; -761.000
906.001; -138.700; -322.000; -369.000
906.243;  -32.000; -162.000; -224.000
906.485;  329.700; -265.000; -207.000
906.727;  234.400; -499.000; -542.000
906.969;    6.000;  -30.000; -135.000
907.211;  350.700; -316.000; -382.000
907.453;  614.000; -188.000; -237.000
907.695;   58.800; -158.000; -385.000
907.936;  144.000;  818.000;  706.000
908.178;  -28.500;   92.000; -135.000
908.420;  -34.300; -111.000; -162.000
908.662; -196.500; -633.000; -682.000
908.903;  -95.700; -208.000; -123.000
909.145;  -46.800; -240.000; -305.000
909.386;  108.300;  315.000;  280.000
909.628;  131.000;  363.000;  397.000
909.870;  104.200;   29.000;  264.000
910.111; -123.400; -809.000; -949.000
910.353;   47.300; -123.000; -161.000
910.594;   52.900; -574.000; -606.000
910.835;  183.900; -265.000; -326.000
911.077;  320.500; -503.000; -604.000
911.318;  580.900; -505.000; -471.000
911.559;  850.400; -577.000; -880.000
911.801; 2694.900; -284.000; -280.000
912.042;22878.900;  -50.000; -159.000
912.283;49106.800;  404.000;  371.000
912.524; 6117.200; -396.000; -457.000
912.765; 1003.000; -193.000;   79.000
913.006;  523.000; -307.000; -338.000
913.247;  168.100; -270.000; -290.000
913.488;   76.900;  -43.000;   30.000
913.729;  -90.700; -373.000; -373.000
913.970;  -50.300;  -96.000; -292.000
914.211;  -55.400; -160.000; -198.000
914.452;  -57.500; -118.000;  -11.000
914.693;  130.000;  510.000;  592.000
914.934;  110.100;  510.000;  440.000
915.175;  -53.800;   53.000;  -95.000
915.415;  -81.100; -137.000;   27.000
915.656;  -52.500;  -28.000;  192.000
915.897; -119.700; -252.000;  -82.000
916.137;  -44.500;   74.000;   -9.000
916.378; -169.400; -573.000; -517.000
916.619; -109.400; -159.000;  -63.000
916.859;   59.300;  303.000;  330.000
917.100;  343.600; 1655.000; 1070.000
917.340;  167.000;  930.000;  728.000
917.581;  197.200;  965.000;  789.000
917.821;   35.100; -171.000;  143.000
918.061;   51.500; -199.000;  -72.000
918.302;  -34.400; -152.000; -211.000
918.542;   33.700;  -22.000;    3.000
918.782;  155.500;  369.000;  377.000
919.023;  296.300;  360.000;  427.000
919.263; 3825.200; 8131.000;  202.000
919.503; 2082.500; -137.000;  -54.000
919.743; 1334.000;  390.000;  266.000
919.983;  520.700; -134.000;  -26.000
920.223;  209.700;  135.000;   14.000
920.463;  329.100;  631.000;  554.000
920.703;  292.100;   84.000;   39.000
920.943;  304.200; -110.000;   90.000
921.183;  484.900; -414.000; -405.000
921.423;  913.800;  307.000;  546.000
921.663; 1341.100; -174.000; -257.000
921.903; 3004.100;  237.000;  173.000
922.143;17932.000;  372.000;  389.000
922.383;61048.400;  158.000;  115.000
922.622;16743.000; -120.000;  -15.000
922.862; 2126.900;  796.000;  785.000
923.102;  841.100;  -51.000;   33.000
923.341;  377.500;   59.000;   74.000
923.581;  211.800;  450.000;  360.000
923.821;  113.600;  301.000;  398.000
924.060;  122.200;  351.000;  193.000
924.300;  -69.900;  -16.000; -128.000
924.539;   42.300;  584.000;  473.000
924.779;  110.000;  812.000;  597.000
925.018;   -9.700;  247.000;  353.000
925.257;   80.500;  595.000;  666.000
925.497;   30.800;  447.000;  412.000
925.736;  -85.700;  -35.000;  102.000
925.975;   93.200;  687.000;  669.000
926.214;  154.300;  907.000;  850.000
926.454;  166.000;  706.000;  757.000
926.693;  -16.900;  419.000;  543.000
926.932;  173.300; 1021.000;  825.000
927.171;  225.600; 1107.000; 1044.000
927.410;  252.600; 1144.000;  967.000
927.649;  121.900;  924.000;  742.000
927.888;   77.700;  590.000;  564.000
928.127;   44.900;  680.000;  678.000
928.366;  140.900;  842.000;  826.000
928.605;  186.300;  831.000;  737.000
928.844;  604.100; 1451.000; 1393.000
929.083; 1267.300;  770.000;  613.000
929.321;  644.700; 1335.000; 1359.000
929.560;  285.900; 1158.000; 1122.000
929.799;   31.300;  574.000;  475.000
930.038;  238.800; 1025.000; 1394.000
930.276;   -6.800;  334.000;  397.000
930.515;   63.000;  827.000;  681.000
930.753;   38.600;  614.000;  589.000
930.992;   45.400;  664.000;  717.000
931.230;  111.300;  847.000;  847.000
931.469;  420.700; 2162.000;  892.000
931.707;  237.500;  840.000;  751.000
931.946;  211.700; 1278.000; 1344.000
932.184;  199.200; 1437.000; 1175.000
932.423;  202.200; 1265.000;  963.000
932.661;  282.100; 1296.000; 1428.000
932.899;  131.600;  987.000;  821.000
933.137;  107.900;  754.000;  564.000
933.376;  414.700; 1664.000; 1335.000
933.614;  387.400; 1759.000; 1196.000
933.852;  186.200; 1357.000; 1171.000
934.090;  374.400; 1722.000; 1747.000
934.328;  293.600; 1252.000; 1457.000
934.566;  215.800; 1431.000; 1110.000
934.804;  305.000; 1263.000; 1309.000
935.042;  986.200; 1861.000; 1850.000
935.280; 3588.500; 2088.000; 2063.000
935.518; 2834.900; 2113.000; 2007.000
935.756;  710.900; 2481.000; 2316.000
935.994;  430.000; 1808.000; 1751.000
936.231;  822.600; 2890.000; 2950.000
936.469;  501.700; 2367.000; 2378.000
936.707;  415.700; 2220.000; 2167.000
936.945;  552.900; 2825.000; 2882.000
937.182;  508.400; 2679.000; 2741.000
937.420;  701.300; 3602.000; 3031.000
937.657;  962.900; 3365.000; 3478.000
937.895;  793.200; 3331.000; 3488.000
938.133;  749.800; 3540.000; 3528.000
938.370;  809.100; 3896.000; 4191.000
938.607;  868.600; 4488.000; 4205.000
938.845; 1237.800; 5587.000; 5549.000
939.082; 1051.100; 5387.000; 5177.000
939.320; 1150.700; 5799.000; 5728.000
939.557; 1394.600; 6549.000; 6491.000
939.794; 1544.600; 7285.000; 7097.000
940.031; 1928.400; 8421.000; 8368.000
940.269; 2327.800; 9552.000; 9107.000
940.506; 2340.700;10901.000;10507.000

