
Integration time [ms]: 100.000
Averaging Nr. [scans]: 40
Smoothing Nr. [pixels]: 0
Data measured with spectrometer [name]: 2101013U2
Wave   ;Sample   ;Dark     ;Reference
[nm]   ;[counts] ;[counts] ;[counts] 

394.013;   67.462; -450.257; -315.536
394.305;  190.910; -461.258; -419.536
394.596; 1509.306; -676.269; -527.514
394.887; 3983.252; -796.268; -654.518
395.178; 1444.115;  145.736;   11.476
395.470;   96.329; -210.263; -356.526
395.761;  173.995;  305.734;  394.479
396.052;  171.350; -545.284; -306.489
396.343;  141.762; -557.276; -454.503
396.634;   55.123; -200.279; -290.497
396.926;   47.599; -618.268; -565.517
397.217;   92.593;   11.725;  -17.504
397.508;   31.512; -366.273; -154.507
397.799;   44.898; -555.279; -571.497
398.090;    5.566; -973.280; -902.495
398.381;  102.281;   11.708;  -11.473
398.672;    0.908; -585.292; -742.473
398.963;   65.306; -348.279; -373.498
399.254;  113.794;   54.709; -209.475
399.545;   -0.059;-1017.266; -883.520
399.836;   67.173; -407.277; -343.501
400.127;   51.027; -205.295; -209.468
400.418;   55.131; -423.274; -392.506
400.709;   52.725; -359.281; -333.493
401.000;   60.224; -268.291; -309.476
401.290;  126.247;  225.698;  115.545
401.581;   83.753; -166.286; -228.485
401.872;   48.992; -542.298; -486.462
402.163;   91.292; -313.296; -252.467
402.454;  118.720; -123.291; -163.475
402.744;   80.581; -844.297; -813.465
403.035;  316.920; -226.293;  -86.471
403.326;  391.286; -366.292; -384.474
403.617;  361.060;  204.701;  165.539
403.907;  367.432; -593.283; -679.490
404.198; 3406.915; -545.307; -599.446
404.489; 8685.138; -618.283; -588.491
404.779; 2457.677; -618.302; -660.456
405.070;  302.775;  -67.304; -174.451
405.360;  504.373; -259.293; -238.472
405.651;  469.866;  125.699;   98.542
405.942;  206.422;  209.714;  127.516
406.232;  145.141; -432.285; -413.487
406.523;  309.614;  641.706;  758.530
406.813;   76.500; -579.286; -644.484
407.104;  266.755;  261.708;  144.527
407.394;  115.936; -604.299; -591.462
407.685;  182.364;  336.715;  222.513
407.975;   86.636; -400.283; -382.490
408.265;  151.788; -134.289; -190.478
408.556;   77.941; -472.291; -459.475
408.846;  191.965;  474.706;  429.530
409.137;  102.223;   -1.288; -216.480
409.427;   97.490; -193.285; -271.487
409.717;   62.191; -776.273; -692.508
410.007;  165.232;    4.715; -170.486
410.298;  130.330; -360.295; -342.469
410.588;  125.737; -495.285; -510.486
410.878;   62.612; -792.287; -873.482
411.168;  132.095; -481.298; -478.463
411.459;  142.180; -295.283; -242.489
411.749;  109.464; -609.292; -507.474
412.039;   88.721; -755.289; -386.480
412.329;  237.214;   40.722;  132.501
412.619;  221.251;  -62.286; -148.485
412.909;  409.116;  639.711;  594.521
413.199;  378.516; -130.280; -251.495
413.490;  428.130;  521.710;  352.523
413.780;  220.871;-1013.279; -913.496
414.070;  401.588;  -46.276;  235.497
414.360;  426.085; -729.278; -666.498
414.650;  558.807; -726.288; -688.482
414.940;  760.545; -538.280; -441.496
415.230; 1245.003;   50.712;   74.519
415.520; 8564.280;  155.730;   66.486
415.809;34634.249; -305.281; -125.493
416.099;25870.076; -388.277; -229.501
416.389; 7365.778;  435.726;  236.494
416.679; 4242.533;   91.738;   85.473
416.969;  773.843; -527.287; -503.483
417.259;  640.098;  341.721;  171.503
417.549;  874.973;  522.718;  318.508
417.838; 2308.751; -205.268; -147.518
418.128; 7966.536;  650.710;  492.522
418.418; 6466.599; -491.272; -579.509
418.708; 4307.778;    9.726;  -48.506
418.997;16871.973; -474.275; -480.505
419.287;17054.661; -733.273; -790.507
419.577;16362.079; -160.283; -123.489
419.866;53243.649; -588.277; -498.501
420.156;52687.700; -242.270;  -55.513
420.446; 8849.399; -112.263;  -26.526
420.735;  910.068; -376.271; -446.512
421.025;  932.784; 1830.722;  315.502
421.314;  618.440; -203.271; -226.512
421.604;  958.542;   89.732;  233.484
421.893;  580.311; -705.271; -602.511
422.183;  308.349; -487.263; -461.526
422.472;  426.337;  -36.271; -107.511
422.762;  456.599; -416.266; -379.521
423.051;  292.814; -916.276; -916.503
423.341;  341.489; -491.273; -439.507
423.630;  437.431; -121.265;   15.477
423.919;  429.147;   58.725;   49.495
424.209;  463.031;  -31.263;   56.473
424.498;  620.223;   68.732;  161.483
424.787; 1398.806; -535.267; -601.518
425.077; 4185.054;   34.735;   29.478
425.366; 4651.563; -734.262; -744.528
425.655;12215.540;  639.727;  259.493
425.945;30395.249; -313.247; -268.554
426.234;16077.766;  117.741;  300.467
426.523; 7323.523;  -86.259; -350.534
426.812; 9843.843;  107.734;  159.480
427.101;14148.113; -127.269; -323.515
427.390;16648.280;  -55.270;  -86.514
427.680; 2652.822; -624.257; -411.538
427.969;  567.311; -330.255; -301.540
428.258;  386.687; -385.257; -477.536
428.547;  548.154;  449.728;  397.490
428.836;  890.856; -421.253; -398.543
429.125; 1260.300; -199.259;  -72.534
429.414;  837.709; -330.251; -294.548
429.703; 4439.484; -231.251; -213.548
429.992;13520.489; -938.250; -828.549
430.281; 8578.190; -397.264; -331.524
430.570;  668.672;  -21.252;   32.454
430.859;  514.947;  279.741;  352.466
431.148;  491.319;  636.752;  631.446
431.437;  390.397;  391.748;  367.454
431.725;  224.514; -544.257; -481.536
432.014;  232.040; -845.253; -756.545
432.303;  442.688; -149.239; -105.569
432.592;  601.649; -460.263; -178.525
432.881; 1372.820; -601.248; -437.554
433.169; 9070.862; -343.255;  -61.540
433.458;18274.230;  445.765;  540.424
433.747; 7193.470; -397.261; -289.529
434.036;  949.833; -275.242; -280.564
434.324; 2786.429; -395.249; -379.551
434.613; 4967.275;   40.757;  159.437
434.902; 1474.426;  333.760;  439.433
435.190;  392.662;   75.761;  295.431
435.479;  244.852;  -52.245;   83.441
435.767;  132.012; -411.244; -427.561
436.056;  256.953; -340.242; -294.563
436.345;  490.979; -372.240; -223.568
436.633;  466.848;   60.750;  383.450
436.922;  261.632;  208.760;  414.432
437.210;  378.918; -194.236;    1.426
437.499;  973.578; -583.235; -432.576
437.787; 1061.892; -339.236;  -10.574
438.075;  307.194;   56.761;  162.430
438.364;  335.022;  -44.238;  250.429
438.652;  207.777; -286.226; -138.592
438.941;  129.333;    3.770;  269.415
439.229;   14.269; -665.252; -466.545
439.517;   61.788; -160.234;  -85.577
439.806;   18.672; -501.225; -290.595
440.094;  198.448;  377.766;  650.421
440.382;   78.078; -653.233; -302.580
440.670;   94.277; -361.235; -285.576
440.959;   21.319; -347.223; -170.599
441.247;   65.522; -151.229; -109.587
441.535;   76.461; -266.235;   31.423
441.823;   23.344; -497.234; -305.578
442.111;  186.677;  173.771;  327.412
442.400;  388.351; -628.245; -335.559
442.688;  806.272; -111.234; -620.579
442.976;  496.878; -786.213; -450.617
443.264;   85.555; -324.224; -364.597
443.552;   82.029; -258.226;   51.408
443.840;  162.510;  602.765;  876.423
444.128;  127.877;  265.767;  269.420
444.416;    2.055; -694.228; -312.588
444.704;   38.180; -465.219;  -92.605
444.992;   71.057;   -0.226;  240.407
445.280;   63.783; -517.230;  -94.585
445.568;   20.732; -694.212; -396.618
445.856;  191.186; -174.221;  357.398
446.143;  386.476;  -54.220;   -7.604
446.431;  343.185;  -25.228;  625.411
446.719;  189.004;  489.783;  675.391
447.007;  174.801;  481.769;  705.416
447.295;  181.165;  597.777;  871.402
447.583;  107.594; -464.229;  -34.587
447.870;  129.857; -434.221; -202.601
448.158;  299.182; -104.230;  129.415
448.446;  195.352; -800.219; -338.604
448.733;  157.407;   13.776;  269.403
449.021;  224.357;   60.788;  341.382
449.309;  187.026; -296.210;  208.379
449.596;  231.950;  128.783;   59.392
449.884;  219.649; -571.222; -325.600
450.172;  256.791; -756.227; -406.590
450.459;  606.682;  645.786;  780.387
450.747; 3465.373; -411.218; -147.608
451.034;11174.861;  493.772;  889.411
451.322; 8960.761; -413.214; -170.614
451.609;  701.709;  292.777;  508.403
451.897;  858.554; -550.203; -183.634
452.184; 2606.440; -622.223; -400.598
452.472; 2286.102;   97.792;  269.375
452.759;  366.578;  512.781;  864.395
453.047;  101.154; -407.212; -125.617
453.334;   66.063; -732.219; -216.606
453.621;   62.839; -438.214; -161.615
453.909;  117.044;   13.796;  384.368
454.196;  127.575; -299.199; -123.641
454.483;  290.545;  317.798;  540.364
454.771;  158.081; -215.208;  196.374
455.058;   68.660; -316.207;  102.374
455.345;  136.569;   71.807;  344.347
455.632;  130.514; -128.207;  235.373
455.919;   76.079;  -82.196;  182.354
456.207;  -11.969; -774.198; -450.642
456.494;    9.460; -475.200;  -66.639
456.781;   42.290; -399.202; -198.635
457.068;   81.222; -253.206;  -29.628
457.355;   18.124; -698.206; -401.629
457.642;   25.780; -552.205; -290.630
457.929;   53.133; -778.194; -417.651
458.216;  106.654; -575.212; -354.617
458.503;  350.914; -173.193;  -19.652
458.790;  387.553; -864.208; -630.625
459.077;  402.646;  -77.202;  110.364
459.364; 1144.124; -350.195; -210.649
459.651; 2448.770;  -46.206;  220.372
459.938; 1081.616; -864.209; -665.623
460.225;  126.100;  132.799;  276.363
460.512;  -13.400; -836.197; -688.645
460.799;  191.846;  -32.218;  320.392
461.086;  152.141; -370.200; -251.640
461.372;   59.257; -509.198; -279.642
461.659;   92.330; -165.196;  108.354
461.946;   61.212; -445.193;  -54.651
462.233;  228.163;  842.800;  888.361
462.519;  481.984; -814.201; -464.639
462.806; 1478.226; -768.197; -497.645
463.093; 1257.088; -445.191;  -66.656
463.380;   12.989; -920.186; -824.664
463.666;   63.778; -259.197;  -18.646
463.953;  126.693; -406.195; -243.648
464.239;  249.793; -173.195;  -77.648
464.526;  373.331;  413.806;  743.350
464.813;  311.677; -565.190; -304.658
465.099;  316.863;  606.807;  607.348
465.386;  306.218;  903.807;  921.348
465.672;   68.526; -694.197; -522.645
465.959;  106.050; -598.188; -520.662
466.245;   24.943; -468.193; -359.652
466.532;   83.815; -109.195;   63.352
466.818;   54.489; -357.186; -216.664
467.104;   21.189; -488.182; -415.672
467.391;    6.305; -628.189; -459.658
467.677;   65.393; -289.186;    9.335
467.964;   26.788; -682.189; -471.660
468.250;   71.522; -331.186; -160.665
468.536;   88.456;   90.811;  180.341
468.822;   13.787; -821.184; -574.668
469.109;  159.164;  351.827;  471.311
469.395;  227.530;  729.808;  787.346
469.681;  235.785;   46.811;  156.341
469.967; 1741.341; -699.188; -382.660
470.254; 3833.451; -494.188; -306.662
470.540; 2373.553; -601.196; -476.646
470.826;  324.103; -488.181; -397.675
471.112;  383.366;  288.816;  113.331
471.398;   99.897; -253.183;  -58.670
471.684;   78.888; -626.177; -447.680
471.970;   35.457; -918.180; -981.675
472.256;   71.329; -521.192; -441.654
472.542;   69.953; -499.171; -434.691
472.828;   75.634; -743.182; -607.672
473.114;   59.807; -380.166; -283.700
473.400;   46.309; -504.175; -293.684
473.686;   59.415; -452.166; -400.701
473.972;   78.002; -230.174; -131.687
474.258;  -13.660; -925.173; -843.689
474.544;  274.178; -183.178;   -2.679
474.830;  417.536;  -65.175;   45.316
475.116;  663.379; -123.190; -196.658
475.401;  872.135; -558.180; -467.676
475.687;  258.184; -725.180; -718.676
475.973;   10.519; -673.181; -770.673
476.259;  294.038;  736.825;  764.315
476.544;  526.798; -539.176; -437.682
476.830; 1144.423; -398.172; -322.690
477.116;  981.796; -430.177; -336.682
477.401;  170.410;  346.820;  358.324
477.687;    2.234; -289.175; -405.684
477.973;   53.823;   21.819;   28.326
478.258;   -1.184; -448.163; -348.706
478.544;   64.153;   21.815;   61.334
478.829;  -47.065; -818.171; -738.692
479.115;  -36.227; -749.172; -651.690
479.401;   10.196; -444.174; -449.686
479.686;   55.733; -253.180;  -74.676
479.972;  -14.441; -886.178; -776.680
480.257;   57.059; -258.166;  -65.700
480.542;   41.540; -614.170; -469.693
480.828;  267.382; 1288.824; 1392.317
481.113;  -15.271; -464.176; -426.683
481.399;   15.320; -236.161; -202.711
481.684;  -20.842; -620.166; -462.700
481.969;   49.362; -158.159;  -73.713
482.255;   -8.997; -439.169; -285.695
482.540;   19.410; -569.178; -441.680
482.825;   51.783; -395.187; -404.663
483.110;  132.007;  -85.169; -105.696
483.396;  293.064; -840.157; -652.718
483.681;  641.052;  543.826;  730.313
483.966;  241.204; -696.160; -700.712
484.251;   24.876; -404.174; -310.687
484.536;   15.922; -356.165; -378.703
484.822;   55.179; -205.173; -218.687
485.107;   -1.314; -599.152; -502.726
485.392;  129.704;  662.836;  541.296
485.677;   72.244;  354.832;  163.302
485.962;  123.086;  160.843;  270.283
486.247;  113.275;  -14.162;   -8.707
486.532;   77.561; -178.166; -325.701
486.817;  160.338;  381.839;  431.291
487.102;  130.465; -453.154; -514.722
487.387;  881.466; -637.156; -652.718
487.672; 1594.585; -154.164;  -38.705
487.957; 1018.422; -394.160; -286.711
488.241;  318.407; -290.150; -314.729
488.526;  988.813; -280.152; -148.726
488.811; 1641.587; -881.177; -818.680
489.096; 1134.244; -666.154; -702.723
489.381;  612.333;    3.847;  162.275
489.666;  523.170; -428.161; -510.710
489.950;  189.047;  558.846;  627.277
490.235;  -27.999; -480.151; -458.728
490.520;  -15.956; -756.161; -723.710
490.804;  -35.331; -827.156; -736.719
491.089;   35.402; -469.149; -299.732
491.374;   39.234; -132.164;  -75.704
491.658;   -6.984; -817.147; -717.735
491.943;  126.293; -657.152; -609.727
492.227;  222.960; -178.155;  -38.721
492.512;   33.485; -294.157; -341.717
492.797;  -56.231; -713.149; -716.731
493.081;  -30.756; -588.147; -598.735
493.366;   -7.804; -751.161; -635.711
493.650;  215.861;  831.859;  917.254
493.935;   66.965; -648.147; -447.734
494.219;  -28.530; -778.142; -687.743
494.503;  -12.462; -585.150; -487.730
494.788;   56.275;   46.842;   74.285
495.072;  115.809;  184.850;  434.271
495.356;  202.656; -463.148; -343.733
495.641;  473.278; -812.146; -736.736
495.925;  402.250; -976.156; -903.719
496.209;   51.826; -599.149; -451.732
496.494;  -14.505; -763.142; -544.744
496.778;   31.190; -364.154; -360.722
497.062;  -44.801; -819.156; -627.719
497.346;   -9.026; -869.160; -640.711
497.631;  162.910;  580.852;  560.266
497.915;   88.916;  -64.145;  175.261
498.199;   34.464; -341.157; -277.718
498.483;   46.161; -562.152; -508.725
498.767;  216.585;  301.850;  300.271
499.051;  228.723; -126.149; -100.732
499.335;   61.571; -693.149; -739.731
499.619;  -10.714; -381.129; -423.767
499.903;   21.158; -272.155;  -65.721
500.187;   28.299; -588.153; -316.724
500.471;   23.417; -796.152; -595.727
500.755;  101.119;   62.839;  -96.710
501.039;   22.334; -270.155; -357.721
501.323;   87.038;  -21.141;  264.254
501.607;   40.266; -447.163; -503.706
501.891;   29.766; -607.156; -512.718
502.174;  -28.020; -726.144; -585.741
502.458;   66.222;   89.849;  370.273
502.742;   50.417; -180.138; -191.751
503.026;  148.615; -412.147; -254.734
503.310;  274.161; -437.159; -375.713
503.593;  181.817; -464.147; -325.735
503.877;  120.393; -232.133; -156.760
504.161;  177.277;    2.847;  -50.724
504.444;  168.678; -841.158; -710.716
504.728;  630.407; -487.164; -522.704
505.012;  980.981; -257.150;  -76.729
505.295;  724.620; -417.161; -212.711
505.579;  719.324; -256.156; -496.719
505.862; 1046.036; -555.145; -333.738
506.146; 1040.864; -681.159; -758.714
506.429;  490.139;  568.841;  461.286
506.713;   99.978; -732.151; -667.728
506.996;  419.490;   90.846;  295.278
507.280;  456.602; -633.165; -474.703
507.563;  316.657; -469.155; -261.721
507.847;  143.900; -423.153; -112.724
508.130;  144.296; -665.161; -456.711
508.413;  184.154; -758.167; -577.700
508.697;  340.104; -151.167;   12.300
508.980;  230.177; -422.153; -312.724
509.263;   34.227; -466.155; -450.720
509.547;   40.931; -124.150;   82.271
509.830;   81.099; -172.160;  140.289
510.113;   98.524;  128.844;  298.281
510.396;   56.634; -530.152; -300.725
510.680;   71.188; -818.145; -812.738
510.963;  324.720;  184.846;  180.277
511.246;  278.091; -493.150; -357.730
511.529;  276.594; -482.145;  -83.739
511.812;  510.113; -250.134;   10.241
512.095;  375.999; -740.151; -396.728
512.378;   79.322; -317.147; -245.736
512.661;   69.152; -703.137; -623.753
512.944;   57.947; -750.142; -637.744
513.227;   96.824; -170.137; -171.752
513.510;   58.355; -479.144; -671.741
513.793;   44.493; -485.140; -435.747
514.076;  153.762;  -43.127;  -39.771
514.359;  149.127; -294.149; -135.732
514.642;  133.726; -442.142; -567.744
514.925;  968.516;  581.860;  561.253
515.208; 1343.684; -498.134; -443.758
515.491;  861.551; -276.133; -182.761
515.773;  469.934; -410.143; -337.742
516.056; 2732.460;  249.864;  409.246
516.339; 3647.915; -754.136; -652.755
516.622; 1871.038; -518.150; -488.730
516.904;  713.468;  882.857;  975.257
517.187;  305.572; -730.138; -523.752
517.470;  388.166; -568.143; -510.743
517.752;  595.918; -624.136; -470.756
518.035;  483.406; -708.139; -725.749
518.318;  528.990; -799.136; -744.755
518.600; 3224.505; -300.132; -325.762
518.883; 4512.375;  310.858;   88.256
519.165; 2082.788; -585.138; -426.751
519.448;  395.005;  -61.132;  -19.762
519.730;  194.747; -573.126; -415.773
520.013;  250.971;  588.867;  664.240
520.295;  426.215;  -94.134;  -15.759
520.578;  942.996; -335.131; -305.764
520.860; 1127.055; -254.132;   56.238
521.143;  705.821; -763.135; -584.756
521.425;  499.938; -251.125; -279.775
521.707;  829.688; -622.127; -380.771
521.990; 2369.363; -199.127;  167.229
522.272; 2705.820; -116.140;   -4.748
522.554; 1021.535; -237.143; -157.742
522.836;  266.313;  -24.134;   99.241
523.119;  182.913; -496.148; -189.734
523.401;  162.455; -448.130; -314.766
523.683;  136.403; -865.137; -693.753
523.965;  354.619;  408.862;  260.248
524.247;  346.464;   54.878;  170.220
524.529;  281.390; -451.134; -367.759
524.812;  414.132;   -3.130;  191.234
525.094; 1152.143; -773.138; -631.751
525.376; 1808.624; -143.124;   78.223
525.658; 1099.161; -441.136; -339.754
525.940;   66.367; -805.131; -671.764
526.222;   31.591; -188.136;  -88.755
526.504;   78.239; -190.131;   32.237
526.786;   74.443; -960.133; -647.760
527.068;  164.281; -124.123;  -67.778
527.349;   32.232; -865.137; -774.754
527.631;  124.580; -137.132;   22.238
527.913;  188.537; -664.127; -450.771
528.195;  232.979; -761.125; -639.774
528.477;  313.984;  -93.134;  -30.758
528.759;  196.157; -648.130; -522.766
529.040;  109.079; -569.123; -293.778
529.322;   56.557; -235.125;  -10.774
529.604;  111.960;  -47.130;   93.233
529.886;   66.396; -546.126; -302.773
530.167;  106.374;  232.870;  192.235
530.449;   45.721;    1.853;   63.265
530.731;   62.413; -572.122; -459.779
531.012;  107.414; -513.120; -216.784
531.294;   95.937; -118.116;  -43.792
531.575;  165.463;  290.875;  538.225
531.857;  115.778; -548.135; -266.757
532.138;  100.261; -113.141;   40.254
532.420;  131.773;  294.865;  403.244
532.701;   98.871; -722.133; -751.760
532.983;  218.100;  232.867;  182.239
533.264;   73.219; -243.126;  175.228
533.546;  -28.034; -491.136; -508.755
533.827;   30.117;  173.867;   -1.759
534.109;   29.577; -352.135;  -80.757
534.390;   96.535; -725.132; -582.762
534.671;  280.898; -270.135;  -82.756
534.953;  171.008; -751.123; -611.779
535.234;   41.894; -426.117; -255.789
535.515;  -59.076; -891.119; -735.785
535.796;   -0.593; -431.128; -193.770
536.078;  -86.701;-1050.124; -904.777
536.359;   21.784;  -22.123;    3.221
536.640;  -23.169; -480.125; -197.774
536.921;  163.266;  225.871;  143.232
537.202;  452.065;  -87.138;  -16.751
537.483;  588.946;  251.869;  377.236
537.764;  232.849;   17.870;   98.235
538.045;  -22.142; -543.134; -371.758
538.326;  -27.507; -596.129; -447.768
538.607;   45.339; -686.127; -476.771
538.888;  223.803;   98.879;    5.218
539.169;  234.421; -704.122; -535.781
539.450;  372.540;  236.871;   16.233
539.731;  248.408; -361.121; -182.783
540.012;  146.564;  199.880;  412.216
540.293;   86.742;   82.876;  158.224
540.574;    3.888; -895.113; -717.796
540.855;  476.031;  435.879;  377.218
541.136;  597.018;   47.878;  139.220
541.416;  349.883; -161.130; -220.766
541.697;  263.865; -274.131; -170.763
541.978; 1424.825; -270.135; -315.757
542.259; 1840.789; -211.127; -236.771
542.539;  846.330; -191.116; -186.790
542.820;  194.387;  461.875;  480.225
543.101;  151.840;  -52.145;  -77.738
543.381;   53.013; -638.127; -591.771
543.662;  328.635;  159.873; -254.771
543.942;  870.508; -751.127; -830.770
544.223; 1454.970;  193.878;  161.219
544.504;  935.123; -275.124; -182.777
544.784;  793.921; -592.126; -408.773
545.065; 2251.084;  104.884; -254.791
545.345; 2681.849;  227.881;   14.215
545.626; 1727.487;  -14.113; -108.796
545.906; 1233.124;   77.869;   98.235
546.186;  506.802;   92.874;  -95.773
546.467;  277.001;   99.877;  -95.778
546.747;  451.280;  264.884;  327.210
547.027;  513.621;   91.876;  111.223
547.308;  476.457; -376.127; -530.770
547.588;  532.069;  299.871;  371.232
547.868;  227.625;  458.870;  588.235
548.149;  248.194;  609.885;  593.207
548.429;  205.886; -347.127; -299.771
548.709;  329.238; -645.120; -461.784
548.989;  652.111;   84.882;   88.213
549.269; 2789.603;   10.868;  139.239
549.550; 6586.907;  215.877;  117.222
549.830; 5812.310; -758.111; -556.799
550.110; 1126.569; -468.110; -320.801
550.390; 1161.413; -128.122;  -56.779
550.670; 1670.607; -868.114; -783.795
550.950; 1139.680; -509.121; -471.782
551.230;  233.676;  549.879;  460.218
551.510;   34.704; -381.121; -326.782
551.790;   63.779; -173.109; -127.803
552.070;  308.701;  940.877; 1181.223
552.350;  569.229; -492.119; -377.786
552.630;  800.448;   -2.121;   77.219
552.909;  486.035;  181.884;   73.209
553.189;  328.011;  -49.132;   33.237
553.469;  313.204; -703.119; -514.786
553.749;  312.540; -469.127; -357.772
554.029;  242.199;   33.883;  -24.790
554.308;  234.949; -154.115;  -37.794
554.588;  102.056; -196.128; -204.770
554.868;  125.581; -366.121;  -47.782
555.147;  216.395; -114.115;  -46.793
555.427;  799.863; -260.116; -250.792
555.707; 5210.343; -284.115; -200.793
555.986; 6454.214; -719.111; -538.800
556.266; 3238.703;   23.884;   72.210
556.546;  201.679; -888.121; -675.782
556.825;  361.579; -657.114; -556.794
557.105; 2396.378; -125.128;   17.230
557.384; 2820.084;  122.884;  187.209
557.664; 1092.712; -717.116; -508.792
557.943;  187.105; -557.121; -411.782
558.222;  261.765; -345.118; -344.788
558.502;  347.247; -116.115;  -76.793
558.781;  603.592;  194.885;  499.208
559.061;  547.915; -232.118; -227.788
559.340;  375.346;  302.883;  353.211
559.619;  970.803;   93.884;  148.210
559.899; 1404.798; -239.117; -266.789
560.178; 1281.871; -778.115; -593.793
560.457; 4093.375; -623.117; -562.790
560.736; 5901.165; -472.111; -482.800
561.015; 3837.075; -500.128; -502.769
561.295;  461.678;  180.893;  215.193
561.574;  392.518;  119.885;  116.207
561.853;  612.959;  274.891;  303.197
562.132;  671.975;  -45.114;  182.206
562.411;  575.373;  396.879;  553.219
562.690;  230.591; -592.115; -458.792
562.969;  167.271;  472.888;  630.203
563.248;  560.170; 2966.878; 2487.219
563.527;  391.489; -290.111; -408.800
563.806;  529.811; -650.127; -521.771
564.085;  578.897; -297.105; -206.810
564.364;  373.127; -594.117; -405.790
564.643;  690.199; -276.121; -223.781
564.922; 2506.526;  221.890;  397.198
565.201; 2557.706; -640.109; -700.803
565.479; 1085.065; -297.115; -219.792
565.758;  480.028; -810.128; -712.770
566.037;  667.132; -155.109; -100.803
566.316;  329.034; -286.116;  -28.791
566.595;   79.118;  -17.115;  -12.793
566.873;  119.642; -166.111;  -79.801
567.152;  -24.730; -490.113; -590.797
567.431;   24.229; -113.116;    6.210
567.709;   54.529; -344.107; -212.807
567.988;  392.079; -810.114; -769.794
568.266;  779.618; -160.115;  -68.793
568.545;  555.081; -644.100; -514.819
568.824;  761.989;  160.885;  356.208
569.102;  783.779; -351.114; -235.794
569.381;  335.838; -492.116; -407.792
569.659;  -31.884; -553.113; -553.796
569.938;  111.468; -743.122; -465.780
570.216;  185.361; -225.109; -225.804
570.494;   22.708; -632.114; -572.795
570.773;   33.604;  202.879;  114.218
571.051;   42.980; -373.123; -357.778
571.330;   89.413; -221.113; -174.796
571.608;   70.628; -181.098; -173.823
571.886;  -46.068; -671.111; -581.799
572.164;  -21.344; -739.121; -621.782
572.443;  -22.623; -562.105; -512.811
572.721;   -1.924; -399.117; -289.790
572.999;  -12.607; -280.117; -168.788
573.277;  110.144;  379.894;  620.191
573.555;  359.471;   94.894;   37.190
573.834; 1821.917;  -86.117; -114.788
574.112; 2029.107;  880.893;  811.193
574.390;  619.566; -143.111;  -96.801
574.668;   26.897;  -91.112;  -61.797
574.946;    7.322; -165.106; -187.810
575.224;   20.656;   71.891;  -16.803
575.502;   10.006; -200.116; -204.791
575.780;  -56.377; -767.112; -829.798
576.058;  247.065; 1589.889; 1004.200
576.336;   -4.803; -210.110; -129.801
576.614;  -30.276; -511.112; -340.798
576.891;  107.973; -711.115; -823.794
577.169;  671.496; -158.108; -285.805
577.447;  796.481;  169.893;  202.193
577.725;  325.504;  629.888;  854.201
578.003;   25.552;  -71.112; -371.798
578.280;  107.938; -208.104; -242.812
578.558;   85.422; -450.115; -422.793
578.836;  139.057; -210.114; -145.795
579.114;   75.021; -630.112; -670.797
579.391;   78.544;   -6.117;  -18.789
579.669;  -41.826; -595.114; -704.794
579.947;  233.702; -326.107; -127.806
580.224;  468.252; -692.107; -524.806
580.502;  423.732;  127.893;   76.193
580.779;   43.102;  -42.117;   75.210
581.057;  -49.089; -584.109; -470.804
581.334;  -77.694; -726.102; -695.815
581.612;   53.348;   54.895;  511.190
581.889;  -22.027;  -83.101; -129.818
582.167;  -17.959; -298.099; -190.821
582.444;  -83.884; -845.102; -814.817
582.721;  122.042;  657.899;  715.183
582.999;   78.412; -326.100; -167.821
583.276;  727.285; -812.123; -713.779
583.553;  978.435; -364.102; -294.816
583.831;  344.459; -607.104; -631.812
584.108;   81.218;  349.892;  174.195
584.385;   28.456; -122.102;  -98.815
584.662;  -38.158; -651.111; -828.801
584.940;   51.216;  204.889;  204.199
585.217;  -10.510;  -73.113; -303.796
585.494;   51.953;   71.890;  118.198
585.771;  291.087; -250.109; -354.804
586.048;  724.340; -196.113;  -76.796
586.325;  489.445; -721.110; -773.801
586.602;  128.788;  230.896;  213.188
586.879;   14.158; -499.100; -580.820
587.156;   89.074; -156.105; -331.810
587.433;    5.714; -701.102; -667.817
587.710;  110.799;  152.888;  234.202
587.987;  437.180; -264.105; -236.811
588.264; 1105.776;  315.888;  387.202
588.541; 1796.091;  -61.104;   26.187
588.818; 3699.690;   72.892;  171.196
589.095; 3138.786; -163.104; -174.812
589.371;  534.809; -459.109; -414.804
589.648;   67.132; -581.107; -437.807
589.925;   69.459; -517.114; -621.795
590.202;   73.849; -741.112; -607.798
590.478;  149.882; -166.105;  -73.811
590.755;  358.472; -241.108; -132.806
591.032; 3333.623; -741.110; -699.802
591.308; 4745.628; -732.094; -790.831
591.585; 2391.948; -573.110; -560.802
591.862;  259.490;-1056.102; -950.817
592.138;  129.119; -475.108; -474.805
592.415;  227.514; -486.104; -495.813
592.691; 1973.212;  460.896;  518.188
592.968; 2642.305; -208.098; -123.824
593.244; 1273.154; -695.116; -595.790
593.521;  104.841; -105.102;  -42.817
593.797;   27.890; -810.122; -720.780
594.074;  481.996; -611.096; -588.826
594.350;  877.635;  828.905;  729.172
594.626;  420.243; -303.111; -283.801
594.903;  190.342; -643.101; -645.817
595.179;  249.794;  243.896;  418.187
595.455;   27.458; -136.107; -150.807
595.731;   14.396;  -19.103;  -38.814
596.008;   -9.140; -464.111; -434.800
596.284;   66.936; -187.100; -242.820
596.560;  117.761; -501.093; -493.833
596.836;  271.701; -173.105;  -70.810
597.112;  519.620; -582.108; -437.805
597.388;  403.918;  -49.097;  -48.826
597.665;  139.269;  437.887;  530.203
597.941;  -34.603; -572.089; -658.839
598.217;   61.602; -323.110; -293.802
598.493;  357.114;   61.891; -204.804
598.769;  742.404; -175.100;  -50.819
599.045;  439.699; -490.108; -562.806
599.321;  101.485; -193.100; -261.820
599.597;  202.363; -355.109; -476.804
599.872;  648.816;  409.896;  429.187
600.148;  490.070;  -61.097; -172.826
600.424;  395.005;   91.893;  202.193
600.700;  334.908; -170.107; -280.807
600.976;  203.788; -442.097; -464.825
601.252;  344.859; -226.109; -272.803
601.527;  347.093; -833.104; -840.813
601.803;  227.533; -453.105; -404.812
602.079;  270.754; -124.100; -118.819
602.354;  793.198; -620.092; -531.835
602.630; 1155.115; -140.113; -482.796
602.906; 2919.823; -910.101; -863.818
603.181; 8998.229; -627.119; -534.786
603.457; 7570.842;   98.903; -278.826
603.733; 1140.284; -605.120; -626.783
604.008; 1230.172; -245.106; -164.810
604.284; 4208.068; -636.101; -580.817
604.559; 3633.679;   -3.112;  -42.799
604.835;  672.076; -163.105; -225.810
605.110;  602.741; -732.099; -892.821
605.385;  943.564;  224.907;  267.167
605.661;  884.563; -625.095; -729.829
605.936; 1650.999; -664.108; -737.806
606.211; 1321.729;  -17.103; -170.815
606.487;  318.327; -329.114; -376.794
606.762;   87.379; -791.119; -745.786
607.037;    3.776; -501.105; -433.810
607.313;  -20.470; -589.096; -574.828
607.588;   21.647; -375.106; -137.810
607.863;   58.622;  -28.101; -143.818
608.138;  241.450;  513.890;  516.198
608.413;   95.646; -576.099; -592.822
608.688;   90.794; -203.108; -267.805
608.964;  291.315; -509.106; -218.809
609.239;  351.873; -107.105; -212.810
609.514;  323.758;  281.895;  240.188
609.789;  948.788; -187.104; -716.812
610.064; 1231.853; -435.096; -609.827
610.339; 1194.584; -855.109; -799.804
610.614; 1620.710; -131.100; -315.820
610.889;  845.558;  215.895;  107.188
611.163;   75.959; -407.104; -591.812
611.438;  143.329;   81.886; -167.794
611.713;   53.618; -467.101; -499.817
611.988;   99.396; -144.101; -328.818
612.263;   31.306; -771.102; -717.815
612.538;  278.040;  385.887;  251.204
612.812;  289.812; -832.100; -911.820
613.087;  256.252; -358.098; -338.823
613.362;  -29.517; -497.107; -557.807
613.637;   63.249;  261.897;  138.186
613.911;    5.499; -256.092; -345.835
614.186;  180.356; -249.107; -292.807
614.460;  954.640; -842.081; -758.854
614.735; 1056.401;  -55.087;  -17.843
615.010;  231.014;   43.912;  -82.841
615.284;  320.419;  360.892;  246.195
615.559;  571.672; -792.092; -955.835
615.833;  420.719;  -76.099;  -87.822
616.108;   34.887; -225.090; -390.837
616.382;  164.128;  274.913;  402.156
616.656;  210.837; -241.090; -232.837
616.931;  703.819; -785.099; -700.822
617.205; 1468.043; -973.104; -979.813
617.480; 1312.160;  -91.125;    6.225
617.754;  241.457; -396.125; -128.774
618.028;   51.695; -369.129; -382.768
618.302;   99.667;   73.892;  -25.805
618.577;  -15.424; -371.103; -518.815
618.851;  -52.495; -399.109; -600.803
619.125;  -38.610; -335.134; -378.759
619.399;  -18.356; -244.104; -374.813
619.673;  -23.186; -330.115; -515.792
619.947;  -28.068; -333.114; -448.795
620.222;    9.519; -198.110; -204.801
620.496;   22.381;  -47.121;  -96.782
620.770;   38.271; -187.122;  -93.781
621.044;  270.349;  323.895;  346.190
621.318; 1056.109; -653.120; -614.783
621.592;  919.007; -430.121; -409.783
621.866;  515.505; -476.112; -572.799
622.140;   58.856; -207.116; -356.791
622.413;   85.385;  138.889;  112.200
622.687;  -11.831; -746.101; -492.817
622.961;   46.492; -130.108; -143.805
623.235;  -46.664; -633.111; -661.800
623.509;  -86.443; -816.105; -848.811
623.783;   12.903;  -12.107;   48.193
624.056;   -7.039; -254.120; -280.783
624.330;   68.197;   63.888;   -3.797
624.604;   90.552; -271.116; -355.790
624.877;   96.849;  180.890;   26.198
625.151;   85.001; -249.114; -238.794
625.425;  -14.704; -150.103; -283.814
625.698;  -49.578; -367.119; -374.785
625.972;  -60.923; -799.110; -765.802
626.245;   72.779;  685.884;  484.210
626.519;  -30.684; -426.120; -340.784
626.792;  -18.893; -192.107; -380.807
627.066;  -72.363; -485.122; -662.779
627.339;  -93.728; -736.110; -663.802
627.613;   39.814;  351.880;  148.216
627.886;   69.129;  187.891; -612.803
628.160;    7.534;  312.880; -161.783
628.433;  -77.187; -695.125; -703.775
628.706;  -53.359; -517.120; -615.784
628.979;   33.747;  296.876;  117.223
629.253;  -81.247; -785.119; -833.786
629.526;  511.994; -334.126; -253.772
629.799;  497.305; -641.123; -479.778
630.072;  254.072; -497.128; -516.769
630.346;  -27.195;-1115.116;-1080.790
630.619;  635.934; -467.107; -545.808
630.892;  825.962;  709.889;  593.200
631.165;  411.593;  790.896;  679.187
631.438;  -37.074;-1092.112;-1055.798
631.711;   58.634;  453.877;  257.221
631.984;  -44.551; -523.117; -624.789
632.257;  -39.656; -636.117; -681.789
632.530;  -37.402; -412.119; -433.785
632.803;   39.998; -109.115;    7.207
633.076;  -54.974; -360.123; -422.777
633.349;   21.102;  173.872;  121.231
633.622;  -19.804; -187.119; -240.785
633.895; -101.964; -903.120; -823.783
634.167;  -54.003; -496.126; -525.773
634.440;   11.537;  -19.116; -137.792
634.713;   -1.273;  -22.119; -120.786
634.986;   92.290;  593.871;  453.233
635.258;  -64.679; -507.115; -597.793
635.531;   90.839;  742.882; -343.788
635.804;  -23.628; -303.117; -318.789
636.077;  -70.342; -830.116; -852.791
636.349;   20.694; -586.115; -474.793
636.622;  416.618; 1695.874; 1392.228
636.894;  340.491; -474.120; -909.784
637.167;  265.261; -836.127; -789.771
637.439;   52.806; -278.128; -213.770
637.712;  -40.530; -312.126; -293.772
637.984;  -61.767; -635.116; -707.791
638.257;  487.377;  515.877;  488.222
638.529;  886.415; -881.125; -924.776
638.802;  393.472; -508.128; -449.769
639.074;  -96.381; -927.122; -952.781
639.346;  -85.770; -942.135; -930.757
639.619;    8.099;  -79.142; -319.744
639.891;   17.187;  -83.122; -168.779
640.163;  -62.261; -689.122; -756.780
640.435;   52.466;  273.878;  103.220
640.708;   24.394;  -72.122; -132.780
640.980;    1.846; -366.122; -362.781
641.252;  245.598;  -25.121;  -71.781
641.524; 2415.125;  580.879;  573.219
641.796; 2614.228;-1094.121; -907.782
642.068;  483.580; -191.121; -300.782
642.340;  -36.143; -486.121; -566.783
642.613;   47.235;  294.880;  323.217
642.885;  -77.338; -787.120; -878.783
643.157;    3.489; -810.120; -658.784
643.428;   75.691;  170.880;  218.216
643.700;  -49.356; -498.120; -425.784
643.972;  -22.004;  -16.119; -133.785
644.244;  -83.477; -474.119; -559.785
644.516;  -47.925; -250.119; -114.786
644.788;   63.578;  662.881;  548.214
645.060;  -18.870;  -12.119; -124.786
645.332;  -88.468; -525.118; -535.787
645.603;   27.235;  479.882;  342.213
645.875;  -65.863; -334.118; -369.787
646.147;  139.389; 1487.882; 1242.212
646.418;  -35.934; -931.117; -918.788
646.690;  229.769; -714.117; -715.789
646.962;   75.221; -413.117; -451.789
647.233;  -26.352;   15.883;   11.211
647.505; -100.550; -595.117; -475.790
647.776;   18.803;  328.884;  229.210
648.048;   33.405; -248.116; -418.790
648.320;  -40.143; -752.116; -679.791
648.591; -121.666;-1055.116; -958.791
648.862;  -88.388; -505.116; -577.792
649.134;   20.064;  115.885;  198.208
649.405;  -15.309; -661.115; -618.792
649.677;  -29.481; -475.115; -598.793
649.948;    3.246; -181.115; -296.793
650.219;    9.873;  -37.115; -147.793
650.491;  -74.025; -431.114; -520.794
650.762;  -95.422; -705.114; -731.794
651.033;  -85.995; -437.114; -424.795
651.304;  -72.443; -743.114; -728.795
651.576;  -48.391; -680.114; -645.795
651.847;  -26.738; -250.113; -140.796
652.118;  -13.686;  -32.113; -189.796
652.389;  -89.659; -639.113; -722.796
652.660;  -28.956; -147.113;  -89.797
652.931; -120.104; -897.112; -871.797
653.202;  -82.752; -382.112; -541.798
653.473;  -41.150; -633.112; -533.798
653.744;  249.703; -595.112; -590.798
654.015;  229.580; -356.112; -303.799
654.286;  -54.768; -642.111; -663.799
654.557;  -30.791; -586.111; -521.799
654.828; -143.513;-1114.111;-1088.800
655.099;  -61.161; -404.111; -291.800
655.370;  -92.509; -427.111; -543.801
655.641; -110.306; -656.110; -714.801
655.911; -101.679; -618.110; -638.801
656.182;   68.273;  437.890;  387.198
656.453;  110.600;  830.890;  746.198
656.724;  -63.322; -466.110; -426.802
656.994;  -81.420; -553.109; -568.803
657.265;  -83.168; -862.109; -873.803
657.536;  -66.716; -500.109; -377.804
657.806;  -89.488; -561.109; -593.804
658.077; -135.186; -866.109; -950.804
658.347;  -75.509; -523.108; -598.805
658.618; -115.606; -646.108; -694.805
658.888;  -30.104;  -41.108;  112.195
659.159;  -76.427; -432.108; -548.806
659.429;    3.175; -292.108; -349.806
659.700;   49.978; -435.107; -390.807
659.970;   15.805; -370.107; -359.807
660.241;   74.607; -754.107; -921.807
660.511;  714.534; -147.107; -174.808
660.781;  181.287; -793.106; -748.808
661.052;  -33.261; -222.106; -381.808
661.322;  -19.234;   21.894;   -9.809
661.592;   18.694;  257.894;  148.191
661.862;  -65.579; -369.106; -382.810
662.133;  -76.277; -551.105; -502.810
662.403; -114.500; -770.105; -676.810
662.673;  -39.797; -256.105; -213.811
662.943;  -98.495; -612.105; -551.811
663.213;   14.282;  -85.105;  -81.811
663.483;  -58.691; -593.104; -568.812
663.753;  -29.513; -194.104; -152.812
664.023;  -14.911;   68.896;  -32.813
664.293;  -53.434; -319.104; -126.813
664.563; -104.406; -694.104; -648.813
664.833; -102.204; -743.103; -608.814
665.103; -120.652; -730.103; -793.814
665.373;  -87.750; -766.103; -806.814
665.643;  -50.597; -863.103; -918.815
665.913;   79.755; -534.103; -714.815
666.182;  224.457; -685.102; -719.816
666.452;  402.184;  -22.102;  -89.816
666.722;   28.662; -724.102; -784.816
666.992; -105.336; -948.102; -921.817
667.261;  -74.334; -824.102; -808.817
667.531;  304.894;  134.899;   45.183
667.801;  944.171; -440.101; -412.818
668.070;  343.448;  714.899;  697.182
668.340;  -77.500; -883.101; -840.819
668.609;  104.328;  588.900;  301.181
668.879;  -71.420; -490.100; -558.819
669.149;  -37.818; -539.100; -516.820
669.418;  -88.991; -698.100; -726.820
669.688;    5.437; -482.100; -666.820
669.957;  150.214; -423.099; -546.821
670.226;    2.316; -268.099; -331.821
670.496;  -79.431; -431.099; -635.822
670.765;  -76.029; -418.099; -501.822
671.034; -124.102; -872.099; -828.822
671.304;    0.425;   55.902; -111.823
671.573; -130.372;-1085.098; -957.823
671.842;  120.480; -380.098; -294.823
672.112;   86.632; -692.098; -586.824
672.381;   31.309; -239.098; -214.824
672.650; -118.913;-1005.097;-1021.825
672.919;  -66.511; -631.097; -507.825
673.188;  -79.184; -681.097; -878.825
673.457; -116.581;-1101.097;-1143.826
673.726;  -65.154; -579.096; -646.826
673.995;  -20.577; -533.096; -479.826
674.265;    8.450; -263.096; -333.827
674.534;   43.703; -183.096; -235.827
674.802;   47.980; -618.096; -703.828
675.071; 1213.982; -886.095; -801.828
675.340; 5438.834; -464.095; -339.828
675.609; 1775.762;  103.905;   82.171
675.878;  152.789; -949.095; -893.829
676.147;   69.516;  -26.095;   -8.829
676.416;  107.144; -210.094; -294.830
676.685;  935.221; 1000.906; -622.830
676.953;  179.448; -603.094; -452.831
677.222;   -6.625; -193.094; -273.831
677.491;  -25.772;  -24.094; -127.831
677.759;   -8.845;   11.907;  172.168
678.028;   11.682; -279.093; -222.832
678.297;    4.759;   71.907;  197.168
678.565; -123.113; -898.093; -944.833
678.834;  -39.811; -311.093; -268.833
679.102;  -74.259; -411.092; -391.834
679.371; -122.481; -898.092; -727.834
679.639; -122.504; -797.092; -786.834
679.908; -110.152; -794.092; -724.835
680.176; -147.825; -895.091; -941.835
680.445;  -68.097; -346.091; -352.835
680.713;  -23.445;  -58.091;  -23.836
680.982;  -77.218; -523.091; -525.836
681.250;  -94.616; -578.091; -507.837
681.518;  -91.013; -534.090; -751.837
681.787;  -12.336; -204.090; -167.837
682.055;  -34.709; -490.090; -422.838
682.323; -141.157; -993.090; -992.838
682.591;   40.996; -216.090; -538.838
682.859;  138.298;    9.911;  -35.839
683.128;   30.300;  232.911;  497.161
683.396; -149.772;-1102.089;-1122.840
683.664;  -25.070; -241.089;   21.160
683.932;    5.232;  144.911;  -76.840
684.200;  -56.641; -576.088; -320.841
684.468;  -21.188;  -73.088; -124.841
684.736;  -13.311; -214.088; -175.841
685.004;  -99.234;-1024.088; -982.842
685.272;    4.818; -880.088; -774.842
685.540;  -61.904; -499.087; -557.843
685.808;  -60.752; -651.087; -682.843
686.076;  -78.850; -894.087; -969.843
686.343;  -22.047; -601.087; -815.844
686.611;   57.105; -195.087; -224.844
686.879;  544.607; -530.086; -553.844
687.147; 4394.434; -483.086; -480.845
687.414; 1336.387;  -12.086; -169.845
687.682;   42.239; -658.086; -757.846
687.950;  403.116;  259.915;  263.154
688.217;   89.518; -792.085; -760.846
688.485;   28.046; -632.085; -636.847
688.753;  724.073;  -11.085; -102.847
689.020;  303.325; -820.085; -851.847
689.288;  -78.047; -853.084; -787.848
689.555;  -17.395; -195.084; -148.848
689.823;  -43.993; -241.084; -345.849
690.090;  -59.241; -546.084; -651.849
690.358; -124.738; -877.084; -897.849
690.625;    7.789;  120.917;   45.150
690.892;  -68.359; -403.083; -369.850
691.160;   -2.357;   72.917;  -35.850
691.427;   20.096;  141.917;  130.149
691.694; -108.827; -855.083; -929.851
691.962; -126.275;-1177.082;-1060.852
692.229;   27.603;  127.918;   56.148
692.496;  102.605;  130.918;  -49.852
692.763;   38.357; -164.082; -201.853
693.031;  -30.166; -739.082; -716.853
693.298;   -1.063; -509.081; -368.853
693.565;  371.239; -155.081; -163.854
693.832; 1750.691;   -5.081;   -9.854
694.099;  239.543; -643.081; -642.855
694.366;  -16.829; -882.081; -896.855
694.633;  -23.627; -920.080; -633.855
694.900;  728.625; 4367.920; -114.856
695.167;  587.328; -214.080; -380.856
695.434;  193.055; -646.080; -623.856
695.701;  267.557;  121.921;  -61.857
695.968;  636.184; -365.079; -361.857
696.234; 1185.537; -415.079; -646.858
696.501;12875.814; -776.079; -614.858
696.768; 7249.666; -554.079; -617.858
697.035;  460.918; -632.078; -667.859
697.302;   97.896; -448.078; -552.859
697.568;   44.373; -458.078; -497.859
697.835;  -18.875; -683.078; -624.860
698.102;    5.853; -498.078; -407.860
698.368;   88.680;  384.923;  396.139
698.635;  -16.018;  -47.077; -424.861
698.901;   -2.716; -240.077; -348.861
699.168;  122.387; -534.077; -456.862
699.435;  120.489;  -72.077;  -13.862
699.701;  -75.234; -868.076; -764.862
699.968;   21.918;  144.924; -441.863
700.234;  -69.304; -783.076; -822.863
700.500;  -27.902; -448.076; -539.864
700.767;   20.350;   -1.075;   26.136
701.033; -110.872;-1015.075; -963.864
701.299;  -26.445; -450.075; -483.865
701.566;  119.807;  950.925;  763.135
701.832;   57.034;  -31.075;  -76.865
702.098;  -75.938;-1054.074;-1034.866
702.365;  -17.361;-1098.074;-1030.866
702.631;   23.166;-1038.074;-1063.867
702.897; 1712.668; -765.074; -676.867
703.163; 3245.071;  348.926;  254.133
703.429;  269.298; -256.073; -273.868
703.695;   13.300; -796.073; -792.868
703.961;   44.153; -214.073; -210.868
704.227;  -24.145; -630.073; -725.869
704.493;  159.807;  613.927;  510.131
704.759;   17.584; -565.072; -540.870
705.025;   73.512; -203.072; -194.870
705.291;   38.664; -666.072; -562.870
705.557;  241.591;  719.928;   34.129
705.823;  103.793; -742.072; -694.871
706.089;  238.271; -307.071; -326.871
706.355;  470.548; -315.071; -244.872
706.620; 7148.150; -776.071; -729.872
706.886;11433.903; -309.071; -362.873
707.152; 1182.130; -818.070; -973.873
707.418;   74.832;-1153.070;-1186.873
707.683;   52.184; -550.070; -530.874
707.949;   -4.763; -547.070; -578.874
708.215;   38.214; -129.070; -207.874
708.480;    7.316; -520.069; -420.875
708.746;  152.443;   68.931;   28.125
709.011;  -37.729; -578.069; -612.876
709.277;  -53.427; -538.069; -543.876
709.542;  -20.375; -428.069; -387.876
709.808;   16.378;  -59.068;   89.123
710.073;  -60.595; -577.068; -695.877
710.339;  -14.393; -242.068; -228.877
710.604;  128.834; -780.068; -845.878
710.869;  504.262; -277.068; -366.878
711.135;  -54.986; -715.067; -628.879
711.400;  -54.484; -507.067; -608.879
711.665;  -58.257; -404.067; -479.879
711.931;  -78.429; -661.067; -677.880
712.196; -102.727; -876.067; -954.880
712.461;  161.125; -402.066; -490.880
712.726;  282.803; -727.066; -771.881
712.991;  -54.345; -647.066; -664.881
713.256;  -32.393; -350.066; -332.882
713.521;  -36.091; -417.065; -381.882
713.787;  -44.113; -454.065; -472.882
714.052;    4.664; -214.065; -400.883
714.317;  -56.134;-1045.065; -981.883
714.581; 1524.543; -374.065; -268.883
714.846; 2485.646; -822.064; -888.884
715.111;  204.448;  261.936;  257.116
715.376;   -8.925;  -86.064; -223.885
715.641;    4.902; -365.064; -367.885
715.906;  430.830;   15.936; -551.885
716.171;  189.132;  221.937;  209.114
716.436;   64.059;  -78.063; -104.886
716.700;  -83.138; -818.063; -692.886
716.965; -110.136; -794.063; -807.887
717.230;  -51.859; -339.063; -392.887
717.494;  -21.157;  -40.062; -134.888
717.759;  -65.229; -784.062; -640.888
718.024;    8.823;  269.938;  250.112
718.288;   85.200;  685.938;  395.111
718.553; -129.498; -803.062; -977.889
718.817; -120.495; -883.061; -899.889
719.082;  -15.493; -115.061; -125.890
719.346; -133.716;-1000.061; -947.890
719.611;  -31.838; -300.061; -255.891
719.875;  -80.561; -568.060; -537.891
720.140;  -62.809; -453.060; -603.891
720.404;   60.993; -136.060; -249.892
720.668; 1121.371; -475.060; -411.892
720.933;  504.173;  146.940;  137.108
721.197;  -73.075; -667.059; -600.893
721.461; -110.398; -851.059; -826.893
721.725;   -7.470;  -21.059; -250.894
721.990;  -54.093; -284.059; -204.894
722.254;  -22.791;  -26.059; -108.894
722.518;  -59.913; -286.058; -442.895
722.782;  -77.411; -743.058; -594.895
723.046;  158.141;  614.942;  570.105
723.310;   22.593;  374.942;  210.104
723.574;  -85.929; -654.058; -614.896
723.838;  -88.352; -576.057; -642.897
724.102;  -28.625; -226.057; -239.897
724.366; -116.248;-1032.057; -978.897
724.630;  -78.795; -749.057; -571.898
724.894;  -54.918; -722.057; -514.898
725.158;   20.659;   38.944; -295.898
725.422;  -44.813; -394.056; -327.899
725.685;  -32.636; -441.056; -349.899
725.949;  -66.459; -566.056; -519.900
726.213;  -43.632; -732.056; -811.900
726.477;  283.421;-1020.055; -933.900
726.740;  251.423; -274.055; -104.901
727.004;  460.675; -384.055; -510.901
727.268; 4987.777; -442.055; -400.901
727.531; 1711.555; -961.055; -775.902
727.795;   13.082; -713.054; -673.902
728.059;  -25.491; -552.054; -557.903
728.322;  -48.938; -841.054; -669.903
728.586;   81.889; -692.054; -701.903
728.849;  -54.209; -695.053; -756.904
729.112; -100.682; -812.053; -912.904
729.376;  -94.654; -959.053; -905.904
729.639;  -61.177; -536.053; -536.905
729.903;  -88.700; -733.053; -699.905
730.166;  -26.898; -437.052; -399.906
730.429;  -14.120; -317.052; -468.906
730.693;  -52.618; -355.052; -894.906
730.956;  231.884;  810.948;  651.093
731.219; 1013.812; -310.052; -103.907
731.482;  207.514;-1003.051; -894.907
731.745;  227.266; -794.051; -935.908
732.009;   51.868;  -30.051;   50.092
732.272;  -77.054; -904.051; -771.909
732.535;  -17.127; -300.051; -310.909
732.798; -123.450;-1083.050;-1166.909
733.061;  -23.698; -430.050; -456.910
733.324;   20.880;   31.950; -180.910
733.587;   94.807;  290.950;  365.090
733.850;  -41.716; -973.049;-1050.911
734.113;   58.962;   33.951;   32.089
734.376;   27.914; -328.049; -447.912
734.639;  234.791; 1188.951; 1011.088
734.901;  114.918; -180.049; -402.912
735.164;  659.321; -883.048; -837.913
735.427; 1888.098; -166.048; -355.913
735.690;  200.650; -205.048; -234.913
735.952;   30.927; -923.048; -925.914
736.215;   38.180;-1113.048;-1009.914
736.478;  110.307; -771.047; -774.915
736.740;  291.659;   33.953;  129.085
737.003;  767.562; -658.047; -672.915
737.266; 5430.014;  -94.047;   46.084
737.528;  662.766; -682.047; -660.916
737.791;  458.793; -316.046; -327.916
738.053;  964.921;  465.954;  649.083
738.316;13113.498; -162.046; -136.917
738.578;11385.975; -770.046; -736.918
738.841;  671.852; -382.046; -446.918
739.103;  303.555; -875.045; -777.918
739.365;  751.307;   79.955;  -69.919
739.628;   83.184; -884.045; -805.919
739.890;   24.037; -758.045; -710.919
740.152;  -11.086; -692.044; -754.920
740.414;   24.166; -408.044; -359.920
740.677;   -3.982; -785.044; -634.921
740.939;   -8.429; -587.044; -487.921
741.201;  377.073; -432.044; -572.921
741.463;  116.200; -689.043; -745.922
741.725;   40.427;  -21.043; -199.922
741.987;   78.205;  220.957;  116.078
742.249;   65.032; -751.043; -859.923
742.511;  325.759; -703.043; -794.923
742.773;   82.512; -546.042; -546.924
743.035;  145.639;  796.958;  533.076
743.297;    3.491; -963.042;-1013.924
743.559; 1024.468; -278.042; -262.925
743.821;  179.346; -735.042; -744.925
744.083;   51.273;  -44.041; -149.925
744.345;  -49.275; -869.041; -892.926
744.607;   54.427;   75.959;  122.074
744.868;  -16.345; -490.041; -554.927
745.130;  -59.268; -994.041;-1008.927
745.392;   65.034;   -1.040;  -44.927
745.653;   24.087; -411.040; -378.928
745.915;  163.814;  896.960;  631.072
746.177;  103.591;   35.960;  -43.928
746.438;   37.293; -428.040; -543.929
746.700;   26.971; -947.039; -988.929
746.961;   67.573; -659.039; -740.930
747.223;  230.400; -190.039;  -74.930
747.484;  182.877; -391.039; -471.930
747.746;  244.655;  -23.038; -106.931
748.007;  231.357; -647.038; -689.931
748.269;  427.959; -468.038; -440.931
748.530;  749.586; -852.038; -638.932
748.791;  429.789; -354.038; -420.932
749.053;  609.166;  286.963;  163.067
749.314;  686.193; -236.037; -169.933
749.575;  803.846; -945.037; -905.933
749.836; 1230.673; -217.037;   86.066
750.098; 2990.650;  -60.037;  -21.934
750.359;48292.177;  414.964;  555.066
750.620;15606.130; -121.036; -220.935
750.881; 1499.507; -585.036; -513.935
751.142; 1878.859; -950.036; -938.936
751.403;20721.336; -789.036; -705.936
751.664;11687.039;-1034.035; -999.936
751.925;  754.616; -175.035; -262.937
752.186;  409.418; -298.035; -278.937
752.447;  222.571; -590.035; -445.937
752.708;  122.348; -532.035; -648.938
752.969;   79.575; -566.034; -576.938
753.230;   65.377; -777.034; -672.939
753.491;   65.155; -650.034; -631.939
753.751;  110.832;  109.966;   19.061
754.012;  124.459;  258.967;  181.060
754.273;  100.611; -174.033;  -71.940
754.534;   68.164; -487.033; -580.940
754.794;  -47.259; -926.033; -911.941
755.055;  169.393; 1051.967;  881.059
755.316;   -6.404; -700.032; -566.942
755.576;   11.348; -606.032; -576.942
755.837;   -8.600; -527.032; -695.942
756.097;  -12.723; -530.032; -564.943
756.358;  -31.395; -725.032; -770.943
756.618;  -10.593; -705.031; -641.943
756.879;   49.984; -254.031; -349.944
757.139;  -70.989;-1098.031;-1116.944
757.400;  -30.411; -538.031; -553.945
757.660;    6.966; -365.031; -401.945
757.920;   40.593; -266.030; -228.945
758.181;   19.896; -468.030; -351.946
758.441;  -57.102; -870.030; -809.946
758.701;    0.825; -308.030; -215.946
758.961;   -1.473; -220.030; -278.947
759.222;  -26.420; -574.029; -502.947
759.482;  -60.568; -683.029; -723.948
759.742;  -48.141; -706.029; -547.948
760.002;   19.036;  -83.029; -143.948
760.262;   40.914;   50.972;  182.051
760.522;  -26.134; -498.028; -574.949
760.782;  -35.832; -738.028; -612.949
761.042;  -18.679; -618.028; -573.950
761.302;   76.898;   55.972;  -18.950
761.562;   53.400; -164.027; -154.951
761.822;  135.177; -710.027; -551.951
762.082;   -9.595;-1104.027;-1093.951
762.342;   93.057; -328.027; -403.952
762.601;  100.759; -567.027; -506.952
762.861;  427.761; -281.026; -207.952
763.121;  423.189; -406.026; -411.953
763.381; 6589.991; -499.026; -485.953
763.640; 9556.843; -139.026; -307.954
763.900;  424.771; -242.026; -203.954
764.160;  103.098; -458.025; -491.954
764.419;   33.250; -726.025; -782.955
764.679;  -49.548; -795.025; -726.955
764.939;   17.905; -124.025; -210.955
765.198;  -63.868; -608.025; -563.956
765.458;  -49.591; -710.024; -612.956
765.717;  -75.314; -454.024; -590.957
765.976;  -35.686; -428.024; -411.957
766.236;  -65.659; -475.024; -610.957
766.495;   25.318;  260.977;   73.042
766.755;  -48.654;-1090.023; -987.958
767.014;   57.373; -594.023; -665.958
767.273;  -35.875; -373.023; -397.959
767.533;  -17.198; -228.023; -307.959
767.792;  -30.345; -151.022; -188.960
768.051;  -37.543; -228.022; -276.960
768.310;  -71.216; -546.022; -650.960
768.569;    8.361; -161.022;    4.039
768.828;  -11.861; -285.022; -363.961
769.088;  -80.809;-1050.021; -942.961
769.347;  -64.257; -755.021; -599.962
769.606;  -59.804; -876.021; -857.962
769.865;  -97.977;-1016.021;-1033.963
770.124;   19.975; -411.021; -336.963
770.383;  -21.998; -778.020; -910.963
770.641;   60.830; -398.020; -400.964
770.900;  -25.193; -953.020; -846.964
771.159;   -0.766; -851.020; -951.964
771.418;   49.261; -917.020; -779.965
771.677;  195.664; -224.019; -293.965
771.936;  222.666; -794.019; -865.966
772.194; 2249.568; -465.019; -437.966
772.453;14805.771; -213.019; -391.966
772.712; 1148.423;  416.982;  329.033
772.970;  175.250;   32.982;   63.033
773.229;  125.702;  -22.018;  102.033
773.488;  -42.020; -814.018; -770.968
773.746;   61.232;  296.982;  335.032
774.005;   10.684;  190.983;  -22.969
774.263;   23.261;  243.983;  177.031
774.522;  -35.511; -422.017; -548.969
774.780;  -55.534; -484.017; -417.970
775.039;  -77.307; -551.017; -531.970
775.297;  -13.929; -135.016; -351.970
775.555; -101.002; -489.016; -612.971
775.814;  -95.600; -618.016; -570.971
776.072; -112.023; -749.016; -740.971
776.330;  -80.920; -630.016; -520.972
776.589; -105.243; -703.015; -721.972
776.847; -102.441; -645.015; -624.973
777.105; -151.839;-1016.015;-1032.973
777.363;  -71.011; -459.015; -454.973
777.621; -130.984; -660.015; -717.974
777.879;   -0.457;  -42.014;   32.026
778.138; -101.104; -554.014; -717.974
778.396;  -82.152; -585.014; -526.975
778.654; -156.525;-1015.014; -970.975
778.912;  -54.823; -269.014; -371.976
779.170; -121.445; -880.013; -803.976
779.427; -129.668; -922.013; -897.976
779.685; -122.566; -880.013; -832.977
779.943;  -47.414; -654.013; -593.977
780.201; -148.086; -964.012; -883.978
780.459;  -94.909; -651.012; -610.978
780.717;  -83.957; -440.012; -390.978
780.974; -100.655; -449.012; -490.979
781.232;  -72.552; -358.012; -338.979
781.490;  -56.025; -551.011; -472.979
781.747;  -85.773; -555.011; -476.980
782.005;   16.505;  462.989;  254.020
782.263; -140.718; -542.011;-1004.981
782.520;  -73.541; -326.011; -501.981
782.778; -146.839;-1013.010;-1051.981
783.035; -147.586; -962.010; -938.982
783.293;  -57.909; -248.010; -206.982
783.550;  -65.332; -134.010; -198.982
783.808; -118.655; -764.010; -776.983
784.065; -142.677; -745.009; -874.983
784.322;  -48.275;   25.991;  -86.984
784.580; -120.473; -915.009; -771.984
784.837;  -94.545; -392.009; -466.984
785.094; -129.643; -783.009; -762.985
785.352;  -54.241; -304.008; -404.985
785.609;  -73.514; -934.008; -839.985
785.866;  -76.361; -345.008; -401.986
786.123;  -44.284; -639.008; -583.986
786.380;  -79.382; -665.008; -604.987
786.637;  -33.855; -225.007; -380.987
786.895;   10.923; -456.007; -543.987
787.152;  -46.150; -135.007; -267.988
787.409;  -36.598; -123.007; -225.988
787.666;  -73.120; -299.006; -378.988
787.923; -110.468; -616.006; -695.989
788.179;  -79.991; -551.006; -584.989
788.436; -103.814; -585.006; -585.990
788.693;  -27.486;  -92.006;  -87.990
788.950;  164.366; -125.005; -112.990
789.207;  380.193; -381.005; -372.991
789.464;  -46.180; -161.005; -301.991
789.720;   -4.477;  150.995;  110.009
789.977; -150.350;-1003.005; -671.992
790.234;  -28.023;   44.996;  -66.992
790.490; -141.220; -884.004;-1031.993
790.747;   -6.018;  -85.004;   22.007
791.004;   -8.066; -426.004; -348.993
791.260;  -59.114; -430.004; -560.994
791.517;  -93.011; -843.003; -788.994
791.773;  -23.334; -379.003; -342.994
792.030; -103.007; -596.003; -660.995
792.286;  -75.480; -686.003; -636.995
792.543;  -11.777;  -74.002; -159.995
792.799;  -47.150; -584.002; -382.996
793.055; -134.123;-1179.002;-1210.996
793.312;  -92.870; -827.002; -816.997
793.568;  -43.943; -746.002; -599.997
793.824;   12.434; -226.001; -284.997
794.081;   24.636; -447.001; -508.998
794.337;   92.714; -664.001; -561.998
794.593; 1039.991; -319.001; -271.999
794.849; 7316.093; -746.001; -772.999
795.105;  490.495; -270.000; -261.999
795.361;   38.098; -490.000; -457.000
795.617;  -44.050; -875.000; -945.000
795.873;  -38.350; -360.000; -407.000
796.129;  -21.900; -368.000; -306.000
796.385;   -9.575; -124.000; -156.000
796.641;   66.300;  412.000;  550.000
796.897;  -59.650; -666.000; -635.000
797.153;   73.700;  453.000;  357.000
797.409;  -70.725; -785.000; -868.000
797.665;  -51.700; -625.000; -732.000
797.921;  -29.875; -775.000; -762.000
798.176;  -28.850; -744.000; -747.000
798.432;   -2.900; -824.000; -596.000
798.688;  -26.200;-1174.000;-1078.000
798.943;  128.500; -165.000; -147.000
799.199;   58.650;-1005.000; -959.000
799.455;  290.800;  369.000;  316.000
799.710;  222.550; -813.000; -380.000
799.966;  443.000; -162.000; -160.000
800.221;  663.550; -638.000; -721.000
800.477;11705.150; -743.000; -710.000
800.732;14514.275; -773.000; -800.000
800.988;  872.950;  205.000;  -19.000
801.243; 1779.350; -454.000; -344.000
801.498;10393.850; -814.000; -739.000
801.754;  766.000; -289.000; -163.000
802.009;  132.625; -257.000; -335.000
802.264;   15.100; -967.000;-1033.000
802.520;   39.150;  222.000;   -3.000
802.775;  -25.725; -524.000; -359.000
803.030;   57.475;  395.000;  356.000
803.285;  -96.550; -840.000; -903.000
803.540;  -20.075; -686.000; -699.000
803.795;    6.775; -648.000; -583.000
804.051;  -20.950; -279.000; -346.000
804.306;   28.675;  168.000;  128.000
804.561;  182.600;  451.000;  362.000
804.816;  130.350;  714.000;  861.000
805.071;   20.850; -185.000; -280.000
805.325;  315.600; -257.000; -427.000
805.580;  -66.800; -841.000; -877.000
805.835;   -7.750; -204.000; -297.000
806.090;  -45.400; -760.000; -676.000
806.345;    9.275; -344.000; -264.000
806.600;   -2.000; -549.000; -632.000
806.854;    1.500; -408.000; -538.000
807.109;    6.575; -493.000; -577.000
807.364;   15.850; -407.000; -328.000
807.618;   35.425; -415.000; -381.000
807.873;   88.550; -470.000; -494.000
808.128;  140.600; -257.000; -518.000
808.382;  145.200; -224.000; -332.000
808.637;  110.075; -440.000; -511.000
808.891;  191.150; -257.000; -180.000
809.146;  159.500; -902.000; -794.000
809.400;  329.250; -848.000; -923.000
809.654;  397.100; -779.000; -551.000
809.909;  544.150; -841.000; -927.000
810.163; 5789.425; -813.000; -651.000
810.418;20963.750; -940.000; -861.000
810.672; 1402.625; -685.000; -690.000
810.926;  798.600; -993.000; -973.000
811.180; 1422.200; -439.000; -372.000
811.434;30064.550;  240.000;  135.000
811.689;17270.850; -231.000; -365.000
811.943;  842.825; -936.000; -953.000
812.197;  410.150; -893.000; -671.000
812.451;  153.000; -379.000; -514.000
812.705;   14.600; -809.000; -619.000
812.959;   11.700; -263.000; -388.000
813.213;   18.125; -283.000; -209.000
813.467;   70.625;  470.000;  253.000
813.721;  -78.050; -764.000; -792.000
813.975; -102.225; -826.000; -877.000
814.229;   57.825;  430.000;  353.000
814.482;  -63.650; -517.000; -566.000
814.736;  -91.950; -766.000; -744.000
814.990; -117.325; -779.000; -872.000
815.244;  -29.450; -228.000; -285.000
815.497;  -93.300; -636.000; -601.000
815.751;   -6.425; -141.000;   82.000
816.005;  -71.500; -470.000; -586.000
816.258;  -54.025; -510.000; -363.000
816.512;  -95.775; -693.000; -610.000
816.766;   19.550;  121.000;  157.000
817.019;   25.125;  148.000;  149.000
817.273;  -89.800;-1000.000; -802.000
817.526;  -23.975; -206.000; -173.000
817.779;   -9.250;-1049.000; -960.000
818.033;  -44.800; -693.000; -807.000
818.286;  -98.425; -725.000; -792.000
818.540;  -69.600; -403.000; -403.000
818.793;  -65.575; -402.000; -489.000
819.046;  -93.275; -582.000; -520.000
819.299;  -34.100; -157.000; -166.000
819.553; -110.800; -552.000; -592.000
819.806; -135.850;-1016.000; -838.000
820.059;  -58.200; -334.000; -354.000
820.312;   26.825;  152.000;  185.000
820.565;  -13.450;  110.000;  -27.000
820.818;  -39.450;  -59.000; -173.000
821.071; -154.200;-1041.000; -957.000
821.324;  -89.450; -536.000; -540.000
821.577;  -98.650; -457.000; -483.000
821.830;  -59.775; -270.000; -172.000
822.083; -129.750; -733.000; -288.000
822.336;  -42.150; -261.000; -167.000
822.589; -116.000; -805.000; -688.000
822.842; -115.825; -875.000; -770.000
823.094; -152.775;-1076.000;-1114.000
823.347; -106.975; -925.000; -729.000
823.600;   12.900;  402.000;  187.000
823.853;  -26.600; -311.000; -267.000
824.105;  -49.300; -331.000; -575.000
824.358;  -77.425; -617.000; -716.000
824.611;   33.800;  234.000;   40.000
824.863;  -12.950; -612.000; -591.000
825.116;   84.575;  -33.000;   27.000
825.368;  129.575; -366.000; -372.000
825.621;  239.300; -186.000; -240.000
825.873;  182.925; -704.000; -737.000
826.126;  690.200; -669.000; -641.000
826.378;14488.050; -389.000; -505.000
826.630; 5393.375; -890.000; -898.000
826.883;  166.850; -754.000; -693.000
827.135;   88.300; -279.000; -270.000
827.387;  -72.125; -893.000; -839.000
827.639;  -17.000;  -86.000;   32.000
827.892; -102.150; -742.000; -582.000
828.144; -133.275; -848.000; -804.000
828.396;  -38.125;  104.000;  -80.000
828.648;  -83.175; -440.000; -333.000
828.900; -125.525; -702.000; -795.000
829.152; -102.625; -684.000; -683.000
829.404;  -50.575; -215.000; -267.000
829.656;  -13.625;  321.000;  214.000
829.908;  -15.925;  393.000;  229.000
830.160; -166.050;-1064.000;-1047.000
830.412;  -75.100; -481.000; -430.000
830.664; -110.300; -557.000; -665.000
830.916;  -63.875; -268.000; -206.000
831.167; -158.550;-1073.000; -951.000
831.419;  -91.400; -623.000; -566.000
831.671; -144.875; -764.000; -809.000
831.923;  -81.300; -311.000; -447.000
832.174;  -78.950; -273.000; -331.000
832.426;  -96.950; -493.000; -582.000
832.678; -174.550;-1043.000;-1091.000
832.929; -138.000; -947.000; -935.000
833.181;  -34.350; -575.000; -677.000
833.432;  -32.100;  -59.000; -186.000
833.684;  -20.200;  112.000;  -27.000
833.935; -105.125; -610.000; -566.000
834.187; -108.925; -829.000; -823.000
834.438;  -40.600;  -58.000;  -25.000
834.689;  -51.550; -255.000; -123.000
834.941;  -36.500; -343.000; -244.000
835.192;  -96.000; -590.000; -533.000
835.443;  -76.450; -419.000; -506.000
835.695;  -19.975;  138.000;  -16.000
835.946;  -72.325; -608.000; -378.000
836.197;  -98.975; -599.000; -622.000
836.448;  -74.025; -528.000; -395.000
836.699;  -36.600; -253.000; -341.000
836.950;    7.250;   72.000;    7.000
837.201; -135.350;-1003.000; -987.000
837.452;  -42.550; -356.000; -170.000
837.703;  -87.850; -791.000; -737.000
837.954;   -9.425; -205.000; -365.000
838.205;  -70.250;-1029.000;-1008.000
838.456;  271.050; -196.000; -282.000
838.707;   31.850; -423.000; -519.000
838.958;   58.900; -634.000; -647.000
839.209;  374.850;   18.000;   40.000
839.460;  182.575; -439.000; -201.000
839.710;  229.525; -135.000; -297.000
839.961;  500.250;  730.000;  612.000
840.212;  449.925; -382.000; -497.000
840.462; 1289.125; -328.000; -277.000
840.713;20571.850; -571.000; -536.000
840.964;11969.150;  -62.000; -143.000
841.214;  715.775; -384.000; -624.000
841.465;  687.825; -214.000; -141.000
841.715;  595.625; -417.000; -380.000
841.966;  718.000; -746.000; -685.000
842.216; 7286.175; -330.000; -431.000
842.466;38332.525; -169.000; -313.000
842.717; 3293.475; -964.000; -952.000
842.967;  367.000; -635.000; -641.000
843.217;  345.900;   20.000;   28.000
843.468;   96.775; -104.000; -132.000
843.718;  -12.050; -718.000; -726.000
843.968;  -70.700; -837.000; -765.000
844.218;   40.325; -315.000; -262.000
844.469;   -6.650; -577.000; -561.000
844.719;  -98.300; -537.000; -682.000
844.969;  -78.175; -550.000; -580.000
845.219; -141.425; -814.000; -862.000
845.469;  -54.200; -392.000; -342.000
845.719; -117.950; -792.000; -884.000
845.969;    2.500;  119.000;  174.000
846.219; -111.350; -738.000; -720.000
846.469;   25.675;  464.000;  432.000
846.718;  -43.200; -115.000;   31.000
846.968; -112.025; -827.000; -827.000
847.218;  -37.525; -224.000; -371.000
847.468;    1.875; -586.000; -555.000
847.718; -134.750; -827.000; -798.000
847.967; -116.900; -826.000; -915.000
848.217;  -80.175; -449.000; -569.000
848.467;  -50.375; -405.000; -376.000
848.716;  -92.575; -708.000; -725.000
848.966;   35.300; -372.000; -358.000
849.215;  -38.350; -428.000; -419.000
849.465;  -72.700; -785.000; -615.000
849.714;  -99.900;-1132.000;-1150.000
849.964;  -29.500; -551.000; -613.000
850.213;   14.550; -393.000; -355.000
850.463;  107.600;  137.000;  340.000
850.712;   52.525; -542.000; -567.000
850.961;  103.000; -739.000; -678.000
851.211;  192.575; -513.000; -504.000
851.460;  292.275; -635.000; -650.000
851.709;  728.150;  -25.000;   18.000
851.958;11815.075; -912.000; -750.000
852.208;20730.650; -859.000; -879.000
852.457;  921.925; -181.000;  -13.000
852.706;  166.300; -791.000; -823.000
852.955;  115.175; -507.000; -528.000
853.204;  -38.475; -521.000; -461.000
853.453;  -51.175; -418.000; -458.000
853.702; -114.250; -660.000; -750.000
853.951;  -86.575; -532.000; -520.000
854.200; -119.075; -613.000; -562.000
854.449; -109.125; -695.000; -661.000
854.698;  -98.875; -340.000; -279.000
854.946;  -64.775; -181.000; -284.000
855.195; -136.700; -843.000; -868.000
855.444;  -73.950; -395.000; -420.000
855.693; -119.000; -345.000; -432.000
855.941;  -79.750; -387.000; -516.000
856.190;  -47.675; -256.000; -382.000
856.439; -115.500; -652.000; -703.000
856.687;  -49.375;  -99.000;  -72.000
856.936;  -98.150; -621.000; -323.000
857.184; -168.350;-1067.000;-1020.000
857.433;  -82.600; -423.000; -512.000
857.681; -150.225; -989.000; -953.000
857.930;  -61.725; -282.000; -433.000
858.178; -146.175; -856.000; -929.000
858.427; -141.175; -802.000; -781.000
858.675; -114.850; -377.000; -544.000
858.923;  -94.875; -527.000; -819.000
859.172; -158.875;-1094.000;-1070.000
859.420;  -73.350; -339.000; -239.000
859.668; -129.850; -624.000; -628.000
859.916;  -21.875;  109.000;  115.000
860.164;  -96.500; -699.000; -603.000
860.413;  350.800; -878.000; -696.000
860.661;  449.675; -709.000; -577.000
860.909;  -55.175; -339.000; -325.000
861.157;  -87.375; -277.000; -444.000
861.405; -115.050; -534.000; -670.000
861.653;   10.375;  310.000;  310.000
861.901;  212.650; -543.000; -613.000
862.149;   97.325; -801.000; -824.000
862.396;  -75.175; -297.000; -187.000
862.644;  -92.100; -368.000; -347.000
862.892;  -25.975;   98.000;  138.000
863.140; -113.625; -549.000; -530.000
863.388; -154.925; -815.000; -759.000
863.635; -114.625; -642.000; -601.000
863.883;  -15.700;  231.000;  190.000
864.131;  -80.675; -288.000; -357.000
864.378; -110.800; -675.000; -540.000
864.626; -113.000; -347.000; -415.000
864.873; -110.400; -556.000; -505.000
865.121; -136.475; -714.000; -799.000
865.368;  -25.200; -173.000;   75.000
865.616;  -25.250;  -33.000;  -40.000
865.863;  -38.700; -462.000; -506.000
866.111;  -61.250; -795.000; -824.000
866.358;  104.525; -426.000; -420.000
866.605; 2876.325;  -64.000; -804.000
866.853; 4283.225; -621.000; -537.000
867.100;   90.250; -728.000; -775.000
867.347;  -49.925; -672.000; -611.000
867.594;  -70.775; -740.000; -714.000
867.841;  141.200;   97.000;   17.000
868.089; -123.500; -746.000; -698.000
868.336;  -94.350; -477.000; -420.000
868.583; -133.900; -637.000; -741.000
868.830;  -46.925; -131.000; -170.000
869.077; -155.050; -859.000; -787.000
869.324; -119.675; -502.000; -458.000
869.571; -129.300; -398.000; -430.000
869.818; -109.625; -485.000; -439.000
870.065; -104.950; -439.000; -513.000
870.311; -109.975; -456.000; -542.000
870.558; -107.725; -332.000; -311.000
870.805;  -75.550; -320.000; -384.000
871.052;  -98.300; -494.000; -369.000
871.298;  -39.825; -204.000; -131.000
871.545;  -62.100; -151.000; -185.000
871.792;  -87.625; -173.000; -222.000
872.038;  -72.325;   43.000; -126.000
872.285; -120.825; -496.000; -387.000
872.532; -108.925; -357.000; -387.000
872.778;    2.300;  556.000;  403.000
873.025;  -97.400; -384.000; -359.000
873.271;   19.950;  501.000;  578.000
873.517;  -34.125; -133.000; -209.000
873.764;  -10.675; -193.000;  -80.000
874.010;  -68.350; -143.000; -230.000
874.257;  -36.925;  123.000;   90.000
874.503; -130.350; -579.000; -479.000
874.749;  -68.375;   31.000;  275.000
874.995;  -74.125;  -80.000;  -20.000
875.242; -108.575; -540.000; -478.000
875.488; -102.725; -414.000; -439.000
875.734;  -46.025; -106.000; -234.000
875.980;  230.200; -872.000;-1032.000
876.226;  620.050; -157.000; -255.000
876.472;    8.275;  343.000;  237.000
876.718;  -37.800;  184.000;  158.000
876.964;  -40.450;   56.000;   55.000
877.210; -132.375; -547.000; -677.000
877.456; -143.650; -630.000; -557.000
877.702; -153.175; -821.000; -832.000
877.948; -103.650; -377.000; -497.000
878.193;    2.025;  361.000;  255.000
878.439;  -79.075; -487.000; -472.000
878.685;  -78.575; -272.000; -343.000
878.931; -124.425; -618.000; -676.000
879.176;  -88.125; -201.000; -201.000
879.422; -176.000; -933.000; -820.000
879.668;   34.050;   10.000;   79.000
879.913;  214.675;   53.000;  137.000
880.159;  -43.825; -112.000;  -17.000
880.404;  -61.500; -152.000; -162.000
880.650;  -34.775;   91.000;  141.000
880.895; -154.850; -670.000; -710.000
881.141; -115.450; -454.000; -428.000
881.386; -148.275; -503.000; -658.000
881.631;  -82.625; -311.000; -166.000
881.877;  -32.150;  112.000;  -13.000
882.122; -126.150; -684.000; -600.000
882.367; -104.200; -136.000; -186.000
882.612;  -63.750;  -80.000; -176.000
882.858; -168.500; -877.000; -823.000
883.103;  -98.275; -297.000; -267.000
883.348; -148.375; -759.000; -852.000
883.593; -124.975; -677.000; -602.000
883.838;  -62.950; -311.000;  -24.000
884.083;   48.025;  353.000;  288.000
884.328;  -79.950; -564.000; -545.000
884.573;  -40.900; -196.000; -143.000
884.818;  230.225; -694.000; -531.000
885.063;  373.425; -348.000; -315.000
885.308;  -87.900; -475.000; -398.000
885.553;  -12.475;  245.000;  325.000
885.797; -124.700; -545.000; -615.000
886.042;  -47.200;    8.000;   58.000
886.287;  -87.225; -253.000; -211.000
886.532;  -42.600;   26.000;  204.000
886.776; -100.450; -407.000; -525.000
887.021; -128.825; -621.000; -574.000
887.265; -147.900; -685.000; -689.000
887.510; -129.975; -557.000; -496.000
887.755;  -89.075; -194.000; -164.000
887.999; -126.150; -552.000; -575.000
888.244;  -73.850;  -58.000;  161.000
888.488;   -1.225;  371.000;  393.000
888.732; -124.025; -368.000; -520.000
888.977; -130.175; -622.000; -567.000
889.221; -152.575; -683.000; -659.000
889.465; -116.600; -422.000; -566.000
889.710;  -73.825;  -56.000; -299.000
889.954;   -0.100;  579.000;  467.000
890.198; -128.350; -584.000; -707.000
890.442; -139.725; -716.000; -712.000
890.687; -153.850; -800.000; -753.000
890.931;  -85.300; -273.000; -210.000
891.175; -123.125; -502.000; -500.000
891.419;  -64.950; -105.000; -110.000
891.663;  -92.100; -239.000; -112.000
891.907; -152.200; -801.000; -545.000
892.151; -166.050; -920.000; -815.000
892.395; -106.350; -274.000; -387.000
892.638;  -29.250;  408.000;  291.000
892.882; -169.325; -780.000; -867.000
893.126;    6.900;  758.000;  558.000
893.370;  -85.150; -167.000; -168.000
893.614; -146.875; -714.000; -715.000
893.857;  -93.000; -183.000; -197.000
894.101; -121.375; -527.000; -631.000
894.345;  -48.025;  300.000;  150.000
894.588;    9.800;  569.000;  380.000
894.832;  -77.625; -178.000;  -84.000
895.075;  -82.650;   15.000;  -92.000
895.319; -123.725; -552.000; -420.000
895.563; -120.550; -413.000; -353.000
895.806; -142.450; -628.000; -741.000
896.049;  -63.900; -576.000; -368.000
896.293;  134.350;  527.000;  405.000
896.536;  -48.950; -465.000; -468.000
896.779;  -46.750; -149.000;   -1.000
897.023; -134.050; -751.000; -714.000
897.266;  -18.025;  325.000;  269.000
897.509; -170.450; -900.000; -901.000
897.752;  -57.400;  149.000;  171.000
897.996; -179.500; -972.000; -864.000
898.239;  -38.425;  168.000;  102.000
898.482; -128.450; -431.000; -453.000
898.725;  -23.400;  101.000;   53.000
898.968; -156.700; -609.000; -744.000
899.211; -100.600; -513.000; -361.000
899.454;  -94.075; -633.000; -539.000
899.697;  -64.900;   90.000;  -43.000
899.940; -151.750; -761.000; -757.000
900.182; -101.950; -335.000; -405.000
900.425;  -91.925; -150.000; -298.000
900.668;  -24.675;  491.000;  350.000
900.911; -104.575; -292.000; -345.000
901.154;  -50.200;  141.000;   -3.000
901.396; -138.625; -407.000; -412.000
901.639; -140.800; -430.000; -496.000
901.882; -185.900; -790.000; -809.000
902.124;  -59.050;  -29.000; -143.000
902.367; -121.000; -315.000; -361.000
902.609; -124.475; -476.000; -453.000
902.852;  -85.600; -108.000; -260.000
903.094; -116.250; -458.000; -337.000
903.337;  -67.075;  -26.000;   53.000
903.579; -101.175; -228.000; -441.000
903.821; -161.900; -597.000; -744.000
904.064;  -57.600;   85.000;  127.000
904.306;  -83.325; -126.000; -166.000
904.548;  -90.250; -152.000; -366.000
904.790; -106.075; -195.000; -340.000
905.033; -117.700; -625.000; -577.000
905.275; -119.650; -513.000; -524.000
905.517;   41.375;  468.000;  256.000
905.759;  -24.975; -667.000; -761.000
906.001;  -72.075; -322.000; -369.000
906.243;  -44.875; -162.000; -224.000
906.485;  161.225; -265.000; -207.000
906.727;  240.000; -499.000; -542.000
906.969;    2.325;  -30.000; -135.000
907.211;  162.000; -316.000; -382.000
907.453;  408.575; -188.000; -237.000
907.695;   81.850; -158.000; -385.000
907.936;   49.425;  818.000;  706.000
908.178;  -59.250;   92.000; -135.000
908.420;  -61.200; -111.000; -162.000
908.662; -121.250; -633.000; -682.000
908.903;  -73.975; -208.000; -123.000
909.145;  -47.750; -240.000; -305.000
909.386;   17.125;  315.000;  280.000
909.628;   36.550;  363.000;  397.000
909.870;   13.700;   29.000;  264.000
910.111;  -80.125; -809.000; -949.000
910.353;   27.425; -123.000; -161.000
910.594;   10.200; -574.000; -606.000
910.835;  109.050; -265.000; -326.000
911.077;  180.225; -503.000; -604.000
911.318;  330.225; -505.000; -471.000
911.559;  504.650; -577.000; -880.000
911.801; 1305.100; -284.000; -280.000
912.042; 9317.275;  -50.000; -159.000
912.283;30261.050;  404.000;  371.000
912.524; 6536.625; -396.000; -457.000
912.765;  663.075; -193.000;   79.000
913.006;  294.975; -307.000; -338.000
913.247;   93.525; -270.000; -290.000
913.488;   11.175;  -43.000;   30.000
913.729;  -56.500; -373.000; -373.000
913.970;  -41.225;  -96.000; -292.000
914.211;  -57.475; -160.000; -198.000
914.452;  -60.600; -118.000;  -11.000
914.693;   13.025;  510.000;  592.000
914.934;    9.375;  510.000;  440.000
915.175;  -49.850;   53.000;  -95.000
915.415;  -70.850; -137.000;   27.000
915.656;  -39.375;  -28.000;  192.000
915.897;  -77.250; -252.000;  -82.000
916.137;  -57.975;   74.000;   -9.000
916.378; -123.650; -573.000; -517.000
916.619;  -82.725; -159.000;  -63.000
916.859;  -23.750;  303.000;  330.000
917.100;  135.975; 1655.000; 1070.000
917.340;   39.250;  930.000;  728.000
917.581;   59.600;  965.000;  789.000
917.821;  -21.475; -171.000;  143.000
918.061;   61.600; -199.000;  -72.000
918.302;  -26.175; -152.000; -211.000
918.542;    3.350;  -22.000;    3.000
918.782;   58.200;  369.000;  377.000
919.023;  180.475;  360.000;  427.000
919.263; 1885.750; 8131.000;  202.000
919.503; 1793.000; -137.000;  -54.000
919.743;  873.900;  390.000;  266.000
919.983;  477.100; -134.000;  -26.000
920.223;  171.150;  135.000;   14.000
920.463;  215.500;  631.000;  554.000
920.703;  209.375;   84.000;   39.000
920.943;  278.350; -110.000;   90.000
921.183;  389.550; -414.000; -405.000
921.423;  743.925;  307.000;  546.000
921.663; 1062.825; -174.000; -257.000
921.903; 2125.575;  237.000;  173.000
922.143;10646.275;  372.000;  389.000
922.383;45434.925;  158.000;  115.000
922.622;21621.925; -120.000;  -15.000
922.862; 2204.150;  796.000;  785.000
923.102;  793.550;  -51.000;   33.000
923.341;  368.250;   59.000;   74.000
923.581;  152.875;  450.000;  360.000
923.821;   71.175;  301.000;  398.000
924.060;   39.350;  351.000;  193.000
924.300;  -24.400;  -16.000; -128.000
924.539;    3.250;  584.000;  473.000
924.779;   34.400;  812.000;  597.000
925.018;  -47.225;  247.000;  353.000
925.257;    7.400;  595.000;  666.000
925.497;  -30.050;  447.000;  412.000
925.736;  -57.800;  -35.000;  102.000
925.975;   14.575;  687.000;  669.000
926.214;   41.200;  907.000;  850.000
926.454;    5.550;  706.000;  757.000
926.693;  -20.050;  419.000;  543.000
926.932;   25.375; 1021.000;  825.000
927.171;   71.275; 1107.000; 1044.000
927.410;   61.350; 1144.000;  967.000
927.649;   23.600;  924.000;  742.000
927.888;    1.700;  590.000;  564.000
928.127;   11.725;  680.000;  678.000
928.366;   37.225;  842.000;  826.000
928.605;   50.075;  831.000;  737.000
928.844;  282.525; 1451.000; 1393.000
929.083;  820.275;  770.000;  613.000
929.321;  527.650; 1335.000; 1359.000
929.560;  118.425; 1158.000; 1122.000
929.799;  -11.975;  574.000;  475.000
930.038;  105.800; 1025.000; 1394.000
930.276;  -52.025;  334.000;  397.000
930.515;   19.850;  827.000;  681.000
930.753;  -10.300;  614.000;  589.000
930.992;  -11.425;  664.000;  717.000
931.230;    6.175;  847.000;  847.000
931.469;  162.950; 2162.000;  892.000
931.707;   73.100;  840.000;  751.000
931.946;   91.325; 1278.000; 1344.000
932.184;   67.475; 1437.000; 1175.000
932.423;   62.675; 1265.000;  963.000
932.661;   94.700; 1296.000; 1428.000
932.899;   43.575;  987.000;  821.000
933.137;   28.225;  754.000;  564.000
933.376;  161.425; 1664.000; 1335.000
933.614;  186.325; 1759.000; 1196.000
933.852;   74.575; 1357.000; 1171.000
934.090;  151.800; 1722.000; 1747.000
934.328;  137.200; 1252.000; 1457.000
934.566;  148.975; 1431.000; 1110.000
934.804;  207.200; 1263.000; 1309.000
935.042;  668.900; 1861.000; 1850.000
935.280; 2757.950; 2088.000; 2063.000
935.518; 3344.650; 2113.000; 2007.000
935.756;  661.125; 2481.000; 2316.000
935.994;  225.300; 1808.000; 1751.000
936.231;  369.850; 2890.000; 2950.000
936.469;  222.275; 2367.000; 2378.000
936.707;  176.950; 2220.000; 2167.000
936.945;  237.625; 2825.000; 2882.000
937.182;  223.050; 2679.000; 2741.000
937.420;  307.525; 3602.000; 3031.000
937.657;  439.325; 3365.000; 3478.000
937.895;  391.525; 3331.000; 3488.000
938.133;  330.200; 3540.000; 3528.000
938.370;  335.350; 3896.000; 4191.000
938.607;  387.075; 4488.000; 4205.000
938.845;  518.100; 5587.000; 5549.000
939.082;  467.200; 5387.000; 5177.000
939.320;  533.825; 5799.000; 5728.000
939.557;  642.525; 6549.000; 6491.000
939.794;  735.550; 7285.000; 7097.000
940.031;  906.550; 8421.000; 8368.000
940.269; 1163.700; 9552.000; 9107.000
940.506; 1136.075;10901.000;10507.000

