
Integration time [ms]: 200.000
Averaging Nr. [scans]: 10
Smoothing Nr. [pixels]: 0
Data measured with spectrometer [name]: 2101013U2
Wave   ;Sample   ;Dark     ;Reference
[nm]   ;[counts] ;[counts] ;[counts] 

394.013;   90.932; -450.257; -315.536
394.305;  430.629; -461.258; -419.536
394.596; 1928.961; -676.269; -527.514
394.887; 4402.488; -796.268; -654.518
395.178; 1806.738;  145.736;   11.476
395.470;  142.856; -210.263; -356.526
395.761;  448.513;  305.734;  394.479
396.052;  689.258; -545.284; -306.489
396.343;  694.471; -557.276; -454.503
396.634;  205.320; -200.279; -290.497
396.926;  158.984; -618.268; -565.517
397.217;  219.979;   11.725;  -17.504
397.508;   61.604; -366.273; -154.507
397.799;   76.020; -555.279; -571.497
398.090;  -45.889; -973.280; -902.495
398.381;  224.736;   11.708;  -11.473
398.672;  -59.363; -585.292; -742.473
398.963;   76.430; -348.279; -373.498
399.254;  195.952;   54.709; -209.475
399.545;  -76.993;-1017.266; -883.520
399.836;  101.553; -407.277; -343.501
400.127;   96.497; -205.295; -209.468
400.418;   98.595; -423.274; -392.506
400.709;   99.090; -359.281; -333.493
401.000;  103.959; -268.291; -309.476
401.290;  212.194;  225.698;  115.545
401.581;  127.330; -166.286; -228.485
401.872;   37.752; -542.298; -486.462
402.163;  117.785; -313.296; -252.467
402.454;  197.453; -123.291; -163.475
402.744;   75.171; -844.297; -813.465
403.035;  645.621; -226.293;  -86.471
403.326;  843.542; -366.292; -384.474
403.617;  629.842;  204.701;  165.539
403.907;  381.167; -593.283; -679.490
404.198; 4063.619; -545.307; -599.446
404.489;10339.575; -618.283; -588.491
404.779; 3490.899; -618.302; -660.456
405.070;  420.065;  -67.304; -174.451
405.360;  600.324; -259.293; -238.472
405.651;  633.318;  125.699;   98.542
405.942;  339.922;  209.714;  127.516
406.232;  438.845; -432.285; -413.487
406.523;  847.213;  641.706;  758.530
406.813;  152.225; -579.286; -644.484
407.104;  609.234;  261.708;  144.527
407.394;  291.344; -604.299; -591.462
407.685;  253.944;  336.715;  222.513
407.975;  108.673; -400.283; -382.490
408.265;  218.177; -134.289; -190.478
408.556;   97.548; -472.291; -459.475
408.846;  344.614;  474.706;  429.530
409.137;  176.490;   -1.288; -216.480
409.427;   87.545; -193.285; -271.487
409.717;   23.410; -776.273; -692.508
410.007;  249.635;    4.715; -170.486
410.298;  123.801; -360.295; -342.469
410.588;  113.441; -495.285; -510.486
410.878;   20.408; -792.287; -873.482
411.168;  200.355; -481.298; -478.463
411.459;  228.564; -295.283; -242.489
411.749;   98.146; -609.292; -507.474
412.039;   35.688; -755.289; -386.480
412.329;  356.642;   40.722;  132.501
412.619;  334.526;  -62.286; -148.485
412.909;  689.681;  639.711;  594.521
413.199;  561.512; -130.280; -251.495
413.490;  707.766;  521.710;  352.523
413.780;  239.418;-1013.279; -913.496
414.070;  571.373;  -46.276;  235.497
414.360;  578.536; -729.278; -666.498
414.650;  652.002; -726.288; -688.482
414.940;  860.317; -538.280; -441.496
415.230; 1533.597;   50.712;   74.519
415.520;10381.260;  155.730;   66.486
415.809;38896.289; -305.281; -125.493
416.099;31209.557; -388.277; -229.501
416.389; 8634.392;  435.726;  236.494
416.679; 5116.862;   91.738;   85.473
416.969;  916.516; -527.287; -503.483
417.259;  968.821;  341.721;  171.503
417.549; 1182.988;  522.718;  318.508
417.838; 2786.488; -205.268; -147.518
418.128; 8932.475;  650.710;  492.522
418.418; 7534.720; -491.272; -579.509
418.708; 5276.492;    9.726;  -48.506
418.997;19063.585; -474.275; -480.505
419.287;19926.703; -733.273; -790.507
419.577;19434.663; -160.283; -123.489
419.866;60128.154; -588.277; -498.501
420.156;61026.153; -242.270;  -55.513
420.446;11801.250; -112.263;  -26.526
420.735; 1434.344; -376.271; -446.512
421.025; 1573.334; 1830.722;  315.502
421.314; 1132.741; -203.271; -226.512
421.604; 2281.176;   89.732;  233.484
421.893; 1326.535; -705.271; -602.511
422.183;  388.850; -487.263; -461.526
422.472;  692.537;  -36.271; -107.511
422.762;  796.417; -416.266; -379.521
423.051;  397.174; -916.276; -916.503
423.341;  512.406; -491.273; -439.507
423.630;  682.926; -121.265;   15.477
423.919;  666.484;   58.725;   49.495
424.209;  628.759;  -31.263;   56.473
424.498;  867.783;   68.732;  161.483
424.787; 1786.194; -535.267; -601.518
425.077; 5511.524;   34.735;   29.478
425.366; 7593.768; -734.262; -744.528
425.655;16484.707;  639.727;  259.493
425.945;34758.178; -313.247; -268.554
426.234;20047.305;  117.741;  300.467
426.523; 8324.114;  -86.259; -350.534
426.812;11731.510;  107.734;  159.480
427.101;17045.070; -127.269; -323.515
427.390;21089.860;  -55.270;  -86.514
427.680; 4750.345; -624.257; -411.538
427.969;  834.563; -330.255; -301.540
428.258;  524.832; -385.257; -477.536
428.547;  957.527;  449.728;  397.490
428.836; 2025.389; -421.253; -398.543
429.125; 2814.916; -199.259;  -72.534
429.414; 1290.726; -330.251; -294.548
429.703; 5318.526; -231.251; -213.548
429.992;15132.732; -938.250; -828.549
430.281;10384.339; -397.264; -331.524
430.570; 1035.411;  -21.252;   32.454
430.859;  960.013;  279.741;  352.466
431.148;  813.871;  636.752;  631.446
431.437;  544.410;  391.748;  367.454
431.725;  247.234; -544.257; -481.536
432.014;  191.001; -845.253; -756.545
432.303;  639.194; -149.239; -105.569
432.592;  975.949; -460.263; -178.525
432.881; 1707.673; -601.248; -437.554
433.169;10353.964; -343.255;  -61.540
433.458;20507.949;  445.765;  540.424
433.747; 8876.777; -397.261; -289.529
434.036; 1504.055; -275.242; -280.564
434.324; 3497.952; -395.249; -379.551
434.613; 5858.344;   40.757;  159.437
434.902; 2147.578;  333.760;  439.433
435.190;  963.592;   75.761;  295.431
435.479;  597.815;  -52.245;   83.441
435.767;  193.428; -411.244; -427.561
436.056;  368.048; -340.242; -294.563
436.345;  573.682; -372.240; -223.568
436.633;  685.245;   60.750;  383.450
436.922;  489.086;  208.760;  414.432
437.210;  976.233; -194.236;    1.426
437.499; 2910.746; -583.235; -432.576
437.787; 3197.432; -339.236;  -10.574
438.075;  885.401;   56.761;  162.430
438.364; 1164.605;  -44.238;  250.429
438.652;  722.376; -286.226; -138.592
438.941;  266.117;    3.770;  269.415
439.229;   25.606; -665.252; -466.545
439.517;   84.660; -160.234;  -85.577
439.806;  -27.999; -501.225; -290.595
440.094;  344.172;  377.766;  650.421
440.382;  256.178; -653.233; -302.580
440.670;  370.445; -361.235; -285.576
440.959;   29.330; -347.223; -170.599
441.247;  127.236; -151.229; -109.587
441.535;  161.557; -266.235;   31.423
441.823;   54.968; -497.234; -305.578
442.111;  318.043;  173.771;  327.412
442.400;  769.614; -628.245; -335.559
442.688; 2111.871; -111.234; -620.579
442.976; 1512.072; -786.213; -450.617
443.264;  181.212; -324.224; -364.597
443.552;  151.677; -258.226;   51.408
443.840;  349.955;  602.765;  876.423
444.128;  233.177;  265.767;  269.420
444.416;    2.347; -694.228; -312.588
444.704;   -0.622; -465.219;  -92.605
444.992;  132.982;   -0.226;  240.407
445.280;   85.918; -517.230;  -94.585
445.568;   52.578; -694.212; -396.618
445.856;  564.852; -174.221;  357.398
446.143; 1114.672;  -54.220;   -7.604
446.431; 1022.453;  -25.228;  625.411
446.719;  452.209;  489.783;  675.391
447.007;  349.709;  481.769;  705.416
447.295;  376.825;  597.777;  871.402
447.583;  126.732; -464.229;  -34.587
447.870;  224.947; -434.221; -202.601
448.158;  668.116; -104.230;  129.415
448.446;  467.273; -800.219; -338.604
448.733;  281.814;   13.776;  269.403
449.021;  404.877;   60.788;  341.382
449.309;  355.402; -296.210;  208.379
449.596;  377.203;  128.783;   59.392
449.884;  254.136; -571.222; -325.600
450.172;  215.162; -756.227; -406.590
450.459;  783.245;  645.786;  780.387
450.747; 4155.400; -411.218; -147.608
451.034;12425.155;  493.772;  889.411
451.322;10335.450; -413.214; -170.614
451.609;  911.817;  292.777;  508.403
451.897; 1002.604; -550.203; -183.634
452.184; 2985.825; -622.223; -400.598
452.472; 2787.436;   97.792;  269.375
452.759;  701.174;  512.781;  864.395
453.047;  163.673; -407.212; -125.617
453.334;  126.687; -732.219; -216.606
453.621;  148.454; -438.214; -161.615
453.909;  224.991;   13.796;  384.368
454.196;  189.665; -299.199; -123.641
454.483;  387.525;  317.798;  540.364
454.771;  264.441; -215.208;  196.374
455.058;  116.747; -316.207;  102.374
455.345;  234.754;   71.807;  344.347
455.632;  210.852; -128.207;  235.373
455.919;  125.301;  -82.196;  182.354
456.207; -102.028; -774.198; -450.642
456.494;  -24.455; -475.200;  -66.639
456.781;   31.518; -399.202; -198.635
457.068;   75.663; -253.206;  -29.628
457.355;  -17.936; -698.206; -401.629
457.642;  -22.727; -552.205; -290.630
457.929;   -5.660; -778.194; -417.651
458.216;   91.474; -575.212; -354.617
458.503;  435.547; -173.193;  -19.652
458.790;  354.038; -864.208; -630.625
459.077;  446.526;  -77.202;  110.364
459.364; 1325.528; -350.195; -210.649
459.651; 2771.659;  -46.206;  220.372
459.938; 1307.022; -864.209; -665.623
460.225;  318.731;  132.799;  276.363
460.512;  -87.303; -836.197; -688.645
460.799;  173.998;  -32.218;  320.392
461.086;  139.052; -370.200; -251.640
461.372;   66.573; -509.198; -279.642
461.659;  188.903; -165.196;  108.354
461.946;  112.645; -445.193;  -54.651
462.233;  466.148;  842.800;  888.361
462.519;  571.243; -814.201; -464.639
462.806; 1617.197; -768.197; -497.645
463.093; 1466.379; -445.191;  -66.656
463.380;  -61.054; -920.186; -824.664
463.666;  111.200; -259.197;  -18.646
463.953;  148.820; -406.195; -243.648
464.239;  353.520; -173.195;  -77.648
464.526;  704.537;  413.806;  743.350
464.813;  575.397; -565.190; -304.658
465.099;  624.147;  606.807;  607.348
465.386;  626.353;  903.807;  921.348
465.672;   38.398; -694.197; -522.645
465.959;   55.726; -598.188; -520.662
466.245;   50.053; -468.193; -359.652
466.532;  181.116; -109.195;   63.352
466.818;  131.845; -357.186; -216.664
467.104;    2.910; -488.182; -415.672
467.391;  -20.600; -628.189; -459.658
467.677;  108.651; -289.186;    9.335
467.964;    2.911; -682.189; -471.660
468.250;  115.455; -331.186; -160.665
468.536;  170.502;   90.811;  180.341
468.822;  -18.225; -821.184; -574.668
469.109;  295.341;  351.827;  471.311
469.395;  431.769;  729.808;  787.346
469.681;  372.407;   46.811;  156.341
469.967; 2182.115; -699.188; -382.660
470.254; 4396.828; -494.188; -306.662
470.540; 2879.101; -601.196; -476.646
470.826;  392.928; -488.181; -397.675
471.112;  575.680;  288.816;  113.331
471.398;  194.788; -253.183;  -58.670
471.684;   67.674; -626.177; -447.680
471.970;  -29.666; -918.180; -981.675
472.256;   66.567; -521.192; -441.654
472.542;   28.059; -499.171; -434.691
472.828;   15.504; -743.182; -607.672
473.114;   35.730; -380.166; -283.700
473.400;   77.001; -504.175; -293.684
473.686;   65.640; -452.166; -400.701
473.972;   93.325; -230.174; -131.687
474.258;  -80.358; -925.173; -843.689
474.544;  384.061; -183.178;   -2.679
474.830;  527.004;  -65.175;   45.316
475.116;  887.700; -123.190; -196.658
475.401; 1093.938; -558.180; -467.676
475.687;  322.137; -725.180; -718.676
475.973;   15.517; -673.181; -770.673
476.259;  452.907;  736.825;  764.315
476.544;  597.287; -539.176; -437.682
476.830; 1374.953; -398.172; -322.690
477.116; 1206.985; -430.177; -336.682
477.401;  291.237;  346.820;  358.324
477.687;  -18.999; -289.175; -405.684
477.973;  108.722;   21.819;   28.326
478.258;   14.473; -448.163; -348.706
478.544;   97.864;   21.815;   61.334
478.829; -115.932; -818.171; -738.692
479.115;  -78.448; -749.172; -651.690
479.401;  -25.882; -444.174; -449.686
479.686;   77.436; -253.180;  -74.676
479.972;  -72.631; -886.178; -776.680
480.257;   98.332; -258.166;  -65.700
480.542;  -16.026; -614.170; -469.693
480.828;  486.698; 1288.824; 1392.317
481.113;  -46.005; -464.176; -426.683
481.399;   43.412; -236.161; -202.711
481.684; -106.869; -620.166; -462.700
481.969;   54.334; -158.159;  -73.713
482.255;    9.292; -439.169; -285.695
482.540;    5.770; -569.178; -441.680
482.825;   29.037; -395.187; -404.663
483.110;  210.697;  -85.169; -105.696
483.396;  312.869; -840.157; -652.718
483.681;  869.725;  543.826;  730.313
483.966;  257.424; -696.160; -700.712
484.251;   57.923; -404.174; -310.687
484.536;   34.249; -356.165; -378.703
484.822;   64.528; -205.173; -218.687
485.107;  -26.969; -599.152; -502.726
485.392;  292.258;  662.836;  541.296
485.677;  160.113;  354.832;  163.302
485.962;  240.665;  160.843;  270.283
486.247;  201.786;  -14.162;   -8.707
486.532;   96.134; -178.166; -325.701
486.817;  318.903;  381.839;  431.291
487.102;  210.503; -453.154; -514.722
487.387; 1111.972; -637.156; -652.718
487.672; 1846.966; -154.164;  -38.705
487.957; 1249.414; -394.160; -286.711
488.241;  335.158; -290.150; -314.729
488.526; 1330.233; -280.152; -148.726
488.811; 1950.073; -881.177; -818.680
489.096; 1516.307; -666.154; -702.723
489.381;  897.427;    3.847;  162.275
489.666;  647.911; -428.161; -510.710
489.950;  404.712;  558.846;  627.277
490.235;  -43.750; -480.151; -458.728
490.520;  -57.590; -756.161; -723.710
490.804;  -81.225; -827.156; -736.719
491.089;    5.583; -469.149; -299.732
491.374;   92.464; -132.164;  -75.704
491.658;  -10.898; -817.147; -717.735
491.943;  273.340; -657.152; -609.727
492.227;  467.296; -178.155;  -38.721
492.512;  103.864; -294.157; -341.717
492.797;  -80.527; -713.149; -716.731
493.081;  -89.194; -588.147; -598.735
493.366;  -60.288; -751.161; -635.711
493.650;  462.493;  831.859;  917.254
493.935;   47.601; -648.147; -447.734
494.219;  -64.028; -778.142; -687.743
494.503;  -67.835; -585.150; -487.730
494.788;   84.050;   46.842;   74.285
495.072;  221.960;  184.850;  434.271
495.356;  293.689; -463.148; -343.733
495.641;  724.517; -812.146; -736.736
495.925;  694.783; -976.156; -903.719
496.209;   75.682; -599.149; -451.732
496.494;  -73.227; -763.142; -544.744
496.778;   14.303; -364.154; -360.722
497.062;  -97.118; -819.156; -627.719
497.346;  -50.783; -869.160; -640.711
497.631;  311.594;  580.852;  560.266
497.915;  185.134;  -64.145;  175.261
498.199;  114.969; -341.157; -277.718
498.483;   75.930; -562.152; -508.725
498.767;  391.562;  301.850;  300.271
499.051;  339.179; -126.149; -100.732
499.335;   29.076; -693.149; -739.731
499.619;  -23.743; -381.129; -423.767
499.903;   32.494; -272.155;  -65.721
500.187;   81.415; -588.153; -316.724
500.471;   47.639; -796.152; -595.727
500.755;  213.510;   62.839;  -96.710
501.039;   34.595; -270.155; -357.721
501.323;  209.296;  -21.141;  264.254
501.607;   47.974; -447.163; -503.706
501.891;    5.071; -607.156; -512.718
502.174;  -36.948; -726.144; -585.741
502.458;  163.245;   89.849;  370.273
502.742;   73.434; -180.138; -191.751
503.026;  224.600; -412.147; -254.734
503.310;  303.432; -437.159; -375.713
503.593;  236.803; -464.147; -325.735
503.877;  229.300; -232.133; -156.760
504.161;  338.919;    2.847;  -50.724
504.444;  161.654; -841.158; -710.716
504.728;  811.463; -487.164; -522.704
505.012; 1166.757; -257.150;  -76.729
505.295;  962.212; -417.161; -212.711
505.579;  913.282; -256.156; -496.719
505.862; 1362.528; -555.145; -333.738
506.146; 1240.736; -681.159; -758.714
506.429;  753.737;  568.841;  461.286
506.713;  168.152; -732.151; -667.728
506.996;  586.902;   90.846;  295.278
507.280;  567.655; -633.165; -474.703
507.563;  423.092; -469.155; -261.721
507.847;  175.916; -423.153; -112.724
508.130;  178.813; -665.161; -456.711
508.413;  183.225; -758.167; -577.700
508.697;  467.325; -151.167;   12.300
508.980;  245.918; -422.153; -312.724
509.263;    2.986; -466.155; -450.720
509.547;   80.956; -124.150;   82.271
509.830;   92.817; -172.160;  140.289
510.113;  156.682;  128.844;  298.281
510.396;   90.228; -530.152; -300.725
510.680;  226.330; -818.145; -812.738
510.963; 1045.010;  184.846;  180.277
511.246;  785.669; -493.150; -357.730
511.529;  478.938; -482.145;  -83.739
511.812;  679.394; -250.134;   10.241
512.095;  456.347; -740.151; -396.728
512.378;  153.610; -317.147; -245.736
512.661;   68.347; -703.137; -623.753
512.944;   25.675; -750.142; -637.744
513.227;  159.742; -170.137; -171.752
513.510;   48.152; -479.144; -671.741
513.793;   42.402; -485.140; -435.747
514.076;  279.990;  -43.127;  -39.771
514.359;  231.384; -294.149; -135.732
514.642;  152.280; -442.142; -567.744
514.925; 1403.000;  581.860;  561.253
515.208; 1603.488; -498.134; -443.758
515.491; 1154.711; -276.133; -182.761
515.773;  703.758; -410.143; -337.742
516.056; 3703.657;  249.864;  409.246
516.339; 4610.963; -754.136; -652.755
516.622; 3242.165; -518.150; -488.730
516.904; 2083.270;  882.857;  975.257
517.187;  917.340; -730.138; -523.752
517.470;  736.568; -568.143; -510.743
517.752;  783.068; -624.136; -470.756
518.035;  584.320; -708.139; -725.749
518.318;  725.363; -799.136; -744.755
518.600; 4260.416; -300.132; -325.762
518.883; 5474.779;  310.858;   88.256
519.165; 2819.428; -585.138; -426.751
519.448;  687.916;  -61.132;  -19.762
519.730;  305.503; -573.126; -415.773
520.013;  607.604;  588.867;  664.240
520.295; 1388.597;  -94.134;  -15.759
520.578; 2977.237; -335.131; -305.764
520.860; 3301.016; -254.132;   56.238
521.143; 1785.271; -763.135; -584.756
521.425;  855.724; -251.125; -279.775
521.707; 1183.691; -622.127; -380.771
521.990; 3193.392; -199.127;  167.229
522.272; 3350.605; -116.140;   -4.748
522.554; 1665.459; -237.143; -157.742
522.836;  635.393;  -24.134;   99.241
523.119;  405.998; -496.148; -189.734
523.401;  285.748; -448.130; -314.766
523.683;  147.947; -865.137; -693.753
523.965;  510.137;  408.862;  260.248
524.247;  532.858;   54.878;  170.220
524.529;  370.396; -451.134; -367.759
524.812;  670.051;   -3.130;  191.234
525.094; 1505.936; -773.138; -631.751
525.376; 2311.338; -143.124;   78.223
525.658; 1419.559; -441.136; -339.754
525.940;   56.032; -805.131; -671.764
526.222;  123.365; -188.136;  -88.755
526.504;  190.428; -190.131;   32.237
526.786;  263.701; -960.133; -647.760
527.068;  498.047; -124.123;  -67.778
527.349;  215.353; -865.137; -774.754
527.631;  259.915; -137.132;   22.238
527.913;  254.590; -664.127; -450.771
528.195;  305.012; -761.125; -639.774
528.477;  497.788;  -93.134;  -30.758
528.759;  223.951; -648.130; -522.766
529.040;  106.545; -569.123; -293.778
529.322;  126.717; -235.125;  -10.774
529.604;  283.454;  -47.130;   93.233
529.886;  195.202; -546.126; -302.773
530.167;  253.741;  232.870;  192.235
530.449;  108.509;    1.853;   63.265
530.731;   41.057; -572.122; -459.779
531.012;  123.490; -513.120; -216.784
531.294;  137.254; -118.116;  -43.792
531.575;  309.624;  290.875;  538.225
531.857;  130.880; -548.135; -266.757
532.138;  251.793; -113.141;   40.254
532.420;  351.074;  294.865;  403.244
532.701;  330.904; -722.133; -751.760
532.983;  604.009;  232.867;  182.239
533.264;  232.299; -243.126;  175.228
533.546;  -42.136; -491.136; -508.755
533.827;  127.099;  173.867;   -1.759
534.109;   81.280; -352.135;  -80.757
534.390;  135.822; -725.132; -582.762
534.671;  438.574; -270.135;  -82.756
534.953;  220.850; -751.123; -611.779
535.234;   77.029; -426.117; -255.789
535.515; -140.496; -891.119; -735.785
535.796;  -29.117; -431.128; -193.770
536.078; -227.662;-1050.124; -904.777
536.359;   37.551;  -22.123;    3.221
536.640;   -9.085; -480.125; -197.774
536.921;  331.963;  225.871;  143.232
537.202;  681.630;  -87.138;  -16.751
537.483;  847.036;  251.869;  377.236
537.764;  339.141;   17.870;   98.235
538.045;  -53.313; -543.134; -371.758
538.326;  -46.134; -596.129; -447.768
538.607;   61.393; -686.127; -476.771
538.888;  313.676;   98.879;    5.218
539.169;  322.967; -704.122; -535.781
539.450;  578.661;  236.871;   16.233
539.731;  395.482; -361.121; -182.783
540.012;  234.390;  199.880;  412.216
540.293;  174.329;   82.876;  158.224
540.574;   16.487; -895.113; -717.796
540.855;  848.580;  435.879;  377.218
541.136;  858.463;   47.878;  139.220
541.416;  533.152; -161.130; -220.766
541.697;  387.429; -274.131; -170.763
541.978; 1894.977; -270.135; -315.757
542.259; 2186.592; -211.127; -236.771
542.539; 1094.244; -191.116; -186.790
542.820;  363.823;  461.875;  480.225
543.101;  243.633;  -52.145;  -77.738
543.381;   43.092; -638.127; -591.771
543.662;  529.588;  159.873; -254.771
543.942;  999.985; -751.127; -830.770
544.223; 1828.065;  193.878;  161.219
544.504; 1226.837; -275.124; -182.777
544.784; 1061.002; -592.126; -408.773
545.065; 2834.150;  104.884; -254.791
545.345; 3289.304;  227.881;   14.215
545.626; 2263.486;  -14.113; -108.796
545.906; 1511.540;   77.869;   98.235
546.186;  671.410;   92.874;  -95.773
546.467;  360.642;   99.877;  -95.778
546.747;  596.043;  264.884;  327.210
547.027;  702.435;   91.876;  111.223
547.308;  563.484; -376.127; -530.770
547.588;  692.667;  299.871;  371.232
547.868;  399.742;  458.870;  588.235
548.149;  426.662;  609.885;  593.207
548.429;  292.589; -347.127; -299.771
548.709;  362.890; -645.120; -461.784
548.989;  851.020;   84.882;   88.213
549.269; 3822.213;   10.868;  139.239
549.550; 8153.848;  215.877;  117.222
549.830; 7253.015; -758.111; -556.799
550.110; 1595.927; -468.110; -320.801
550.390; 1530.557; -128.122;  -56.779
550.670; 1850.579; -868.114; -783.795
550.950; 1384.079; -509.121; -471.782
551.230;  418.873;  549.879;  460.218
551.510;   22.477; -381.121; -326.782
551.790;   81.340; -173.109; -127.803
552.070;  582.041;  940.877; 1181.223
552.350;  729.110; -492.119; -377.786
552.630; 1007.769;   -2.121;   77.219
552.909;  685.451;  181.884;   73.209
553.189;  453.524;  -49.132;   33.237
553.469;  299.610; -703.119; -514.786
553.749;  345.994; -469.127; -357.772
554.029;  294.736;   33.883;  -24.790
554.308;  285.169; -154.115;  -37.794
554.588;  149.682; -196.128; -204.770
554.868;  145.080; -366.121;  -47.782
555.147;  297.964; -114.115;  -46.793
555.427; 1152.254; -260.116; -250.792
555.707; 6924.761; -284.115; -200.793
555.986; 7742.521; -719.111; -538.800
556.266; 4308.341;   23.884;   72.210
556.546;  219.577; -888.121; -675.782
556.825;  505.976; -657.114; -556.794
557.105; 3202.478; -125.128;   17.230
557.384; 3523.449;  122.884;  187.209
557.664; 1425.553; -717.116; -508.792
557.943;  206.779; -557.121; -411.782
558.222;  345.525; -345.118; -344.788
558.502;  517.966; -116.115;  -76.793
558.781;  919.759;  194.885;  499.208
559.061;  704.824; -232.118; -227.788
559.340;  592.932;  302.883;  353.211
559.619; 1318.741;   93.884;  148.210
559.899; 1800.435; -239.117; -266.789
560.178; 1678.765; -778.115; -593.793
560.457; 5639.638; -623.117; -562.790
560.736; 7179.923; -472.111; -482.800
561.015; 5001.375; -500.128; -502.769
561.295;  707.672;  180.893;  215.193
561.574;  594.162;  119.885;  116.207
561.853;  896.247;  274.891;  303.197
562.132;  892.670;  -45.114;  182.206
562.411;  806.370;  396.879;  553.219
562.690;  288.259; -592.115; -458.792
562.969;  296.498;  472.888;  630.203
563.248; 1111.766; 2966.878; 2487.219
563.527;  487.821; -290.111; -408.800
563.806;  678.589; -650.127; -521.771
564.085;  729.897; -297.105; -206.810
564.364;  442.040; -594.117; -405.790
564.643; 1005.471; -276.121; -223.781
564.922; 3345.737;  221.890;  397.198
565.201; 3160.543; -640.109; -700.803
565.479; 1480.957; -297.115; -219.792
565.758;  567.979; -810.128; -712.770
566.037;  809.645; -155.109; -100.803
566.316;  427.949; -286.116;  -28.791
566.595;  134.661;  -17.115;  -12.793
566.873;  228.225; -166.111;  -79.801
567.152;  -53.003; -490.113; -590.797
567.431;  117.243; -113.116;    6.210
567.709;   60.373; -344.107; -212.807
567.988;  492.775; -810.114; -769.794
568.266;  925.461; -160.115;  -68.793
568.545;  655.473; -644.100; -514.819
568.824; 1129.655;  160.885;  356.208
569.102;  917.775; -351.114; -235.794
569.381;  416.354; -492.116; -407.792
569.659;  -53.109; -553.113; -553.796
569.938;   82.963; -743.122; -465.780
570.216;  178.549; -225.109; -225.804
570.494;  -27.920; -632.114; -572.795
570.773;  109.877;  202.879;  114.218
571.051;   68.146; -373.123; -357.778
571.330;  100.787; -221.113; -174.796
571.608;   94.002; -181.098; -173.823
571.886;  -82.088; -671.111; -581.799
572.164;  -94.020; -739.121; -621.782
572.443;  -50.297; -562.105; -512.811
572.721;  -41.362; -399.117; -289.790
572.999;  -28.472; -280.117; -168.788
573.277;  211.492;  379.894;  620.191
573.555;  589.096;   94.894;   37.190
573.834; 2371.827;  -86.117; -114.788
574.112; 2604.076;  880.893;  811.193
574.390;  834.823; -143.111;  -96.801
574.668;   45.799;  -91.112;  -61.797
574.946;   25.196; -165.106; -187.810
575.224;   32.343;   71.891;  -16.803
575.502;   -4.954; -200.116; -204.791
575.780; -137.800; -767.112; -829.798
576.058;  335.922; 1589.889; 1004.200
576.336;   -6.069; -210.110; -129.801
576.614;  -56.599; -511.112; -340.798
576.891;  106.868; -711.115; -823.794
577.169;  887.862; -158.108; -285.805
577.447;  986.575;  169.893;  202.193
577.725;  521.208;  629.888;  854.201
578.003;   53.005;  -71.112; -371.798
578.280;  187.617; -208.104; -242.812
578.558;  129.566; -450.115; -422.793
578.836;  257.180; -210.114; -145.795
579.114;   59.298; -630.112; -670.797
579.391;  190.530;   -6.117;  -18.789
579.669; -141.331; -595.114; -704.794
579.947;  363.570; -326.107; -127.806
580.224;  523.270; -692.107; -524.806
580.502;  600.677;  127.893;   76.193
580.779;   91.040;  -42.117;   75.210
581.057;  -92.250; -584.109; -470.804
581.334; -169.359; -726.102; -695.815
581.612;  124.597;   54.895;  511.190
581.889;  -14.337;  -83.101; -129.818
582.167;  -36.214; -298.099; -190.821
582.444; -173.046; -845.102; -814.817
582.721;  213.355;  657.899;  715.183
582.999;  141.582; -326.100; -167.821
583.276;  971.753; -812.123; -713.779
583.553; 1143.247; -364.102; -294.816
583.831;  379.012; -607.104; -631.812
584.108;  138.259;  349.892;  174.195
584.385;   34.540; -122.102;  -98.815
584.662; -133.775; -651.111; -828.801
584.940;  133.624;  204.889;  204.199
585.217;    3.990;  -73.113; -303.796
585.494;  123.639;   71.890;  118.198
585.771;  389.551; -250.109; -354.804
586.048;  792.990; -196.113;  -76.796
586.325;  560.429; -721.110; -773.801
586.602;  217.218;  230.896;  213.188
586.879;   -9.024; -499.100; -580.820
587.156;  128.799; -156.105; -331.810
587.433;  -49.949; -701.102; -667.817
587.710;  154.002;  152.888;  234.202
587.987;  563.507; -264.105; -236.811
588.264; 1414.704;  315.888;  387.202
588.541; 2457.822;  -61.104;   26.187
588.818; 4538.554;   72.892;  171.196
589.095; 3854.115; -163.104; -174.812
589.371;  666.547; -459.109; -414.804
589.648;   36.776; -581.107; -437.807
589.925;   90.481; -517.114; -621.795
590.202;   -0.699; -741.112; -607.798
590.478;  195.010; -166.105;  -73.811
590.755;  597.164; -241.108; -132.806
591.032; 4434.233; -741.110; -699.802
591.308; 5481.467; -732.094; -790.831
591.585; 3000.032; -573.110; -560.802
591.862;  255.653;-1056.102; -950.817
592.138;  140.660; -475.108; -474.805
592.415;  316.319; -486.104; -495.813
592.691; 2608.716;  460.896;  518.188
592.968; 3004.605; -208.098; -123.824
593.244; 1521.443; -695.116; -595.790
593.521;  136.554; -105.102;  -42.817
593.797;  -24.541; -810.122; -720.780
594.074;  547.525; -611.096; -588.826
594.350; 1201.043;  828.905;  729.172
594.626;  558.326; -303.111; -283.801
594.903;  198.455; -643.101; -645.817
595.179;  344.425;  243.896;  418.187
595.455;   56.078; -136.107; -150.807
595.731;   57.328;  -19.103;  -38.814
596.008;  -50.684; -464.111; -434.800
596.284;  106.180; -187.100; -242.820
596.560;  116.077; -501.093; -493.833
596.836;  356.902; -173.105;  -70.810
597.112;  588.562; -582.108; -437.805
597.388;  504.122;  -49.097;  -48.826
597.665;  246.094;  437.887;  530.203
597.941;  -90.975; -572.089; -658.839
598.217;   31.238; -323.110; -293.802
598.493;  506.053;   61.891; -204.804
598.769;  854.071; -175.100;  -50.819
599.045;  506.066; -490.108; -562.806
599.321;  154.278; -193.100; -261.820
599.597;  250.652; -355.109; -476.804
599.872;  909.322;  409.896;  429.187
600.148;  681.824;  -61.097; -172.826
600.424;  550.274;   91.893;  202.193
600.700;  422.378; -170.107; -280.807
600.976;  200.215; -442.097; -464.825
601.252;  437.547; -226.109; -272.803
601.527;  355.823; -833.104; -840.813
601.803;  288.211; -453.105; -404.812
602.079;  345.971; -124.100; -118.819
602.354;  945.693; -620.092; -531.835
602.630; 1379.190; -140.113; -482.796
602.906; 4414.863; -910.101; -863.818
603.181;11168.410; -627.119; -534.786
603.457; 9505.521;   98.903; -278.826
603.733; 1459.784; -605.120; -626.783
604.008; 1871.297; -245.106; -164.810
604.284; 5025.057; -636.101; -580.817
604.559; 4492.108;   -3.112;  -42.799
604.835;  887.501; -163.105; -225.810
605.110;  738.187; -732.099; -892.821
605.385; 1196.982;  224.907;  267.167
605.661; 1184.948; -625.095; -729.829
605.936; 1983.467; -664.108; -737.806
606.211; 1671.039;  -17.103; -170.815
606.487;  364.573; -329.114; -376.794
606.762;   13.211; -791.119; -745.786
607.037;  -25.098; -501.105; -433.810
607.313;  -87.263; -589.096; -574.828
607.588;   37.896; -375.106; -137.810
607.863;   86.062;  -28.101; -143.818
608.138;  367.936;  513.890;  516.198
608.413;   92.893; -576.099; -592.822
608.688;  109.561; -203.108; -267.805
608.964;  380.587; -509.106; -218.809
609.239;  450.397; -107.105; -212.810
609.514;  541.610;  281.895;  240.188
609.789; 1180.317; -187.104; -716.812
610.064; 1471.735; -435.096; -609.827
610.339; 1561.047; -855.109; -799.804
610.614; 1944.179; -131.100; -315.820
610.889; 1172.111;  215.895;  107.188
611.163;   79.812; -407.104; -591.812
611.438;  165.575;   81.886; -167.794
611.713;   40.257; -467.101; -499.817
611.988;  162.761; -144.101; -328.818
612.263;  -29.459; -771.102; -717.815
612.538;  481.889;  385.887;  251.204
612.812;  266.281; -832.100; -911.820
613.087;  274.901; -358.098; -338.823
613.362;  -64.022; -497.107; -557.807
613.637;  111.032;  261.897;  138.186
613.911;  -16.006; -256.092; -345.835
614.186;  272.275; -249.107; -292.807
614.460; 1149.947; -842.081; -758.854
614.735; 1336.763;  -55.087;  -17.843
615.010;  342.146;   43.912;  -82.841
615.284;  489.260;  360.892;  246.195
615.559;  559.692; -792.092; -955.835
615.833;  521.290;  -76.099;  -87.822
616.108;   29.311; -225.090; -390.837
616.382;  319.265;  274.913;  402.156
616.656;  296.512; -241.090; -232.837
616.931;  843.091; -785.099; -700.822
617.205; 1829.824; -973.104; -979.813
617.480; 1685.220;  -91.125;    6.225
617.754;  335.316; -396.125; -128.774
618.028;   79.668; -369.129; -382.768
618.302;  178.657;   73.892;  -25.805
618.577;  -60.066; -371.103; -518.815
618.851; -102.458; -399.109; -600.803
619.125;  -32.004; -335.134; -378.759
619.399;  -24.075; -244.104; -374.813
619.673;  -37.844; -330.115; -515.792
619.947;  -69.621; -333.114; -448.795
620.222;   25.327; -198.110; -204.801
620.496;   10.680;  -47.121;  -96.782
620.770;  112.367; -187.122;  -93.781
621.044;  411.699;  323.895;  346.190
621.318; 1275.585; -653.120; -614.783
621.592; 1158.481; -430.121; -409.783
621.866;  600.709; -476.112; -572.799
622.140;   54.546; -207.116; -356.791
622.413;  191.116;  138.889;  112.200
622.687;  -57.943; -746.101; -492.817
622.961;   91.358; -130.108; -143.805
623.235;  -86.783; -633.111; -661.800
623.509; -180.690; -816.105; -848.811
623.783;   42.271;  -12.107;   48.193
624.056;    3.286; -254.120; -280.783
624.330;  149.999;   63.888;   -3.797
624.604;  119.440; -271.116; -355.790
624.877;  154.634;  180.890;   26.198
625.151;  134.871; -249.114; -238.794
625.425;   -8.072; -150.103; -283.814
625.698;  -68.799; -367.119; -374.785
625.972; -155.862; -799.110; -765.802
626.245;  222.243;  685.884;  484.210
626.519;  -48.907; -426.120; -340.784
626.792;  -38.022; -192.107; -380.807
627.066; -138.245; -485.122; -662.779
627.339; -144.068; -736.110; -663.802
627.613;  137.391;  351.880;  148.216
627.886;  152.941;  187.891; -612.803
628.160;   -0.416;  312.880; -161.783
628.433; -138.275; -695.125; -703.775
628.706; -130.707; -517.120; -615.784
628.979;  104.935;  296.876;  117.223
629.253; -171.191; -785.119; -833.786
629.526;  684.700; -334.126; -253.772
629.799;  538.547; -641.123; -479.778
630.072;  257.171; -497.128; -516.769
630.346;  -85.057;-1115.116;-1080.790
630.619;  871.179; -467.107; -545.808
630.892; 1043.618;  709.889;  593.200
631.165;  644.424;  790.896;  679.187
631.438; -169.896;-1092.112;-1055.798
631.711;  129.352;  453.877;  257.221
631.984;  -82.864; -523.117; -624.789
632.257;  -71.570; -636.117; -681.789
632.530;  -74.398; -412.119; -433.785
632.803;   98.968; -109.115;    7.207
633.076;  -90.559; -360.123; -422.777
633.349;   91.477;  173.872;  121.231
633.622;  -69.100; -187.119; -240.785
633.895; -223.914; -903.120; -823.783
634.167;  -87.797; -496.126; -525.773
634.440;   37.554;  -19.116; -137.792
634.713;   22.207;  -22.119; -120.786
634.986;  206.361;  593.871;  453.233
635.258; -134.035; -507.115; -597.793
635.531;  215.823;  742.882; -343.788
635.804;  -43.666; -303.117; -318.789
636.077; -144.153; -830.116; -852.791
636.349;  -15.338; -586.115; -474.793
636.622;  780.798; 1695.874; 1392.228
636.894;  407.893; -474.120; -909.784
637.167;  249.489; -836.127; -789.771
637.439;   96.983; -278.128; -213.770
637.712;  -39.099; -312.126; -293.772
637.984; -118.552; -635.116; -707.791
638.257;  738.442;  515.877;  488.222
638.529;  910.026; -881.125; -924.776
638.802;  449.771; -508.128; -449.769
639.074; -191.235; -927.122; -952.781
639.346; -207.717; -942.135; -930.757
639.619;   38.177;  -79.142; -319.744
639.891;   45.055;  -83.122; -168.779
640.163; -129.042; -689.122; -756.780
640.435;  111.061;  273.878;  103.220
640.708;   35.764;  -72.122; -132.780
640.980;  -48.133; -366.122; -362.781
641.252;  401.070;  -25.121;  -71.781
641.524; 3117.273;  580.879;  573.219
641.796; 2889.476;-1094.121; -907.782
642.068;  555.379; -191.121; -300.782
642.340;  -64.918; -486.121; -566.783
642.613;  138.485;  294.880;  323.217
642.885; -160.012; -787.120; -878.783
643.157;  -66.509; -810.120; -658.784
643.428;  172.694;  170.880;  218.216
643.700;  -79.003; -498.120; -425.784
643.972;  -18.301;  -16.119; -133.785
644.244; -109.498; -474.119; -559.785
644.516;  -54.795; -250.119; -114.786
644.788;  192.608;  662.881;  548.214
645.060;   16.611;  -12.119; -124.786
645.332; -134.086; -525.118; -535.787
645.603;  125.317;  479.882;  342.213
645.875; -104.980; -334.118; -369.787
646.147;  368.423; 1487.882; 1242.212
646.418; -108.474; -931.117; -918.788
646.690;  219.829; -714.117; -715.789
646.962;   77.432; -413.117; -451.789
647.233;   20.735;   15.883;   11.211
647.505; -148.562; -595.117; -475.790
647.776;  102.741;  328.884;  229.210
648.048;    7.044; -248.116; -418.790
648.320; -126.053; -752.116; -679.791
648.591; -249.850;-1055.116; -958.791
648.862; -136.647; -505.116; -577.792
649.134;   95.356;  115.885;  198.208
649.405;  -61.241; -661.115; -618.792
649.677;  -65.438; -475.115; -598.793
649.948;   29.965; -181.115; -296.793
650.219;   44.368;  -37.115; -147.793
650.491; -100.029; -431.114; -520.794
650.762; -189.526; -705.114; -731.794
651.033; -173.923; -437.114; -424.795
651.304; -150.921; -743.114; -728.795
651.576; -103.318; -680.114; -645.795
651.847;   -2.415; -250.113; -140.796
652.118;  -25.312;  -32.113; -189.796
652.389; -167.809; -639.113; -722.796
652.660;  -32.606; -147.113;  -89.797
652.931; -225.403; -897.112; -871.797
653.202; -132.400; -382.112; -541.798
653.473;  -89.997; -633.112; -533.798
653.744;  268.906; -595.112; -590.798
654.015;  255.109; -356.112; -303.799
654.286;  -79.088; -642.111; -663.799
654.557;  -47.385; -586.111; -521.799
654.828; -273.082;-1114.111;-1088.800
655.099;  -83.979; -404.111; -291.800
655.370; -122.176; -427.111; -543.801
655.641; -189.173; -656.110; -714.801
655.911; -167.770; -618.110; -638.801
656.182;  170.433;  437.890;  387.198
656.453;  234.636;  830.890;  746.198
656.724;  -60.061; -466.110; -426.802
656.994; -127.058; -553.109; -568.803
657.265; -156.655; -862.109; -873.803
657.536;  -94.552; -500.109; -377.804
657.806; -130.249; -561.109; -593.804
658.077; -223.346; -866.109; -950.804
658.347; -107.044; -523.108; -598.805
658.618; -206.741; -646.108; -694.805
658.888;   15.362;  -41.108;  112.195
659.159; -137.135; -432.108; -548.806
659.429;  -19.932; -292.108; -349.806
659.700;   82.771; -435.107; -390.807
659.970;   19.174; -370.107; -359.807
660.241;   13.777; -754.107; -921.807
660.511;  877.780; -147.107; -174.808
660.781;  158.883; -793.106; -748.808
661.052;  -41.814; -222.106; -381.808
661.322;   29.689;   21.894;   -9.809
661.592;  127.392;  257.894;  148.191
661.862; -118.505; -369.106; -382.810
662.133; -123.702; -551.105; -502.810
662.403; -210.499; -770.105; -676.810
662.673;  -71.596; -256.105; -213.811
662.943; -164.993; -612.105; -551.811
663.213;   11.610;  -85.105;  -81.811
663.483;  -97.387; -593.104; -568.812
663.753;  -38.484; -194.104; -152.812
664.023;   42.819;   68.896;  -32.813
664.293;  -51.778; -319.104; -126.813
664.563; -205.575; -694.104; -648.813
664.833; -200.972; -743.103; -608.814
665.103; -204.569; -730.103; -793.814
665.373; -166.866; -766.103; -806.814
665.643; -177.864; -863.103; -918.815
665.913;   88.239; -534.103; -714.815
666.182;  239.842; -685.102; -719.816
666.452;  468.945;  -22.102;  -89.816
666.722;  -31.952; -724.102; -784.816
666.992; -213.449; -948.102; -921.817
667.261; -170.346; -824.102; -808.817
667.531;  411.457;  134.899;   45.183
667.801;  849.460; -440.101; -412.818
668.070;  503.763;  714.899;  697.182
668.340; -182.334; -883.101; -840.819
668.609;  222.469;  588.900;  301.181
668.879; -113.728; -490.100; -558.819
669.149;  -89.725; -539.100; -516.820
669.418; -201.222; -698.100; -726.820
669.688;  -50.319; -482.100; -666.820
669.957;  132.784; -423.099; -546.821
670.226;   -6.413; -268.099; -331.821
670.496; -133.510; -431.099; -635.822
670.765; -110.807; -418.099; -501.822
671.034; -269.804; -872.099; -828.822
671.304;   33.699;   55.902; -111.823
671.573; -238.898;-1085.098; -957.823
671.842;  191.805; -380.098; -294.823
672.112;   38.508; -692.098; -586.824
672.381;   24.811; -239.098; -214.824
672.650; -236.386;-1005.097;-1021.825
672.919; -134.084; -631.097; -507.825
673.188; -186.081; -681.097; -878.825
673.457; -254.378;-1101.097;-1143.826
673.726; -118.875; -579.096; -646.826
673.995;  -65.072; -533.096; -479.826
674.265;    6.431; -263.096; -333.827
674.534;   34.434; -183.096; -235.827
674.802;    8.137; -618.096; -703.828
675.071; 1882.440; -886.095; -801.828
675.340; 6304.143; -464.095; -339.828
675.609; 2263.246;  103.905;   82.171
675.878;   86.349; -949.095; -893.829
676.147;  144.252;  -26.095;   -8.829
676.416;  222.255; -210.094; -294.830
676.685; 1299.058; 1000.906; -622.830
676.953;  220.461; -603.094; -452.831
677.222;    5.464; -193.094; -273.831
677.491;  -16.233;  -24.094; -127.831
677.759;   61.870;   11.907;  172.168
678.028;   -6.727; -279.093; -222.832
678.297;   44.376;   71.907;  197.168
678.565; -216.121; -898.093; -944.833
678.834;  -41.518; -311.093; -268.833
679.102; -125.015; -411.092; -391.834
679.371; -232.312; -898.092; -727.834
679.639; -225.309; -797.092; -786.834
679.908; -215.907; -794.092; -724.835
680.176; -274.304; -895.091; -941.835
680.445;  -69.201; -346.091; -352.835
680.713;   14.102;  -58.091;  -23.836
680.982; -118.295; -523.091; -525.836
681.250; -149.392; -578.091; -507.837
681.518; -136.189; -534.090; -751.837
681.787;  -20.586; -204.090; -167.837
682.055;  -72.983; -490.090; -422.838
682.323; -243.280; -993.090; -992.838
682.591;  116.623; -216.090; -538.838
682.859;  211.126;    9.911;  -35.839
683.128;  110.929;  232.911;  497.161
683.396; -294.968;-1102.089;-1122.840
683.664;    0.535; -241.089;   21.160
683.932;   43.738;  144.911;  -76.840
684.200;  -88.459; -576.088; -320.841
684.468;    5.344;  -73.088; -124.841
684.736;    4.347; -214.088; -175.841
685.004; -200.650;-1024.088; -982.842
685.272;  -86.847; -880.088; -774.842
685.540; -105.644; -499.087; -557.843
685.808; -113.141; -651.087; -682.843
686.076; -172.438; -894.087; -969.843
686.343;  -49.335; -601.087; -815.844
686.611;   74.568; -195.087; -224.844
686.879;  951.971; -530.086; -553.844
687.147; 5367.773; -483.086; -480.845
687.414; 1555.076;  -12.086; -169.845
687.682;   25.879; -658.086; -757.846
687.950;  558.582;  259.915;  263.154
688.217;    8.285; -792.085; -760.846
688.485;   23.588; -632.085; -636.847
688.753;  891.091;  -11.085; -102.847
689.020;  260.594; -820.085; -851.847
689.288; -165.603; -853.084; -787.848
689.555;   -6.200; -195.084; -148.848
689.823;  -47.197; -241.084; -345.849
690.090; -102.494; -546.084; -651.849
690.358; -249.591; -877.084; -897.849
690.625;   86.012;  120.917;   45.150
690.892; -125.985; -403.083; -369.850
691.160;   13.618;   72.917;  -35.850
691.427;   93.421;  141.917;  130.149
691.694; -219.076; -855.083; -929.851
691.962; -241.773;-1177.082;-1060.852
692.229;  114.130;  127.918;   56.148
692.496;  198.133;  130.918;  -49.852
692.763;   76.836; -164.082; -201.853
693.031;  -92.461; -739.082; -716.853
693.298;  -43.858; -509.081; -368.853
693.565;  632.345; -155.081; -163.854
693.832; 2086.048;   -5.081;   -9.854
694.099;  285.051; -643.081; -642.855
694.366;  -65.647; -882.081; -896.855
694.633;  -89.444; -920.080; -633.855
694.900; 1635.559; 4367.920; -114.856
695.167;  735.862; -214.080; -380.856
695.434;  146.965; -646.080; -623.856
695.701;  377.868;  121.921;  -61.857
695.968;  811.171; -365.079; -361.857
696.234; 1911.274; -415.079; -646.858
696.501;17766.677; -776.079; -614.858
696.768; 8506.980; -554.079; -617.858
697.035;  590.283; -632.078; -667.859
697.302;   92.486; -448.078; -552.859
697.568;   54.389; -458.078; -497.859
697.835;  -33.508; -683.078; -624.860
698.102;   13.595; -498.078; -407.860
698.368;  220.098;  384.923;  396.139
698.635;  -29.699;  -47.077; -424.861
698.901;    5.704; -240.077; -348.861
699.168;  174.107; -534.077; -456.862
699.435;  170.210;  -72.077;  -13.862
699.701; -184.187; -868.076; -764.862
699.968;  -39.584;  144.924; -441.863
700.234; -124.881; -783.076; -822.863
700.500;  -27.378; -448.076; -539.864
700.767;   64.425;   -1.075;   26.136
701.033; -212.372;-1015.075; -963.864
701.299;  -63.069; -450.075; -483.865
701.566;  327.033;  950.925;  763.135
701.832;  125.236;  -31.075;  -76.865
702.098; -153.361;-1054.074;-1034.866
702.365; -114.258;-1098.074;-1030.866
702.631;  -51.855;-1038.074;-1063.867
702.897; 2398.948; -765.074; -676.867
703.163; 3567.351;  348.926;  254.133
703.429;  315.954; -256.073; -273.868
703.695;  -82.043; -796.073; -792.868
703.961;   87.660; -214.073; -210.868
704.227;  -61.737; -630.073; -725.869
704.493;  321.766;  613.927;  510.131
704.759;   12.669; -565.072; -540.870
705.025;  132.372; -203.072; -194.870
705.291;   37.475; -666.072; -562.870
705.557;  459.078;  719.928;   34.129
705.823;   71.481; -742.072; -694.871
706.089;  317.484; -307.071; -326.871
706.355;  770.187; -315.071; -244.872
706.620;10081.990; -776.071; -729.872
706.886;12635.693; -309.071; -362.873
707.152; 1204.696; -818.070; -973.873
707.418;    4.399;-1153.070;-1186.873
707.683;   57.202; -550.070; -530.874
707.949;  -59.495; -547.070; -578.874
708.215;   44.908; -129.070; -207.874
708.480;   26.910; -520.069; -420.875
708.746;  278.513;   68.931;   28.125
709.011;  -82.384; -578.069; -612.876
709.277;  -99.381; -538.069; -543.876
709.542;  -59.178; -428.069; -387.876
709.808;   57.725;  -59.068;   89.123
710.073; -104.472; -577.068; -695.877
710.339;   -2.569; -242.068; -228.877
710.604;  143.234; -780.068; -845.878
710.869;  536.737; -277.068; -366.878
711.135; -123.060; -715.067; -628.879
711.400;  -88.757; -507.067; -608.879
711.665;  -85.054; -404.067; -479.879
711.931; -125.751; -661.067; -677.880
712.196; -177.848; -876.067; -954.880
712.461;  236.755; -402.066; -490.880
712.726;  235.258; -727.066; -771.881
712.991; -125.239; -647.066; -664.881
713.256;  -36.136; -350.066; -332.882
713.521;  -48.433; -417.065; -381.882
713.787;  -67.330; -454.065; -472.882
714.052;  -24.827; -214.065; -400.883
714.317; -138.824;-1045.065; -981.883
714.581; 1842.879; -374.065; -268.883
714.846; 2269.782; -822.064; -888.884
715.111;  301.985;  261.936;  257.116
715.376;    9.788;  -86.064; -223.885
715.641;   39.390; -365.064; -367.885
715.906;  486.393;   15.936; -551.885
716.171;  292.896;  221.937;  209.114
716.436;  111.199;  -78.063; -104.886
716.700; -147.098; -818.063; -692.886
716.965; -182.595; -794.063; -807.887
717.230;  -89.492; -339.063; -392.887
717.494;  -20.489;  -40.062; -134.888
717.759;  -94.186; -784.062; -640.888
718.024;   62.417;  269.938;  250.112
718.288;  190.720;  685.938;  395.111
718.553; -246.877; -803.062; -977.889
718.817; -204.674; -883.061; -899.889
719.082;   11.229; -115.061; -125.890
719.346; -191.568;-1000.061; -947.890
719.611;  -53.365; -300.061; -255.891
719.875;  -93.562; -568.060; -537.891
720.140;  -83.859; -453.060; -603.891
720.404;  138.344; -136.060; -249.892
720.668; 1458.947; -475.060; -411.892
720.933;  567.150;  146.940;  137.108
721.197; -148.147; -667.059; -600.893
721.461; -197.644; -851.059; -826.893
721.725;   56.159;  -21.059; -250.894
721.990;   -6.338; -284.059; -204.894
722.254;   12.365;  -26.059; -108.894
722.518;  -54.732; -286.058; -442.895
722.782; -115.930; -743.058; -594.895
723.046;  286.073;  614.942;  570.105
723.310;  110.576;  374.942;  210.104
723.574; -153.421; -654.058; -614.896
723.838; -142.118; -576.057; -642.897
724.102;  -43.015; -226.057; -239.897
724.366; -212.712;-1032.057; -978.897
724.630; -134.709; -749.057; -571.898
724.894;  -96.906; -722.057; -514.898
725.158;   53.697;   38.944; -295.898
725.422;  -76.300; -394.056; -327.899
725.685;  -71.597; -441.056; -349.899
725.949; -103.094; -566.056; -519.900
726.213;  -93.891; -732.056; -811.900
726.477;  278.512;-1020.055; -933.900
726.740;  292.215; -274.055; -104.901
727.004;  653.518; -384.055; -510.901
727.268; 5544.021; -442.055; -400.901
727.531; 1458.224; -961.055; -775.902
727.795;  -75.573; -713.054; -673.902
728.059;  -92.970; -552.054; -557.903
728.322;  -86.867; -841.054; -669.903
728.586;   67.236; -692.054; -701.903
728.849; -133.861; -695.053; -756.904
729.112; -204.858; -812.053; -912.904
729.376; -202.255; -959.053; -905.904
729.639;  -71.352; -536.053; -536.905
729.903; -140.750; -733.053; -699.905
730.166;  -37.047; -437.052; -399.906
730.429;  -58.144; -317.052; -468.906
730.693; -116.641; -355.052; -894.906
730.956;  490.862;  810.948;  651.093
731.219; 1202.665; -310.052; -103.907
731.482;  234.968;-1003.051; -894.907
731.745;  154.871; -794.051; -935.908
732.009;   93.274;  -30.051;   50.092
732.272; -136.423; -904.051; -771.909
732.535;    0.980; -300.051; -310.909
732.798; -273.317;-1083.050;-1166.909
733.061;  -70.414; -430.050; -456.910
733.324;   95.689;   31.950; -180.910
733.587;  174.992;  290.950;  365.090
733.850;  -93.905; -973.049;-1050.911
734.113;  100.598;   33.951;   32.089
734.376;   56.301; -328.049; -447.912
734.639;  498.604; 1188.951; 1011.088
734.901;  177.707; -180.049; -402.912
735.164;  957.410; -883.048; -837.913
735.427; 2143.613; -166.048; -355.913
735.690;  285.216; -205.048; -234.913
735.952;  -21.881; -923.048; -925.914
736.215;    5.122;-1113.048;-1009.914
736.478;   79.225; -771.047; -774.915
736.740;  447.227;   33.953;  129.085
737.003; 1338.930; -658.047; -672.915
737.266; 6730.533;  -94.047;   46.084
737.528;  811.736; -682.047; -660.916
737.791;  607.139; -316.046; -327.916
738.053; 1587.142;  465.954;  649.083
738.316;19134.445; -162.046; -136.917
738.578;12007.748; -770.046; -736.918
738.841;  830.351; -382.046; -446.918
739.103;  361.654; -875.045; -777.918
739.365;  911.057;   79.955;  -69.919
739.628;    1.260; -884.045; -805.919
739.890;   12.463; -758.045; -710.919
740.152;  -13.734; -692.044; -754.920
740.414;   62.469; -408.044; -359.920
740.677;  -73.728; -785.044; -634.921
740.939;  -28.125; -587.044; -487.921
741.201;  487.378; -432.044; -572.921
741.463;   86.481; -689.043; -745.922
741.725;   83.684;  -21.043; -199.922
741.987;  195.087;  220.957;  116.078
742.249;   57.790; -751.043; -859.923
742.511;  395.693; -703.043; -794.923
742.773;   80.996; -546.042; -546.924
743.035;  313.299;  796.958;  533.076
743.297;  -34.298; -963.042;-1013.924
743.559; 1275.605; -278.042; -262.925
743.821;  112.207; -735.042; -744.925
744.083;   90.910;  -44.041; -149.925
744.345; -118.387; -869.041; -892.926
744.607;  110.816;   75.959;  122.074
744.868;  -11.781; -490.041; -554.927
745.130; -175.078; -994.041;-1008.927
745.392;  131.725;   -1.040;  -44.927
745.653;   44.628; -411.040; -378.928
745.915;  388.031;  896.960;  631.072
746.177;  172.434;   35.960;  -43.928
746.438;   38.837; -428.040; -543.929
746.700;  -40.760; -947.039; -988.929
746.961;   43.343; -659.039; -740.930
747.223;  308.046; -190.039;  -74.930
747.484;  168.249; -391.039; -471.930
747.746;  335.752;  -23.038; -106.931
748.007;  265.755; -647.038; -689.931
748.269;  643.458; -468.038; -440.931
748.530;  793.761; -852.038; -638.932
748.791;  502.964; -354.038; -420.932
749.053;  877.667;  286.963;  163.067
749.314;  895.270; -236.037; -169.933
749.575;  914.573; -945.037; -905.933
749.836; 1476.476; -217.037;   86.066
750.098; 4901.279;  -60.037;  -21.934
750.359;60156.682;  414.964;  555.066
750.620;14341.785; -121.036; -220.935
750.881; 1872.387; -585.036; -513.935
751.142; 2515.790; -950.036; -938.936
751.403;29300.893; -789.036; -705.936
751.664;11459.996;-1034.035; -999.936
751.925;  938.599; -175.035; -262.937
752.186;  514.502; -298.035; -278.937
752.447;  323.505; -590.035; -445.937
752.708;  163.608; -532.035; -648.938
752.969;   66.111; -566.034; -576.938
753.230;   22.714; -777.034; -672.939
753.491;   28.917; -650.034; -631.939
753.751;  172.620;  109.966;   19.061
754.012;  271.523;  258.967;  181.060
754.273;  196.926; -174.033;  -71.940
754.534;   60.129; -487.033; -580.940
754.794; -126.868; -926.033; -911.941
755.055;  371.835; 1051.967;  881.059
755.316;  -59.462; -700.032; -566.942
755.576;   22.541; -606.032; -576.942
755.837;  -18.856; -527.032; -695.942
756.097;  -15.553; -530.032; -564.943
756.358;  -76.150; -725.032; -770.943
756.618;  -43.547; -705.031; -641.943
756.879;   60.856; -254.031; -349.944
757.139; -179.941;-1098.031;-1116.944
757.400;  -61.438; -538.031; -553.945
757.660;   32.964; -365.031; -401.945
757.920;   51.767; -266.030; -228.945
758.181;   14.870; -468.030; -351.946
758.441; -159.827; -870.030; -809.946
758.701;   -2.824; -308.030; -215.946
758.961;   37.979; -220.030; -278.947
759.222;    8.682; -574.029; -502.947
759.482;  -95.915; -683.029; -723.948
759.742;  -99.612; -706.029; -547.948
760.002;   91.791;  -83.029; -143.948
760.262;  133.494;   50.972;  182.051
760.522;  -36.203; -498.028; -574.949
760.782;  -53.900; -738.028; -612.949
761.042;  -23.997; -618.028; -573.950
761.302;  197.606;   55.972;  -18.950
761.562;  152.509; -164.027; -154.951
761.822;  188.912; -710.027; -551.951
762.082;  -72.685;-1104.027;-1093.951
762.342;  183.118; -328.027; -403.952
762.601;  216.021; -567.027; -506.952
762.861;  654.424; -281.026; -207.952
763.121;  840.727; -406.026; -411.953
763.381;14126.930; -499.026; -485.953
763.640;13152.733; -139.026; -307.954
763.900;  734.336; -242.026; -203.954
764.160;  227.439; -458.025; -491.954
764.419;   45.842; -726.025; -782.955
764.679;  -63.456; -795.025; -726.955
764.939;   48.547; -124.025; -210.955
765.198; -104.850; -608.025; -563.956
765.458;  -75.347; -710.024; -612.956
765.717;  -90.044; -454.024; -590.957
765.976;  -34.341; -428.024; -411.957
766.236; -104.538; -475.024; -610.957
766.495;  139.765;  260.977;   73.042
766.755; -132.832;-1090.023; -987.958
767.014;   43.871; -594.023; -665.958
767.273;  -57.526; -373.023; -397.959
767.533;  -10.823; -228.023; -307.959
767.792;   20.180; -151.022; -188.960
768.051;  -22.717; -228.022; -276.960
768.310; -118.614; -546.022; -650.960
768.569;   47.189; -161.022;    4.039
768.828;    0.892; -285.022; -363.961
769.088; -182.405;-1050.021; -942.961
769.347; -108.402; -755.021; -599.962
769.606; -122.299; -876.021; -857.962
769.865; -200.396;-1016.021;-1033.963
770.124;   24.007; -411.021; -336.963
770.383;  -37.890; -778.020; -910.963
770.641;   43.213; -398.020; -400.964
770.900;  -60.184; -953.020; -846.964
771.159;  -56.781; -851.020; -951.964
771.418;   -4.878; -917.020; -779.965
771.677;  283.824; -224.019; -293.965
771.936;  303.327; -794.019; -865.966
772.194; 4462.130; -465.019; -437.966
772.453;18177.633; -213.019; -391.966
772.712; 1477.736;  416.982;  329.033
772.970;  277.039;   32.982;   63.033
773.229;  245.342;  -22.018;  102.033
773.488; -101.955; -814.018; -770.968
773.746;  216.348;  296.982;  335.032
774.005;  113.151;  190.983;  -22.969
774.263;   84.554;  243.983;  177.031
774.522; -124.843; -422.017; -548.969
774.780;  -96.840; -484.017; -417.970
775.039;  -87.837; -551.017; -531.970
775.297;   40.766; -135.016; -351.970
775.555; -146.031; -489.016; -612.971
775.814; -192.828; -618.016; -570.971
776.072; -174.425; -749.016; -740.971
776.330; -108.822; -630.016; -520.972
776.589; -160.619; -703.015; -721.972
776.847; -195.516; -645.015; -624.973
777.105; -267.513;-1016.015;-1032.973
777.363;  -69.810; -459.015; -454.973
777.621; -226.907; -660.015; -717.974
777.879;   46.996;  -42.014;   32.026
778.138; -133.401; -554.014; -717.974
778.396; -136.198; -585.014; -526.975
778.654; -248.696;-1015.014; -970.975
778.912;  -56.693; -269.014; -371.976
779.170; -185.690; -880.013; -803.976
779.427; -224.687; -922.013; -897.976
779.685; -216.784; -880.013; -832.977
779.943; -121.281; -654.013; -593.977
780.201; -281.178; -964.012; -883.978
780.459; -154.175; -651.012; -610.978
780.717; -102.572; -440.012; -390.978
780.974; -120.369; -449.012; -490.979
781.232;  -99.366; -358.012; -338.979
781.490;  -76.363; -551.011; -472.979
781.747; -104.760; -555.011; -476.980
782.005;  127.843;  462.989;  254.020
782.263; -270.954; -542.011;-1004.981
782.520;  -68.251; -326.011; -501.981
782.778; -280.848;-1013.010;-1051.981
783.035; -255.745; -962.010; -938.982
783.293;  -80.342; -248.010; -206.982
783.550;  -27.839; -134.010; -198.982
783.808; -190.736; -764.010; -776.983
784.065; -232.833; -745.009; -874.983
784.322;  -37.230;   25.991;  -86.984
784.580; -205.827; -915.009; -771.984
784.837; -131.624; -392.009; -466.984
785.094; -209.921; -783.009; -762.985
785.352;  -87.019; -304.008; -404.985
785.609; -138.516; -934.008; -839.985
785.866;  -83.813; -345.008; -401.986
786.123;  -62.310; -639.008; -583.986
786.380; -151.007; -665.008; -604.987
786.637;   -4.704; -225.007; -380.987
786.895;  -34.301; -456.007; -543.987
787.152;   -2.698; -135.007; -267.988
787.409;    4.705; -123.007; -225.988
787.666;  -89.092; -299.006; -378.988
787.923; -153.289; -616.006; -695.989
788.179;  -90.786; -551.006; -584.989
788.436; -159.583; -585.006; -585.990
788.693;   19.720;  -92.006;  -87.990
788.950;  338.223; -125.005; -112.990
789.207;  387.526; -381.005; -372.991
789.464;  -16.071; -161.005; -301.991
789.720;   56.032;  150.995;  110.009
789.977; -265.065;-1003.005; -671.992
790.234;   15.838;   44.996;  -66.992
790.490; -264.859; -884.004;-1031.993
790.747;   59.244;  -85.004;   22.007
791.004;   -6.853; -426.004; -348.993
791.260;  -80.350; -430.004; -560.994
791.517; -131.947; -843.003; -788.994
791.773;  -35.344; -379.003; -342.994
792.030; -160.341; -596.003; -660.995
792.286; -150.539; -686.003; -636.995
792.543;   14.964;  -74.002; -159.995
792.799;  -11.533; -584.002; -382.996
793.055; -248.030;-1179.002;-1210.996
793.312; -103.427; -827.002; -816.997
793.568;  -57.024; -746.002; -599.997
793.824;  122.279; -226.001; -284.997
794.081;  111.082; -447.001; -508.998
794.337;  188.385; -664.001; -561.998
794.593; 3039.388; -319.001; -271.999
794.849;11256.291; -746.001; -772.999
795.105;  656.194; -270.000; -261.999
795.361;   95.997; -490.000; -457.000
795.617;  -78.600; -875.000; -945.000
795.873;   -8.500; -360.000; -407.000
796.129;   -7.100; -368.000; -306.000
796.385;   30.900; -124.000; -156.000
796.641;  213.500;  412.000;  550.000
796.897;  -95.500; -666.000; -635.000
797.153;  211.200;  453.000;  357.000
797.409; -123.100; -785.000; -868.000
797.665;  -77.600; -625.000; -732.000
797.921;  -48.000; -775.000; -762.000
798.176;  -69.500; -744.000; -747.000
798.432;  -44.800; -824.000; -596.000
798.688;  -95.100;-1174.000;-1078.000
798.943;  228.000; -165.000; -147.000
799.199;   11.300;-1005.000; -959.000
799.455;  475.100;  369.000;  316.000
799.710;  263.700; -813.000; -380.000
799.966;  565.400; -162.000; -160.000
800.221;  853.300; -638.000; -721.000
800.477;19213.000; -743.000; -710.000
800.732;13807.600; -773.000; -800.000
800.988; 1168.800;  205.000;  -19.000
801.243; 3812.900; -454.000; -344.000
801.498;13076.300; -814.000; -739.000
801.754;  784.100; -289.000; -163.000
802.009;  228.500; -257.000; -335.000
802.264;  -50.200; -967.000;-1033.000
802.520;  112.400;  222.000;   -3.000
802.775;  -29.300; -524.000; -359.000
803.030;  228.000;  395.000;  356.000
803.285; -180.300; -840.000; -903.000
803.540;  -62.400; -686.000; -699.000
803.795;  -26.400; -648.000; -583.000
804.051;   34.600; -279.000; -346.000
804.306;  121.700;  168.000;  128.000
804.561;  350.900;  451.000;  362.000
804.816;  312.500;  714.000;  861.000
805.071;   93.600; -185.000; -280.000
805.325;  408.900; -257.000; -427.000
805.580; -151.500; -841.000; -877.000
805.835;   70.200; -204.000; -297.000
806.090;  -75.700; -760.000; -676.000
806.345;   29.000; -344.000; -264.000
806.600;   -1.700; -549.000; -632.000
806.854;   -9.700; -408.000; -538.000
807.109;  -10.900; -493.000; -577.000
807.364;   46.300; -407.000; -328.000
807.618;   61.600; -415.000; -381.000
807.873;  122.300; -470.000; -494.000
808.128;  244.900; -257.000; -518.000
808.382;  232.200; -224.000; -332.000
808.637;  192.000; -440.000; -511.000
808.891;  366.500; -257.000; -180.000
809.146;  185.100; -902.000; -794.000
809.400;  475.400; -848.000; -923.000
809.654;  618.500; -779.000; -551.000
809.909;  874.700; -841.000; -927.000
810.163;13346.300; -813.000; -651.000
810.418;27577.100; -940.000; -861.000
810.672; 1766.300; -685.000; -690.000
810.926; 1314.000; -993.000; -973.000
811.180; 2747.800; -439.000; -372.000
811.434;56599.800;  240.000;  135.000
811.689;18692.000; -231.000; -365.000
811.943; 1071.900; -936.000; -953.000
812.197;  633.500; -893.000; -671.000
812.451;  261.000; -379.000; -514.000
812.705;    3.100; -809.000; -619.000
812.959;   54.400; -263.000; -388.000
813.213;   76.100; -283.000; -209.000
813.467;  244.200;  470.000;  253.000
813.721; -119.600; -764.000; -792.000
813.975; -148.400; -826.000; -877.000
814.229;  207.700;  430.000;  353.000
814.482;  -71.000; -517.000; -566.000
814.736; -154.100; -766.000; -744.000
814.990; -182.800; -779.000; -872.000
815.244;  -18.400; -228.000; -285.000
815.497; -137.000; -636.000; -601.000
815.751;   43.700; -141.000;   82.000
816.005;  -78.400; -470.000; -586.000
816.258;  -61.400; -510.000; -363.000
816.512; -150.900; -693.000; -610.000
816.766;   73.900;  121.000;  157.000
817.019;  139.500;  148.000;  149.000
817.273; -175.800;-1000.000; -802.000
817.526;  -11.900; -206.000; -173.000
817.779;  -23.500;-1049.000; -960.000
818.033;  -77.600; -693.000; -807.000
818.286; -144.200; -725.000; -792.000
818.540; -123.100; -403.000; -403.000
818.793;  -54.500; -402.000; -489.000
819.046; -138.700; -582.000; -520.000
819.299;   -8.200; -157.000; -166.000
819.553; -184.500; -552.000; -592.000
819.806; -235.300;-1016.000; -838.000
820.059;  -79.800; -334.000; -354.000
820.312;  131.900;  152.000;  185.000
820.565;   34.300;  110.000;  -27.000
820.818;  -32.400;  -59.000; -173.000
821.071; -237.500;-1041.000; -957.000
821.324; -140.900; -536.000; -540.000
821.577; -138.400; -457.000; -483.000
821.830;  -53.200; -270.000; -172.000
822.083; -182.200; -733.000; -288.000
822.336;    3.300; -261.000; -167.000
822.589; -174.500; -805.000; -688.000
822.842; -228.100; -875.000; -770.000
823.094; -287.200;-1076.000;-1114.000
823.347; -173.000; -925.000; -729.000
823.600;  115.600;  402.000;  187.000
823.853;  -18.500; -311.000; -267.000
824.105;  -90.200; -331.000; -575.000
824.358; -179.500; -617.000; -716.000
824.611;  114.700;  234.000;   40.000
824.863;  -36.500; -612.000; -591.000
825.116;  142.000;  -33.000;   27.000
825.368;  222.600; -366.000; -372.000
825.621;  336.000; -186.000; -240.000
825.873;  190.600; -704.000; -737.000
826.126; 1229.600; -669.000; -641.000
826.378;20700.800; -389.000; -505.000
826.630; 3938.800; -890.000; -898.000
826.883;   92.600; -754.000; -693.000
827.135;  181.400; -279.000; -270.000
827.387; -168.900; -893.000; -839.000
827.639;   48.500;  -86.000;   32.000
827.892; -148.700; -742.000; -582.000
828.144; -215.900; -848.000; -804.000
828.396;   18.100;  104.000;  -80.000
828.648; -131.500; -440.000; -333.000
828.900; -208.100; -702.000; -795.000
829.152; -200.100; -684.000; -683.000
829.404;  -29.100; -215.000; -267.000
829.656;   91.000;  321.000;  214.000
829.908;   39.500;  393.000;  229.000
830.160; -286.200;-1064.000;-1047.000
830.412; -100.500; -481.000; -430.000
830.664; -172.100; -557.000; -665.000
830.916;  -54.500; -268.000; -206.000
831.167; -289.900;-1073.000; -951.000
831.419; -129.200; -623.000; -566.000
831.671; -205.600; -764.000; -809.000
831.923;  -85.400; -311.000; -447.000
832.174;  -83.600; -273.000; -331.000
832.426; -167.800; -493.000; -582.000
832.678; -313.600;-1043.000;-1091.000
832.929; -214.500; -947.000; -935.000
833.181;  -64.700; -575.000; -677.000
833.432;  -16.300;  -59.000; -186.000
833.684;   26.800;  112.000;  -27.000
833.935; -170.000; -610.000; -566.000
834.187; -185.800; -829.000; -823.000
834.438;   -9.600;  -58.000;  -25.000
834.689;  -48.800; -255.000; -123.000
834.941;  -37.000; -343.000; -244.000
835.192; -125.100; -590.000; -533.000
835.443;  -73.600; -419.000; -506.000
835.695;   64.300;  138.000;  -16.000
835.946;  -92.700; -608.000; -378.000
836.197; -146.200; -599.000; -622.000
836.448;  -90.900; -528.000; -395.000
836.699;  -87.200; -253.000; -341.000
836.950;   50.500;   72.000;    7.000
837.201; -250.100;-1003.000; -987.000
837.452;  -29.500; -356.000; -170.000
837.703; -171.000; -791.000; -737.000
837.954;  -13.200; -205.000; -365.000
838.205; -129.200;-1029.000;-1008.000
838.456;  330.300; -196.000; -282.000
838.707;   32.300; -423.000; -519.000
838.958;   78.900; -634.000; -647.000
839.209;  580.500;   18.000;   40.000
839.460;  274.900; -439.000; -201.000
839.710;  352.700; -135.000; -297.000
839.961;  811.400;  730.000;  612.000
840.212;  668.000; -382.000; -497.000
840.462; 2236.000; -328.000; -277.000
840.713;32319.100; -571.000; -536.000
840.964;10430.800;  -62.000; -143.000
841.214;  890.300; -384.000; -624.000
841.465; 1036.200; -214.000; -141.000
841.715;  930.000; -417.000; -380.000
841.966; 1262.000; -746.000; -685.000
842.216;18701.300; -330.000; -431.000
842.466;55550.900; -169.000; -313.000
842.717; 2285.000; -964.000; -952.000
842.967;  643.700; -635.000; -641.000
843.217;  532.100;   20.000;   28.000
843.468;  191.900; -104.000; -132.000
843.718;  -45.100; -718.000; -726.000
843.968; -129.100; -837.000; -765.000
844.218;  104.300; -315.000; -262.000
844.469;  -31.700; -577.000; -561.000
844.719; -162.800; -537.000; -682.000
844.969; -120.800; -550.000; -580.000
845.219; -214.800; -814.000; -862.000
845.469;  -68.300; -392.000; -342.000
845.719; -196.300; -792.000; -884.000
845.969;   30.300;  119.000;  174.000
846.219; -157.300; -738.000; -720.000
846.469;  156.800;  464.000;  432.000
846.718;   11.700; -115.000;   31.000
846.968; -196.500; -827.000; -827.000
847.218;  -33.400; -224.000; -371.000
847.468; -133.300; -586.000; -555.000
847.718; -212.300; -827.000; -798.000
847.967; -202.100; -826.000; -915.000
848.217; -102.000; -449.000; -569.000
848.467;  -42.000; -405.000; -376.000
848.716; -140.000; -708.000; -725.000
848.966;   53.700; -372.000; -358.000
849.215;  -58.400; -428.000; -419.000
849.465; -118.800; -785.000; -615.000
849.714; -230.200;-1132.000;-1150.000
849.964;  -58.400; -551.000; -613.000
850.213;   51.900; -393.000; -355.000
850.463;  205.700;  137.000;  340.000
850.712;   36.500; -542.000; -567.000
850.961;   72.300; -739.000; -678.000
851.211;  196.900; -513.000; -504.000
851.460;  313.900; -635.000; -650.000
851.709; 1103.000;  -25.000;   18.000
851.958;19715.300; -912.000; -750.000
852.208;19337.800; -859.000; -879.000
852.457;  810.400; -181.000;  -13.000
852.706;  160.200; -791.000; -823.000
852.955;   91.400; -507.000; -528.000
853.204;  -68.000; -521.000; -461.000
853.453;  -75.500; -418.000; -458.000
853.702; -188.500; -660.000; -750.000
853.951; -122.900; -532.000; -520.000
854.200; -146.900; -613.000; -562.000
854.449; -170.500; -695.000; -661.000
854.698; -107.200; -340.000; -279.000
854.946;  -45.400; -181.000; -284.000
855.195; -208.700; -843.000; -868.000
855.444;  -88.600; -395.000; -420.000
855.693; -188.900; -345.000; -432.000
855.941; -158.500; -387.000; -516.000
856.190;  -47.900; -256.000; -382.000
856.439; -166.800; -652.000; -703.000
856.687;  -22.200;  -99.000;  -72.000
856.936; -134.000; -621.000; -323.000
857.184; -277.900;-1067.000;-1020.000
857.433; -101.600; -423.000; -512.000
857.681; -253.700; -989.000; -953.000
857.930;  -79.600; -282.000; -433.000
858.178; -241.900; -856.000; -929.000
858.427; -237.200; -802.000; -781.000
858.675; -153.800; -377.000; -544.000
858.923; -130.900; -527.000; -819.000
859.172; -296.500;-1094.000;-1070.000
859.420;  -78.500; -339.000; -239.000
859.668; -192.400; -624.000; -628.000
859.916;   63.800;  109.000;  115.000
860.164; -160.100; -699.000; -603.000
860.413;  592.500; -878.000; -696.000
860.661;  333.000; -709.000; -577.000
860.909;  -52.400; -339.000; -325.000
861.157;  -70.700; -277.000; -444.000
861.405; -168.400; -534.000; -670.000
861.653;  115.700;  310.000;  310.000
861.901;  436.900; -543.000; -613.000
862.149;  -46.700; -801.000; -824.000
862.396;  -73.700; -297.000; -187.000
862.644;  -87.700; -368.000; -347.000
862.892;    4.800;   98.000;  138.000
863.140; -144.900; -549.000; -530.000
863.388; -235.300; -815.000; -759.000
863.635; -188.500; -642.000; -601.000
863.883;   78.100;  231.000;  190.000
864.131; -117.400; -288.000; -357.000
864.378; -210.000; -675.000; -540.000
864.626; -151.700; -347.000; -415.000
864.873; -161.700; -556.000; -505.000
865.121; -231.100; -714.000; -799.000
865.368;   -7.500; -173.000;   75.000
865.616;  -11.800;  -33.000;  -40.000
865.863; -102.300; -462.000; -506.000
866.111; -183.800; -795.000; -824.000
866.358;  131.500; -426.000; -420.000
866.605; 4539.600;  -64.000; -804.000
866.853; 3553.800; -621.000; -537.000
867.100;  -79.900; -728.000; -775.000
867.347; -133.000; -672.000; -611.000
867.594; -101.100; -740.000; -714.000
867.841;  219.600;   97.000;   17.000
868.089; -242.800; -746.000; -698.000
868.336; -106.700; -477.000; -420.000
868.583; -208.400; -637.000; -741.000
868.830;  -19.000; -131.000; -170.000
869.077; -249.300; -859.000; -787.000
869.324; -171.600; -502.000; -458.000
869.571; -182.500; -398.000; -430.000
869.818; -178.700; -485.000; -439.000
870.065; -159.800; -439.000; -513.000
870.311; -149.900; -456.000; -542.000
870.558; -110.900; -332.000; -311.000
870.805;  -94.800; -320.000; -384.000
871.052; -112.500; -494.000; -369.000
871.298;  -26.000; -204.000; -131.000
871.545;  -46.900; -151.000; -185.000
871.792; -115.500; -173.000; -222.000
872.038;  -61.300;   43.000; -126.000
872.285; -158.000; -496.000; -387.000
872.532; -105.000; -357.000; -387.000
872.778;  137.200;  556.000;  403.000
873.025; -110.300; -384.000; -359.000
873.271;  168.300;  501.000;  578.000
873.517;   31.600; -133.000; -209.000
873.764;   23.000; -193.000;  -80.000
874.010;  -53.200; -143.000; -230.000
874.257;   17.400;  123.000;   90.000
874.503; -170.200; -579.000; -479.000
874.749;  -33.400;   31.000;  275.000
874.995;  -79.500;  -80.000;  -20.000
875.242; -158.800; -540.000; -478.000
875.488; -167.800; -414.000; -439.000
875.734;  -57.600; -106.000; -234.000
875.980;  416.800; -872.000;-1032.000
876.226;  631.000; -157.000; -255.000
876.472;   97.200;  343.000;  237.000
876.718;    8.300;  184.000;  158.000
876.964;    4.100;   56.000;   55.000
877.210; -205.000; -547.000; -677.000
877.456; -192.500; -630.000; -557.000
877.702; -237.500; -821.000; -832.000
877.948; -116.900; -377.000; -497.000
878.193;  101.300;  361.000;  255.000
878.439; -118.500; -487.000; -472.000
878.685; -121.300; -272.000; -343.000
878.931; -206.400; -618.000; -676.000
879.176;  -75.500; -201.000; -201.000
879.422; -262.300; -933.000; -820.000
879.668;  225.600;   10.000;   79.000
879.913;  286.600;   53.000;  137.000
880.159;   -6.400; -112.000;  -17.000
880.404;  -49.300; -152.000; -162.000
880.650;   -2.400;   91.000;  141.000
880.895; -230.000; -670.000; -710.000
881.141; -168.500; -454.000; -428.000
881.386; -220.000; -503.000; -658.000
881.631;  -83.000; -311.000; -166.000
881.877;   20.800;  112.000;  -13.000
882.122; -195.900; -684.000; -600.000
882.367; -105.100; -136.000; -186.000
882.612;  -69.200;  -80.000; -176.000
882.858; -251.600; -877.000; -823.000
883.103; -133.200; -297.000; -267.000
883.348; -233.900; -759.000; -852.000
883.593; -219.600; -677.000; -602.000
883.838;  -50.400; -311.000;  -24.000
884.083;  114.000;  353.000;  288.000
884.328;  -95.700; -564.000; -545.000
884.573;  -16.000; -196.000; -143.000
884.818;  445.800; -694.000; -531.000
885.063;  324.600; -348.000; -315.000
885.308; -137.300; -475.000; -398.000
885.553;  104.100;  245.000;  325.000
885.797; -165.500; -545.000; -615.000
886.042;  -11.000;    8.000;   58.000
886.287;  -74.200; -253.000; -211.000
886.532;    6.800;   26.000;  204.000
886.776; -127.000; -407.000; -525.000
887.021; -201.000; -621.000; -574.000
887.265; -228.100; -685.000; -689.000
887.510; -184.300; -557.000; -496.000
887.755; -114.100; -194.000; -164.000
887.999; -200.600; -552.000; -575.000
888.244;  -42.700;  -58.000;  161.000
888.488;   96.700;  371.000;  393.000
888.732; -149.100; -368.000; -520.000
888.977; -172.600; -622.000; -567.000
889.221; -236.600; -683.000; -659.000
889.465; -144.900; -422.000; -566.000
889.710; -100.100;  -56.000; -299.000
889.954;   94.200;  579.000;  467.000
890.198; -213.800; -584.000; -707.000
890.442; -250.700; -716.000; -712.000
890.687; -245.900; -800.000; -753.000
890.931; -113.700; -273.000; -210.000
891.175; -201.500; -502.000; -500.000
891.419;  -77.700; -105.000; -110.000
891.663;  -95.700; -239.000; -112.000
891.907; -254.700; -801.000; -545.000
892.151; -291.200; -920.000; -815.000
892.395; -137.600; -274.000; -387.000
892.638;   13.700;  408.000;  291.000
892.882; -239.900; -780.000; -867.000
893.126;  108.100;  758.000;  558.000
893.370; -100.100; -167.000; -168.000
893.614; -221.400; -714.000; -715.000
893.857;  -79.600; -183.000; -197.000
894.101; -178.100; -527.000; -631.000
894.345;  -21.900;  300.000;  150.000
894.588;  100.500;  569.000;  380.000
894.832;  -90.000; -178.000;  -84.000
895.075;  -83.500;   15.000;  -92.000
895.319; -183.400; -552.000; -420.000
895.563; -149.900; -413.000; -353.000
895.806; -218.400; -628.000; -741.000
896.049;  -45.300; -576.000; -368.000
896.293;  283.300;  527.000;  405.000
896.536;  -79.400; -465.000; -468.000
896.779;  -46.000; -149.000;   -1.000
897.023; -233.000; -751.000; -714.000
897.266;   15.800;  325.000;  269.000
897.509; -295.500; -900.000; -901.000
897.752;   -8.700;  149.000;  171.000
897.996; -289.600; -972.000; -864.000
898.239;    8.900;  168.000;  102.000
898.482; -179.900; -431.000; -453.000
898.725;   16.000;  101.000;   53.000
898.968; -231.300; -609.000; -744.000
899.211;  -99.700; -513.000; -361.000
899.454; -160.600; -633.000; -539.000
899.697;    2.900;   90.000;  -43.000
899.940; -257.900; -761.000; -757.000
900.182;  -94.100; -335.000; -405.000
900.425;  -88.800; -150.000; -298.000
900.668;   46.500;  491.000;  350.000
900.911;  -99.700; -292.000; -345.000
901.154;   -8.900;  141.000;   -3.000
901.396; -191.900; -407.000; -412.000
901.639; -221.600; -430.000; -496.000
901.882; -278.200; -790.000; -809.000
902.124;  -49.900;  -29.000; -143.000
902.367; -165.100; -315.000; -361.000
902.609; -197.600; -476.000; -453.000
902.852;  -92.700; -108.000; -260.000
903.094; -160.900; -458.000; -337.000
903.337;   -5.200;  -26.000;   53.000
903.579; -110.800; -228.000; -441.000
903.821; -221.600; -597.000; -744.000
904.064;  -18.000;   85.000;  127.000
904.306;  -79.600; -126.000; -166.000
904.548; -119.000; -152.000; -366.000
904.790; -130.400; -195.000; -340.000
905.033; -187.600; -625.000; -577.000
905.275; -154.600; -513.000; -524.000
905.517;  163.300;  468.000;  256.000
905.759; -111.900; -667.000; -761.000
906.001;  -98.600; -322.000; -369.000
906.243;  -71.200; -162.000; -224.000
906.485;  337.100; -265.000; -207.000
906.727;  195.000; -499.000; -542.000
906.969;   34.700;  -30.000; -135.000
907.211;  310.100; -316.000; -382.000
907.453;  554.200; -188.000; -237.000
907.695;   61.500; -158.000; -385.000
907.936;  187.200;  818.000;  706.000
908.178;  -32.400;   92.000; -135.000
908.420;  -74.400; -111.000; -162.000
908.662; -214.600; -633.000; -682.000
908.903;  -81.700; -208.000; -123.000
909.145;  -29.100; -240.000; -305.000
909.386;  127.800;  315.000;  280.000
909.628;  141.200;  363.000;  397.000
909.870;   96.600;   29.000;  264.000
910.111; -148.800; -809.000; -949.000
910.353;  102.600; -123.000; -161.000
910.594;   40.400; -574.000; -606.000
910.835;  227.500; -265.000; -326.000
911.077;  332.700; -503.000; -604.000
911.318;  602.200; -505.000; -471.000
911.559;  870.900; -577.000; -880.000
911.801; 2788.000; -284.000; -280.000
912.042;23241.600;  -50.000; -159.000
912.283;49764.700;  404.000;  371.000
912.524; 6155.600; -396.000; -457.000
912.765;  971.200; -193.000;   79.000
913.006;  558.400; -307.000; -338.000
913.247;  147.100; -270.000; -290.000
913.488;   63.600;  -43.000;   30.000
913.729;  -81.300; -373.000; -373.000
913.970;  -54.000;  -96.000; -292.000
914.211;  -56.700; -160.000; -198.000
914.452;  -44.900; -118.000;  -11.000
914.693;  134.600;  510.000;  592.000
914.934;  120.100;  510.000;  440.000
915.175;   -8.500;   53.000;  -95.000
915.415;  -80.000; -137.000;   27.000
915.656;  -35.400;  -28.000;  192.000
915.897; -118.400; -252.000;  -82.000
916.137;  -51.500;   74.000;   -9.000
916.378; -171.700; -573.000; -517.000
916.619;  -89.600; -159.000;  -63.000
916.859;   24.800;  303.000;  330.000
917.100;  387.300; 1655.000; 1070.000
917.340;  158.800;  930.000;  728.000
917.581;  199.800;  965.000;  789.000
917.821;   25.200; -171.000;  143.000
918.061;  114.400; -199.000;  -72.000
918.302;  -45.300; -152.000; -211.000
918.542;   20.300;  -22.000;    3.000
918.782;  173.800;  369.000;  377.000
919.023;  350.100;  360.000;  427.000
919.263; 3466.300; 8131.000;  202.000
919.503; 2020.300; -137.000;  -54.000
919.743; 1256.600;  390.000;  266.000
919.983;  508.800; -134.000;  -26.000
920.223;  200.200;  135.000;   14.000
920.463;  363.000;  631.000;  554.000
920.703;  329.400;   84.000;   39.000
920.943;  375.100; -110.000;   90.000
921.183;  471.700; -414.000; -405.000
921.423; 1029.100;  307.000;  546.000
921.663; 1413.100; -174.000; -257.000
921.903; 3062.800;  237.000;  173.000
922.143;18400.300;  372.000;  389.000
922.383;62310.800;  158.000;  115.000
922.622;17159.000; -120.000;  -15.000
922.862; 2170.800;  796.000;  785.000
923.102;  864.700;  -51.000;   33.000
923.341;  429.400;   59.000;   74.000
923.581;  213.300;  450.000;  360.000
923.821;  123.900;  301.000;  398.000
924.060;   73.400;  351.000;  193.000
924.300;  -32.000;  -16.000; -128.000
924.539;   68.200;  584.000;  473.000
924.779;  132.300;  812.000;  597.000
925.018;  -22.500;  247.000;  353.000
925.257;   87.900;  595.000;  666.000
925.497;    9.900;  447.000;  412.000
925.736;  -21.000;  -35.000;  102.000
925.975;   67.600;  687.000;  669.000
926.214;  151.300;  907.000;  850.000
926.454;  131.100;  706.000;  757.000
926.693;   24.500;  419.000;  543.000
926.932;  152.600; 1021.000;  825.000
927.171;  257.900; 1107.000; 1044.000
927.410;  201.600; 1144.000;  967.000
927.649;  133.700;  924.000;  742.000
927.888;   37.200;  590.000;  564.000
928.127;   91.900;  680.000;  678.000
928.366;  166.300;  842.000;  826.000
928.605;  191.800;  831.000;  737.000
928.844;  533.700; 1451.000; 1393.000
929.083; 1246.200;  770.000;  613.000
929.321;  630.600; 1335.000; 1359.000
929.560;  279.900; 1158.000; 1122.000
929.799;   29.700;  574.000;  475.000
930.038;  301.700; 1025.000; 1394.000
930.276;   -5.300;  334.000;  397.000
930.515;  120.100;  827.000;  681.000
930.753;   41.000;  614.000;  589.000
930.992;   81.700;  664.000;  717.000
931.230;   83.700;  847.000;  847.000
931.469;  452.000; 2162.000;  892.000
931.707;  198.900;  840.000;  751.000
931.946;  238.100; 1278.000; 1344.000
932.184;  226.300; 1437.000; 1175.000
932.423;  175.800; 1265.000;  963.000
932.661;  299.700; 1296.000; 1428.000
932.899;  169.900;  987.000;  821.000
933.137;  110.500;  754.000;  564.000
933.376;  392.500; 1664.000; 1335.000
933.614;  397.800; 1759.000; 1196.000
933.852;  218.400; 1357.000; 1171.000
934.090;  344.000; 1722.000; 1747.000
934.328;  305.900; 1252.000; 1457.000
934.566;  216.200; 1431.000; 1110.000
934.804;  366.200; 1263.000; 1309.000
935.042;  997.900; 1861.000; 1850.000
935.280; 3807.500; 2088.000; 2063.000
935.518; 3061.400; 2113.000; 2007.000
935.756;  793.000; 2481.000; 2316.000
935.994;  398.500; 1808.000; 1751.000
936.231;  822.400; 2890.000; 2950.000
936.469;  489.600; 2367.000; 2378.000
936.707;  412.400; 2220.000; 2167.000
936.945;  581.000; 2825.000; 2882.000
937.182;  559.600; 2679.000; 2741.000
937.420;  677.500; 3602.000; 3031.000
937.657;  983.500; 3365.000; 3478.000
937.895;  813.800; 3331.000; 3488.000
938.133;  722.800; 3540.000; 3528.000
938.370;  737.900; 3896.000; 4191.000
938.607;  925.400; 4488.000; 4205.000
938.845; 1207.900; 5587.000; 5549.000
939.082; 1076.500; 5387.000; 5177.000
939.320; 1193.900; 5799.000; 5728.000
939.557; 1392.300; 6549.000; 6491.000
939.794; 1565.600; 7285.000; 7097.000
940.031; 1952.400; 8421.000; 8368.000
940.269; 2378.600; 9552.000; 9107.000
940.506; 2312.700;10901.000;10507.000

