
Integration time [ms]: 100.000
Averaging Nr. [scans]: 40
Smoothing Nr. [pixels]: 0
Data measured with spectrometer [name]: 2101013U2
Wave   ;Sample   ;Dark     ;Reference
[nm]   ;[counts] ;[counts] ;[counts] 

394.013;   57.147; -450.257; -315.536
394.305;  201.745; -461.258; -419.536
394.596; 1135.592; -676.269; -527.514
394.887; 2779.808; -796.268; -654.518
395.178; 1072.439;  145.736;   11.476
395.470;   83.225; -210.263; -356.526
395.761;  197.748;  305.734;  394.479
396.052;  299.941; -545.284; -306.489
396.343;  289.436; -557.276; -454.503
396.634;  113.705; -200.279; -290.497
396.926;  106.981; -618.268; -565.517
397.217;  102.916;   11.725;  -17.504
397.508;   32.532; -366.273; -154.507
397.799;   34.580; -555.279; -571.497
398.090;    3.574; -973.280; -902.495
398.381;  104.141;   11.708;  -11.473
398.672;   -7.632; -585.292; -742.473
398.963;   44.661; -348.279; -373.498
399.254;  101.102;   54.709; -209.475
399.545;  -33.930;-1017.266; -883.520
399.836;   55.100; -407.277; -343.501
400.127;   56.818; -205.295; -209.468
400.418;   60.801; -423.274; -392.506
400.709;   56.511; -359.281; -333.493
401.000;   43.006; -268.291; -309.476
401.290;   95.404;  225.698;  115.545
401.581;   70.449; -166.286; -228.485
401.872;   21.065; -542.298; -486.462
402.163;   49.085; -313.296; -252.467
402.454;   82.027; -123.291; -163.475
402.744;   64.227; -844.297; -813.465
403.035;  410.558; -226.293;  -86.471
403.326;  536.195; -366.292; -384.474
403.617;  379.459;  204.701;  165.539
403.907;  245.597; -593.283; -679.490
404.198; 2457.308; -545.307; -599.446
404.489; 6350.677; -618.283; -588.491
404.779; 2031.033; -618.302; -660.456
405.070;  216.686;  -67.304; -174.451
405.360;  334.610; -259.293; -238.472
405.651;  371.369;  125.699;   98.542
405.942;  183.269;  209.714;  127.516
406.232;  234.634; -432.285; -413.487
406.523;  443.278;  641.706;  758.530
406.813;   82.547; -579.286; -644.484
407.104;  317.040;  261.708;  144.527
407.394;  168.635; -604.299; -591.462
407.685;  151.058;  336.715;  222.513
407.975;   53.901; -400.283; -382.490
408.265;  104.142; -134.289; -190.478
408.556;   62.974; -472.291; -459.475
408.846;  164.803;  474.706;  429.530
409.137;   83.375;   -1.288; -216.480
409.427;   49.359; -193.285; -271.487
409.717;   28.585; -776.273; -692.508
410.007;  128.852;    4.715; -170.486
410.298;   81.570; -360.295; -342.469
410.588;   73.456; -495.285; -510.486
410.878;   24.211; -792.287; -873.482
411.168;  126.192; -481.298; -478.463
411.459;  116.270; -295.283; -242.489
411.749;   50.873; -609.292; -507.474
412.039;   65.098; -755.289; -386.480
412.329;  204.743;   40.722;  132.501
412.619;  194.247;  -62.286; -148.485
412.909;  368.120;  639.711;  594.521
413.199;  310.725; -130.280; -251.495
413.490;  394.385;  521.710;  352.523
413.780;  135.504;-1013.279; -913.496
414.070;  328.687;  -46.276;  235.497
414.360;  382.639; -729.278; -666.498
414.650;  412.857; -726.288; -688.482
414.940;  525.378; -538.280; -441.496
415.230;  928.979;   50.712;   74.519
415.520; 6151.866;  155.730;   66.486
415.809;24339.811; -305.281; -125.493
416.099;18740.328; -388.277; -229.501
416.389; 5262.199;  435.726;  236.494
416.679; 3103.354;   91.738;   85.473
416.969;  533.816; -527.287; -503.483
417.259;  463.980;  341.721;  171.503
417.549;  680.935;  522.718;  318.508
417.838; 1680.208; -205.268; -147.518
418.128; 5583.265;  650.710;  492.522
418.418; 4637.441; -491.272; -579.509
418.708; 3161.924;    9.726;  -48.506
418.997;11846.770; -474.275; -480.505
419.287;12404.631; -733.273; -790.507
419.577;11804.520; -160.283; -123.489
419.866;38977.800; -588.277; -498.501
420.156;39632.037; -242.270;  -55.513
420.446; 7048.221; -112.263;  -26.526
420.735;  844.881; -376.271; -446.512
421.025;  850.689; 1830.722;  315.502
421.314;  637.204; -203.271; -226.512
421.604; 1342.925;   89.732;  233.484
421.893;  783.775; -705.271; -602.511
422.183;  221.996; -487.263; -461.526
422.472;  385.027;  -36.271; -107.511
422.762;  439.101; -416.266; -379.521
423.051;  262.163; -916.276; -916.503
423.341;  302.183; -491.273; -439.507
423.630;  402.857; -121.265;   15.477
423.919;  384.844;   58.725;   49.495
424.209;  369.477;  -31.263;   56.473
424.498;  496.830;   68.732;  161.483
424.787; 1109.236; -535.267; -601.518
425.077; 3383.705;   34.735;   29.478
425.366; 4741.732; -734.262; -744.528
425.655;10154.858;  639.727;  259.493
425.945;22433.311; -313.247; -268.554
426.234;12295.480;  117.741;  300.467
426.523; 5092.960;  -86.259; -350.534
426.812; 7069.046;  107.734;  159.480
427.101;10486.372; -127.269; -323.515
427.390;13160.266;  -55.270;  -86.514
427.680; 2914.605; -624.257; -411.538
427.969;  476.691; -330.255; -301.540
428.258;  311.271; -385.257; -477.536
428.547;  539.195;  449.728;  397.490
428.836; 1220.557; -421.253; -398.543
429.125; 1738.612; -199.259;  -72.534
429.414;  770.779; -330.251; -294.548
429.703; 3166.029; -231.251; -213.548
429.992; 9565.858; -938.250; -828.549
430.281; 6200.614; -397.264; -331.524
430.570;  551.945;  -21.252;   32.454
430.859;  539.035;  279.741;  352.466
431.148;  418.057;  636.752;  631.446
431.437;  280.994;  391.748;  367.454
431.725;  149.348; -544.257; -481.536
432.014;  133.114; -845.253; -756.545
432.303;  374.258; -149.239; -105.569
432.592;  604.021; -460.263; -178.525
432.881; 1054.658; -601.248; -437.554
433.169; 6374.816; -343.255;  -61.540
433.458;12879.866;  445.765;  540.424
433.747; 5329.763; -397.261; -289.529
434.036;  859.858; -275.242; -280.564
434.324; 2095.070; -395.249; -379.551
434.613; 3682.877;   40.757;  159.437
434.902; 1207.523;  333.760;  439.433
435.190;  525.256;   75.761;  295.431
435.479;  298.159;  -52.245;   83.441
435.767;  108.467; -411.244; -427.561
436.056;  201.829; -340.242; -294.563
436.345;  376.875; -372.240; -223.568
436.633;  379.416;   60.750;  383.450
436.922;  240.177;  208.760;  414.432
437.210;  536.331; -194.236;    1.426
437.499; 1704.789; -583.235; -432.576
437.787; 1871.581; -339.236;  -10.574
438.075;  497.812;   56.761;  162.430
438.364;  658.264;  -44.238;  250.429
438.652;  397.769; -286.226; -138.592
438.941;  148.658;    3.770;  269.415
439.229;   -9.958; -665.252; -466.545
439.517;   30.348; -160.234;  -85.577
439.806;    1.235; -501.225; -290.595
440.094;  161.780;  377.766;  650.421
440.382;  159.734; -653.233; -302.580
440.670;  196.364; -361.235; -285.576
440.959;   17.602; -347.223; -170.599
441.247;   63.095; -151.229; -109.587
441.535;  104.296; -266.235;   31.423
441.823;   36.053; -497.234; -305.578
442.111;  180.474;  173.771;  327.412
442.400;  488.108; -628.245; -335.559
442.688; 1247.780; -111.234; -620.579
442.976;  891.390; -786.213; -450.617
443.264;   90.766; -324.224; -364.597
443.552;   84.045; -258.226;   51.408
443.840;  157.995;  602.765;  876.423
444.128;  112.833;  265.767;  269.420
444.416;   12.751; -694.228; -312.588
444.704;   20.282; -465.219;  -92.605
444.992;   53.423;   -0.226;  240.407
445.280;   48.409; -517.230;  -94.585
445.568;   43.593; -694.212; -396.618
445.856;  317.516; -174.221;  357.398
446.143;  714.403;  -54.220;   -7.604
446.431;  571.030;  -25.228;  625.411
446.719;  231.526;  489.783;  675.391
447.007;  175.403;  481.769;  705.416
447.295;  178.324;  597.777;  871.402
447.583;   80.517; -464.229;  -34.587
447.870;  138.738; -434.221; -202.601
448.158;  397.983; -104.230;  129.415
448.446;  294.654; -800.219; -338.604
448.733;  166.643;   13.776;  269.403
449.021;  230.418;   60.788;  341.382
449.309;  186.783; -296.210;  208.379
449.596;  211.422;  128.783;   59.392
449.884;  141.556; -571.222; -325.600
450.172;  152.110; -756.227; -406.590
450.459;  449.173;  645.786;  780.387
450.747; 2430.921; -411.218; -147.608
451.034; 7870.206;  493.772;  889.411
451.322; 6479.701; -413.214; -170.614
451.609;  551.419;  292.777;  508.403
451.897;  599.971; -550.203; -183.634
452.184; 1836.099; -622.223; -400.598
452.472; 1702.779;   97.792;  269.375
452.759;  343.655;  512.781;  864.395
453.047;  114.565; -407.212; -125.617
453.334;   69.387; -732.219; -216.606
453.621;   73.778; -438.214; -161.615
453.909;  120.963;   13.796;  384.368
454.196;   98.708; -299.199; -123.641
454.483;  201.159;  317.798;  540.364
454.771;  127.932; -215.208;  196.374
455.058;   44.460; -316.207;  102.374
455.345;  115.988;   71.807;  344.347
455.632;   87.239; -128.207;  235.373
455.919;   45.555;  -82.196;  182.354
456.207;  -63.913; -774.198; -450.642
456.494;   -7.029; -475.200;  -66.639
456.781;   -2.846; -399.202; -198.635
457.068;   51.870; -253.206;  -29.628
457.355;   -1.254; -698.206; -401.629
457.642;    1.277; -552.205; -290.630
457.929;   -2.496; -778.194; -417.651
458.216;   66.591; -575.212; -354.617
458.503;  243.884; -173.193;  -19.652
458.790;  237.205; -864.208; -630.625
459.077;  267.209;  -77.202;  110.364
459.364;  807.122; -350.195; -210.649
459.651; 1710.943;  -46.206;  220.372
459.938;  801.095; -864.209; -665.623
460.225;  145.362;  132.799;  276.363
460.512;  -52.522; -836.197; -688.645
460.799;   89.669;  -32.218;  320.392
461.086;   55.750; -370.200; -251.640
461.372;   34.138; -509.198; -279.642
461.659;  114.632; -165.196;  108.354
461.946;   50.557; -445.193;  -54.651
462.233;  237.148;  842.800;  888.361
462.519;  344.345; -814.201; -464.639
462.806; 1014.903; -768.197; -497.645
463.093;  886.878; -445.191;  -66.656
463.380;  -13.381; -920.186; -824.664
463.666;   53.055; -259.197;  -18.646
463.953;  110.842; -406.195; -243.648
464.239;  208.917; -173.195;  -77.648
464.526;  387.453;  413.806;  743.350
464.813;  344.940; -565.190; -304.658
465.099;  357.133;  606.807;  607.348
465.386;  322.487;  903.807;  921.348
465.672;   24.178; -694.197; -522.645
465.959;   14.982; -598.188; -520.662
466.245;   15.962; -468.193; -359.652
466.532;   76.490; -109.195;   63.352
466.818;   61.669; -357.186; -216.664
467.104;    0.359; -488.182; -415.672
467.391;  -19.184; -628.189; -459.658
467.677;   27.747; -289.186;    9.335
467.964;   11.523; -682.189; -471.660
468.250;   43.975; -331.186; -160.665
468.536;   77.918;   90.811;  180.341
468.822;  -32.863; -821.184; -574.668
469.109;  137.014;  351.827;  471.311
469.395;  183.022;  729.808;  787.346
469.681;  203.846;   46.811;  156.341
469.967; 1270.350; -699.188; -382.660
470.254; 2755.258; -494.188; -306.662
470.540; 1752.405; -601.196; -476.646
470.826;  243.995; -488.181; -397.675
471.112;  311.741;  288.816;  113.331
471.398;   79.095; -253.183;  -58.670
471.684;   35.273; -626.177; -447.680
471.970;   -2.576; -918.180; -981.675
472.256;   23.121; -521.192; -441.654
472.542;    9.825; -499.171; -434.691
472.828;   -1.995; -743.182; -607.672
473.114;   25.069; -380.166; -283.700
473.400;    3.115; -504.175; -293.684
473.686;   29.125; -452.166; -400.701
473.972;   46.504; -230.174; -131.687
474.258;  -40.535; -925.173; -843.689
474.544;  205.265; -183.178;   -2.679
474.830;  323.266;  -65.175;   45.316
475.116;  519.916; -123.190; -196.658
475.401;  687.601; -558.180; -467.676
475.687;  201.850; -725.180; -718.676
475.973;    3.763; -673.181; -770.673
476.259;  232.544;  736.825;  764.315
476.544;  372.606; -539.176; -437.682
476.830;  860.671; -398.172; -322.690
477.116;  745.580; -430.177; -336.682
477.401;  135.126;  346.820;  358.324
477.687;  -15.860; -289.175; -405.684
477.973;   36.966;   21.819;   28.326
478.258;   -0.630; -448.163; -348.706
478.544;   38.080;   21.815;   61.334
478.829;  -63.744; -818.171; -738.692
479.115;  -57.754; -749.172; -651.690
479.401;  -18.950; -444.174; -449.686
479.686;   36.799; -253.180;  -74.676
479.972;  -35.280; -886.178; -776.680
480.257;   29.645; -258.166;  -65.700
480.542;   -0.165; -614.170; -469.693
480.828;  217.313; 1288.824; 1392.317
481.113;  -39.114; -464.176; -426.683
481.399;   -3.306; -236.161; -202.711
481.684;  -61.305; -620.166; -462.700
481.969;   12.183; -158.159;  -73.713
482.255;  -16.155; -439.169; -285.695
482.540;   -6.605; -569.178; -441.680
482.825;   -0.511; -395.187; -404.663
483.110;   87.749;  -85.169; -105.696
483.396;  204.179; -840.157; -652.718
483.681;  517.779;  543.826;  730.313
483.966;  175.902; -696.160; -700.712
484.251;    2.803; -404.174; -310.687
484.536;  -17.895; -356.165; -378.703
484.822;   10.556; -205.173; -218.687
485.107;  -29.333; -599.152; -502.726
485.392;  113.561;  662.836;  541.296
485.677;   65.608;  354.832;  163.302
485.962;   94.252;  160.843;  270.283
486.247;   77.353;  -14.162;   -8.707
486.532;   28.521; -178.166; -325.701
486.817;  172.139;  381.839;  431.291
487.102;  120.375; -453.154; -514.722
487.387;  695.806; -637.156; -652.718
487.672; 1226.591; -154.164;  -38.705
487.957;  761.246; -394.160; -286.711
488.241;  193.084; -290.150; -314.729
488.526;  751.544; -280.152; -148.726
488.811; 1226.247; -881.177; -818.680
489.096;  917.503; -666.154; -702.723
489.381;  500.015;    3.847;  162.275
489.666;  402.294; -428.161; -510.710
489.950;  171.731;  558.846;  627.277
490.235;  -35.396; -480.151; -458.728
490.520;  -41.732; -756.161; -723.710
490.804;  -59.617; -827.156; -736.719
491.089;    2.075; -469.149; -299.732
491.374;   32.940; -132.164;  -75.704
491.658;   -2.389; -817.147; -717.735
491.943;  161.023; -657.152; -609.727
492.227;  239.021; -178.155;  -38.721
492.512;   39.751; -294.157; -341.717
492.797;  -68.357; -713.149; -716.731
493.081;  -54.761; -588.147; -598.735
493.366;  -38.405; -751.161; -635.711
493.650;  198.567;  831.859;  917.254
493.935;   26.835; -648.147; -447.734
494.219;  -39.021; -778.142; -687.743
494.503;  -58.787; -585.150; -487.730
494.788;   45.518;   46.842;   74.285
495.072;   98.535;  184.850;  434.271
495.356;  162.853; -463.148; -343.733
495.641;  479.745; -812.146; -736.736
495.925;  442.788; -976.156; -903.719
496.209;   33.524; -599.149; -451.732
496.494;  -42.470; -763.142; -544.744
496.778;   -6.575; -364.154; -360.722
497.062;  -57.088; -819.156; -627.719
497.346;  -31.052; -869.160; -640.711
497.631;  150.606;  580.852;  560.266
497.915;   62.081;  -64.145;  175.261
498.199;   44.354; -341.157; -277.718
498.483;   51.867; -562.152; -508.725
498.767;  197.911;  301.850;  300.271
499.051;  190.797; -126.149; -100.732
499.335;   36.295; -693.149; -739.731
499.619;  -29.007; -381.129; -423.767
499.903;   33.145; -272.155;  -65.721
500.187;   27.307; -588.153; -316.724
500.471;   -2.403; -796.152; -595.727
500.755;  106.068;   62.839;  -96.710
501.039;   19.970; -270.155; -357.721
501.323;   71.443;  -21.141;  264.254
501.607;   32.896; -447.163; -503.706
501.891;  -13.794; -607.156; -512.718
502.174;  -44.208; -726.144; -585.741
502.458;   64.601;   89.849;  370.273
502.742;   20.342; -180.138; -191.751
503.026;  123.285; -412.147; -254.734
503.310;  165.307; -437.159; -375.713
503.593;  131.287; -464.147; -325.735
503.877;  123.507; -232.133; -156.760
504.161;  184.685;    2.847;  -50.724
504.444;  145.895; -841.158; -710.716
504.728;  485.364; -487.164; -522.704
505.012;  725.308; -257.150;  -76.729
505.295;  552.969; -417.161; -212.711
505.579;  540.837; -256.156; -496.719
505.862;  790.827; -555.145; -333.738
506.146;  767.059; -681.159; -758.714
506.429;  420.309;  568.841;  461.286
506.713;   67.330; -732.151; -667.728
506.996;  322.275;   90.846;  295.278
507.280;  354.584; -633.165; -474.703
507.563;  243.343; -469.155; -261.721
507.847;   98.408; -423.153; -112.724
508.130;   92.095; -665.161; -456.711
508.413;  123.966; -758.167; -577.700
508.697;  265.191; -151.167;   12.300
508.980;  156.735; -422.153; -312.724
509.263;   -7.935; -466.155; -450.720
509.547;   25.958; -124.150;   82.271
509.830;   50.522; -172.160;  140.289
510.113;   87.287;  128.844;  298.281
510.396;   32.090; -530.152; -300.725
510.680;  147.178; -818.145; -812.738
510.963;  563.929;  184.846;  180.277
511.246;  479.541; -493.150; -357.730
511.529;  271.733; -482.145;  -83.739
511.812;  399.879; -250.134;   10.241
512.095;  284.402; -740.151; -396.728
512.378;   79.941; -317.147; -245.736
512.661;   34.450; -703.137; -623.753
512.944;   34.156; -750.142; -637.744
513.227;   63.422; -170.137; -171.752
513.510;   20.367; -479.144; -671.741
513.793;   26.023; -485.140; -435.747
514.076;  138.413;  -43.127;  -39.771
514.359;  121.275; -294.149; -135.732
514.642;   94.034; -442.142; -567.744
514.925;  770.821;  581.860;  561.253
515.208; 1060.800; -498.134; -443.758
515.491;  692.939; -276.133; -182.761
515.773;  384.371; -410.143; -337.742
516.056; 2187.606;  249.864;  409.246
516.339; 2924.435; -754.136; -652.755
516.622; 1923.838; -518.150; -488.730
516.904; 1186.628;  882.857;  975.257
517.187;  525.821; -730.138; -523.752
517.470;  394.576; -568.143; -510.743
517.752;  451.913; -624.136; -470.756
518.035;  360.308; -708.139; -725.749
518.318;  392.885; -799.136; -744.755
518.600; 2539.818; -300.132; -325.762
518.883; 3474.008;  310.858;   88.256
519.165; 1697.114; -585.138; -426.751
519.448;  386.892;  -61.132;  -19.762
519.730;  206.371; -573.126; -415.773
520.013;  306.735;  588.867;  664.240
520.295;  782.231;  -94.134;  -15.759
520.578; 1744.655; -335.131; -305.764
520.860; 1985.118; -254.132;   56.238
521.143; 1037.740; -763.135; -584.756
521.425;  482.409; -251.125; -279.775
521.707;  697.614; -622.127; -380.771
521.990; 1833.414; -199.127;  167.229
522.272; 2083.199; -116.140;   -4.748
522.554;  930.921; -237.143; -157.742
522.836;  337.254;  -24.134;   99.241
523.119;  238.934; -496.148; -189.734
523.401;  149.912; -448.130; -314.766
523.683;  102.025; -865.137; -693.753
523.965;  287.519;  408.862;  260.248
524.247;  287.280;   54.878;  170.220
524.529;  204.031; -451.134; -367.759
524.812;  361.189;   -3.130;  191.234
525.094;  901.718; -773.138; -631.751
525.376; 1418.918; -143.124;   78.223
525.658;  882.332; -441.136; -339.754
525.940;   21.327; -805.131; -671.764
526.222;   31.486; -188.136;  -88.755
526.504;  101.700; -190.131;   32.237
526.786;  163.508; -960.133; -647.760
527.068;  279.698; -124.123;  -67.778
527.349;  119.479; -865.137; -774.754
527.631;  130.342; -137.132;   22.238
527.913;  134.838; -664.127; -450.771
528.195;  178.952; -761.125; -639.774
528.477;  249.701;  -93.134;  -30.758
528.759;  139.014; -648.130; -522.766
529.040;   69.622; -569.123; -293.778
529.322;   58.504; -235.125;  -10.774
529.604;  131.241;  -47.130;   93.233
529.886;  142.895; -546.126; -302.773
530.167;  116.408;  232.870;  192.235
530.449;   40.415;    1.853;   63.265
530.731;   19.604; -572.122; -459.779
531.012;   84.950; -513.120; -216.784
531.294;   74.064; -118.116;  -43.792
531.575;  155.659;  290.875;  538.225
531.857;   52.820; -548.135; -266.757
532.138;   89.767; -113.141;   40.254
532.420;  178.542;  294.865;  403.244
532.701;  206.060; -722.133; -751.760
532.983;  343.688;  232.867;  182.239
533.264;  115.344; -243.126;  175.228
533.546;  -34.914; -491.136; -508.755
533.827;   43.907;  173.867;   -1.759
534.109;   44.745; -352.135;  -80.757
534.390;   91.171; -725.132; -582.762
534.671;  249.191; -270.135;  -82.756
534.953;  151.175; -751.123; -611.779
535.234;   22.074; -426.117; -255.789
535.515;  -68.667; -891.119; -735.785
535.796;  -20.441; -431.128; -193.770
536.078; -127.583;-1050.124; -904.777
536.359;    4.275;  -22.123;    3.221
536.640;   -6.322; -480.125; -197.774
536.921;  155.546;  225.871;  143.232
537.202;  395.090;  -87.138;  -16.751
537.483;  473.530;  251.869;  377.236
537.764;  186.933;   17.870;   98.235
538.045;  -33.725; -543.134; -371.758
538.326;  -28.602; -596.129; -447.768
538.607;   21.765; -686.127; -476.771
538.888;  180.516;   98.879;    5.218
539.169;  193.385; -704.122; -535.781
539.450;  346.545;  236.871;   16.233
539.731;  221.445; -361.121; -182.783
540.012;  135.375;  199.880;  412.216
540.293;   76.137;   82.876;  158.224
540.574;    2.859; -895.113; -717.796
540.855;  447.043;  435.879;  377.218
541.136;  549.158;   47.878;  139.220
541.416;  289.790; -161.130; -220.766
541.697;  200.800; -274.131; -170.763
541.978; 1068.344; -270.135; -315.757
542.259; 1359.839; -211.127; -236.771
542.539;  657.607; -191.116; -186.790
542.820;  184.458;  461.875;  480.225
543.101;  129.105;  -52.145;  -77.738
543.381;   42.439; -638.127; -591.771
543.662;  245.387;  159.873; -254.771
543.942;  591.435; -751.127; -830.770
544.223; 1096.484;  193.878;  161.219
544.504;  722.667; -275.124; -182.777
544.784;  608.145; -592.126; -408.773
545.065; 1681.761;  104.884; -254.791
545.345; 2000.883;  227.881;   14.215
545.626; 1319.008;  -14.113; -108.796
545.906;  931.482;   77.869;   98.235
546.186;  382.175;   92.874;  -95.773
546.467;  208.570;   99.877;  -95.778
546.747;  342.732;  264.884;  327.210
547.027;  388.041;   91.876;  111.223
547.308;  354.684; -376.127; -530.770
547.588;  400.749;  299.871;  371.232
547.868;  195.159;  458.870;  588.235
548.149;  197.994;  609.885;  593.207
548.429;  127.913; -347.127; -299.771
548.709;  215.474; -645.120; -461.784
548.989;  502.093;   84.882;   88.213
549.269; 2189.616;   10.868;  139.239
549.550; 5046.199;  215.877;  117.222
549.830; 4447.526; -758.111; -556.799
550.110;  888.759; -468.110; -320.801
550.390;  854.929; -128.122;  -56.779
550.670; 1170.804; -868.114; -783.795
550.950;  840.043; -509.121; -471.782
551.230;  190.164;  549.879;  460.218
551.510;    2.267; -381.121; -326.782
551.790;   28.892; -173.109; -127.803
552.070;  261.320;  940.877; 1181.223
552.350;  402.912; -492.119; -377.786
552.630;  618.087;   -2.121;   77.219
552.909;  383.512;  181.884;   73.209
553.189;  227.447;  -49.132;   33.237
553.469;  210.812; -703.119; -514.786
553.749;  201.566; -469.127; -357.772
554.029;  175.903;   33.883;  -24.790
554.308;  155.398; -154.115;  -37.794
554.588;   57.483; -196.128; -204.770
554.868;   58.819; -366.121;  -47.782
555.147;  164.970; -114.115;  -46.793
555.427;  627.539; -260.116; -250.792
555.707; 4018.343; -284.115; -200.793
555.986; 4906.005; -719.111; -538.800
556.266; 2601.831;   23.884;   72.210
556.546;  121.117; -888.121; -675.782
556.825;  262.702; -657.114; -556.794
557.105; 1883.006; -125.128;   17.230
557.384; 2157.511;  122.884;  187.209
557.664;  838.063; -717.116; -508.792
557.943;  125.243; -557.121; -411.782
558.222;  187.546; -345.118; -344.788
558.502;  290.171; -116.115;  -76.793
558.781;  508.092;  194.885;  499.208
559.061;  430.145; -232.118; -227.788
559.340;  312.725;  302.883;  353.211
559.619;  740.831;   93.884;  148.210
559.899; 1084.277; -239.117; -266.789
560.178;  976.421; -778.115; -593.793
560.457; 3279.579; -623.117; -562.790
560.736; 4556.306; -472.111; -482.800
561.015; 3030.829; -500.128; -502.769
561.295;  385.486;  180.893;  215.193
561.574;  339.243;  119.885;  116.207
561.853;  506.971;  274.891;  303.197
562.132;  522.948;  -45.114;  182.206
562.411;  459.087;  396.879;  553.219
562.690;  155.467; -592.115; -458.792
562.969;  143.791;  472.888;  630.203
563.248;  494.660; 2966.878; 2487.219
563.527;  288.030; -290.111; -408.800
563.806;  406.413; -650.127; -521.771
564.085;  444.201; -297.105; -206.810
564.364;  246.280; -594.117; -405.790
564.643;  527.188; -276.121; -223.781
564.922; 1953.540;  221.890;  397.198
565.201; 1979.643; -640.109; -700.803
565.479;  848.965; -297.115; -219.792
565.758;  337.131; -810.128; -712.770
566.037;  492.320; -155.109; -100.803
566.316;  239.511; -286.116;  -28.791
566.595;   51.343;  -17.115;  -12.793
566.873;   90.057; -166.111;  -79.801
567.152;  -70.260; -490.113; -590.797
567.431;    7.907; -113.116;    6.210
567.709;   23.487; -344.107; -212.807
567.988;  268.627; -810.114; -769.794
568.266;  571.168; -160.115;  -68.793
568.545;  402.573; -644.100; -514.819
568.824;  595.040;  160.885;  356.208
569.102;  570.226; -351.114; -235.794
569.381;  240.114; -492.116; -407.792
569.659;  -43.664; -553.113; -553.796
569.938;   29.233; -743.122; -465.780
570.216;  112.397; -225.109; -225.804
570.494;  -19.895; -632.114; -572.795
570.773;   47.716;  202.879;  114.218
571.051;   12.598; -373.123; -357.778
571.330;   60.459; -221.113; -174.796
571.608;   44.566; -181.098; -173.823
571.886;  -69.726; -671.111; -581.799
572.164;  -69.331; -739.121; -621.782
572.443;  -56.670; -562.105; -512.811
572.721;  -44.871; -399.117; -289.790
572.999;  -22.277; -280.117; -168.788
573.277;   84.174;  379.894;  620.191
573.555;  296.401;   94.894;   37.190
573.834; 1436.172;  -86.117; -114.788
574.112; 1645.214;  880.893;  811.193
574.390;  504.281; -143.111;  -96.801
574.668;    7.391;  -91.112;  -61.797
574.946;  -16.099; -165.106; -187.810
575.224;   -3.707;   71.891;  -16.803
575.502;  -21.191; -200.116; -204.791
575.780;  -91.558; -767.112; -829.798
576.058;  228.855; 1589.889; 1004.200
576.336;  -13.739; -210.110; -129.801
576.614;  -49.557; -511.112; -340.798
576.891;   65.222; -711.115; -823.794
577.169;  513.730; -158.108; -285.805
577.447;  617.113;  169.893;  202.193
577.725;  275.472;  629.888;  854.201
578.003;    9.495;  -71.112; -371.798
578.280;   98.464; -208.104; -242.812
578.558;   54.821; -450.115; -422.793
578.836;  117.504; -210.114; -145.795
579.114;   61.341; -630.112; -670.797
579.391;   62.774;   -6.117;  -18.789
579.669;  -89.827; -595.114; -704.794
579.947;  175.210; -326.107; -127.806
580.224;  333.610; -692.107; -524.806
580.502;  327.139;  127.893;   76.193
580.779;   32.705;  -42.117;   75.210
581.057;  -59.228; -584.109; -470.804
581.334;  -97.096; -726.102; -695.815
581.612;   42.027;   54.895;  511.190
581.889;  -33.883;  -83.101; -129.818
582.167;  -33.944; -298.099; -190.821
582.444;  -94.588; -845.102; -814.817
582.721;  102.062;  657.899;  715.183
582.999;   53.329; -326.100; -167.821
583.276;  532.627; -812.123; -713.779
583.553;  762.132; -364.102; -294.816
583.831;  249.661; -607.104; -631.812
584.108;   55.453;  349.892;  174.195
584.385;    8.278; -122.102;  -98.815
584.662;  -65.692; -651.111; -828.801
584.940;   19.307;  204.889;  204.199
585.217;  -28.889;  -73.113; -303.796
585.494;   32.066;   71.890;  118.198
585.771;  223.123; -250.109; -354.804
586.048;  521.886; -196.113;  -76.796
586.325;  336.435; -721.110; -773.801
586.602;   93.289;  230.896;  213.188
586.879;  -10.100; -499.100; -580.820
587.156;   47.653; -156.105; -331.810
587.433;  -23.865; -701.102; -667.817
587.710;   72.793;  152.888;  234.202
587.987;  291.608; -264.105; -236.811
588.264;  803.445;  315.888;  387.202
588.541; 1357.742;  -61.104;   26.187
588.818; 2710.450;   72.892;  171.196
589.095; 2368.162; -163.104; -174.812
589.371;  398.896; -459.109; -414.804
589.648;   14.689; -581.107; -437.807
589.925;   31.130; -517.114; -621.795
590.202;   29.768; -741.112; -607.798
590.478;   84.085; -166.105;  -73.811
590.755;  260.656; -241.108; -132.806
591.032; 2536.362; -741.110; -699.802
591.308; 3561.606; -732.094; -790.831
591.585; 1830.537; -573.110; -560.802
591.862;  150.511;-1056.102; -950.817
592.138;   65.079; -475.108; -474.805
592.415;  148.465; -486.104; -495.813
592.691; 1487.013;  460.896;  518.188
592.968; 1923.693; -208.098; -123.824
593.244;  918.757; -695.116; -595.790
593.521;   69.736; -105.102;  -42.817
593.797;  -16.320; -810.122; -720.780
594.074;  341.856; -611.096; -588.826
594.350;  660.717;  828.905;  729.172
594.626;  314.808; -303.111; -283.801
594.903;  132.137; -643.101; -645.817
595.179;  205.844;  243.896;  418.187
595.455;   -0.035; -136.107; -150.807
595.731;    8.121;  -19.103;  -38.814
596.008;  -35.173; -464.111; -434.800
596.284;   36.727; -187.100; -242.820
596.560;   71.412; -501.093; -493.833
596.836;  217.055; -173.105;  -70.810
597.112;  363.230; -582.108; -437.805
597.388;  303.578;  -49.097;  -48.826
597.665;  104.963;  437.887;  530.203
597.941;  -60.108; -572.089; -658.839
598.217;   26.790; -323.110; -293.802
598.493;  267.775;   61.891; -204.804
598.769;  528.997; -175.100;  -50.819
599.045;  317.483; -490.108; -562.806
599.321;   52.176; -193.100; -261.820
599.597;  169.899; -355.109; -476.804
599.872;  496.592;  409.896;  429.187
600.148;  362.180;  -61.097; -172.826
600.424;  306.037;   91.893;  202.193
600.700;  256.040; -170.107; -280.807
600.976;  130.024; -442.097; -464.825
601.252;  254.796; -226.109; -272.803
601.527;  229.468; -833.104; -840.813
601.803;  160.035; -453.105; -404.812
602.079;  189.122; -124.100; -118.819
602.354;  583.297; -620.092; -531.835
602.630;  837.761; -140.113; -482.796
602.906; 2404.142; -910.101; -863.818
603.181; 6942.587; -627.119; -534.786
603.457; 5942.403;   98.903; -278.826
603.733;  877.270; -605.120; -626.783
604.008;  996.926; -245.106; -164.810
604.284; 3144.388; -636.101; -580.817
604.559; 2746.847;   -3.112;  -42.799
604.835;  511.779; -163.105; -225.810
605.110;  421.757; -732.099; -892.821
605.385;  718.465;  224.907;  267.167
605.661;  671.444; -625.095; -729.829
605.936; 1197.683; -664.108; -737.806
606.211; 1021.877;  -17.103; -170.815
606.487;  212.125; -329.114; -376.794
606.762;   37.137; -791.119; -745.786
607.037;  -28.170; -501.105; -433.810
607.313;  -50.262; -589.096; -574.828
607.588;   -9.474; -375.106; -137.810
607.863;   46.542;  -28.101; -143.818
608.138;  185.539;  513.890;  516.198
608.413;   40.011; -576.099; -592.822
608.688;   48.554; -203.108; -267.805
608.964;  201.945; -509.106; -218.809
609.239;  246.452; -107.105; -212.810
609.514;  256.735;  281.895;  240.188
609.789;  648.839; -187.104; -716.812
610.064;  892.886; -435.096; -609.827
610.339;  908.021; -855.109; -799.804
610.614; 1242.727; -131.100; -315.820
610.889;  697.435;  215.895;  107.188
611.163;   32.086; -407.104; -591.812
611.438;   87.351;   81.886; -167.794
611.713;   -9.112; -467.101; -499.817
611.988;   51.266; -144.101; -328.818
612.263;  -14.946; -771.102; -717.815
612.538;  233.360;  385.887;  251.204
612.812;  193.028; -832.100; -911.820
613.087;  136.616; -358.098; -338.823
613.362;  -57.685; -497.107; -557.807
613.637;   28.023;  261.897;  138.186
613.911;   -7.027; -256.092; -345.835
614.186;  130.488; -249.107; -292.807
614.460;  711.216; -842.081; -758.854
614.735;  808.015;  -55.087;  -17.843
615.010;  157.755;   43.912;  -82.841
615.284;  244.654;  360.892;  246.195
615.559;  378.097; -792.092; -955.835
615.833;  301.209;  -76.099;  -87.822
616.108;    9.458; -225.090; -390.837
616.382;  139.466;  274.913;  402.156
616.656;  174.659; -241.090; -232.837
616.931;  505.859; -785.099; -700.822
617.205; 1096.368; -973.104; -979.813
617.480;  994.756;  -91.125;    6.225
617.754;  169.379; -396.125; -128.774
618.028;   19.175; -369.129; -382.768
618.302;   61.552;   73.892;  -25.805
618.577;  -47.275; -371.103; -518.815
618.851;  -60.257; -399.109; -600.803
619.125;  -43.994; -335.134; -378.759
619.399;  -28.056; -244.104; -374.813
619.673;  -40.435; -330.115; -515.792
619.947;  -39.646; -333.114; -448.795
620.222;  -19.791; -198.110; -204.801
620.496;    2.543;  -47.121;  -96.782
620.770;   24.235; -187.122;  -93.781
621.044;  212.078;  323.895;  346.190
621.318;  742.921; -653.120; -614.783
621.592;  684.869; -430.121; -409.783
621.866;  376.073; -476.112; -572.799
622.140;   30.334; -207.116; -356.791
622.413;   63.702;  138.889;  112.200
622.687;  -49.961; -746.101; -492.817
622.961;    5.277; -130.108; -143.805
623.235;  -54.222; -633.111; -661.800
623.509; -109.966; -816.105; -848.811
623.783;    4.961;  -12.107;   48.193
624.056;  -15.028; -254.120; -280.783
624.330;   44.416;   63.888;   -3.797
624.604;   67.130; -271.116; -355.790
624.877;   80.338;  180.890;   26.198
625.151;   37.124; -249.114; -238.794
625.425;  -49.180; -150.103; -283.814
625.698;  -64.819; -367.119; -374.785
625.972;  -92.135; -799.110; -765.802
626.245;   59.807;  685.884;  484.210
626.519;  -39.074; -426.120; -340.784
626.792;  -34.985; -192.107; -380.807
627.066;  -84.547; -485.122; -662.779
627.339; -104.989; -736.110; -663.802
627.613;   40.375;  351.880;  148.216
627.886;   56.892;  187.891; -612.803
628.160;  -11.979;  312.880; -161.783
628.433;  -86.341; -695.125; -703.775
628.706;  -79.574; -517.120; -615.784
628.979;   40.741;  296.876;  117.223
629.253;  -78.714; -785.119; -833.786
629.526;  379.619; -334.126; -253.772
629.799;  354.598; -641.123; -479.778
630.072;  186.151; -497.128; -516.769
630.346;  -62.768;-1115.116;-1080.790
630.619;  447.616; -467.107; -545.808
630.892;  647.103;  709.889;  593.200
631.165;  351.318;  790.896;  679.187
631.438;  -73.405;-1092.112;-1055.798
631.711;   50.201;  453.877;  257.221
631.984;  -56.823; -523.117; -624.789
632.257;  -62.926; -636.117; -681.789
632.530;  -48.043; -412.119; -433.785
632.803;   40.022; -109.115;    7.207
633.076;  -70.480; -360.123; -422.777
633.349;   20.830;  173.872;  121.231
633.622;  -40.020; -187.119; -240.785
633.895; -123.728; -903.120; -823.783
634.167;  -68.954; -496.126; -525.773
634.440;   -8.637;  -19.116; -137.792
634.713;  -14.115;  -22.119; -120.786
634.986;   80.270;  593.871;  453.233
635.258;  -84.830; -507.115; -597.793
635.531;   98.170;  742.882; -343.788
635.804;  -29.124; -303.117; -318.789
636.077;  -93.365; -830.116; -852.791
636.349;   -5.531; -586.115; -474.793
636.622;  368.218; 1695.874; 1392.228
636.894;  254.401; -474.120; -909.784
637.167;  162.112; -836.127; -789.771
637.439;   16.508; -278.128; -213.770
637.712;  -44.155; -312.126; -293.772
637.984;  -79.340; -635.116; -707.791
638.257;  379.595;  515.877;  488.222
638.529;  574.785; -881.125; -924.776
638.802;  239.251; -508.128; -449.769
639.074; -122.466; -927.122; -952.781
639.346; -119.528; -942.135; -930.757
639.619;   -2.843;  -79.142; -319.744
639.891;  -15.297;  -83.122; -168.779
640.163;  -62.070; -689.122; -756.780
640.435;   41.032;  273.878;  103.220
640.708;   -0.767;  -72.122; -132.780
640.980;  -30.265; -366.122; -362.781
641.252;  194.737;  -25.121;  -71.781
641.524; 1823.364;  580.879;  573.219
641.796; 1824.691;-1094.121; -907.782
642.068;  303.717; -191.121; -300.782
642.340;  -57.631; -486.121; -566.783
642.613;   23.021;  294.880;  323.217
642.885;  -99.452; -787.120; -878.783
643.157;  -57.550; -810.120; -658.784
643.428;   38.852;  170.880;  218.216
643.700;  -64.847; -498.120; -425.784
643.972;  -40.995;  -16.119; -133.785
644.244;  -81.443; -474.119; -559.785
644.516;  -54.666; -250.119; -114.786
644.788;   56.311;  662.881;  548.214
645.060;  -18.012;  -12.119; -124.786
645.332; -107.761; -525.118; -535.787
645.603;   21.141;  479.882;  342.213
645.875;  -85.507; -334.118; -369.787
646.147;  165.120; 1487.882; 1242.212
646.418;  -73.528; -931.117; -918.788
646.690;  155.598; -714.117; -715.789
646.962;   38.375; -413.117; -451.789
647.233;  -18.573;   15.883;   11.211
647.505; -108.346; -595.117; -475.790
647.776;   19.531;  328.884;  229.210
648.048;   -4.942; -248.116; -418.790
648.320;  -66.966; -752.116; -679.791
648.591; -146.089;-1055.116; -958.791
648.862;  -90.637; -505.116; -577.792
649.134;   10.615;  115.885;  198.208
649.405;  -41.583; -661.115; -618.792
649.677;  -61.357; -475.115; -598.793
649.948;   -4.455; -181.115; -296.793
650.219;   -7.553;  -37.115; -147.793
650.491;  -92.026; -431.114; -520.794
650.762; -114.899; -705.114; -731.794
651.033;  -94.522; -437.114; -424.795
651.304; -104.196; -743.114; -728.795
651.576;  -63.769; -680.114; -645.795
651.847;  -44.142; -250.113; -140.796
652.118;  -41.165;  -32.113; -189.796
652.389; -105.813; -639.113; -722.796
652.660;  -35.637; -147.113;  -89.797
652.931; -137.985; -897.112; -871.797
653.202;  -85.833; -382.112; -541.798
653.473;  -64.381; -633.112; -533.798
653.744;  149.571; -595.112; -590.798
654.015;  149.248; -356.112; -303.799
654.286;  -65.351; -642.111; -663.799
654.557;  -55.449; -586.111; -521.799
654.828; -168.072;-1114.111;-1088.800
655.099;  -87.195; -404.111; -291.800
655.370;  -89.068; -427.111; -543.801
655.641; -123.492; -656.110; -714.801
655.911; -111.590; -618.110; -638.801
656.182;   43.512;  437.890;  387.198
656.453;   79.164;  830.890;  746.198
656.724;  -66.559; -466.110; -426.802
656.994;  -87.932; -553.109; -568.803
657.265; -108.481; -862.109; -873.803
657.536;  -88.229; -500.109; -377.804
657.806; -116.277; -561.109; -593.804
658.077; -134.825; -866.109; -950.804
658.347;  -98.898; -523.108; -598.805
658.618; -108.796; -646.108; -694.805
658.888;  -30.520;  -41.108;  112.195
659.159;  -74.768; -432.108; -548.806
659.429;  -12.591; -292.108; -349.806
659.700;   13.261; -435.107; -390.807
659.970;  -12.362; -370.107; -359.807
660.241;   20.989; -754.107; -921.807
660.511;  490.541; -147.107; -174.808
660.781;   89.943; -793.106; -748.808
661.052;  -46.430; -222.106; -381.808
661.322;   -2.853;   21.894;   -9.809
661.592;   11.499;  257.894;  148.191
661.862;  -69.625; -369.106; -382.810
662.133; -107.898; -551.105; -502.810
662.403; -126.721; -770.105; -676.810
662.673;  -56.194; -256.105; -213.811
662.943;  -99.467; -612.105; -551.811
663.213;   -9.066;  -85.105;  -81.811
663.483;  -76.489; -593.104; -568.812
663.753;  -46.812; -194.104; -152.812
664.023;   -7.110;   68.896;  -32.813
664.293;  -65.083; -319.104; -126.813
664.563; -117.631; -694.104; -648.813
664.833; -117.755; -743.103; -608.814
665.103; -120.478; -730.103; -793.814
665.373; -117.151; -766.103; -806.814
665.643;  -81.524; -863.103; -918.815
665.913;   34.403; -534.103; -714.815
666.182;  130.079; -685.102; -719.816
666.452;  277.531;  -22.102;  -89.816
666.722;  -21.642; -724.102; -784.816
666.992; -130.165; -948.102; -921.817
667.261;  -83.388; -824.102; -808.817
667.531;  194.414;  134.899;   45.183
667.801;  533.565; -440.101; -412.818
668.070;  239.867;  714.899;  697.182
668.340; -101.506; -883.101; -840.819
668.609;   78.846;  588.900;  301.181
668.879;  -69.952; -490.100; -558.819
669.149;  -80.726; -539.100; -516.820
669.418;  -91.924; -698.100; -726.820
669.688;  -25.572; -482.100; -666.820
669.957;   66.280; -423.099; -546.821
670.226;  -17.768; -268.099; -331.821
670.496;  -99.341; -431.099; -635.822
670.765;  -84.965; -418.099; -501.822
671.034; -132.813; -872.099; -828.822
671.304;  -17.736;   55.902; -111.823
671.573; -154.984;-1085.098; -957.823
671.842;   66.118; -380.098; -294.823
672.112;   34.020; -692.098; -586.824
672.381;    2.946; -239.098; -214.824
672.650; -132.152;-1005.097;-1021.825
672.919;  -95.750; -631.097; -507.825
673.188;  -93.573; -681.097; -878.825
673.457; -132.346;-1101.097;-1143.826
673.726;  -82.770; -579.096; -646.826
673.995;  -49.793; -533.096; -479.826
674.265;  -22.766; -263.096; -333.827
674.534;    9.786; -183.096; -235.827
674.802;    2.238; -618.096; -703.828
675.071; 1016.790; -886.095; -801.828
675.340; 3994.741; -464.095; -339.828
675.609; 1344.093;  103.905;   82.171
675.878;   79.870; -949.095; -893.829
676.147;   41.872;  -26.095;   -8.829
676.416;   90.899; -210.094; -294.830
676.685;  751.875; 1000.906; -622.830
676.953;  112.427; -603.094; -452.831
677.222;  -25.671; -193.094; -273.831
677.491;  -21.444;  -24.094; -127.831
677.759;   11.208;   11.907;  172.168
678.028;  -12.315; -279.093; -222.832
678.297;   -9.589;   71.907;  197.168
678.565; -155.437; -898.093; -944.833
678.834;  -57.385; -311.093; -268.833
679.102;  -77.283; -411.092; -391.834
679.371; -140.506; -898.092; -727.834
679.639; -126.530; -797.092; -786.834
679.908; -124.028; -794.092; -724.835
680.176; -153.576; -895.091; -941.835
680.445;  -71.199; -346.091; -352.835
680.713;   -5.822;  -58.091;  -23.836
680.982;  -99.695; -523.091; -525.836
681.250;  -97.144; -578.091; -507.837
681.518;  -97.742; -534.090; -751.837
681.787;  -33.665; -204.090; -167.837
682.055;  -59.513; -490.090; -422.838
682.323; -142.986; -993.090; -992.838
682.591;   49.866; -216.090; -538.838
682.859;   95.317;    9.911;  -35.839
683.128;   13.744;  232.911;  497.161
683.396; -166.754;-1102.089;-1122.840
683.664;  -31.352; -241.089;   21.160
683.932;   11.275;  144.911;  -76.840
684.200;  -74.874; -576.088; -320.841
684.468;  -32.322;  -73.088; -124.841
684.736;  -38.945; -214.088; -175.841
685.004; -115.268;-1024.088; -982.842
685.272;  -48.741; -880.088; -774.842
685.540;  -70.464; -499.087; -557.843
685.808;  -83.113; -651.087; -682.843
686.076; -109.836; -894.087; -969.843
686.343;  -56.384; -601.087; -815.844
686.611;   39.543; -195.087; -224.844
686.879;  470.320; -530.086; -553.844
687.147; 3360.846; -483.086; -480.845
687.414;  979.473;  -12.086; -169.845
687.682;    3.875; -658.086; -757.846
687.950;  323.877;  259.915;  263.154
688.217;   10.104; -792.085; -760.846
688.485;   -2.319; -632.085; -636.847
688.753;  529.132;  -11.085; -102.847
689.020;  183.034; -820.085; -851.847
689.288;  -95.114; -853.084; -787.848
689.555;  -33.462; -195.084; -148.848
689.823;  -54.660; -241.084; -345.849
690.090;  -76.059; -546.084; -651.849
690.358; -148.207; -877.084; -897.849
690.625;    3.145;  120.917;   45.150
690.892;  -75.028; -403.083; -369.850
691.160;  -26.001;   72.917;  -35.850
691.427;   -1.949;  141.917;  130.149
691.694; -133.073; -855.083; -929.851
691.962; -145.821;-1177.082;-1060.852
692.229;   13.806;  127.918;   56.148
692.496;   82.283;  130.918;  -49.852
692.763;    1.485; -164.082; -201.853
693.031;  -66.939; -739.082; -716.853
693.298;  -41.487; -509.081; -368.853
693.565;  313.490; -155.081; -163.854
693.832; 1293.167;   -5.081;   -9.854
694.099;  154.819; -643.081; -642.855
694.366;  -50.454; -882.081; -896.855
694.633;  -54.453; -920.080; -633.855
694.900;  734.274; 4367.920; -114.856
695.167;  437.501; -214.080; -380.856
695.434;  100.903; -646.080; -623.856
695.701;  197.905;  121.921;  -61.857
695.968;  475.307; -365.079; -361.857
696.234;  975.758; -415.079; -646.858
696.501;10168.260; -776.079; -614.858
696.768; 5213.637; -554.079; -617.858
697.035;  319.814; -632.078; -667.859
697.302;   48.066; -448.078; -552.859
697.568;    4.217; -458.078; -497.859
697.835;  -42.056; -683.078; -624.860
698.102;  -44.129; -498.078; -407.860
698.368;   70.173;  384.923;  396.139
698.635;  -36.475;  -47.077; -424.861
698.901;  -10.723; -240.077; -348.861
699.168;   71.353; -534.077; -456.862
699.435;   69.180;  -72.077;  -13.862
699.701; -104.218; -868.076; -764.862
699.968;   29.234;  144.924; -441.863
700.234;  -98.364; -783.076; -822.863
700.500;  -62.638; -448.076; -539.864
700.767;   -4.761;   -1.075;   26.136
701.033; -127.309;-1015.075; -963.864
701.299;  -60.657; -450.075; -483.865
701.566;  117.120;  950.925;  763.135
701.832;   29.447;  -31.075;  -76.865
702.098;  -97.052;-1054.074;-1034.866
702.365;  -98.850;-1098.074;-1030.866
702.631;  -23.923;-1038.074;-1063.867
702.897; 1349.554; -765.074; -676.867
703.163; 2277.006;  348.926;  254.133
703.429;  149.332; -256.073; -273.868
703.695;  -37.016; -796.073; -792.868
703.961;   11.511; -214.073; -210.868
704.227;  -55.487; -630.073; -725.869
704.493;  131.940;  613.927;  510.131
704.759;  -16.333; -565.072; -540.870
705.025;   27.543; -203.072; -194.870
705.291;  -10.230; -666.072; -562.870
705.557;  187.272;  719.928;   34.129
705.823;    7.099; -742.072; -694.871
706.089;  132.426; -307.071; -326.871
706.355;  343.903; -315.071; -244.872
706.620; 5303.129; -776.071; -729.872
706.886; 7613.881; -309.071; -362.873
707.152;  714.008; -818.070; -973.873
707.418;  -17.490;-1153.070;-1186.873
707.683;   -8.413; -550.070; -530.874
707.949;  -34.862; -547.070; -578.874
708.215;   -5.885; -129.070; -207.874
708.480;  -28.583; -520.069; -420.875
708.746;   99.294;   68.931;   28.125
709.011;  -67.304; -578.069; -612.876
709.277;  -86.502; -538.069; -543.876
709.542;  -58.476; -428.069; -387.876
709.808;  -12.349;  -59.068;   89.123
710.073;  -86.172; -577.068; -695.877
710.339;  -24.495; -242.068; -228.877
710.604;   71.407; -780.068; -845.878
710.869;  310.733; -277.068; -366.878
711.135;  -64.365; -715.067; -628.879
711.400;  -77.488; -507.067; -608.879
711.665;  -71.436; -404.067; -479.879
711.931; -106.184; -661.067; -677.880
712.196; -119.557; -876.067; -954.880
712.461;  109.694; -402.066; -490.880
712.726;  135.921; -727.066; -771.881
712.991;  -90.777; -647.066; -664.881
713.256;  -50.750; -350.066; -332.882
713.521;  -66.273; -417.065; -381.882
713.787;  -62.897; -454.065; -472.882
714.052;  -29.320; -214.065; -400.883
714.317;  -95.893;-1045.065; -981.883
714.581;  967.084; -374.065; -268.883
714.846; 1354.111; -822.064; -888.884
715.111;  135.213;  261.936;  257.116
715.376;  -44.186;  -86.064; -223.885
715.641;  -19.009; -365.064; -367.885
715.906;  310.018;   15.936; -551.885
716.171;  128.670;  221.937;  209.114
716.436;   38.947;  -78.063; -104.886
716.700; -107.402; -818.063; -692.886
716.965; -114.325; -794.063; -807.887
717.230;  -70.898; -339.063; -392.887
717.494;  -22.521;  -40.062; -134.888
717.759;  -79.919; -784.062; -640.888
718.024;   -0.767;  269.938;  250.112
718.288;   74.434;  685.938;  395.111
718.553; -152.889; -803.062; -977.889
718.817; -129.462; -883.061; -899.889
719.082;  -19.335; -115.061; -125.890
719.346; -152.033;-1000.061; -947.890
719.611;  -45.356; -300.061; -255.891
719.875;  -82.505; -568.060; -537.891
720.140;  -67.903; -453.060; -603.891
720.404;   42.449; -136.060; -249.892
720.668;  855.651; -475.060; -411.892
720.933;  335.428;  146.940;  137.108
721.197; -100.396; -667.059; -600.893
721.461; -130.644; -851.059; -826.893
721.725;  -11.717;  -21.059; -250.894
721.990;  -62.215; -284.059; -204.894
722.254;  -27.863;  -26.059; -108.894
722.518;  -74.936; -286.058; -442.895
722.782;  -99.360; -743.058; -594.895
723.046;  118.742;  614.942;  570.105
723.310;   22.269;  374.942;  210.104
723.574;  -99.354; -654.058; -614.896
723.838; -106.627; -576.057; -642.897
724.102;  -54.401; -226.057; -239.897
724.366; -140.924;-1032.057; -978.897
724.630;  -97.397; -749.057; -571.898
724.894;  -81.270; -722.057; -514.898
725.158;  -19.343;   38.944; -295.898
725.422;  -64.191; -394.056; -327.899
725.685;  -71.715; -441.056; -349.899
725.949;  -82.713; -566.056; -519.900
726.213;  -72.986; -732.056; -811.900
726.477;  177.916;-1020.055; -933.900
726.740;  144.443; -274.055; -104.901
727.004;  335.219; -384.055; -510.901
727.268; 3233.321; -442.055; -400.901
727.531;  905.173; -961.055; -775.902
727.795;  -51.850; -713.054; -673.902
728.059;  -56.848; -552.054; -557.903
728.322;  -81.346; -841.054; -669.903
728.586;   23.780; -692.054; -701.903
728.849;  -83.018; -695.053; -756.904
729.112; -109.466; -812.053; -912.904
729.376; -133.814; -959.053; -905.904
729.639;  -66.087; -536.053; -536.905
729.903; -120.636; -733.053; -699.905
730.166;  -39.734; -437.052; -399.906
730.429;  -26.632; -317.052; -468.906
730.693;  -59.080; -355.052; -894.906
730.956;  195.272;  810.948;  651.093
731.219;  719.049; -310.052; -103.907
731.482;  131.550;-1003.051; -894.907
731.745;  105.477; -794.051; -935.908
732.009;   13.754;  -30.051;   50.092
732.272;  -97.119; -904.051; -771.909
732.535;  -38.092; -300.051; -310.909
732.798; -162.440;-1083.050;-1166.909
733.061;  -62.739; -430.050; -456.910
733.324;    2.538;   31.950; -180.910
733.587;   65.790;  290.950;  365.090
733.850;  -68.058; -973.049;-1050.911
734.113;   34.494;   33.951;   32.089
734.376;    8.745; -328.049; -447.912
734.639;  221.997; 1188.951; 1011.088
734.901;   63.199; -180.049; -402.912
735.164;  511.276; -883.048; -837.913
735.427; 1332.903; -166.048; -355.913
735.690;  122.005; -205.048; -234.913
735.952;  -37.494; -923.048; -925.914
736.215;  -31.667;-1113.048;-1009.914
736.478;   58.785; -771.047; -774.915
736.740;  215.987;   33.953;  129.085
737.003;  697.214; -658.047; -672.915
737.266; 4154.865;  -94.047;   46.084
737.528;  446.492; -682.047; -660.916
737.791;  320.444; -316.046; -327.916
738.053;  779.371;  465.954;  649.083
738.316;10544.123; -162.046; -136.917
738.578; 7549.300; -770.046; -736.918
738.841;  433.376; -382.046; -446.918
739.103;  174.128; -875.045; -777.918
739.365;  516.880;   79.955;  -69.919
739.628;    2.132; -884.045; -805.919
739.890;  -21.341; -758.045; -710.919
740.152;  -44.440; -692.044; -754.920
740.414;  -13.038; -408.044; -359.920
740.677;  -51.186; -785.044; -634.921
740.939;  -33.609; -587.044; -487.921
741.201;  264.718; -432.044; -572.921
741.463;   35.520; -689.043; -745.922
741.725;   11.896;  -21.043; -199.922
741.987;   54.948;  220.957;  116.078
742.249;   13.850; -751.043; -859.923
742.511;  218.302; -703.043; -794.923
742.773;   29.504; -546.042; -546.924
743.035;  120.856;  796.958;  533.076
743.297;  -53.568; -963.042;-1013.924
743.559;  754.909; -278.042; -262.925
743.821;   61.486; -735.042; -744.925
744.083;   15.713;  -44.041; -149.925
744.345;  -82.160; -869.041; -892.926
744.607;   27.691;   75.959;  122.074
744.868;  -47.557; -490.041; -554.927
745.130; -113.130; -994.041;-1008.927
745.392;   38.197;   -1.040;  -44.927
745.653;  -12.476; -411.040; -378.928
745.915;  144.676;  896.960;  631.072
746.177;   57.677;   35.960;  -43.928
746.438;   -3.396; -428.040; -543.929
746.700;  -48.719; -947.039; -988.929
746.961;   -2.842; -659.039; -740.930
747.223;  147.460; -190.039;  -74.930
747.484;   89.311; -391.039; -471.930
747.746;  146.038;  -23.038; -106.931
748.007;  109.590; -647.038; -689.931
748.269;  314.117; -468.038; -440.931
748.530;  475.919; -852.038; -638.932
748.791;  261.621; -354.038; -420.932
749.053;  445.497;  286.963;  163.067
749.314;  462.674; -236.037; -169.933
749.575;  526.301; -945.037; -905.933
749.836;  860.003; -217.037;   86.066
750.098; 2436.255;  -60.037;  -21.934
750.359;36925.931;  414.964;  555.066
750.620; 9504.958; -121.036; -220.935
750.881; 1039.610; -585.036; -513.935
751.142; 1372.237; -950.036; -938.936
751.403;16608.714; -789.036; -705.936
751.664; 7454.391;-1034.035; -999.936
751.925;  504.567; -175.035; -262.937
752.186;  279.519; -298.035; -278.937
752.447;  116.146; -590.035; -445.937
752.708;   47.773; -532.035; -648.938
752.969;    8.750; -566.034; -576.938
753.230;    2.276; -777.034; -672.939
753.491;   -6.822; -650.034; -631.939
753.751;   70.580;  109.966;   19.061
754.012;   96.607;  258.967;  181.060
754.273;   58.984; -174.033;  -71.940
754.534;    1.786; -487.033; -580.940
754.794;  -92.863; -926.033; -911.941
755.055;  149.664; 1051.967;  881.059
755.316;  -55.359; -700.032; -566.942
755.576;  -30.082; -606.032; -576.942
755.837;  -46.455; -527.032; -695.942
756.097;  -39.203; -530.032; -564.943
756.358;  -74.377; -725.032; -770.943
756.618;  -44.025; -705.031; -641.943
756.879;    7.177; -254.031; -349.944
757.139; -116.821;-1098.031;-1116.944
757.400;  -45.044; -538.031; -553.945
757.660;  -19.643; -365.031; -401.945
757.920;   22.034; -266.030; -228.945
758.181;  -12.514; -468.030; -351.946
758.441;  -98.412; -870.030; -809.946
758.701;  -36.235; -308.030; -215.946
758.961;   -5.383; -220.030; -278.947
759.222;  -43.157; -574.029; -502.947
759.482;  -81.230; -683.029; -723.948
759.742;  -92.928; -706.029; -547.948
760.002;    2.699;  -83.029; -143.948
760.262;   29.401;   50.972;  182.051
760.522;  -38.473; -498.028; -574.949
760.782;  -60.471; -738.028; -612.949
761.042;  -28.944; -618.028; -573.950
761.302;   46.933;   55.972;  -18.950
761.562;   48.335; -164.027; -154.951
761.822;   86.962; -710.027; -551.951
762.082;  -39.237;-1104.027;-1093.951
762.342;   62.240; -328.027; -403.952
762.601;   72.542; -567.027; -506.952
762.861;  355.969; -281.026; -207.952
763.121;  406.546; -406.026; -411.953
763.381; 7288.347; -499.026; -485.953
763.640; 8202.624; -139.026; -307.954
763.900;  357.051; -242.026; -203.954
764.160;   93.503; -458.025; -491.954
764.419;  -16.845; -726.025; -782.955
764.679;  -74.893; -795.025; -726.955
764.939;  -35.617; -124.025; -210.955
765.198;  -80.815; -608.025; -563.956
765.458; -101.513; -710.024; -612.956
765.717;  -80.961; -454.024; -590.957
765.976;  -52.484; -428.024; -411.957
766.236;  -71.257; -475.024; -610.957
766.495;   14.169;  260.977;   73.042
766.755;  -95.654;-1090.023; -987.958
767.014;    4.098; -594.023; -665.958
767.273;  -47.350; -373.023; -397.959
767.533;  -47.548; -228.023; -307.959
767.792;  -33.722; -151.022; -188.960
768.051;  -62.095; -228.022; -276.960
768.310;  -91.618; -546.022; -650.960
768.569;   -0.841; -161.022;    4.039
768.828;  -26.139; -285.022; -363.961
769.088; -121.687;-1050.021; -942.961
769.347;  -77.836; -755.021; -599.962
769.606;  -91.034; -876.021; -857.962
769.865; -120.982;-1016.021;-1033.963
770.124;  -14.655; -411.021; -336.963
770.383;  -53.578; -778.020; -910.963
770.641;    2.148; -398.020; -400.964
770.900;  -82.250; -953.020; -846.964
771.159;  -44.898; -851.020; -951.964
771.418;  -16.321; -917.020; -779.965
771.677;  104.656; -224.019; -293.965
771.936;  119.533; -794.019; -865.966
772.194; 2059.909; -465.019; -437.966
772.453;10773.211; -213.019; -391.966
772.712;  758.888;  416.982;  329.033
772.970;  117.115;   32.982;   63.033
773.229;   74.442;  -22.018;  102.033
773.488;  -89.582; -814.018; -770.968
773.746;   48.595;  296.982;  335.032
774.005;    0.672;  190.983;  -22.969
774.263;    7.324;  243.983;  177.031
774.522;  -32.699; -422.017; -548.969
774.780;  -84.672; -484.017; -417.970
775.039; -101.846; -551.017; -531.970
775.297;  -28.044; -135.016; -351.970
775.555; -101.792; -489.016; -612.971
775.814; -119.115; -618.016; -570.971
776.072; -130.788; -749.016; -740.971
776.330; -106.712; -630.016; -520.972
776.589; -119.135; -703.015; -721.972
776.847; -136.658; -645.015; -624.973
777.105; -159.256;-1016.015;-1032.973
777.363;  -93.079; -459.015; -454.973
777.621; -141.852; -660.015; -717.974
777.879;  -25.351;  -42.014;   32.026
778.138; -104.574; -554.014; -717.974
778.396; -104.572; -585.014; -526.975
778.654; -172.120;-1015.014; -970.975
778.912;  -69.093; -269.014; -371.976
779.170; -139.841; -880.013; -803.976
779.427; -153.590; -922.013; -897.976
779.685; -139.188; -880.013; -832.977
779.943;  -84.061; -654.013; -593.977
780.201; -156.459; -964.012; -883.978
780.459; -116.957; -651.012; -610.978
780.717;  -75.081; -440.012; -390.978
780.974; -103.854; -449.012; -490.979
781.232;  -64.427; -358.012; -338.979
781.490;  -81.875; -551.011; -472.979
781.747; -115.998; -555.011; -476.980
782.005;   26.929;  462.989;  254.020
782.263; -179.470; -542.011;-1004.981
782.520;  -90.468; -326.011; -501.981
782.778; -167.791;-1013.010;-1051.981
783.035; -173.939; -962.010; -938.982
783.293;  -70.087; -248.010; -206.982
783.550;  -69.336; -134.010; -198.982
783.808; -129.834; -764.010; -776.983
784.065; -163.557; -745.009; -874.983
784.322;  -51.105;   25.991;  -86.984
784.580; -141.853; -915.009; -771.984
784.837;  -78.101; -392.009; -466.984
785.094; -137.250; -783.009; -762.985
785.352;  -83.273; -304.008; -404.985
785.609; -105.346; -934.008; -839.985
785.866;  -83.194; -345.008; -401.986
786.123;  -60.692; -639.008; -583.986
786.380; -102.141; -665.008; -604.987
786.637;  -45.814; -225.007; -380.987
786.895;  -20.437; -456.007; -543.987
787.152;  -49.260; -135.007; -267.988
787.409;  -59.908; -123.007; -225.988
787.666; -103.006; -299.006; -378.988
787.923; -110.005; -616.006; -695.989
788.179;  -94.378; -551.006; -584.989
788.436; -102.976; -585.006; -585.990
788.693;  -26.674;  -92.006;  -87.990
788.950;  149.428; -125.005; -112.990
789.207;  233.154; -381.005; -372.991
789.464;  -59.944; -161.005; -301.991
789.720;  -12.167;  150.995;  110.009
789.977; -164.115;-1003.005; -671.992
790.234;  -34.013;   44.996;  -66.992
790.490; -150.936; -884.004;-1031.993
790.747;  -33.285;  -85.004;   22.007
791.004;  -13.758; -426.004; -348.993
791.260;  -84.631; -430.004; -560.994
791.517;  -96.729; -843.003; -788.994
791.773;  -57.302; -379.003; -342.994
792.030; -123.725; -596.003; -660.995
792.286;  -92.699; -686.003; -636.995
792.543;  -27.822;  -74.002; -159.995
792.799;  -46.295; -584.002; -382.996
793.055; -166.968;-1179.002;-1210.996
793.312;  -92.841; -827.002; -816.997
793.568;  -79.265; -746.002; -599.997
793.824;   33.912; -226.001; -284.997
794.081;   14.414; -447.001; -508.998
794.337;   46.866; -664.001; -561.998
794.593; 1280.743; -319.001; -271.999
794.849; 6563.520; -746.001; -772.999
795.105;  324.721; -270.000; -261.999
795.361;   16.648; -490.000; -457.000
795.617;  -68.325; -875.000; -945.000
795.873;  -47.325; -360.000; -407.000
796.129;  -51.225; -368.000; -306.000
796.385;   -9.725; -124.000; -156.000
796.641;   67.050;  412.000;  550.000
796.897;  -87.000; -666.000; -635.000
797.153;   61.400;  453.000;  357.000
797.409; -106.350; -785.000; -868.000
797.665;  -69.000; -625.000; -732.000
797.921;  -82.075; -775.000; -762.000
798.176;  -58.175; -744.000; -747.000
798.432;  -54.575; -824.000; -596.000
798.688;  -73.725;-1174.000;-1078.000
798.943;   76.875; -165.000; -147.000
799.199;    8.125;-1005.000; -959.000
799.455;  215.825;  369.000;  316.000
799.710;  131.850; -813.000; -380.000
799.966;  271.775; -162.000; -160.000
800.221;  470.925; -638.000; -721.000
800.477;10187.250; -743.000; -710.000
800.732; 9345.700; -773.000; -800.000
800.988;  609.750;  205.000;  -19.000
801.243; 1658.450; -454.000; -344.000
801.498; 7364.400; -814.000; -739.000
801.754;  429.575; -289.000; -163.000
802.009;   89.250; -257.000; -335.000
802.264;  -57.875; -967.000;-1033.000
802.520;   30.725;  222.000;   -3.000
802.775;  -50.625; -524.000; -359.000
803.030;   42.900;  395.000;  356.000
803.285; -114.400; -840.000; -903.000
803.540;  -60.225; -686.000; -699.000
803.795;  -54.175; -648.000; -583.000
804.051;  -56.025; -279.000; -346.000
804.306;   15.650;  168.000;  128.000
804.561;  146.400;  451.000;  362.000
804.816;  123.050;  714.000;  861.000
805.071;   -2.750; -185.000; -280.000
805.325;  224.575; -257.000; -427.000
805.580; -112.050; -841.000; -877.000
805.835;  -14.650; -204.000; -297.000
806.090;  -80.000; -760.000; -676.000
806.345;  -19.425; -344.000; -264.000
806.600;  -27.175; -549.000; -632.000
806.854;  -38.450; -408.000; -538.000
807.109;   -4.150; -493.000; -577.000
807.364;   -2.975; -407.000; -328.000
807.618;    6.050; -415.000; -381.000
807.873;   43.475; -470.000; -494.000
808.128;   81.300; -257.000; -518.000
808.382;  100.625; -224.000; -332.000
808.637;   81.925; -440.000; -511.000
808.891;  185.425; -257.000; -180.000
809.146;   98.650; -902.000; -794.000
809.400;  259.125; -848.000; -923.000
809.654;  341.425; -779.000; -551.000
809.909;  492.675; -841.000; -927.000
810.163; 6537.475; -813.000; -651.000
810.418;17583.125; -940.000; -861.000
810.672; 1081.300; -685.000; -690.000
810.926;  712.625; -993.000; -973.000
811.180; 1369.850; -439.000; -372.000
811.434;30805.750;  240.000;  135.000
811.689;12862.025; -231.000; -365.000
811.943;  636.775; -936.000; -953.000
812.197;  311.675; -893.000; -671.000
812.451;  124.500; -379.000; -514.000
812.705;  -22.625; -809.000; -619.000
812.959;   -6.200; -263.000; -388.000
813.213;  -12.650; -283.000; -209.000
813.467;   64.125;  470.000;  253.000
813.721; -111.275; -764.000; -792.000
813.975; -125.825; -826.000; -877.000
814.229;   40.000;  430.000;  353.000
814.482;  -66.125; -517.000; -566.000
814.736; -119.225; -766.000; -744.000
814.990; -131.500; -779.000; -872.000
815.244;  -39.450; -228.000; -285.000
815.497;  -98.125; -636.000; -601.000
815.751;   -8.550; -141.000;   82.000
816.005;  -91.100; -470.000; -586.000
816.258;  -69.925; -510.000; -363.000
816.512;  -86.050; -693.000; -610.000
816.766;   -0.075;  121.000;  157.000
817.019;   28.750;  148.000;  149.000
817.273; -116.800;-1000.000; -802.000
817.526;  -26.025; -206.000; -173.000
817.779;  -47.625;-1049.000; -960.000
818.033;  -69.925; -693.000; -807.000
818.286; -126.550; -725.000; -792.000
818.540;  -84.625; -403.000; -403.000
818.793;  -82.050; -402.000; -489.000
819.046; -105.950; -582.000; -520.000
819.299;  -33.875; -157.000; -166.000
819.553; -105.075; -552.000; -592.000
819.806; -157.775;-1016.000; -838.000
820.059;  -65.650; -334.000; -354.000
820.312;    0.550;  152.000;  185.000
820.565;  -11.400;  110.000;  -27.000
820.818;  -48.225;  -59.000; -173.000
821.071; -165.550;-1041.000; -957.000
821.324; -110.350; -536.000; -540.000
821.577; -113.400; -457.000; -483.000
821.830;  -66.700; -270.000; -172.000
822.083; -141.450; -733.000; -288.000
822.336;  -55.225; -261.000; -167.000
822.589; -126.175; -805.000; -688.000
822.842; -154.600; -875.000; -770.000
823.094; -173.150;-1076.000;-1114.000
823.347; -140.475; -925.000; -729.000
823.600;   12.025;  402.000;  187.000
823.853;  -60.075; -311.000; -267.000
824.105;  -76.200; -331.000; -575.000
824.358; -103.075; -617.000; -716.000
824.611;   19.800;  234.000;   40.000
824.863;  -58.400; -612.000; -591.000
825.116;   45.575;  -33.000;   27.000
825.368;   74.325; -366.000; -372.000
825.621;  138.625; -186.000; -240.000
825.873;   91.675; -704.000; -737.000
826.126;  565.775; -669.000; -641.000
826.378;11482.975; -389.000; -505.000
826.630; 2903.450; -890.000; -898.000
826.883;   42.850; -754.000; -693.000
827.135;   48.925; -279.000; -270.000
827.387; -114.200; -893.000; -839.000
827.639;  -23.650;  -86.000;   32.000
827.892; -129.875; -742.000; -582.000
828.144; -133.225; -848.000; -804.000
828.396;  -39.300;  104.000;  -80.000
828.648;  -95.725; -440.000; -333.000
828.900; -137.350; -702.000; -795.000
829.152; -126.475; -684.000; -683.000
829.404;  -70.725; -215.000; -267.000
829.656;  -58.375;  321.000;  214.000
829.908;  -22.750;  393.000;  229.000
830.160; -167.025;-1064.000;-1047.000
830.412; -110.550; -481.000; -430.000
830.664; -127.200; -557.000; -665.000
830.916;  -83.425; -268.000; -206.000
831.167; -195.175;-1073.000; -951.000
831.419; -120.150; -623.000; -566.000
831.671; -149.700; -764.000; -809.000
831.923;  -81.450; -311.000; -447.000
832.174;  -72.125; -273.000; -331.000
832.426; -120.275; -493.000; -582.000
832.678; -197.100;-1043.000;-1091.000
832.929; -170.800; -947.000; -935.000
833.181;  -77.600; -575.000; -677.000
833.432;  -70.000;  -59.000; -186.000
833.684;  -19.375;  112.000;  -27.000
833.935; -131.700; -610.000; -566.000
834.187; -127.400; -829.000; -823.000
834.438;  -42.625;  -58.000;  -25.000
834.689;  -58.225; -255.000; -123.000
834.941;  -63.250; -343.000; -244.000
835.192;  -83.125; -590.000; -533.000
835.443; -110.075; -419.000; -506.000
835.695;  -19.050;  138.000;  -16.000
835.946;  -90.625; -608.000; -378.000
836.197; -105.750; -599.000; -622.000
836.448;  -89.750; -528.000; -395.000
836.699;  -52.775; -253.000; -341.000
836.950;   -8.050;   72.000;    7.000
837.201; -148.925;-1003.000; -987.000
837.452;  -44.725; -356.000; -170.000
837.703; -122.175; -791.000; -737.000
837.954;  -38.575; -205.000; -365.000
838.205;  -85.500;-1029.000;-1008.000
838.456;  171.025; -196.000; -282.000
838.707;    9.175; -423.000; -519.000
838.958;    4.050; -634.000; -647.000
839.209;  284.775;   18.000;   40.000
839.460;  124.750; -439.000; -201.000
839.710;  182.550; -135.000; -297.000
839.961;  408.500;  730.000;  612.000
840.212;  330.475; -382.000; -497.000
840.462; 1119.250; -328.000; -277.000
840.713;17698.150; -571.000; -536.000
840.964; 7414.650;  -62.000; -143.000
841.214;  527.350; -384.000; -624.000
841.465;  560.300; -214.000; -141.000
841.715;  514.125; -417.000; -380.000
841.966;  659.400; -746.000; -685.000
842.216; 9033.800; -330.000; -431.000
842.466;35653.350; -169.000; -313.000
842.717; 2029.375; -964.000; -952.000
842.967;  340.550; -635.000; -641.000
843.217;  268.275;   20.000;   28.000
843.468;   64.450; -104.000; -132.000
843.718;  -30.325; -718.000; -726.000
843.968;  -93.100; -837.000; -765.000
844.218;   29.250; -315.000; -262.000
844.469;  -41.350; -577.000; -561.000
844.719; -111.400; -537.000; -682.000
844.969; -100.425; -550.000; -580.000
845.219; -134.450; -814.000; -862.000
845.469;  -86.225; -392.000; -342.000
845.719; -143.825; -792.000; -884.000
845.969;  -30.250;  119.000;  174.000
846.219; -110.650; -738.000; -720.000
846.469;   -2.775;  464.000;  432.000
846.718;  -57.750; -115.000;   31.000
846.968; -139.250; -827.000; -827.000
847.218;  -54.025; -224.000; -371.000
847.468; -121.350; -586.000; -555.000
847.718; -142.800; -827.000; -798.000
847.967; -137.475; -826.000; -915.000
848.217;  -82.725; -449.000; -569.000
848.467;  -73.750; -405.000; -376.000
848.716; -115.575; -708.000; -725.000
848.966;    6.725; -372.000; -358.000
849.215;  -61.275; -428.000; -419.000
849.465;  -97.775; -785.000; -615.000
849.714; -150.200;-1132.000;-1150.000
849.964;  -60.575; -551.000; -613.000
850.213;  -22.850; -393.000; -355.000
850.463;   72.975;  137.000;  340.000
850.712;   -4.850; -542.000; -567.000
850.961;    0.875; -739.000; -678.000
851.211;   95.250; -513.000; -504.000
851.460;  156.750; -635.000; -650.000
851.709;  539.225;  -25.000;   18.000
851.958;10068.300; -912.000; -750.000
852.208;12843.650; -859.000; -879.000
852.457;  478.650; -181.000;  -13.000
852.706;   66.350; -791.000; -823.000
852.955;    8.250; -507.000; -528.000
853.204;  -64.600; -521.000; -461.000
853.453;  -98.100; -418.000; -458.000
853.702; -144.225; -660.000; -750.000
853.951; -105.200; -532.000; -520.000
854.200; -124.050; -613.000; -562.000
854.449; -131.350; -695.000; -661.000
854.698; -106.925; -340.000; -279.000
854.946;  -70.600; -181.000; -284.000
855.195; -156.375; -843.000; -868.000
855.444;  -95.300; -395.000; -420.000
855.693; -136.775; -345.000; -432.000
855.941; -116.075; -387.000; -516.000
856.190;  -46.075; -256.000; -382.000
856.439; -132.825; -652.000; -703.000
856.687;  -75.075;  -99.000;  -72.000
856.936; -120.250; -621.000; -323.000
857.184; -178.200;-1067.000;-1020.000
857.433; -101.450; -423.000; -512.000
857.681; -161.800; -989.000; -953.000
857.930;  -92.175; -282.000; -433.000
858.178; -166.600; -856.000; -929.000
858.427; -163.350; -802.000; -781.000
858.675; -125.550; -377.000; -544.000
858.923; -118.100; -527.000; -819.000
859.172; -188.275;-1094.000;-1070.000
859.420;  -95.950; -339.000; -239.000
859.668; -137.350; -624.000; -628.000
859.916;  -39.575;  109.000;  115.000
860.164; -121.375; -699.000; -603.000
860.413;  297.400; -878.000; -696.000
860.661;  229.275; -709.000; -577.000
860.909;  -98.575; -339.000; -325.000
861.157;  -74.375; -277.000; -444.000
861.405; -131.850; -534.000; -670.000
861.653;   -2.275;  310.000;  310.000
861.901;  188.400; -543.000; -613.000
862.149;   -0.350; -801.000; -824.000
862.396;  -85.425; -297.000; -187.000
862.644; -100.275; -368.000; -347.000
862.892;  -45.675;   98.000;  138.000
863.140; -120.450; -549.000; -530.000
863.388; -163.225; -815.000; -759.000
863.635; -143.450; -642.000; -601.000
863.883;   -6.100;  231.000;  190.000
864.131; -103.675; -288.000; -357.000
864.378; -145.350; -675.000; -540.000
864.626; -102.875; -347.000; -415.000
864.873; -113.250; -556.000; -505.000
865.121; -143.800; -714.000; -799.000
865.368;  -58.750; -173.000;   75.000
865.616;  -44.475;  -33.000;  -40.000
865.863;  -76.550; -462.000; -506.000
866.111; -119.350; -795.000; -824.000
866.358;   16.500; -426.000; -420.000
866.605; 2097.625;  -64.000; -804.000
866.853; 2237.975; -621.000; -537.000
867.100;  -54.350; -728.000; -775.000
867.347; -104.625; -672.000; -611.000
867.594;  -94.150; -740.000; -714.000
867.841;   77.300;   97.000;   17.000
868.089; -155.925; -746.000; -698.000
868.336; -116.075; -477.000; -420.000
868.583; -154.475; -637.000; -741.000
868.830;  -54.600; -131.000; -170.000
869.077; -166.925; -859.000; -787.000
869.324; -137.350; -502.000; -458.000
869.571; -133.550; -398.000; -430.000
869.818; -129.050; -485.000; -439.000
870.065;  -96.975; -439.000; -513.000
870.311; -127.875; -456.000; -542.000
870.558; -104.700; -332.000; -311.000
870.805; -102.575; -320.000; -384.000
871.052; -109.275; -494.000; -369.000
871.298;  -52.800; -204.000; -131.000
871.545;  -70.550; -151.000; -185.000
871.792;  -96.325; -173.000; -222.000
872.038;  -64.825;   43.000; -126.000
872.285; -136.975; -496.000; -387.000
872.532; -101.900; -357.000; -387.000
872.778;   -2.050;  556.000;  403.000
873.025; -105.325; -384.000; -359.000
873.271;   12.050;  501.000;  578.000
873.517;  -25.650; -133.000; -209.000
873.764;  -45.475; -193.000;  -80.000
874.010;  -80.975; -143.000; -230.000
874.257;  -47.075;  123.000;   90.000
874.503; -121.500; -579.000; -479.000
874.749;  -73.075;   31.000;  275.000
874.995;  -66.500;  -80.000;  -20.000
875.242; -133.675; -540.000; -478.000
875.488; -113.125; -414.000; -439.000
875.734;  -62.325; -106.000; -234.000
875.980;  187.450; -872.000;-1032.000
876.226;  365.450; -157.000; -255.000
876.472;  -12.800;  343.000;  237.000
876.718;  -48.450;  184.000;  158.000
876.964;  -49.225;   56.000;   55.000
877.210; -147.050; -547.000; -677.000
877.456; -145.625; -630.000; -557.000
877.702; -184.725; -821.000; -832.000
877.948; -108.175; -377.000; -497.000
878.193;    9.075;  361.000;  255.000
878.439;  -86.000; -487.000; -472.000
878.685;  -92.950; -272.000; -343.000
878.931; -131.600; -618.000; -676.000
879.176;  -90.600; -201.000; -201.000
879.422; -187.825; -933.000; -820.000
879.668;   13.525;   10.000;   79.000
879.913;  139.075;   53.000;  137.000
880.159;  -62.150; -112.000;  -17.000
880.404;  -70.825; -152.000; -162.000
880.650;  -43.475;   91.000;  141.000
880.895; -160.850; -670.000; -710.000
881.141; -127.325; -454.000; -428.000
881.386; -154.525; -503.000; -658.000
881.631; -106.225; -311.000; -166.000
881.877;  -34.125;  112.000;  -13.000
882.122; -138.700; -684.000; -600.000
882.367; -100.575; -136.000; -186.000
882.612;  -84.150;  -80.000; -176.000
882.858; -161.375; -877.000; -823.000
883.103; -105.650; -297.000; -267.000
883.348; -149.075; -759.000; -852.000
883.593; -144.200; -677.000; -602.000
883.838;  -60.575; -311.000;  -24.000
884.083;   24.425;  353.000;  288.000
884.328; -107.025; -564.000; -545.000
884.573;  -68.800; -196.000; -143.000
884.818;  185.075; -694.000; -531.000
885.063;  200.575; -348.000; -315.000
885.308;  -98.625; -475.000; -398.000
885.553;  -28.925;  245.000;  325.000
885.797; -122.200; -545.000; -615.000
886.042;  -56.400;    8.000;   58.000
886.287;  -95.800; -253.000; -211.000
886.532;  -61.700;   26.000;  204.000
886.776; -111.450; -407.000; -525.000
887.021; -149.625; -621.000; -574.000
887.265; -159.050; -685.000; -689.000
887.510; -135.425; -557.000; -496.000
887.755;  -86.050; -194.000; -164.000
887.999; -143.275; -552.000; -575.000
888.244;  -59.175;  -58.000;  161.000
888.488;  -18.275;  371.000;  393.000
888.732; -130.575; -368.000; -520.000
888.977; -130.525; -622.000; -567.000
889.221; -159.325; -683.000; -659.000
889.465; -127.150; -422.000; -566.000
889.710;  -80.275;  -56.000; -299.000
889.954;    8.875;  579.000;  467.000
890.198; -147.350; -584.000; -707.000
890.442; -154.200; -716.000; -712.000
890.687; -162.625; -800.000; -753.000
890.931;  -96.150; -273.000; -210.000
891.175; -129.925; -502.000; -500.000
891.419;  -77.075; -105.000; -110.000
891.663;  -88.075; -239.000; -112.000
891.907; -173.400; -801.000; -545.000
892.151; -188.150; -920.000; -815.000
892.395; -115.075; -274.000; -387.000
892.638;  -19.000;  408.000;  291.000
892.882; -186.425; -780.000; -867.000
893.126;   18.725;  758.000;  558.000
893.370;  -99.575; -167.000; -168.000
893.614; -152.200; -714.000; -715.000
893.857; -104.225; -183.000; -197.000
894.101; -133.100; -527.000; -631.000
894.345;  -60.800;  300.000;  150.000
894.588;    4.150;  569.000;  380.000
894.832;  -81.875; -178.000;  -84.000
895.075;  -81.500;   15.000;  -92.000
895.319; -127.150; -552.000; -420.000
895.563; -114.800; -413.000; -353.000
895.806; -148.975; -628.000; -741.000
896.049;  -60.000; -576.000; -368.000
896.293;  100.600;  527.000;  405.000
896.536;  -73.875; -465.000; -468.000
896.779;  -67.700; -149.000;   -1.000
897.023; -139.325; -751.000; -714.000
897.266;  -26.475;  325.000;  269.000
897.509; -178.475; -900.000; -901.000
897.752;  -55.300;  149.000;  171.000
897.996; -202.800; -972.000; -864.000
898.239;  -48.475;  168.000;  102.000
898.482; -125.100; -431.000; -453.000
898.725;  -42.175;  101.000;   53.000
898.968; -166.375; -609.000; -744.000
899.211; -111.600; -513.000; -361.000
899.454; -123.775; -633.000; -539.000
899.697;  -75.000;   90.000;  -43.000
899.940; -183.975; -761.000; -757.000
900.182; -110.125; -335.000; -405.000
900.425; -100.350; -150.000; -298.000
900.668;  -30.850;  491.000;  350.000
900.911; -105.325; -292.000; -345.000
901.154;  -62.225;  141.000;   -3.000
901.396; -137.650; -407.000; -412.000
901.639; -155.300; -430.000; -496.000
901.882; -186.300; -790.000; -809.000
902.124;  -90.250;  -29.000; -143.000
902.367; -122.225; -315.000; -361.000
902.609; -136.250; -476.000; -453.000
902.852;  -84.375; -108.000; -260.000
903.094; -130.175; -458.000; -337.000
903.337;  -56.375;  -26.000;   53.000
903.579; -121.300; -228.000; -441.000
903.821; -160.700; -597.000; -744.000
904.064;  -65.275;   85.000;  127.000
904.306;  -83.450; -126.000; -166.000
904.548; -120.050; -152.000; -366.000
904.790; -116.000; -195.000; -340.000
905.033; -128.025; -625.000; -577.000
905.275; -132.575; -513.000; -524.000
905.517;   39.500;  468.000;  256.000
905.759;  -55.300; -667.000; -761.000
906.001; -102.575; -322.000; -369.000
906.243;  -64.750; -162.000; -224.000
906.485;  108.625; -265.000; -207.000
906.727;  111.050; -499.000; -542.000
906.969;  -15.575;  -30.000; -135.000
907.211;  136.175; -316.000; -382.000
907.453;  265.050; -188.000; -237.000
907.695;    0.175; -158.000; -385.000
907.936;   43.500;  818.000;  706.000
908.178;  -67.025;   92.000; -135.000
908.420;  -86.200; -111.000; -162.000
908.662; -143.625; -633.000; -682.000
908.903;  -98.775; -208.000; -123.000
909.145;  -66.775; -240.000; -305.000
909.386;    4.100;  315.000;  280.000
909.628;   26.450;  363.000;  397.000
909.870;   -4.250;   29.000;  264.000
910.111; -107.875; -809.000; -949.000
910.353;    7.275; -123.000; -161.000
910.594;   -5.275; -574.000; -606.000
910.835;   79.400; -265.000; -326.000
911.077;  146.825; -503.000; -604.000
911.318;  288.550; -505.000; -471.000
911.559;  457.950; -577.000; -880.000
911.801; 1333.725; -284.000; -280.000
912.042;10118.125;  -50.000; -159.000
912.283;26908.275;  404.000;  371.000
912.524; 4225.200; -396.000; -457.000
912.765;  472.650; -193.000;   79.000
913.006;  235.050; -307.000; -338.000
913.247;   48.175; -270.000; -290.000
913.488;  -11.625;  -43.000;   30.000
913.729;  -88.725; -373.000; -373.000
913.970;  -74.125;  -96.000; -292.000
914.211;  -68.100; -160.000; -198.000
914.452;  -68.875; -118.000;  -11.000
914.693;   13.225;  510.000;  592.000
914.934;    9.425;  510.000;  440.000
915.175;  -80.625;   53.000;  -95.000
915.415;  -81.575; -137.000;   27.000
915.656;  -65.975;  -28.000;  192.000
915.897; -109.525; -252.000;  -82.000
916.137;  -75.875;   74.000;   -9.000
916.378; -133.850; -573.000; -517.000
916.619;  -87.675; -159.000;  -63.000
916.859;  -29.600;  303.000;  330.000
917.100;  118.100; 1655.000; 1070.000
917.340;   35.775;  930.000;  728.000
917.581;   36.025;  965.000;  789.000
917.821;  -35.725; -171.000;  143.000
918.061;   -6.625; -199.000;  -72.000
918.302;  -47.225; -152.000; -211.000
918.542;  -19.025;  -22.000;    3.000
918.782;   36.275;  369.000;  377.000
919.023;  131.575;  360.000;  427.000
919.263; 1736.750; 8131.000;  202.000
919.503; 1141.175; -137.000;  -54.000
919.743;  647.550;  390.000;  266.000
919.983;  273.750; -134.000;  -26.000
920.223;   74.825;  135.000;   14.000
920.463;  145.800;  631.000;  554.000
920.703;  124.700;   84.000;   39.000
920.943;  155.950; -110.000;   90.000
921.183;  227.750; -414.000; -405.000
921.423;  478.250;  307.000;  546.000
921.663;  690.475; -174.000; -257.000
921.903; 1531.950;  237.000;  173.000
922.143; 8367.275;  372.000;  389.000
922.383;32820.900;  158.000;  115.000
922.622;11490.650; -120.000;  -15.000
922.862; 1202.525;  796.000;  785.000
923.102;  451.775;  -51.000;   33.000
923.341;  186.800;   59.000;   74.000
923.581;   81.300;  450.000;  360.000
923.821;    9.350;  301.000;  398.000
924.060;    9.400;  351.000;  193.000
924.300;  -69.050;  -16.000; -128.000
924.539;   -8.525;  584.000;  473.000
924.779;   24.650;  812.000;  597.000
925.018;  -51.375;  247.000;  353.000
925.257;   -7.650;  595.000;  666.000
925.497;  -40.100;  447.000;  412.000
925.736;  -85.800;  -35.000;  102.000
925.975;    4.900;  687.000;  669.000
926.214;   15.225;  907.000;  850.000
926.454;   18.450;  706.000;  757.000
926.693;  -28.550;  419.000;  543.000
926.932;   33.625; 1021.000;  825.000
927.171;   56.550; 1107.000; 1044.000
927.410;   67.475; 1144.000;  967.000
927.649;   23.925;  924.000;  742.000
927.888;   -9.200;  590.000;  564.000
928.127;  -12.000;  680.000;  678.000
928.366;   30.425;  842.000;  826.000
928.605;   39.250;  831.000;  737.000
928.844;  226.875; 1451.000; 1393.000
929.083;  609.325;  770.000;  613.000
929.321;  323.150; 1335.000; 1359.000
929.560;   85.750; 1158.000; 1122.000
929.799;  -31.525;  574.000;  475.000
930.038;   83.600; 1025.000; 1394.000
930.276;  -63.525;  334.000;  397.000
930.515;  -22.325;  827.000;  681.000
930.753;  -29.650;  614.000;  589.000
930.992;  -26.275;  664.000;  717.000
931.230;    0.200;  847.000;  847.000
931.469;  164.525; 2162.000;  892.000
931.707;   70.200;  840.000;  751.000
931.946;   67.950; 1278.000; 1344.000
932.184;   57.050; 1437.000; 1175.000
932.423;   41.900; 1265.000;  963.000
932.661;   97.575; 1296.000; 1428.000
932.899;   38.950;  987.000;  821.000
933.137;    5.850;  754.000;  564.000
933.376;  142.375; 1664.000; 1335.000
933.614;  153.450; 1759.000; 1196.000
933.852;   50.650; 1357.000; 1171.000
934.090;  124.625; 1722.000; 1747.000
934.328;  115.650; 1252.000; 1457.000
934.566;   79.700; 1431.000; 1110.000
934.804;  117.625; 1263.000; 1309.000
935.042;  423.050; 1861.000; 1850.000
935.280; 1706.450; 2088.000; 2063.000
935.518; 1613.625; 2113.000; 2007.000
935.756;  342.600; 2481.000; 2316.000
935.994;  160.100; 1808.000; 1751.000
936.231;  342.700; 2890.000; 2950.000
936.469;  197.625; 2367.000; 2378.000
936.707;  167.425; 2220.000; 2167.000
936.945;  229.875; 2825.000; 2882.000
937.182;  202.450; 2679.000; 2741.000
937.420;  307.625; 3602.000; 3031.000
937.657;  426.600; 3365.000; 3478.000
937.895;  360.075; 3331.000; 3488.000
938.133;  306.100; 3540.000; 3528.000
938.370;  333.500; 3896.000; 4191.000
938.607;  394.400; 4488.000; 4205.000
938.845;  551.150; 5587.000; 5549.000
939.082;  466.550; 5387.000; 5177.000
939.320;  521.650; 5799.000; 5728.000
939.557;  645.750; 6549.000; 6491.000
939.794;  714.200; 7285.000; 7097.000
940.031;  892.850; 8421.000; 8368.000
940.269; 1117.450; 9552.000; 9107.000
940.506; 1120.700;10901.000;10507.000

