
Integration time [ms]: 200.000
Averaging Nr. [scans]: 10
Smoothing Nr. [pixels]: 0
Data measured with spectrometer [name]: 2101013U2
Wave   ;Sample   ;Dark     ;Reference
[nm]   ;[counts] ;[counts] ;[counts] 

394.013;   76.845; -450.257; -315.536
394.305;  380.742; -461.258; -419.536
394.596; 1836.084; -676.269; -527.514
394.887; 4300.010; -796.268; -654.518
395.178; 1780.056;  145.736;   11.476
395.470;  139.374; -210.263; -356.526
395.761;  408.732;  305.734;  394.479
396.052;  598.492; -545.284; -306.489
396.343;  615.399; -557.276; -454.503
396.634;  203.851; -200.279; -290.497
396.926;  188.306; -618.268; -565.517
397.217;  199.706;   11.725;  -17.504
397.508;   91.131; -366.273; -154.507
397.799;   61.651; -555.279; -571.497
398.090;  -28.957; -973.280; -902.495
398.381;  228.177;   11.708;  -11.473
398.672;  -45.521; -585.292; -742.473
398.963;  104.661; -348.279; -373.498
399.254;  204.993;   54.709; -209.475
399.545;  -75.973;-1017.266; -883.520
399.836;  115.383; -407.277; -343.501
400.127;   76.041; -205.295; -209.468
400.418;  131.522; -423.274; -392.506
400.709;  109.323; -359.281; -333.493
401.000;   92.999; -268.291; -309.476
401.290;  229.844;  225.698;  115.545
401.581;  111.566; -166.286; -228.485
401.872;   21.198; -542.298; -486.462
402.163;  114.529; -313.296; -252.467
402.454;  177.594; -123.291; -163.475
402.744;  105.616; -844.297; -813.465
403.035;  681.164; -226.293;  -86.471
403.326;  895.684; -366.292; -384.474
403.617;  632.090;  204.701;  165.539
403.907;  435.401; -593.283; -679.490
404.198; 3957.973; -545.307; -599.446
404.489; 9923.809; -618.283; -588.491
404.779; 3514.249; -618.302; -660.456
405.070;  431.516;  -67.304; -174.451
405.360;  612.867; -259.293; -238.472
405.651;  647.566;  125.699;   98.542
405.942;  352.159;  209.714;  127.516
406.232;  428.881; -432.285; -413.487
406.523;  923.356;  641.706;  758.530
406.813;  186.762; -579.286; -644.484
407.104;  679.876;  261.708;  144.527
407.394;  335.091; -604.299; -591.462
407.685;  334.480;  336.715;  222.513
407.975;  131.706; -400.283; -382.490
408.265;  262.616; -134.289; -190.478
408.556;   90.689; -472.291; -459.475
408.846;  364.757;  474.706;  429.530
409.137;  182.729;   -1.288; -216.480
409.427;   92.580; -193.285; -271.487
409.717;   58.035; -776.273; -692.508
410.007;  266.071;    4.715; -170.486
410.298;  172.145; -360.295; -342.469
410.588;  126.876; -495.285; -510.486
410.878;   16.846; -792.287; -873.482
411.168;  212.902; -481.298; -478.463
411.459;  209.298; -295.283; -242.489
411.749;  124.287; -609.292; -507.474
412.039;   93.826; -755.289; -386.480
412.329;  392.272;   40.722;  132.501
412.619;  348.863;  -62.286; -148.485
412.909;  671.220;  639.711;  594.521
413.199;  578.043; -130.280; -251.495
413.490;  728.606;  521.710;  352.523
413.780;  242.449;-1013.279; -913.496
414.070;  599.201;  -46.276;  235.497
414.360;  604.966; -729.278; -666.498
414.650;  680.340; -726.288; -688.482
414.940;  896.748; -538.280; -441.496
415.230; 1527.535;   50.712;   74.519
415.520;10428.483;  155.730;   66.486
415.809;38792.222; -305.281; -125.493
416.099;30695.086; -388.277; -229.501
416.389; 8355.419;  435.726;  236.494
416.679; 5013.779;   91.738;   85.473
416.969;  873.553; -527.287; -503.483
417.259; 1006.252;  341.721;  171.503
417.549; 1234.021;  522.718;  318.508
417.838; 2744.809; -205.268; -147.518
418.128; 8783.014;  650.710;  492.522
418.418; 7379.345; -491.272; -579.509
418.708; 5093.419;    9.726;  -48.506
418.997;18523.012; -474.275; -480.505
419.287;19263.129; -733.273; -790.507
419.577;18548.397; -160.283; -123.489
419.866;58042.083; -588.277; -498.501
420.156;60030.477; -242.270;  -55.513
420.446;11674.768; -112.263;  -26.526
420.735; 1495.968; -376.271; -446.512
421.025; 1598.665; 1830.722;  315.502
421.314; 1238.765; -203.271; -226.512
421.604; 2465.098;   89.732;  233.484
421.893; 1394.059; -705.271; -602.511
422.183;  398.568; -487.263; -461.526
422.472;  640.761;  -36.271; -107.511
422.762;  776.836; -416.266; -379.521
423.051;  400.402; -916.276; -916.503
423.341;  551.532; -491.273; -439.507
423.630;  695.345; -121.265;   15.477
423.919;  715.411;   58.725;   49.495
424.209;  623.076;  -31.263;   56.473
424.498;  856.305;   68.732;  161.483
424.787; 1774.015; -535.267; -601.518
425.077; 5379.943;   34.735;   29.478
425.366; 7375.285; -734.262; -744.528
425.655;15536.533;  639.727;  259.493
425.945;32307.783; -313.247; -268.554
426.234;18714.220;  117.741;  300.467
426.523; 8251.828;  -86.259; -350.534
426.812;11453.930;  107.734;  159.480
427.101;16708.392; -127.269; -323.515
427.390;20601.283;  -55.270;  -86.514
427.680; 4759.858; -624.257; -411.538
427.969;  841.674; -330.255; -301.540
428.258;  536.245; -385.257; -477.536
428.547;  998.451;  449.728;  397.490
428.836; 2093.299; -421.253; -398.543
429.125; 2878.830; -199.259;  -72.534
429.414; 1449.034; -330.251; -294.548
429.703; 5271.234; -231.251; -213.548
429.992;14848.139; -938.250; -828.549
430.281; 9955.857; -397.264; -331.524
430.570; 1108.419;  -21.252;   32.454
430.859; 1108.127;  279.741;  352.466
431.148;  934.776;  636.752;  631.446
431.437;  572.718;  391.748;  367.454
431.725;  289.647; -544.257; -481.536
432.014;  187.010; -845.253; -756.545
432.303;  648.792; -149.239; -105.569
432.592; 1044.767; -460.263; -178.525
432.881; 1691.578; -601.248; -437.554
433.169; 9906.176; -343.255;  -61.540
433.458;19688.944;  445.765;  540.424
433.747; 8651.693; -397.261; -289.529
434.036; 1564.755; -275.242; -280.564
434.324; 3437.358; -395.249; -379.551
434.613; 5811.745;   40.757;  159.437
434.902; 2140.577;  333.760;  439.433
435.190; 1067.590;   75.761;  295.431
435.479;  611.117;  -52.245;   83.441
435.767;  247.630; -411.244; -427.561
436.056;  390.849; -340.242; -294.563
436.345;  646.380; -372.240; -223.568
436.633;  732.051;   60.750;  383.450
436.922;  510.984;  208.760;  414.432
437.210; 1149.528; -194.236;    1.426
437.499; 3321.341; -583.235; -432.576
437.787; 3644.128; -339.236;  -10.574
438.075;  961.699;   56.761;  162.430
438.364; 1285.303;  -44.238;  250.429
438.652;  838.263; -286.226; -138.592
438.941;  280.708;    3.770;  269.415
439.229;   31.115; -665.252; -466.545
439.517;  112.854; -160.234;  -85.577
439.806;   14.387; -501.225; -290.595
440.094;  387.365;  377.766;  650.421
440.382;  332.671; -653.233; -302.580
440.670;  344.240; -361.235; -285.576
440.959;   75.814; -347.223; -170.599
441.247;  146.725; -151.229; -109.587
441.535;  175.351; -266.235;   31.423
441.823;  102.461; -497.234; -305.578
442.111;  387.832;  173.771;  327.412
442.400;  898.016; -628.245; -335.559
442.688; 2373.265; -111.234; -620.579
442.976; 1636.448; -786.213; -450.617
443.264;  205.497; -324.224; -364.597
443.552;  191.665; -258.226;   51.408
443.840;  317.349;  602.765;  876.423
444.128;  236.570;  265.767;  269.420
444.416;   17.736; -694.228; -312.588
444.704;   60.859; -465.219;  -92.605
444.992;  137.169;   -0.226;  240.407
445.280;   98.409; -517.230;  -94.585
445.568;   37.953; -694.212; -396.618
445.856;  599.735; -174.221;  357.398
446.143; 1232.253;  -54.220;   -7.604
446.431; 1095.141;  -25.228;  625.411
446.719;  457.288;  489.783;  675.391
447.007;  365.900;  481.769;  705.416
447.295;  349.709;  597.777;  871.402
447.583;  148.922; -464.229;  -34.587
447.870;  249.530; -434.221; -202.601
448.158;  688.907; -104.230;  129.415
448.446;  498.155; -800.219; -338.604
448.733;  299.599;   13.776;  269.403
449.021;  435.353;   60.788;  341.382
449.309;  319.976; -296.210;  208.379
449.596;  402.283;  128.783;   59.392
449.884;  252.920; -571.222; -325.600
450.172;  207.350; -756.227; -406.590
450.459;  803.522;  645.786;  780.387
450.747; 3822.580; -411.218; -147.608
451.034;11599.843;  493.772;  889.411
451.322; 9803.227; -413.214; -170.614
451.609;  899.902;  292.777;  508.403
451.897;  989.672; -550.203; -183.634
452.184; 2791.909; -622.223; -400.598
452.472; 2768.708;   97.792;  269.375
452.759;  644.856;  512.781;  864.395
453.047;  205.649; -407.212; -125.617
453.334;  169.868; -732.219; -216.606
453.621;  158.230; -438.214; -161.615
453.909;  275.060;   13.796;  384.368
454.196;  218.829; -299.199; -123.641
454.483;  432.392;  317.798;  540.364
454.771;  275.513; -215.208;  196.374
455.058;  106.118; -316.207;  102.374
455.345;  223.214;   71.807;  344.347
455.632;  194.523; -128.207;  235.373
455.919;  140.164;  -82.196;  182.354
456.207;  -83.164; -774.198; -450.642
456.494;   -9.690; -475.200;  -66.639
456.781;   45.885; -399.202; -198.635
457.068;  137.833; -253.206;  -29.628
457.355;   -3.265; -698.206; -401.629
457.642;  -14.657; -552.205; -290.630
457.929;   29.400; -778.194; -417.651
458.216;  102.049; -575.212; -354.617
458.503;  425.207; -173.193;  -19.652
458.790;  350.410; -864.208; -630.625
459.077;  466.293;  -77.202;  110.364
459.364; 1294.589; -350.195; -210.649
459.651; 2643.530;  -46.206;  220.372
459.938; 1245.295; -864.209; -665.623
460.225;  298.998;  132.799;  276.363
460.512;  -67.341; -836.197; -688.645
460.799;  224.478;  -32.218;  320.392
461.086;  122.217; -370.200; -251.640
461.372;  108.737; -509.198; -279.642
461.659;  242.666; -165.196;  108.354
461.946;  126.605; -445.193;  -54.651
462.233;  449.614;  842.800;  888.361
462.519;  577.809; -814.201; -464.639
462.806; 1582.060; -768.197; -497.645
463.093; 1377.837; -445.191;  -66.656
463.380;  -54.400; -920.186; -824.664
463.666;  107.663; -259.197;  -18.646
463.953;  173.281; -406.195; -243.648
464.239;  356.781; -173.195;  -77.648
464.526;  700.798;  413.806;  743.350
464.813;  601.354; -565.190; -304.658
465.099;  668.207;  606.807;  607.348
465.386;  637.312;  903.807;  921.348
465.672;   25.560; -694.197; -522.645
465.959;   51.982; -598.188; -520.662
466.245;   61.113; -468.193; -359.652
466.532;  199.278; -109.195;   63.352
466.818;  177.299; -357.186; -216.664
467.104;   71.061; -488.182; -415.672
467.391;   12.857; -628.189; -459.658
467.677;  113.005; -289.186;    9.335
467.964;   32.367; -682.189; -471.660
468.250;  143.209; -331.186; -160.665
468.536;  186.559;   90.811;  180.341
468.822;  -25.273; -821.184; -574.668
469.109;  323.584;  351.827;  471.311
469.395;  407.327;  729.808;  787.346
469.681;  386.264;   46.811;  156.341
469.967; 2088.671; -699.188; -382.660
470.254; 4188.383; -494.188; -306.662
470.540; 2774.863; -601.196; -476.646
470.826;  407.478; -488.181; -397.675
471.112;  536.532;  288.816;  113.331
471.398;  219.939; -253.183;  -58.670
471.684;  111.721; -626.177; -447.680
471.970;   -5.717; -918.180; -981.675
472.256;   49.326; -521.192; -441.654
472.542;   70.901; -499.171; -434.691
472.828;   26.255; -743.182; -607.672
473.114;   85.267; -380.166; -283.700
473.400;   71.246; -504.175; -293.684
473.686;   67.477; -452.166; -400.701
473.972;  134.169; -230.174; -131.687
474.258;  -60.516; -925.173; -843.689
474.544;  348.308; -183.178;   -2.679
474.830;  543.649;  -65.175;   45.316
475.116;  770.957; -123.190; -196.658
475.401;  937.987; -558.180; -467.676
475.687;  264.385; -725.180; -718.676
475.973;   -5.833; -673.181; -770.673
476.259;  550.952;  736.825;  764.315
476.544;  616.833; -539.176; -437.682
476.830; 1239.995; -398.172; -322.690
477.116; 1104.931; -430.177; -336.682
477.401;  303.486;  346.820;  358.324
477.687;    1.546; -289.175; -405.684
477.973;   96.572;   21.819;   28.326
478.258;    7.908; -448.163; -348.706
478.544;  122.217;   21.815;   61.334
478.829;  -91.991; -818.171; -738.692
479.115;  -44.106; -749.172; -651.690
479.401;  -11.338; -444.174; -449.686
479.686;  122.184; -253.180;  -74.676
479.972;  -44.784; -886.178; -776.680
480.257;   71.170; -258.166;  -65.700
480.542;   31.315; -614.170; -469.693
480.828;  519.644; 1288.824; 1392.317
481.113;  -26.860; -464.176; -426.683
481.399;   50.745; -236.161; -202.711
481.684;  -80.331; -620.166; -462.700
481.969;   83.865; -158.159;  -73.713
482.255;   33.832; -439.169; -285.695
482.540;   33.517; -569.178; -441.680
482.825;   38.892; -395.187; -404.663
483.110;  173.637;  -85.169; -105.696
483.396;  312.298; -840.157; -652.718
483.681;  835.169;  543.826;  730.313
483.966;  264.056; -696.160; -700.712
484.251;   50.567; -404.174; -310.687
484.536;   63.785; -356.165; -378.703
484.822;   49.872; -205.173; -218.687
485.107;  -24.943; -599.152; -502.726
485.392;  313.894;  662.836;  541.296
485.677;  200.252;  354.832;  163.302
485.962;  243.594;  160.843;  270.283
486.247;  193.420;  -14.162;   -8.707
486.532;  101.571; -178.166; -325.701
486.817;  311.836;  381.839;  431.291
487.102;  238.731; -453.154; -514.722
487.387; 1038.201; -637.156; -652.718
487.672; 1733.702; -154.164;  -38.705
487.957; 1127.547; -394.160; -286.711
488.241;  345.682; -290.150; -314.729
488.526; 1197.359; -280.152; -148.726
488.811; 1772.819; -881.177; -818.680
489.096; 1357.335; -666.154; -702.723
489.381;  802.553;    3.847;  162.275
489.666;  581.744; -428.161; -510.710
489.950;  353.639;  558.846;  627.277
490.235;  -32.725; -480.151; -458.728
490.520;  -80.057; -756.161; -723.710
490.804;  -86.396; -827.156; -736.719
491.089;   11.406; -469.149; -299.732
491.374;   98.400; -132.164;  -75.704
491.658;   -0.476; -817.147; -717.735
491.943;  261.065; -657.152; -609.727
492.227;  443.724; -178.155;  -38.721
492.512;  100.194; -294.157; -341.717
492.797;  -95.103; -713.149; -716.731
493.081;  -90.672; -588.147; -598.735
493.366;  -73.955; -751.161; -635.711
493.650;  426.009;  831.859;  917.254
493.935;   31.323; -648.147; -447.734
494.219;  -71.010; -778.142; -687.743
494.503;  -79.411; -585.150; -487.730
494.788;   98.981;   46.842;   74.285
495.072;  217.284;  184.850;  434.271
495.356;  304.711; -463.148; -343.733
495.641;  671.038; -812.146; -736.736
495.925;  642.012; -976.156; -903.719
496.209;   69.705; -599.149; -451.732
496.494;  -69.209; -763.142; -544.744
496.778;   35.931; -364.154; -360.722
497.062;  -78.489; -819.156; -627.719
497.346;  -54.050; -869.160; -640.711
497.631;  319.317;  580.852;  560.266
497.915;  187.254;  -64.145;  175.261
498.199;  122.198; -341.157; -277.718
498.483;   81.156; -562.152; -508.725
498.767;  345.586;  301.850;  300.271
499.051;  304.202; -126.149; -100.732
499.335;   36.499; -693.149; -739.731
499.619;  -24.436; -381.129; -423.767
499.903;   53.922; -272.155;  -65.721
500.187;   69.342; -588.153; -316.724
500.471;    9.664; -796.152; -595.727
500.755;  212.143;   62.839;  -96.710
501.039;   48.123; -270.155; -357.721
501.323;  192.112;  -21.141;  264.254
501.607;   96.709; -447.163; -503.706
501.891;    0.401; -607.156; -512.718
502.174;  -32.329; -726.144; -585.741
502.458;  171.970;   89.849;  370.273
502.742;  107.648; -180.138; -191.751
503.026;  201.722; -412.147; -254.734
503.310;  233.164; -437.159; -375.713
503.593;  141.825; -464.147; -325.735
503.877;  234.510; -232.133; -156.760
504.161;  305.745;    2.847;  -50.724
504.444;  191.684; -841.158; -710.716
504.728;  711.298; -487.164; -522.704
505.012; 1115.981; -257.150;  -76.729
505.295;  882.745; -417.161; -212.711
505.579;  868.211; -256.156; -496.719
505.862; 1157.148; -555.145; -333.738
506.146; 1044.667; -681.159; -758.714
506.429;  725.368;  568.841;  461.286
506.713;   93.177; -732.151; -667.728
506.996;  554.230;   90.846;  295.278
507.280;  473.791; -633.165; -474.703
507.563;  375.420; -469.155; -261.721
507.847;  134.743; -423.153; -112.724
508.130;  162.946; -665.161; -456.711
508.413;  192.163; -758.167; -577.700
508.697;  400.263; -151.167;   12.300
508.980;  265.145; -422.153; -312.724
509.263;   14.614; -466.155; -450.720
509.547;   91.881; -124.150;   82.271
509.830;  152.749; -172.160;  140.289
510.113;  184.710;  128.844;  298.281
510.396;   35.454; -530.152; -300.725
510.680;  260.251; -818.145; -812.738
510.963; 1151.137;  184.846;  180.277
511.246;  922.793; -493.150; -357.730
511.529;  466.958; -482.145;  -83.739
511.812;  570.605; -250.134;   10.241
512.095;  390.472; -740.151; -396.728
512.378;  114.131; -317.147; -245.736
512.661;   65.360; -703.137; -623.753
512.944;   -7.007; -750.142; -637.744
513.227;  126.256; -170.137; -171.752
513.510;   76.171; -479.144; -671.741
513.793;   79.018; -485.140; -435.747
514.076;  264.996;  -43.127;  -39.771
514.359;  190.907; -294.149; -135.732
514.642;  129.797; -442.142; -567.744
514.925; 1184.616;  581.860;  561.253
515.208; 1494.099; -498.134; -443.758
515.491; 1015.520; -276.133; -182.761
515.773;  575.677; -410.143; -337.742
516.056; 3250.470;  249.864;  409.246
516.339; 4162.676; -754.136; -652.755
516.622; 3148.389; -518.150; -488.730
516.904; 2189.987;  882.857;  975.257
517.187;  932.754; -730.138; -523.752
517.470;  643.186; -568.143; -510.743
517.752;  618.880; -624.136; -470.756
518.035;  525.535; -708.139; -725.749
518.318;  582.276; -799.136; -744.755
518.600; 3608.426; -300.132; -325.762
518.883; 4814.696;  310.858;   88.256
519.165; 2431.143; -585.138; -426.751
519.448;  614.225;  -61.132;  -19.762
519.730;  321.007; -573.126; -415.773
520.013;  578.214;  588.867;  664.240
520.295; 1457.007;  -94.134;  -15.759
520.578; 3024.845; -335.131; -305.764
520.860; 3379.425; -254.132;   56.238
521.143; 1743.983; -763.135; -584.756
521.425;  756.527; -251.125; -279.775
521.707; 1021.696; -622.127; -380.771
521.990; 2703.397; -199.127;  167.229
522.272; 3046.721; -116.140;   -4.748
522.554; 1419.678; -237.143; -157.742
522.836;  604.404;  -24.134;   99.241
523.119;  351.820; -496.148; -189.734
523.401;  219.956; -448.130; -314.766
523.683;  125.861; -865.137; -693.753
523.965;  488.551;  408.862;  260.248
524.247;  469.959;   54.878;  170.220
524.529;  289.407; -451.134; -367.759
524.812;  587.558;   -3.130;  191.234
525.094; 1281.350; -773.138; -631.751
525.376; 2023.241; -143.124;   78.223
525.658; 1222.972; -441.136; -339.754
525.940;   32.140; -805.131; -671.764
526.222;   85.377; -188.136;  -88.755
526.504;  222.237; -190.131;   32.237
526.786;  259.711; -960.133; -647.760
527.068;  509.149; -124.123;  -67.778
527.349;  194.966; -865.137; -774.754
527.631;  241.425; -137.132;   22.238
527.913;  163.295; -664.127; -450.771
528.195;  213.816; -761.125; -639.774
528.477;  377.799;  -93.134;  -30.758
528.759;  186.858; -648.130; -522.766
529.040;   58.647; -569.123; -293.778
529.322;  101.720; -235.125;  -10.774
529.604;  264.762;  -47.130;   93.233
529.886;  168.807; -546.126; -302.773
530.167;  265.249;  232.870;  192.235
530.449;  108.130;    1.853;   63.265
530.731;   -0.142; -572.122; -459.779
531.012;   64.890; -513.120; -216.784
531.294;  157.849; -118.116;  -43.792
531.575;  276.627;  290.875;  538.225
531.857;   67.492; -548.135; -266.757
532.138;  229.010; -113.141;   40.254
532.420;  338.486;  294.865;  403.244
532.701;  285.215; -722.133; -751.760
532.983;  604.819;  232.867;  182.239
533.264;  223.504; -243.126;  175.228
533.546;  -20.823; -491.136; -508.755
533.827;  139.509;  173.867;   -1.759
534.109;   74.791; -352.135;  -80.757
534.390;  133.931; -725.132; -582.762
534.671;  412.185; -270.135;  -82.756
534.953;  205.951; -751.123; -611.779
535.234;   32.626; -426.117; -255.789
535.515; -143.398; -891.119; -735.785
535.796;   -9.611; -431.128; -193.770
536.078; -240.460;-1050.124; -904.777
536.359;   75.352;  -22.123;    3.221
536.640;  -23.082; -480.125; -197.774
536.921;  294.270;  225.871;  143.232
537.202;  601.845;  -87.138;  -16.751
537.483;  706.144;  251.869;  377.236
537.764;  283.849;   17.870;   98.235
538.045;  -51.402; -543.134; -371.758
538.326;  -72.428; -596.129; -447.768
538.607;    1.898; -686.127; -476.771
538.888;  284.276;   98.879;    5.218
539.169;  279.068; -704.122; -535.781
539.450;  546.368;  236.871;   16.233
539.731;  308.382; -361.121; -182.783
540.012;  235.690;  199.880;  412.216
540.293;  185.932;   82.876;  158.224
540.574;  -10.419; -895.113; -717.796
540.855;  781.280;  435.879;  377.218
541.136;  773.364;   47.878;  139.220
541.416;  489.959; -161.130; -220.766
541.697;  316.638; -274.131; -170.763
541.978; 1599.089; -270.135; -315.757
542.259; 1862.697; -211.127; -236.771
542.539;  999.840; -191.116; -186.790
542.820;  369.026;  461.875;  480.225
543.101;  251.253;  -52.145;  -77.738
543.381;   24.397; -638.127; -591.771
543.662;  465.193;  159.873; -254.771
543.942;  892.890; -751.127; -830.770
544.223; 1619.266;  193.878;  161.219
544.504; 1003.140; -275.124; -182.777
544.784;  907.706; -592.126; -408.773
545.065; 2529.746;  104.884; -254.791
545.345; 2982.803;  227.881;   14.215
545.626; 2025.980;  -14.113; -108.796
545.906; 1364.148;   77.869;   98.235
546.186;  563.713;   92.874;  -95.773
546.467;  341.044;   99.877;  -95.778
546.747;  527.140;  264.884;  327.210
547.027;  624.538;   91.876;  111.223
547.308;  501.089; -376.127; -530.770
547.588;  689.873;  299.871;  371.232
547.868;  356.150;  458.870;  588.235
548.149;  400.357;  609.885;  593.207
548.429;  204.794; -347.127; -299.771
548.709;  249.989; -645.120; -461.784
548.989;  738.617;   84.882;   88.213
549.269; 3245.823;   10.868;  139.239
549.550; 7015.650;  215.877;  117.222
549.830; 6348.307; -758.111; -556.799
550.110; 1309.319; -468.110; -320.801
550.390; 1295.158; -128.122;  -56.779
550.670; 1615.173; -868.114; -783.795
550.950; 1186.179; -509.121; -471.782
551.230;  391.573;  549.879;  460.218
551.510;   -8.623; -381.121; -326.782
551.790;   98.231; -173.109; -127.803
552.070;  541.544;  940.877; 1181.223
552.350;  577.809; -492.119; -377.786
552.630;  893.970;   -2.121;   77.219
552.909;  552.846;  181.884;   73.209
553.189;  406.233;  -49.132;   33.237
553.469;  238.508; -703.119; -514.786
553.749;  277.599; -469.127; -357.772
554.029;  277.133;   33.883;  -24.790
554.308;  260.763; -154.115;  -37.794
554.588;  133.987; -196.128; -204.770
554.868;  112.880; -366.121;  -47.782
555.147;  239.159; -114.115;  -46.793
555.427;  933.550; -260.116; -250.792
555.707; 5820.756; -284.115; -200.793
555.986; 6625.312; -719.111; -538.800
556.266; 3766.638;   23.884;   72.210
556.546;  140.277; -888.121; -675.782
556.825;  369.770; -657.114; -556.794
557.105; 2658.684; -125.128;   17.230
557.384; 2993.645;  122.884;  187.209
557.664; 1178.349; -717.116; -508.792
557.943;  173.679; -557.121; -411.782
558.222;  245.022; -345.118; -344.788
558.502;  430.661; -116.115;  -76.793
558.781;  788.554;  194.885;  499.208
559.061;  612.422; -232.118; -227.788
559.340;  502.629;  302.883;  353.211
559.619; 1086.537;   93.884;  148.210
559.899; 1489.932; -239.117; -266.789
560.178; 1374.960; -778.115; -593.793
560.457; 4749.634; -623.117; -562.790
560.736; 6250.514; -472.111; -482.800
561.015; 4340.681; -500.128; -502.769
561.295;  591.561;  180.893;  215.193
561.574;  549.857;  119.885;  116.207
561.853;  752.737;  274.891;  303.197
562.132;  748.364;  -45.114;  182.206
562.411;  709.470;  396.879;  553.219
562.690;  178.654; -592.115; -458.792
562.969;  266.391;  472.888;  630.203
563.248;  985.367; 2966.878; 2487.219
563.527;  421.613; -290.111; -408.800
563.806;  523.494; -650.127; -521.771
564.085;  653.684; -297.105; -206.810
564.364;  332.237; -594.117; -405.790
564.643;  744.071; -276.121; -223.781
564.922; 2781.128;  221.890;  397.198
565.201; 2669.333; -640.109; -700.803
565.479; 1194.452; -297.115; -219.792
565.758;  477.284; -810.128; -712.770
566.037;  727.835; -155.109; -100.803
566.316;  369.145; -286.116;  -28.791
566.595;   86.356;  -17.115;  -12.793
566.873;  248.416; -166.111;  -79.801
567.152;  -82.010; -490.113; -590.797
567.431;   22.839; -113.116;    6.210
567.709;   50.361; -344.107; -212.807
567.988;  336.070; -810.114; -769.794
568.266;  782.756; -160.115;  -68.793
568.545;  589.556; -644.100; -514.819
568.824;  907.051;  160.885;  356.208
569.102;  743.669; -351.114; -235.794
569.381;  310.350; -492.116; -407.792
569.659;  -45.016; -553.113; -553.796
569.938;   72.464; -743.122; -465.780
570.216;  170.839; -225.109; -225.804
570.494;  -40.026; -632.114; -572.795
570.773;   76.677;  202.879;  114.218
571.051;   10.048; -373.123; -357.778
571.330;  112.081; -221.113; -174.796
571.608;   84.183; -181.098; -173.823
571.886; -156.696; -671.111; -581.799
572.164;  -97.320; -739.121; -621.782
572.443;  -81.310; -562.105; -512.811
572.721;  -55.065; -399.117; -289.790
572.999;  -25.775; -280.117; -168.788
573.277;  210.380;  379.894;  620.191
573.555;  503.683;   94.894;   37.190
573.834; 1958.324;  -86.117; -114.788
574.112; 2307.465;  880.893;  811.193
574.390;  714.015; -143.111;  -96.801
574.668;   33.592;  -91.112;  -61.797
574.946;    1.183; -165.106; -187.810
575.224;   70.433;   71.891;  -16.803
575.502;   -1.158; -200.116; -204.791
575.780; -145.407; -767.112; -829.798
576.058;  544.013; 1589.889; 1004.200
576.336;  -54.478; -210.110; -129.801
576.614;  -76.506; -511.112; -340.798
576.891;   38.463; -711.115; -823.794
577.169;  711.351; -158.108; -285.805
577.447;  869.064;  169.893;  202.193
577.725;  445.500;  629.888;  854.201
578.003;   31.197;  -71.112; -371.798
578.280;  172.103; -208.104; -242.812
578.558;   77.661; -450.115; -422.793
578.836;  200.974; -210.114; -145.795
579.114;   49.591; -630.112; -670.797
579.391;  135.927;   -6.117;  -18.789
579.669; -122.136; -595.114; -704.794
579.947;  287.659; -326.107; -127.806
580.224;  457.659; -692.107; -524.806
580.502;  482.965;  127.893;   76.193
580.779;   35.436;  -42.117;   75.210
581.057; -140.960; -584.109; -470.804
581.334; -187.974; -726.102; -695.815
581.612;  110.285;   54.895;  511.190
581.889;  -10.654;  -83.101; -129.818
582.167;  -54.332; -298.099; -190.821
582.444; -191.162; -845.102; -814.817
582.721;  231.339;  657.899;  715.183
582.999;   93.364; -326.100; -167.821
583.276;  690.554; -812.123; -713.779
583.553;  933.531; -364.102; -294.816
583.831;  300.198; -607.104; -631.812
584.108;  142.048;  349.892;  174.195
584.385;   26.025; -122.102;  -98.815
584.662; -142.483; -651.111; -828.801
584.940;   80.915;  204.889;  204.199
585.217;  -33.516;  -73.113; -303.796
585.494;   85.429;   71.890;  118.198
585.771;  319.241; -250.109; -354.804
586.048;  766.683; -196.113;  -76.796
586.325;  418.320; -721.110; -773.801
586.602;  189.004;  230.896;  213.188
586.879;  -38.241; -499.100; -580.820
587.156;   91.386; -156.105; -331.810
587.433;  -56.365; -701.102; -667.817
587.710;  126.394;  152.888;  234.202
587.987;  482.794; -264.105; -236.811
588.264; 1229.097;  315.888;  387.202
588.541; 2167.108;  -61.104;   26.187
588.818; 3980.544;   72.892;  171.196
589.095; 3419.101; -163.104; -174.812
589.371;  589.138; -459.109; -414.804
589.648;    7.965; -581.107; -437.807
589.925;    0.375; -517.114; -621.795
590.202;    8.194; -741.112; -607.798
590.478;  158.896; -166.105;  -73.811
590.755;  421.553; -241.108; -132.806
591.032; 3656.824; -741.110; -699.802
591.308; 4738.344; -732.094; -790.831
591.585; 2577.023; -573.110; -560.802
591.862;  158.537;-1056.102; -950.817
592.138;   76.150; -475.108; -474.805
592.415;  260.105; -486.104; -495.813
592.691; 2372.702;  460.896;  518.188
592.968; 2687.986; -208.098; -123.824
593.244; 1340.239; -695.116; -595.790
593.521;  155.038; -105.102;  -42.817
593.797;  -23.640; -810.122; -720.780
594.074;  438.905; -611.096; -588.826
594.350; 1056.322;  828.905;  729.172
594.626;  430.717; -303.111; -283.801
594.903;  132.639; -643.101; -645.817
595.179;  363.511;  243.896;  418.187
595.455;   26.867; -136.107; -150.807
595.731;   75.213;  -19.103;  -38.814
596.008;  -23.892; -464.111; -434.800
596.284;   58.762; -187.100; -242.820
596.560;   58.654; -501.093; -493.833
596.836;  276.089; -173.105;  -70.810
597.112;  498.751; -582.108; -437.805
597.388;  407.802;  -49.097;  -48.826
597.665;  234.988;  437.887;  530.203
597.941; -105.601; -572.089; -658.839
598.217;   51.529; -323.110; -293.802
598.493;  378.943;   61.891; -204.804
598.769;  767.254; -175.100;  -50.819
599.045;  425.655; -490.108; -562.806
599.321;   61.161; -193.100; -261.820
599.597;  211.442; -355.109; -476.804
599.872;  705.708;  409.896;  429.187
600.148;  550.704;  -61.097; -172.826
600.424;  451.563;   91.893;  202.193
600.700;  297.966; -170.107; -280.807
600.976;  176.096; -442.097; -464.825
601.252;  341.637; -226.109; -272.803
601.527;  289.109; -833.104; -840.813
601.803;  188.197; -453.105; -404.812
602.079;  283.754; -124.100; -118.819
602.354;  826.169; -620.092; -531.835
602.630; 1161.184; -140.113; -482.796
602.906; 3546.146; -910.101; -863.818
603.181; 9423.508; -627.119; -534.786
603.457; 8123.901;   98.903; -278.826
603.733; 1203.983; -605.120; -626.783
604.008; 1608.384; -245.106; -164.810
604.284; 4291.541; -636.101; -580.817
604.559; 3865.600;   -3.112;  -42.799
604.835;  723.588; -163.105; -225.810
605.110;  575.569; -732.099; -892.821
605.385; 1102.258;  224.907;  267.167
605.661;  944.626; -625.095; -729.829
605.936; 1553.556; -664.108; -737.806
606.211; 1431.923;  -17.103; -170.815
606.487;  298.167; -329.114; -376.794
606.762;  -17.291; -791.119; -745.786
607.037;  -34.411; -501.105; -433.810
607.313;  -78.184; -589.096; -574.828
607.588;   -7.917; -375.106; -137.810
607.863;   49.446;  -28.101; -143.818
608.138;  360.327;  513.890;  516.198
608.413;   59.775; -576.099; -592.822
608.688;   20.650; -203.108; -267.805
608.964;  301.775; -509.106; -218.809
609.239;  360.885; -107.105; -212.810
609.514;  432.897;  281.895;  240.188
609.789;  971.703; -187.104; -716.812
610.064; 1251.214; -435.096; -609.827
610.339; 1228.838; -855.109; -799.804
610.614; 1665.561; -131.100; -315.820
610.889;  945.197;  215.895;  107.188
611.163;   39.798; -407.104; -591.812
611.438;  105.269;   81.886; -167.794
611.713;  -18.059; -467.101; -499.817
611.988;  102.144; -144.101; -328.818
612.263;  -78.574; -771.102; -717.815
612.538;  417.283;  385.887;  251.204
612.812;  200.763; -832.100; -911.820
613.087;  204.583; -358.098; -338.823
613.362; -103.034; -497.107; -557.807
613.637;  118.417;  261.897;  138.186
613.911;  -14.830; -256.092; -345.835
614.186;  192.464; -249.107; -292.807
614.460;  905.913; -842.081; -758.854
614.735; 1091.334;  -55.087;  -17.843
615.010;  264.019;   43.912;  -82.841
615.284;  418.949;  360.892;  246.195
615.559;  496.768; -792.092; -955.835
615.833;  466.172;  -76.099;  -87.822
616.108;    5.986; -225.090; -390.837
616.382;  270.037;  274.913;  402.156
616.656;  224.987; -241.090; -232.837
616.931;  719.173; -785.099; -700.822
617.205; 1443.110; -973.104; -979.813
617.480; 1434.423;  -91.125;    6.225
617.754;  243.220; -396.125; -128.774
618.028;    6.375; -369.129; -382.768
618.302;  106.947;   73.892;  -25.805
618.577;  -99.081; -371.103; -518.815
618.851; -107.668; -399.109; -600.803
619.125;  -70.893; -335.134; -378.759
619.399;  -46.990; -244.104; -374.813
619.673;  -62.249; -330.115; -515.792
619.947;  -70.827; -333.114; -448.795
620.222;   -7.782; -198.110; -204.801
620.496;   21.380;  -47.121;  -96.782
620.770;   58.467; -187.122;  -93.781
621.044;  398.486;  323.895;  346.190
621.318; 1062.384; -653.120; -614.783
621.592;  913.281; -430.121; -409.783
621.866;  508.202; -476.112; -572.799
622.140;   58.642; -207.116; -356.791
622.413;  121.508;  138.889;  112.200
622.687;  -80.259; -746.101; -492.817
622.961;   48.047; -130.108; -143.805
623.235;  -93.991; -633.111; -661.800
623.509; -205.304; -816.105; -848.811
623.783;   31.960;  -12.107;   48.193
624.056;  -22.214; -254.120; -280.783
624.330;   89.592;   63.888;   -3.797
624.604;  112.637; -271.116; -355.790
624.877;  155.625;  180.890;   26.198
625.151;   51.365; -249.114; -238.794
625.425;  -51.887; -150.103; -283.814
625.698;  -75.500; -367.119; -374.785
625.972; -172.671; -799.110; -765.802
626.245;  195.539;  685.884;  484.210
626.519;  -74.108; -426.120; -340.784
626.792;   -1.034; -192.107; -380.807
627.066; -168.444; -485.122; -662.779
627.339; -187.477; -736.110; -663.802
627.613;  106.590;  351.880;  148.216
627.886;  149.932;  187.891; -612.803
628.160;   -7.016;  312.880; -161.783
628.433; -175.772; -695.125; -703.775
628.706; -153.408; -517.120; -615.784
628.979;   91.838;  296.876;  117.223
629.253; -166.293; -785.119; -833.786
629.526;  499.904; -334.126; -253.772
629.799;  386.249; -641.123; -479.778
630.072;  208.577; -497.128; -516.769
630.346; -133.160;-1115.116;-1080.790
630.619;  651.567; -467.107; -545.808
630.892;  923.610;  709.889;  593.200
631.165;  575.810;  790.896;  679.187
631.438; -202.203;-1092.112;-1055.798
631.711;  137.753;  453.877;  257.221
631.984; -105.668; -523.117; -624.789
632.257; -109.773; -636.117; -681.789
632.530;  -44.000; -412.119; -433.785
632.803;   79.262; -109.115;    7.207
633.076; -132.557; -360.123; -422.777
633.349;   63.183;  173.872;  121.231
633.622;  -43.601; -187.119; -240.785
633.895; -217.214; -903.120; -823.783
634.167; -122.093; -496.126; -525.773
634.440;   25.349;  -19.116; -137.792
634.713;  -16.994;  -22.119; -120.786
634.986;  165.368;  593.871;  453.233
635.258; -112.340; -507.115; -597.793
635.531;  242.021;  742.882; -343.788
635.804;  -50.970; -303.117; -318.789
636.077; -163.757; -830.116; -852.791
636.349;  -19.743; -586.115; -474.793
636.622;  758.003; 1695.874; 1392.228
636.894;  347.392; -474.120; -909.784
637.167;  206.894; -836.127; -789.771
637.439;   75.788; -278.128; -213.770
637.712;  -66.795; -312.126; -293.772
637.984; -146.056; -635.116; -707.791
638.257;  700.444;  515.877;  488.222
638.529;  741.929; -881.125; -924.776
638.802;  353.977; -508.128; -449.769
639.074; -200.934; -927.122; -952.781
639.346; -234.706; -942.135; -930.757
639.619;   12.695;  -79.142; -319.744
639.891;   15.656;  -83.122; -168.779
640.163; -103.141; -689.122; -756.780
640.435;   81.862;  273.878;  103.220
640.708;   25.565;  -72.122; -132.780
640.980;   -5.132; -366.122; -362.781
641.252;  352.470;  -25.121;  -71.781
641.524; 2788.573;  580.879;  573.219
641.796; 2624.276;-1094.121; -907.782
642.068;  460.179; -191.121; -300.782
642.340;  -82.419; -486.121; -566.783
642.613;  118.484;  294.880;  323.217
642.885; -188.413; -787.120; -878.783
643.157;  -60.810; -810.120; -658.784
643.428;  140.193;  170.880;  218.216
643.700; -110.905; -498.120; -425.784
643.972;    0.298;  -16.119; -133.785
644.244; -168.999; -474.119; -559.785
644.516;  -38.896; -250.119; -114.786
644.788;  175.207;  662.881;  548.214
645.060;   24.809;  -12.119; -124.786
645.332; -168.888; -525.118; -535.787
645.603;  105.915;  479.882;  342.213
645.875; -116.582; -334.118; -369.787
646.147;  388.621; 1487.882; 1242.212
646.418; -137.277; -931.117; -918.788
646.690;  158.326; -714.117; -715.789
646.962;   72.629; -413.117; -451.789
647.233;   45.032;   15.883;   11.211
647.505; -177.166; -595.117; -475.790
647.776;  124.437;  328.884;  229.210
648.048;   -5.860; -248.116; -418.790
648.320; -118.357; -752.116; -679.791
648.591; -276.954;-1055.116; -958.791
648.862; -149.752; -505.116; -577.792
649.134;   79.051;  115.885;  198.208
649.405; -103.646; -661.115; -618.792
649.677;  -85.043; -475.115; -598.793
649.948;   -9.640; -181.115; -296.793
650.219;   39.862;  -37.115; -147.793
650.491; -123.335; -431.114; -520.794
650.762; -186.632; -705.114; -731.794
651.033; -110.729; -437.114; -424.795
651.304; -198.326; -743.114; -728.795
651.576; -124.824; -680.114; -645.795
651.847;  -22.521; -250.113; -140.796
652.118;   -5.018;  -32.113; -189.796
652.389; -165.915; -639.113; -722.796
652.660;  -30.412; -147.113;  -89.797
652.931; -246.310; -897.112; -871.797
653.202; -120.607; -382.112; -541.798
653.473;  -96.204; -633.112; -533.798
653.744;  195.899; -595.112; -590.798
654.015;  164.401; -356.112; -303.799
654.286; -134.296; -642.111; -663.799
654.557;  -99.693; -586.111; -521.799
654.828; -284.990;-1114.111;-1088.800
655.099; -103.687; -404.111; -291.800
655.370; -146.985; -427.111; -543.801
655.641; -199.382; -656.110; -714.801
655.911; -168.379; -618.110; -638.801
656.182;  159.424;  437.890;  387.198
656.453;  243.027;  830.890;  746.198
656.724; -105.671; -466.110; -426.802
656.994; -150.668; -553.109; -568.803
657.265; -206.865; -862.109; -873.803
657.536; -127.662; -500.109; -377.804
657.806; -124.459; -561.109; -593.804
658.077; -224.557; -866.109; -950.804
658.347; -128.554; -523.108; -598.805
658.618; -190.351; -646.108; -694.805
658.888;  -26.348;  -41.108;  112.195
659.159; -124.146; -432.108; -548.806
659.429;  -55.643; -292.108; -349.806
659.700;   28.360; -435.107; -390.807
659.970;  -20.837; -370.107; -359.807
660.241;   25.066; -754.107; -921.807
660.511;  745.368; -147.107; -174.808
660.781;  105.571; -793.106; -748.808
661.052;  -57.226; -222.106; -381.808
661.322;    6.077;   21.894;   -9.809
661.592;   88.980;  257.894;  148.191
661.862; -101.718; -369.106; -382.810
662.133; -166.215; -551.105; -502.810
662.403; -209.612; -770.105; -676.810
662.673;  -64.909; -256.105; -213.811
662.943; -162.506; -612.105; -551.811
663.213;   17.096;  -85.105;  -81.811
663.483; -136.401; -593.104; -568.812
663.753;  -43.598; -194.104; -152.812
664.023;   20.505;   68.896;  -32.813
664.293;  -63.293; -319.104; -126.813
664.563; -184.290; -694.104; -648.813
664.833; -176.387; -743.103; -608.814
665.103; -232.584; -730.103; -793.814
665.373; -220.481; -766.103; -806.814
665.643; -154.679; -863.103; -918.815
665.913;   25.324; -534.103; -714.815
666.182;  199.127; -685.102; -719.816
666.452;  422.430;  -22.102;  -89.816
666.722;  -66.967; -724.102; -784.816
666.992; -252.265; -948.102; -921.817
667.261; -174.262; -824.102; -808.817
667.531;  342.041;  134.899;   45.183
667.801;  819.344; -440.101; -412.818
668.070;  485.147;  714.899;  697.182
668.340; -195.351; -883.101; -840.819
668.609;  208.852;  588.900;  301.181
668.879; -127.445; -490.100; -558.819
669.149; -134.242; -539.100; -516.820
669.418; -162.839; -698.100; -726.820
669.688;  -41.837; -482.100; -666.820
669.957;   52.666; -423.099; -546.821
670.226;   -8.031; -268.099; -331.821
670.496; -127.228; -431.099; -635.822
670.765;  -99.826; -418.099; -501.822
671.034; -228.223; -872.099; -828.822
671.304;   11.680;   55.902; -111.823
671.573; -276.217;-1085.098; -957.823
671.842;   79.986; -380.098; -294.823
672.112;   26.088; -692.098; -586.824
672.381;  -19.209; -239.098; -214.824
672.650; -236.206;-1005.097;-1021.825
672.919; -146.703; -631.097; -507.825
673.188; -181.800; -681.097; -878.825
673.457; -304.498;-1101.097;-1143.826
673.726; -140.695; -579.096; -646.826
673.995;  -90.692; -533.096; -479.826
674.265;  -22.489; -263.096; -333.827
674.534;   35.814; -183.096; -235.827
674.802;  -19.484; -618.096; -703.828
675.071; 1517.819; -886.095; -801.828
675.340; 5295.822; -464.095; -339.828
675.609; 1844.725;  103.905;   82.171
675.878;   67.227; -949.095; -893.829
676.147;   80.930;  -26.095;   -8.829
676.416;  192.933; -210.094; -294.830
676.685; 1142.636; 1000.906; -622.830
676.953;  156.539; -603.094; -452.831
677.222;  -12.759; -193.094; -273.831
677.491;    8.544;  -24.094; -127.831
677.759;   31.347;   11.907;  172.168
678.028;    2.750; -279.093; -222.832
678.297;   53.553;   71.907;  197.168
678.565; -275.245; -898.093; -944.833
678.834;  -77.242; -311.093; -268.833
679.102; -122.839; -411.092; -391.834
679.371; -269.736; -898.092; -727.834
679.639; -206.633; -797.092; -786.834
679.908; -213.531; -794.092; -724.835
680.176; -248.428; -895.091; -941.835
680.445;  -89.925; -346.091; -352.835
680.713;   19.978;  -58.091;  -23.836
680.982; -153.119; -523.091; -525.836
681.250; -167.017; -578.091; -507.837
681.518; -152.414; -534.090; -751.837
681.787;  -20.011; -204.090; -167.837
682.055; -108.708; -490.090; -422.838
682.323; -262.206; -993.090; -992.838
682.591;  122.797; -216.090; -538.838
682.859;  129.600;    9.911;  -35.839
683.128;   83.303;  232.911;  497.161
683.396; -305.094;-1102.089;-1122.840
683.664;  -18.392; -241.089;   21.160
683.932;   42.111;  144.911;  -76.840
684.200; -118.586; -576.088; -320.841
684.468;   -7.383;  -73.088; -124.841
684.736;  -27.580; -214.088; -175.841
685.004; -248.378;-1024.088; -982.842
685.272;  -89.075; -880.088; -774.842
685.540; -116.172; -499.087; -557.843
685.808; -177.469; -651.087; -682.843
686.076; -208.266; -894.087; -969.843
686.343; -108.264; -601.087; -815.844
686.611;   76.339; -195.087; -224.844
686.879;  749.342; -530.086; -553.844
687.147; 4567.745; -483.086; -480.845
687.414; 1337.247;  -12.086; -169.845
687.682;   -2.850; -658.086; -757.846
687.950;  535.153;  259.915;  263.154
688.217;  -11.944; -792.085; -760.846
688.485;   -5.341; -632.085; -636.847
688.753;  751.761;  -11.085; -102.847
689.020;  174.164; -820.085; -851.847
689.288; -193.633; -853.084; -787.848
689.555;   -3.530; -195.084; -148.848
689.823;  -49.727; -241.084; -345.849
690.090; -137.825; -546.084; -651.849
690.358; -259.722; -877.084; -897.849
690.625;   32.781;  120.917;   45.150
690.892; -112.716; -403.083; -369.850
691.160;   26.787;   72.917;  -35.850
691.427;   33.889;  141.917;  130.149
691.694; -228.208; -855.083; -929.851
691.962; -245.905;-1177.082;-1060.852
692.229;   60.998;  127.918;   56.148
692.496;  170.501;  130.918;  -49.852
692.763;    2.103; -164.082; -201.853
693.031; -100.494; -739.082; -716.853
693.298;  -70.191; -509.081; -368.853
693.565;  532.512; -155.081; -163.854
693.832; 1685.114;   -5.081;   -9.854
694.099;  193.917; -643.081; -642.855
694.366; -126.380; -882.081; -896.855
694.633; -109.077; -920.080; -633.855
694.900; 1536.026; 4367.920; -114.856
695.167;  592.428; -214.080; -380.856
695.434;  118.031; -646.080; -623.856
695.701;  399.034;  121.921;  -61.857
695.968;  709.337; -365.079; -361.857
696.234; 1803.540; -415.079; -646.858
696.501;16983.642; -776.079; -614.858
696.768; 8194.845; -554.079; -617.858
697.035;  514.248; -632.078; -667.859
697.302;   61.251; -448.078; -552.859
697.568;   59.054; -458.078; -497.859
697.835;  -67.344; -683.078; -624.860
698.102;  -18.941; -498.078; -407.860
698.368;  217.262;  384.923;  396.139
698.635;  -15.835;  -47.077; -424.861
698.901;   -0.333; -240.077; -348.861
699.168;  127.870; -534.077; -456.862
699.435;  176.773;  -72.077;  -13.862
699.701; -215.224; -868.076; -764.862
699.968;  -51.321;  144.924; -441.863
700.234; -167.119; -783.076; -822.863
700.500;  -42.216; -448.076; -539.864
700.767;   30.287;   -1.075;   26.136
701.033; -253.810;-1015.075; -963.864
701.299;  -49.707; -450.075; -483.865
701.566;  266.995;  950.925;  763.135
701.832;   96.498;  -31.075;  -76.865
702.098; -165.899;-1054.074;-1034.866
702.365; -184.996;-1098.074;-1030.866
702.631;  -78.893;-1038.074;-1063.867
702.897; 2094.109; -765.074; -676.867
703.163; 3179.012;  348.926;  254.133
703.429;  269.615; -256.073; -273.868
703.695;  -65.582; -796.073; -792.868
703.961;   71.221; -214.073; -210.868
704.227; -119.977; -630.073; -725.869
704.493;  297.926;  613.927;  510.131
704.759;  -45.371; -565.072; -540.870
705.025;   60.432; -203.072; -194.870
705.291;   -9.766; -666.072; -562.870
705.557;  439.937;  719.928;   34.129
705.823;   77.640; -742.072; -694.871
706.089;  258.943; -307.071; -326.871
706.355;  679.246; -315.071; -244.872
706.620; 9808.448; -776.071; -729.872
706.886;12265.951; -309.071; -362.873
707.152; 1109.754; -818.070; -973.873
707.418;  -44.243;-1153.070;-1186.873
707.683;   27.960; -550.070; -530.874
707.949;  -53.538; -547.070; -578.874
708.215;   18.865; -129.070; -207.874
708.480;   10.668; -520.069; -420.875
708.746;  223.271;   68.931;   28.125
709.011;  -66.926; -578.069; -612.876
709.277; -117.224; -538.069; -543.876
709.542;  -51.421; -428.069; -387.876
709.808;   31.282;  -59.068;   89.123
710.073; -117.115; -577.068; -695.877
710.339;  -12.613; -242.068; -228.877
710.604;  119.490; -780.068; -845.878
710.869;  445.293; -277.068; -366.878
711.135; -124.604; -715.067; -628.879
711.400; -118.401; -507.067; -608.879
711.665;  -78.299; -404.067; -479.879
711.931; -189.996; -661.067; -677.880
712.196; -223.993; -876.067; -954.880
712.461;  151.910; -402.066; -490.880
712.726;  166.913; -727.066; -771.881
712.991; -141.185; -647.066; -664.881
713.256;  -51.182; -350.066; -332.882
713.521;  -74.079; -417.065; -381.882
713.787;  -87.176; -454.065; -472.882
714.052;    1.427; -214.065; -400.883
714.317; -194.571;-1045.065; -981.883
714.581; 1817.532; -374.065; -268.883
714.846; 2122.535; -822.064; -888.884
715.111;  273.838;  261.936;  257.116
715.376;    0.841;  -86.064; -223.885
715.641;  -17.857; -365.064; -367.885
715.906;  411.046;   15.936; -551.885
716.171;  249.549;  221.937;  209.114
716.436;   93.552;  -78.063; -104.886
716.700; -171.246; -818.063; -692.886
716.965; -195.443; -794.063; -807.887
717.230; -123.940; -339.063; -392.887
717.494;   -9.237;  -40.062; -134.888
717.759; -135.034; -784.062; -640.888
718.024;   51.968;  269.938;  250.112
718.288;  181.371;  685.938;  395.111
718.553; -278.326; -803.062; -977.889
718.817; -218.023; -883.061; -899.889
719.082;  -28.720; -115.061; -125.890
719.346; -235.418;-1000.061; -947.890
719.611;  -57.415; -300.061; -255.891
719.875; -163.612; -568.060; -537.891
720.140; -111.709; -453.060; -603.891
720.404;  112.494; -136.060; -249.892
720.668; 1227.296; -475.060; -411.892
720.933;  485.999;  146.940;  137.108
721.197; -161.898; -667.059; -600.893
721.461; -219.595; -851.059; -826.893
721.725;   47.207;  -21.059; -250.894
721.990;  -78.890; -284.059; -204.894
722.254;   -4.587;  -26.059; -108.894
722.518;  -87.484; -286.058; -442.895
722.782; -135.581; -743.058; -594.895
723.046;  261.121;  614.942;  570.105
723.310;  120.024;  374.942;  210.104
723.574; -158.373; -654.058; -614.896
723.838; -162.470; -576.057; -642.897
724.102;  -17.567; -226.057; -239.897
724.366; -211.465;-1032.057; -978.897
724.630; -177.162; -749.057; -571.898
724.894; -105.459; -722.057; -514.898
725.158;   -9.256;   38.944; -295.898
725.422;  -46.153; -394.056; -327.899
725.685;  -88.451; -441.056; -349.899
725.949; -135.048; -566.056; -519.900
726.213; -135.845; -732.056; -811.900
726.477;  170.158;-1020.055; -933.900
726.740;  253.760; -274.055; -104.901
727.004;  596.263; -384.055; -510.901
727.268; 5344.966; -442.055; -400.901
727.531; 1322.669; -961.055; -775.902
727.795;  -59.528; -713.054; -673.902
728.059;  -82.526; -552.054; -557.903
728.322; -105.623; -841.054; -669.903
728.586;   45.980; -692.054; -701.903
728.849; -130.817; -695.053; -756.904
729.112; -182.014; -812.053; -912.904
729.376; -187.112; -959.053; -905.904
729.639; -114.709; -536.053; -536.905
729.903; -147.906; -733.053; -699.905
730.166;  -66.403; -437.052; -399.906
730.429;   -6.400; -317.052; -468.906
730.693; -107.598; -355.052; -894.906
730.956;  470.705;  810.948;  651.093
731.219; 1010.508; -310.052; -103.907
731.482;  136.111;-1003.051; -894.907
731.745;   81.714; -794.051; -935.908
732.009;   95.216;  -30.051;   50.092
732.272; -186.081; -904.051; -771.909
732.535;  -54.278; -300.051; -310.909
732.798; -250.575;-1083.050;-1166.909
733.061;  -77.273; -430.050; -456.910
733.324;   51.830;   31.950; -180.910
733.587;  182.333;  290.950;  365.090
733.850; -107.564; -973.049;-1050.911
734.113;   91.239;   33.951;   32.089
734.376;   21.841; -328.049; -447.912
734.639;  454.044; 1188.951; 1011.088
734.901;  185.747; -180.049; -402.912
735.164;  768.450; -883.048; -837.913
735.427; 1831.253; -166.048; -355.913
735.690;  209.655; -205.048; -234.913
735.952;  -79.942; -923.048; -925.914
736.215;  -63.139;-1113.048;-1009.914
736.478;   60.064; -771.047; -774.915
736.740;  393.467;   33.953;  129.085
737.003; 1119.269; -658.047; -672.915
737.266; 5756.072;  -94.047;   46.084
737.528;  659.975; -682.047; -660.916
737.791;  530.478; -316.046; -327.916
738.053; 1473.380;  465.954;  649.083
738.316;18185.783; -162.046; -136.917
738.578;11155.386; -770.046; -736.918
738.841;  726.389; -382.046; -446.918
739.103;  281.092; -875.045; -777.918
739.365;  733.094;   79.955;  -69.919
739.628;   15.697; -884.045; -805.919
739.890;  -19.400; -758.045; -710.919
740.152;  -55.697; -692.044; -754.920
740.414;   63.006; -408.044; -359.920
740.677;  -83.692; -785.044; -634.921
740.939;  -42.989; -587.044; -487.921
741.201;  397.414; -432.044; -572.921
741.463;   76.917; -689.043; -745.922
741.725;   91.420;  -21.043; -199.922
741.987;  169.822;  220.957;  116.078
742.249;   -1.375; -751.043; -859.923
742.511;  308.028; -703.043; -794.923
742.773;    7.031; -546.042; -546.924
743.035;  273.834;  796.958;  533.076
743.297;  -70.664; -963.042;-1013.924
743.559; 1105.039; -278.042; -262.925
743.821;   47.742; -735.042; -744.925
744.083;   55.845;  -44.041; -149.925
744.345; -170.453; -869.041; -892.926
744.607;  135.050;   75.959;  122.074
744.868;  -72.047; -490.041; -554.927
745.130; -186.644; -994.041;-1008.927
745.392;  152.159;   -1.040;  -44.927
745.653;  -16.839; -411.040; -378.928
745.915;  367.864;  896.960;  631.072
746.177;  110.367;   35.960;  -43.928
746.438;    1.170; -428.040; -543.929
746.700;  -85.027; -947.039; -988.929
746.961;   -2.525; -659.039; -740.930
747.223;  274.878; -190.039;  -74.930
747.484;  162.881; -391.039; -471.930
747.746;  275.484;  -23.038; -106.931
748.007;  178.787; -647.038; -689.931
748.269;  513.889; -468.038; -440.931
748.530;  717.492; -852.038; -638.932
748.791;  457.695; -354.038; -420.932
749.053;  736.598;  286.963;  163.067
749.314;  705.700; -236.037; -169.933
749.575;  720.203; -945.037; -905.933
749.836; 1299.006; -217.037;   86.066
750.098; 4323.609;  -60.037;  -21.934
750.359;53589.012;  414.964;  555.066
750.620;12315.014; -121.036; -220.935
750.881; 1567.917; -585.036; -513.935
751.142; 2234.620; -950.036; -938.936
751.403;27083.323; -789.036; -705.936
751.664;10247.426;-1034.035; -999.936
751.925;  833.528; -175.035; -262.937
752.186;  498.331; -298.035; -278.937
752.447;  252.434; -590.035; -445.937
752.708;  107.237; -532.035; -648.938
752.969;   34.440; -566.034; -576.938
753.230;   37.442; -777.034; -672.939
753.491;   -3.455; -650.034; -631.939
753.751;  210.248;  109.966;   19.061
754.012;  250.151;  258.967;  181.060
754.273;  162.354; -174.033;  -71.940
754.534;   18.856; -487.033; -580.940
754.794; -129.541; -926.033; -911.941
755.055;  368.962; 1051.967;  881.059
755.316;  -43.135; -700.032; -566.942
755.576;   -4.433; -606.032; -576.942
755.837;  -45.930; -527.032; -695.942
756.097;  -57.227; -530.032; -564.943
756.358; -128.824; -725.032; -770.943
756.618;  -83.921; -705.031; -641.943
756.879;    6.181; -254.031; -349.944
757.139; -187.916;-1098.031;-1116.944
757.400;  -56.913; -538.031; -553.945
757.660;   17.890; -365.031; -401.945
757.920;   41.793; -266.030; -228.945
758.181;   -4.005; -468.030; -351.946
758.441; -141.302; -870.030; -809.946
758.701;  -12.699; -308.030; -215.946
758.961;   15.604; -220.030; -278.947
759.222;  -23.293; -574.029; -502.947
759.482; -131.791; -683.029; -723.948
759.742; -125.288; -706.029; -547.948
760.002;   87.015;  -83.029; -143.948
760.262;  111.618;   50.972;  182.051
760.522;  -47.480; -498.028; -574.949
760.782;  -83.777; -738.028; -612.949
761.042;  -17.974; -618.028; -573.950
761.302;  127.129;   55.972;  -18.950
761.562;  163.332; -164.027; -154.951
761.822;  124.934; -710.027; -551.951
762.082;  -59.363;-1104.027;-1093.951
762.342;  215.440; -328.027; -403.952
762.601;  160.243; -567.027; -506.952
762.861;  612.346; -281.026; -207.952
763.121;  849.848; -406.026; -411.953
763.381;13926.351; -499.026; -485.953
763.640;12948.154; -139.026; -307.954
763.900;  652.957; -242.026; -203.954
764.160;  185.060; -458.025; -491.954
764.419;   15.162; -726.025; -782.955
764.679;  -78.135; -795.025; -726.955
764.939;   61.668; -124.025; -210.955
765.198; -112.029; -608.025; -563.956
765.458; -124.226; -710.024; -612.956
765.717;  -90.224; -454.024; -590.957
765.976;  -38.521; -428.024; -411.957
766.236; -136.518; -475.024; -610.957
766.495;   93.885;  260.977;   73.042
766.755; -167.513;-1090.023; -987.958
767.014;  -17.710; -594.023; -665.958
767.273;  -72.407; -373.023; -397.959
767.533;  -38.004; -228.023; -307.959
767.792;    8.599; -151.022; -188.960
768.051;  -39.599; -228.022; -276.960
768.310; -102.596; -546.022; -650.960
768.569;   47.607; -161.022;    4.039
768.828;  -22.490; -285.022; -363.961
769.088; -178.787;-1050.021; -942.961
769.347; -125.485; -755.021; -599.962
769.606; -150.582; -876.021; -857.962
769.865; -163.979;-1016.021;-1033.963
770.124;   56.924; -411.021; -336.963
770.383;  -68.773; -778.020; -910.963
770.641;   14.529; -398.020; -400.964
770.900; -104.268; -953.020; -846.964
771.159; -103.565; -851.020; -951.964
771.418;  -23.962; -917.020; -779.965
771.677;  286.640; -224.019; -293.965
771.936;  302.443; -794.019; -865.966
772.194; 4551.446; -465.019; -437.966
772.453;17632.749; -213.019; -391.966
772.712; 1307.152;  416.982;  329.033
772.970;  295.454;   32.982;   63.033
773.229;  200.057;  -22.018;  102.033
773.488; -120.140; -814.018; -770.968
773.746;  199.563;  296.982;  335.032
774.005;   78.166;  190.983;  -22.969
774.263;  105.568;  243.983;  177.031
774.522; -129.929; -422.017; -548.969
774.780; -112.026; -484.017; -417.970
775.039; -129.723; -551.017; -531.970
775.297;   -9.520; -135.016; -351.970
775.555; -163.418; -489.016; -612.971
775.814; -183.215; -618.016; -570.971
776.072; -186.412; -749.016; -740.971
776.330; -134.509; -630.016; -520.972
776.589; -195.807; -703.015; -721.972
776.847; -205.804; -645.015; -624.973
777.105; -279.501;-1016.015;-1032.973
777.363; -102.098; -459.015; -454.973
777.621; -205.795; -660.015; -717.974
777.879;    1.407;  -42.014;   32.026
778.138; -124.690; -554.014; -717.974
778.396; -127.487; -585.014; -526.975
778.654; -277.784;-1015.014; -970.975
778.912;  -67.681; -269.014; -371.976
779.170; -196.679; -880.013; -803.976
779.427; -241.276; -922.013; -897.976
779.685; -244.673; -880.013; -832.977
779.943; -138.470; -654.013; -593.977
780.201; -248.067; -964.012; -883.978
780.459; -176.165; -651.012; -610.978
780.717;  -90.262; -440.012; -390.978
780.974; -142.559; -449.012; -490.979
781.232;  -68.756; -358.012; -338.979
781.490; -107.853; -551.011; -472.979
781.747; -163.851; -555.011; -476.980
782.005;  124.152;  462.989;  254.020
782.263; -277.145; -542.011;-1004.981
782.520;  -98.542; -326.011; -501.981
782.778; -263.140;-1013.010;-1051.981
783.035; -286.437; -962.010; -938.982
783.293;  -37.134; -248.010; -206.982
783.550;  -21.031; -134.010; -198.982
783.808; -217.528; -764.010; -776.983
784.065; -236.426; -745.009; -874.983
784.322;  -44.323;   25.991;  -86.984
784.580; -227.320; -915.009; -771.984
784.837; -131.917; -392.009; -466.984
785.094; -173.614; -783.009; -762.985
785.352; -103.112; -304.008; -404.985
785.609; -200.909; -934.008; -839.985
785.866; -127.906; -345.008; -401.986
786.123;  -92.803; -639.008; -583.986
786.380; -147.300; -665.008; -604.987
786.637;   -2.998; -225.007; -380.987
786.895;  -33.695; -456.007; -543.987
787.152;  -42.292; -135.007; -267.988
787.409;  -24.589; -123.007; -225.988
787.666; -116.987; -299.006; -378.988
787.923; -142.784; -616.006; -695.989
788.179; -140.781; -551.006; -584.989
788.436; -170.378; -585.006; -585.990
788.693;   -9.575;  -92.006;  -87.990
788.950;  263.327; -125.005; -112.990
789.207;  301.630; -381.005; -372.991
789.464;  -41.767; -161.005; -301.991
789.720;   40.236;  150.995;  110.009
789.977; -273.161;-1003.005; -671.992
790.234;   -5.459;   44.996;  -66.992
790.490; -222.756; -884.004;-1031.993
790.747;   18.847;  -85.004;   22.007
791.004;  -35.050; -426.004; -348.993
791.260; -114.447; -430.004; -560.994
791.517; -166.945; -843.003; -788.994
791.773;  -61.142; -379.003; -342.994
792.030; -145.839; -596.003; -660.995
792.286; -125.536; -686.003; -636.995
792.543;   37.867;  -74.002; -159.995
792.799;  -69.431; -584.002; -382.996
793.055; -274.828;-1179.002;-1210.996
793.312; -127.925; -827.002; -816.997
793.568; -114.122; -746.002; -599.997
793.824;   58.380; -226.001; -284.997
794.081;   55.983; -447.001; -508.998
794.337;  133.186; -664.001; -561.998
794.593; 2847.889; -319.001; -271.999
794.849;10466.592; -746.001; -772.999
795.105;  540.794; -270.000; -261.999
795.361;   57.097; -490.000; -457.000
795.617;  -84.400; -875.000; -945.000
795.873;  -48.900; -360.000; -407.000
796.129;  -29.200; -368.000; -306.000
796.385;   18.200; -124.000; -156.000
796.641;  220.200;  412.000;  550.000
796.897; -114.300; -666.000; -635.000
797.153;  214.800;  453.000;  357.000
797.409; -158.700; -785.000; -868.000
797.665; -115.200; -625.000; -732.000
797.921; -129.400; -775.000; -762.000
798.176; -102.000; -744.000; -747.000
798.432;  -95.000; -824.000; -596.000
798.688; -110.300;-1174.000;-1078.000
798.943;  183.600; -165.000; -147.000
799.199;    2.300;-1005.000; -959.000
799.455;  443.800;  369.000;  316.000
799.710;  230.500; -813.000; -380.000
799.966;  527.900; -162.000; -160.000
800.221;  826.900; -638.000; -721.000
800.477;18777.800; -743.000; -710.000
800.732;12988.000; -773.000; -800.000
800.988; 1080.400;  205.000;  -19.000
801.243; 4097.200; -454.000; -344.000
801.498;13554.300; -814.000; -739.000
801.754;  779.700; -289.000; -163.000
802.009;  207.000; -257.000; -335.000
802.264;  -61.300; -967.000;-1033.000
802.520;  110.900;  222.000;   -3.000
802.775;  -29.000; -524.000; -359.000
803.030;  158.700;  395.000;  356.000
803.285; -179.500; -840.000; -903.000
803.540;  -65.400; -686.000; -699.000
803.795;  -14.700; -648.000; -583.000
804.051;  -22.000; -279.000; -346.000
804.306;  114.900;  168.000;  128.000
804.561;  311.000;  451.000;  362.000
804.816;  334.500;  714.000;  861.000
805.071;   79.500; -185.000; -280.000
805.325;  314.700; -257.000; -427.000
805.580; -140.800; -841.000; -877.000
805.835;   46.300; -204.000; -297.000
806.090; -109.700; -760.000; -676.000
806.345;    8.900; -344.000; -264.000
806.600;  -30.100; -549.000; -632.000
806.854;  -33.600; -408.000; -538.000
807.109;   13.700; -493.000; -577.000
807.364;   70.900; -407.000; -328.000
807.618;   15.600; -415.000; -381.000
807.873;  111.200; -470.000; -494.000
808.128;  226.600; -257.000; -518.000
808.382;  247.200; -224.000; -332.000
808.637;  138.000; -440.000; -511.000
808.891;  364.600; -257.000; -180.000
809.146;  194.200; -902.000; -794.000
809.400;  476.200; -848.000; -923.000
809.654;  536.500; -779.000; -551.000
809.909;  805.500; -841.000; -927.000
810.163;12368.900; -813.000; -651.000
810.418;24969.500; -940.000; -861.000
810.672; 1614.400; -685.000; -690.000
810.926; 1251.500; -993.000; -973.000
811.180; 2766.100; -439.000; -372.000
811.434;58274.800;  240.000;  135.000
811.689;18524.200; -231.000; -365.000
811.943; 1009.500; -936.000; -953.000
812.197;  649.600; -893.000; -671.000
812.451;  303.700; -379.000; -514.000
812.705;  -13.000; -809.000; -619.000
812.959;  -38.400; -263.000; -388.000
813.213;   70.600; -283.000; -209.000
813.467;  206.900;  470.000;  253.000
813.721; -110.100; -764.000; -792.000
813.975; -168.200; -826.000; -877.000
814.229;  127.600;  430.000;  353.000
814.482;  -86.000; -517.000; -566.000
814.736; -157.200; -766.000; -744.000
814.990; -205.400; -779.000; -872.000
815.244;  -21.900; -228.000; -285.000
815.497; -103.500; -636.000; -601.000
815.751;   53.900; -141.000;   82.000
816.005; -109.000; -470.000; -586.000
816.258;  -96.100; -510.000; -363.000
816.512; -134.400; -693.000; -610.000
816.766;   57.400;  121.000;  157.000
817.019;  102.200;  148.000;  149.000
817.273; -209.100;-1000.000; -802.000
817.526;   12.400; -206.000; -173.000
817.779;  -74.400;-1049.000; -960.000
818.033; -115.700; -693.000; -807.000
818.286; -160.500; -725.000; -792.000
818.540; -127.000; -403.000; -403.000
818.793;  -78.900; -402.000; -489.000
819.046; -158.100; -582.000; -520.000
819.299;    4.500; -157.000; -166.000
819.553; -162.400; -552.000; -592.000
819.806; -272.700;-1016.000; -838.000
820.059;  -59.100; -334.000; -354.000
820.312;   78.800;  152.000;  185.000
820.565;   54.000;  110.000;  -27.000
820.818;   -9.300;  -59.000; -173.000
821.071; -241.100;-1041.000; -957.000
821.324; -132.700; -536.000; -540.000
821.577; -149.100; -457.000; -483.000
821.830;  -46.800; -270.000; -172.000
822.083; -209.100; -733.000; -288.000
822.336;  -31.200; -261.000; -167.000
822.589; -197.100; -805.000; -688.000
822.842; -241.100; -875.000; -770.000
823.094; -306.000;-1076.000;-1114.000
823.347; -192.800; -925.000; -729.000
823.600;   87.800;  402.000;  187.000
823.853;  -22.300; -311.000; -267.000
824.105;  -77.000; -331.000; -575.000
824.358; -146.200; -617.000; -716.000
824.611;   99.600;  234.000;   40.000
824.863;  -71.700; -612.000; -591.000
825.116;  119.100;  -33.000;   27.000
825.368;  119.600; -366.000; -372.000
825.621;  268.200; -186.000; -240.000
825.873;  138.400; -704.000; -737.000
826.126; 1113.500; -669.000; -641.000
826.378;19373.000; -389.000; -505.000
826.630; 3509.100; -890.000; -898.000
826.883;   66.100; -754.000; -693.000
827.135;  102.000; -279.000; -270.000
827.387; -197.300; -893.000; -839.000
827.639;  -14.000;  -86.000;   32.000
827.892; -178.900; -742.000; -582.000
828.144; -233.900; -848.000; -804.000
828.396;   17.000;  104.000;  -80.000
828.648; -139.000; -440.000; -333.000
828.900; -216.900; -702.000; -795.000
829.152; -178.300; -684.000; -683.000
829.404; -107.500; -215.000; -267.000
829.656;   74.800;  321.000;  214.000
829.908;   28.000;  393.000;  229.000
830.160; -286.500;-1064.000;-1047.000
830.412; -133.700; -481.000; -430.000
830.664; -203.500; -557.000; -665.000
830.916;  -81.400; -268.000; -206.000
831.167; -288.700;-1073.000; -951.000
831.419; -161.500; -623.000; -566.000
831.671; -224.300; -764.000; -809.000
831.923;  -84.400; -311.000; -447.000
832.174;  -54.500; -273.000; -331.000
832.426; -159.800; -493.000; -582.000
832.678; -343.600;-1043.000;-1091.000
832.929; -283.200; -947.000; -935.000
833.181; -111.700; -575.000; -677.000
833.432;  -25.900;  -59.000; -186.000
833.684;   33.600;  112.000;  -27.000
833.935; -146.000; -610.000; -566.000
834.187; -198.900; -829.000; -823.000
834.438;  -17.400;  -58.000;  -25.000
834.689;  -69.900; -255.000; -123.000
834.941;  -62.300; -343.000; -244.000
835.192; -106.100; -590.000; -533.000
835.443; -121.900; -419.000; -506.000
835.695;   41.800;  138.000;  -16.000
835.946;  -85.100; -608.000; -378.000
836.197; -179.300; -599.000; -622.000
836.448; -112.900; -528.000; -395.000
836.699;  -36.400; -253.000; -341.000
836.950;   26.600;   72.000;    7.000
837.201; -233.100;-1003.000; -987.000
837.452;  -29.100; -356.000; -170.000
837.703; -196.400; -791.000; -737.000
837.954;  -24.700; -205.000; -365.000
838.205; -132.600;-1029.000;-1008.000
838.456;  290.500; -196.000; -282.000
838.707;   18.100; -423.000; -519.000
838.958;   29.300; -634.000; -647.000
839.209;  459.200;   18.000;   40.000
839.460;  201.100; -439.000; -201.000
839.710;  345.600; -135.000; -297.000
839.961;  783.200;  730.000;  612.000
840.212;  556.900; -382.000; -497.000
840.462; 2072.400; -328.000; -277.000
840.713;30613.500; -571.000; -536.000
840.964; 9426.000;  -62.000; -143.000
841.214;  839.700; -384.000; -624.000
841.465;  951.800; -214.000; -141.000
841.715;  837.400; -417.000; -380.000
841.966; 1099.700; -746.000; -685.000
842.216;17391.100; -330.000; -431.000
842.466;51037.900; -169.000; -313.000
842.717; 2039.800; -964.000; -952.000
842.967;  559.500; -635.000; -641.000
843.217;  452.200;   20.000;   28.000
843.468;  164.600; -104.000; -132.000
843.718;  -33.300; -718.000; -726.000
843.968; -152.700; -837.000; -765.000
844.218;   82.800; -315.000; -262.000
844.469;  -75.300; -577.000; -561.000
844.719; -161.900; -537.000; -682.000
844.969; -114.400; -550.000; -580.000
845.219; -208.900; -814.000; -862.000
845.469;  -65.800; -392.000; -342.000
845.719; -215.200; -792.000; -884.000
845.969;   53.800;  119.000;  174.000
846.219; -186.700; -738.000; -720.000
846.469;  113.100;  464.000;  432.000
846.718;  -31.100; -115.000;   31.000
846.968; -188.700; -827.000; -827.000
847.218;  -42.400; -224.000; -371.000
847.468; -154.000; -586.000; -555.000
847.718; -206.900; -827.000; -798.000
847.967; -215.100; -826.000; -915.000
848.217; -108.100; -449.000; -569.000
848.467;  -51.600; -405.000; -376.000
848.716; -178.500; -708.000; -725.000
848.966;   25.200; -372.000; -358.000
849.215;  -46.400; -428.000; -419.000
849.465; -121.100; -785.000; -615.000
849.714; -240.200;-1132.000;-1150.000
849.964;  -91.200; -551.000; -613.000
850.213;    7.800; -393.000; -355.000
850.463;  236.400;  137.000;  340.000
850.712;    6.000; -542.000; -567.000
850.961;   76.700; -739.000; -678.000
851.211;  165.400; -513.000; -504.000
851.460;  260.100; -635.000; -650.000
851.709; 1033.700;  -25.000;   18.000
851.958;18881.100; -912.000; -750.000
852.208;17772.900; -859.000; -879.000
852.457;  715.000; -181.000;  -13.000
852.706;  151.300; -791.000; -823.000
852.955;   56.700; -507.000; -528.000
853.204;  -80.600; -521.000; -461.000
853.453;  -92.900; -418.000; -458.000
853.702; -196.500; -660.000; -750.000
853.951; -149.100; -532.000; -520.000
854.200; -158.000; -613.000; -562.000
854.449; -210.300; -695.000; -661.000
854.698; -144.000; -340.000; -279.000
854.946;  -63.200; -181.000; -284.000
855.195; -214.800; -843.000; -868.000
855.444; -118.600; -395.000; -420.000
855.693; -185.900; -345.000; -432.000
855.941; -126.600; -387.000; -516.000
856.190;  -77.400; -256.000; -382.000
856.439; -218.900; -652.000; -703.000
856.687;  -43.000;  -99.000;  -72.000
856.936; -158.300; -621.000; -323.000
857.184; -317.200;-1067.000;-1020.000
857.433; -142.500; -423.000; -512.000
857.681; -265.600; -989.000; -953.000
857.930; -105.500; -282.000; -433.000
858.178; -264.600; -856.000; -929.000
858.427; -222.200; -802.000; -781.000
858.675; -159.400; -377.000; -544.000
858.923; -131.600; -527.000; -819.000
859.172; -296.600;-1094.000;-1070.000
859.420; -141.500; -339.000; -239.000
859.668; -184.300; -624.000; -628.000
859.916;   13.600;  109.000;  115.000
860.164; -200.300; -699.000; -603.000
860.413;  460.200; -878.000; -696.000
860.661;  199.900; -709.000; -577.000
860.909; -146.400; -339.000; -325.000
861.157; -102.100; -277.000; -444.000
861.405; -176.600; -534.000; -670.000
861.653;   79.600;  310.000;  310.000
861.901;  318.400; -543.000; -613.000
862.149;  -37.200; -801.000; -824.000
862.396; -107.100; -297.000; -187.000
862.644;  -91.900; -368.000; -347.000
862.892;   27.100;   98.000;  138.000
863.140; -150.100; -549.000; -530.000
863.388; -263.500; -815.000; -759.000
863.635; -189.900; -642.000; -601.000
863.883;   25.400;  231.000;  190.000
864.131; -126.100; -288.000; -357.000
864.378; -206.400; -675.000; -540.000
864.626; -137.000; -347.000; -415.000
864.873; -182.900; -556.000; -505.000
865.121; -225.500; -714.000; -799.000
865.368;  -16.200; -173.000;   75.000
865.616;  -14.200;  -33.000;  -40.000
865.863;  -95.300; -462.000; -506.000
866.111; -183.100; -795.000; -824.000
866.358;  150.900; -426.000; -420.000
866.605; 4712.900;  -64.000; -804.000
866.853; 3608.700; -621.000; -537.000
867.100;  -64.800; -728.000; -775.000
867.347; -138.500; -672.000; -611.000
867.594; -112.600; -740.000; -714.000
867.841;  187.900;   97.000;   17.000
868.089; -249.300; -746.000; -698.000
868.336; -144.100; -477.000; -420.000
868.583; -186.200; -637.000; -741.000
868.830;  -18.800; -131.000; -170.000
869.077; -275.000; -859.000; -787.000
869.324; -194.700; -502.000; -458.000
869.571; -182.200; -398.000; -430.000
869.818; -182.700; -485.000; -439.000
870.065; -157.800; -439.000; -513.000
870.311; -158.600; -456.000; -542.000
870.558; -128.100; -332.000; -311.000
870.805;  -87.400; -320.000; -384.000
871.052; -138.700; -494.000; -369.000
871.298;  -34.800; -204.000; -131.000
871.545;  -71.700; -151.000; -185.000
871.792;  -98.700; -173.000; -222.000
872.038;  -70.200;   43.000; -126.000
872.285; -198.200; -496.000; -387.000
872.532; -139.100; -357.000; -387.000
872.778;  111.000;  556.000;  403.000
873.025; -133.900; -384.000; -359.000
873.271;  104.500;  501.000;  578.000
873.517;   15.600; -133.000; -209.000
873.764;  -52.900; -193.000;  -80.000
874.010;  -82.100; -143.000; -230.000
874.257;  -12.700;  123.000;   90.000
874.503; -186.300; -579.000; -479.000
874.749;  -77.300;   31.000;  275.000
874.995;  -49.000;  -80.000;  -20.000
875.242; -198.700; -540.000; -478.000
875.488; -155.900; -414.000; -439.000
875.734;  -39.200; -106.000; -234.000
875.980;  316.200; -872.000;-1032.000
876.226;  507.400; -157.000; -255.000
876.472;   53.300;  343.000;  237.000
876.718;  -18.500;  184.000;  158.000
876.964;   -8.500;   56.000;   55.000
877.210; -203.600; -547.000; -677.000
877.456; -201.000; -630.000; -557.000
877.702; -266.900; -821.000; -832.000
877.948; -168.600; -377.000; -497.000
878.193;   94.200;  361.000;  255.000
878.439; -142.700; -487.000; -472.000
878.685;  -98.000; -272.000; -343.000
878.931; -217.000; -618.000; -676.000
879.176; -105.000; -201.000; -201.000
879.422; -287.800; -933.000; -820.000
879.668;  123.300;   10.000;   79.000
879.913;  249.400;   53.000;  137.000
880.159;  -38.400; -112.000;  -17.000
880.404;  -48.300; -152.000; -162.000
880.650;   22.800;   91.000;  141.000
880.895; -240.400; -670.000; -710.000
881.141; -160.200; -454.000; -428.000
881.386; -209.500; -503.000; -658.000
881.631; -117.700; -311.000; -166.000
881.877;   19.300;  112.000;  -13.000
882.122; -187.300; -684.000; -600.000
882.367;  -62.100; -136.000; -186.000
882.612;  -82.300;  -80.000; -176.000
882.858; -259.700; -877.000; -823.000
883.103; -136.000; -297.000; -267.000
883.348; -249.800; -759.000; -852.000
883.593; -216.000; -677.000; -602.000
883.838;  -51.800; -311.000;  -24.000
884.083;  115.400;  353.000;  288.000
884.328; -143.400; -564.000; -545.000
884.573;  -45.300; -196.000; -143.000
884.818;  346.400; -694.000; -531.000
885.063;  253.900; -348.000; -315.000
885.308; -143.000; -475.000; -398.000
885.553;   48.600;  245.000;  325.000
885.797; -219.400; -545.000; -615.000
886.042;  -41.800;    8.000;   58.000
886.287;  -73.400; -253.000; -211.000
886.532;  -32.500;   26.000;  204.000
886.776; -143.700; -407.000; -525.000
887.021; -221.700; -621.000; -574.000
887.265; -214.100; -685.000; -689.000
887.510; -203.600; -557.000; -496.000
887.755;  -67.600; -194.000; -164.000
887.999; -189.400; -552.000; -575.000
888.244;  -40.000;  -58.000;  161.000
888.488;   53.300;  371.000;  393.000
888.732; -162.500; -368.000; -520.000
888.977; -206.700; -622.000; -567.000
889.221; -263.800; -683.000; -659.000
889.465; -185.400; -422.000; -566.000
889.710;  -98.600;  -56.000; -299.000
889.954;  111.900;  579.000;  467.000
890.198; -214.400; -584.000; -707.000
890.442; -245.500; -716.000; -712.000
890.687; -271.100; -800.000; -753.000
890.931; -126.200; -273.000; -210.000
891.175; -201.900; -502.000; -500.000
891.419;  -46.000; -105.000; -110.000
891.663; -120.400; -239.000; -112.000
891.907; -258.900; -801.000; -545.000
892.151; -255.300; -920.000; -815.000
892.395; -143.500; -274.000; -387.000
892.638;   69.600;  408.000;  291.000
892.882; -287.100; -780.000; -867.000
893.126;  126.700;  758.000;  558.000
893.370;  -87.100; -167.000; -168.000
893.614; -203.600; -714.000; -715.000
893.857; -114.100; -183.000; -197.000
894.101; -198.500; -527.000; -631.000
894.345;  -21.500;  300.000;  150.000
894.588;  110.900;  569.000;  380.000
894.832; -115.700; -178.000;  -84.000
895.075;  -96.700;   15.000;  -92.000
895.319; -185.300; -552.000; -420.000
895.563; -159.800; -413.000; -353.000
895.806; -222.100; -628.000; -741.000
896.049;  -79.200; -576.000; -368.000
896.293;  250.800;  527.000;  405.000
896.536; -122.200; -465.000; -468.000
896.779;  -40.900; -149.000;   -1.000
897.023; -220.800; -751.000; -714.000
897.266;  -25.200;  325.000;  269.000
897.509; -259.300; -900.000; -901.000
897.752;   -2.100;  149.000;  171.000
897.996; -327.300; -972.000; -864.000
898.239;   -2.200;  168.000;  102.000
898.482; -155.400; -431.000; -453.000
898.725;   17.100;  101.000;   53.000
898.968; -263.900; -609.000; -744.000
899.211; -166.200; -513.000; -361.000
899.454; -185.200; -633.000; -539.000
899.697;  -82.100;   90.000;  -43.000
899.940; -250.400; -761.000; -757.000
900.182; -148.600; -335.000; -405.000
900.425;  -97.600; -150.000; -298.000
900.668;   50.200;  491.000;  350.000
900.911; -113.900; -292.000; -345.000
901.154;   25.600;  141.000;   -3.000
901.396; -204.700; -407.000; -412.000
901.639; -199.000; -430.000; -496.000
901.882; -288.700; -790.000; -809.000
902.124;  -59.300;  -29.000; -143.000
902.367; -171.600; -315.000; -361.000
902.609; -231.200; -476.000; -453.000
902.852;  -96.800; -108.000; -260.000
903.094; -203.500; -458.000; -337.000
903.337;   -2.700;  -26.000;   53.000
903.579; -151.500; -228.000; -441.000
903.821; -219.500; -597.000; -744.000
904.064;  -57.800;   85.000;  127.000
904.306; -101.300; -126.000; -166.000
904.548; -133.400; -152.000; -366.000
904.790; -129.700; -195.000; -340.000
905.033; -196.800; -625.000; -577.000
905.275; -215.400; -513.000; -524.000
905.517;  128.800;  468.000;  256.000
905.759; -104.700; -667.000; -761.000
906.001; -127.400; -322.000; -369.000
906.243;  -80.500; -162.000; -224.000
906.485;  279.600; -265.000; -207.000
906.727;  124.300; -499.000; -542.000
906.969;  -16.900;  -30.000; -135.000
907.211;  241.700; -316.000; -382.000
907.453;  450.800; -188.000; -237.000
907.695;    5.400; -158.000; -385.000
907.936;  185.500;  818.000;  706.000
908.178;  -20.700;   92.000; -135.000
908.420;  -60.100; -111.000; -162.000
908.662; -225.900; -633.000; -682.000
908.903;  -86.700; -208.000; -123.000
909.145;  -15.200; -240.000; -305.000
909.386;   98.100;  315.000;  280.000
909.628;  158.600;  363.000;  397.000
909.870;   67.500;   29.000;  264.000
910.111; -146.500; -809.000; -949.000
910.353;   62.100; -123.000; -161.000
910.594;   58.200; -574.000; -606.000
910.835;  179.100; -265.000; -326.000
911.077;  317.300; -503.000; -604.000
911.318;  556.400; -505.000; -471.000
911.559;  899.100; -577.000; -880.000
911.801; 2766.100; -284.000; -280.000
912.042;23520.100;  -50.000; -159.000
912.283;48983.800;  404.000;  371.000
912.524; 5788.100; -396.000; -457.000
912.765;  938.500; -193.000;   79.000
913.006;  507.300; -307.000; -338.000
913.247;  149.800; -270.000; -290.000
913.488;   38.500;  -43.000;   30.000
913.729; -101.500; -373.000; -373.000
913.970;  -57.800;  -96.000; -292.000
914.211;  -41.800; -160.000; -198.000
914.452;  -76.700; -118.000;  -11.000
914.693;  107.000;  510.000;  592.000
914.934;   78.100;  510.000;  440.000
915.175;  -49.700;   53.000;  -95.000
915.415;  -76.600; -137.000;   27.000
915.656;  -57.100;  -28.000;  192.000
915.897; -114.900; -252.000;  -82.000
916.137;  -42.400;   74.000;   -9.000
916.378; -192.600; -573.000; -517.000
916.619; -106.000; -159.000;  -63.000
916.859;   31.800;  303.000;  330.000
917.100;  383.000; 1655.000; 1070.000
917.340;  215.100;  930.000;  728.000
917.581;  166.100;  965.000;  789.000
917.821;   -0.400; -171.000;  143.000
918.061;   65.800; -199.000;  -72.000
918.302;  -46.100; -152.000; -211.000
918.542;    8.300;  -22.000;    3.000
918.782;  125.200;  369.000;  377.000
919.023;  314.400;  360.000;  427.000
919.263; 2712.200; 8131.000;  202.000
919.503; 1718.500; -137.000;  -54.000
919.743; 1081.400;  390.000;  266.000
919.983;  406.400; -134.000;  -26.000
920.223;  210.300;  135.000;   14.000
920.463;  343.200;  631.000;  554.000
920.703;  282.400;   84.000;   39.000
920.943;  338.800; -110.000;   90.000
921.183;  462.200; -414.000; -405.000
921.423;  976.000;  307.000;  546.000
921.663; 1341.300; -174.000; -257.000
921.903; 2974.300;  237.000;  173.000
922.143;18130.200;  372.000;  389.000
922.383;60552.600;  158.000;  115.000
922.622;15910.700; -120.000;  -15.000
922.862; 2020.100;  796.000;  785.000
923.102;  871.600;  -51.000;   33.000
923.341;  333.900;   59.000;   74.000
923.581;  192.400;  450.000;  360.000
923.821;  122.700;  301.000;  398.000
924.060;   85.800;  351.000;  193.000
924.300;  -30.500;  -16.000; -128.000
924.539;   62.300;  584.000;  473.000
924.779;  112.300;  812.000;  597.000
925.018;  -32.000;  247.000;  353.000
925.257;   37.000;  595.000;  666.000
925.497;    2.200;  447.000;  412.000
925.736;  -80.800;  -35.000;  102.000
925.975;   96.000;  687.000;  669.000
926.214;  122.300;  907.000;  850.000
926.454;  125.800;  706.000;  757.000
926.693;   11.200;  419.000;  543.000
926.932;  188.500; 1021.000;  825.000
927.171;  249.700; 1107.000; 1044.000
927.410;  201.600; 1144.000;  967.000
927.649;  134.300;  924.000;  742.000
927.888;   20.800;  590.000;  564.000
928.127;   66.100;  680.000;  678.000
928.366;  162.200;  842.000;  826.000
928.605;  148.400;  831.000;  737.000
928.844;  569.100; 1451.000; 1393.000
929.083; 1077.900;  770.000;  613.000
929.321;  620.300; 1335.000; 1359.000
929.560;  246.900; 1158.000; 1122.000
929.799;   23.400;  574.000;  475.000
930.038;  255.900; 1025.000; 1394.000
930.276;   -7.700;  334.000;  397.000
930.515;   56.900;  827.000;  681.000
930.753;    4.500;  614.000;  589.000
930.992;   59.200;  664.000;  717.000
931.230;   68.000;  847.000;  847.000
931.469;  445.700; 2162.000;  892.000
931.707;  258.600;  840.000;  751.000
931.946;  248.200; 1278.000; 1344.000
932.184;  199.600; 1437.000; 1175.000
932.423;  185.700; 1265.000;  963.000
932.661;  291.800; 1296.000; 1428.000
932.899;  132.800;  987.000;  821.000
933.137;   59.700;  754.000;  564.000
933.376;  348.100; 1664.000; 1335.000
933.614;  410.500; 1759.000; 1196.000
933.852;  219.800; 1357.000; 1171.000
934.090;  392.600; 1722.000; 1747.000
934.328;  317.300; 1252.000; 1457.000
934.566;  278.300; 1431.000; 1110.000
934.804;  371.400; 1263.000; 1309.000
935.042; 1001.700; 1861.000; 1850.000
935.280; 3886.000; 2088.000; 2063.000
935.518; 3013.400; 2113.000; 2007.000
935.756;  685.100; 2481.000; 2316.000
935.994;  379.800; 1808.000; 1751.000
936.231;  755.900; 2890.000; 2950.000
936.469;  417.700; 2367.000; 2378.000
936.707;  449.600; 2220.000; 2167.000
936.945;  562.600; 2825.000; 2882.000
937.182;  466.400; 2679.000; 2741.000
937.420;  719.700; 3602.000; 3031.000
937.657;  903.700; 3365.000; 3478.000
937.895;  768.400; 3331.000; 3488.000
938.133;  709.800; 3540.000; 3528.000
938.370;  772.400; 3896.000; 4191.000
938.607;  926.100; 4488.000; 4205.000
938.845; 1211.500; 5587.000; 5549.000
939.082; 1070.900; 5387.000; 5177.000
939.320; 1165.500; 5799.000; 5728.000
939.557; 1374.000; 6549.000; 6491.000
939.794; 1490.700; 7285.000; 7097.000
940.031; 1903.600; 8421.000; 8368.000
940.269; 2292.000; 9552.000; 9107.000
940.506; 2344.300;10901.000;10507.000

