
Integration time [ms]: 100.000
Averaging Nr. [scans]: 40
Smoothing Nr. [pixels]: 0
Data measured with spectrometer [name]: 2101013U2
Wave   ;Sample   ;Dark     ;Reference
[nm]   ;[counts] ;[counts] ;[counts] 

394.013;   57.435; -450.257; -315.536
394.305;  197.433; -461.258; -419.536
394.596; 1560.883; -676.269; -527.514
394.887; 4030.328; -796.268; -654.518
395.178; 1474.465;  145.736;   11.476
395.470;   92.203; -210.263; -356.526
395.761;  169.496;  305.734;  394.479
396.052;  181.330; -545.284; -306.489
396.343;  164.590; -557.276; -454.503
396.634;   65.802; -200.279; -290.497
396.926;   59.650; -618.268; -565.517
397.217;   91.071;   11.725;  -17.504
397.508;   39.340; -366.273; -154.507
397.799;   29.477; -555.279; -571.497
398.090;   15.970; -973.280; -902.495
398.381;   56.264;   11.708;  -11.473
398.672;  -12.759; -585.292; -742.473
398.963;   39.960; -348.279; -373.498
399.254;  107.152;   54.709; -209.475
399.545;    1.317;-1017.266; -883.520
399.836;   74.327; -407.277; -343.501
400.127;   59.310; -205.295; -209.468
400.418;   36.658; -423.274; -392.506
400.709;   39.230; -359.281; -333.493
401.000;   57.681; -268.291; -309.476
401.290;  108.633;  225.698;  115.545
401.581;   76.309; -166.286; -228.485
401.872;   27.927; -542.298; -486.462
402.163;   69.651; -313.296; -252.467
402.454;   87.378; -123.291; -163.475
402.744;   77.816; -844.297; -813.465
403.035;  299.529; -226.293;  -86.471
403.326;  395.444; -366.292; -384.474
403.617;  354.595;  204.701;  165.539
403.907;  350.512; -593.283; -679.490
404.198; 3474.528; -545.307; -599.446
404.489; 8813.893; -618.283; -588.491
404.779; 2558.963; -618.302; -660.456
405.070;  297.762;  -67.304; -174.451
405.360;  506.556; -259.293; -238.472
405.651;  487.826;  125.699;   98.542
405.942;  190.554;  209.714;  127.516
406.232;  119.321; -432.285; -413.487
406.523;  289.522;  641.706;  758.530
406.813;   67.731; -579.286; -644.484
407.104;  225.588;  261.708;  144.527
407.394;  111.296; -604.299; -591.462
407.685;  160.895;  336.715;  222.513
407.975;   73.917; -400.283; -382.490
408.265;  121.245; -134.289; -190.478
408.556;   48.849; -472.291; -459.475
408.846;  182.398;  474.706;  429.530
409.137;   97.805;   -1.288; -216.480
409.427;   84.771; -193.285; -271.487
409.717;   59.119; -776.273; -692.508
410.007;  156.713;    4.715; -170.486
410.298;  122.239; -360.295; -342.469
410.588;  114.068; -495.285; -510.486
410.878;   70.219; -792.287; -873.482
411.168;  117.979; -481.298; -478.463
411.459;  141.035; -295.283; -242.489
411.749;   95.172; -609.292; -507.474
412.039;   93.028; -755.289; -386.480
412.329;  235.543;   40.722;  132.501
412.619;  227.982;  -62.286; -148.485
412.909;  400.848;  639.711;  594.521
413.199;  348.196; -130.280; -251.495
413.490;  397.062;  521.710;  352.523
413.780;  228.151;-1013.279; -913.496
414.070;  400.817;  -46.276;  235.497
414.360;  426.564; -729.278; -666.498
414.650;  544.289; -726.288; -688.482
414.940;  758.000; -538.280; -441.496
415.230; 1237.085;   50.712;   74.519
415.520; 8600.382;  155.730;   66.486
415.809;34408.804; -305.281; -125.493
416.099;26001.555; -388.277; -229.501
416.389; 7458.956;  435.726;  236.494
416.679; 4323.333;   91.738;   85.473
416.969;  762.924; -527.287; -503.483
417.259;  624.303;  341.721;  171.503
417.549;  884.528;  522.718;  318.508
417.838; 2343.302; -205.268; -147.518
418.128; 8071.768;  650.710;  492.522
418.418; 6586.002; -491.272; -579.509
418.708; 4391.681;    9.726;  -48.506
418.997;17029.026; -474.275; -480.505
419.287;17432.014; -733.273; -790.507
419.577;16758.509; -160.283; -123.489
419.866;54122.777; -588.277; -498.501
420.156;53384.577; -242.270;  -55.513
420.446; 9026.674; -112.263;  -26.526
420.735;  931.294; -376.271; -446.512
421.025;  920.963; 1830.722;  315.502
421.314;  626.542; -203.271; -226.512
421.604;  948.918;   89.732;  233.484
421.893;  574.513; -705.271; -602.511
422.183;  277.024; -487.263; -461.526
422.472;  412.664;  -36.271; -107.511
422.762;  449.399; -416.266; -379.521
423.051;  279.442; -916.276; -916.503
423.341;  356.516; -491.273; -439.507
423.630;  423.831; -121.265;   15.477
423.919;  428.525;   58.725;   49.495
424.209;  478.731;  -31.263;   56.473
424.498;  641.624;   68.732;  161.483
424.787; 1410.332; -535.267; -601.518
425.077; 4271.929;   34.735;   29.478
425.366; 4980.262; -734.262; -744.528
425.655;12816.267;  639.727;  259.493
425.945;31717.444; -313.247; -268.554
426.234;16941.165;  117.741;  300.467
426.523; 7328.671;  -86.259; -350.534
426.812; 9906.169;  107.734;  159.480
427.101;14471.639; -127.269; -323.515
427.390;17139.606;  -55.270;  -86.514
427.680; 2777.320; -624.257; -411.538
427.969;  552.783; -330.255; -301.540
428.258;  371.735; -385.257; -477.536
428.547;  548.807;  449.728;  397.490
428.836;  927.028; -421.253; -398.543
429.125; 1309.374; -199.259;  -72.534
429.414;  831.681; -330.251; -294.548
429.703; 4490.156; -231.251; -213.548
429.992;13693.460; -938.250; -828.549
430.281; 8697.565; -397.264; -331.524
430.570;  614.419;  -21.252;   32.454
430.859;  462.721;  279.741;  352.466
431.148;  443.389;  636.752;  631.446
431.437;  322.943;  391.748;  367.454
431.725;  210.587; -544.257; -481.536
432.014;  229.512; -845.253; -756.545
432.303;  437.731; -149.239; -105.569
432.592;  609.273; -460.263; -178.525
432.881; 1418.065; -601.248; -437.554
433.169; 9199.909; -343.255;  -61.540
433.458;18635.122;  445.765;  540.424
433.747; 7388.919; -397.261; -289.529
434.036;  972.477; -275.242; -280.564
434.324; 2831.100; -395.249; -379.551
434.613; 5062.869;   40.757;  159.437
434.902; 1506.494;  333.760;  439.433
435.190;  378.730;   75.761;  295.431
435.479;  220.547;  -52.245;   83.441
435.767;   99.457; -411.244; -427.561
436.056;  221.322; -340.242; -294.563
436.345;  480.797; -372.240; -223.568
436.633;  455.369;   60.750;  383.450
436.922;  241.175;  208.760;  414.432
437.210;  367.185; -194.236;    1.426
437.499;  974.795; -583.235; -432.576
437.787; 1074.359; -339.236;  -10.574
438.075;  282.361;   56.761;  162.430
438.364;  321.789;  -44.238;  250.429
438.652;  168.341; -286.226; -138.592
438.941;  110.498;    3.770;  269.415
439.229;   -3.234; -665.252; -466.545
439.517;   38.505; -160.234;  -85.577
439.806;   -2.289; -501.225; -290.595
440.094;  148.714;  377.766;  650.421
440.382;   78.594; -653.233; -302.580
440.670;   84.669; -361.235; -285.576
440.959;   13.882; -347.223; -170.599
441.247;   49.562; -151.229; -109.587
441.535;   73.228; -266.235;   31.423
441.823;   20.561; -497.234; -305.578
442.111;  184.367;  173.771;  327.412
442.400;  391.121; -628.245; -335.559
442.688;  825.014; -111.234; -620.579
442.976;  513.313; -786.213; -450.617
443.264;   75.294; -324.224; -364.597
443.552;   77.943; -258.226;   51.408
443.840;  153.926;  602.765;  876.423
444.128;  108.168;  265.767;  269.420
444.416;    2.970; -694.228; -312.588
444.704;   29.043; -465.219;  -92.605
444.992;   64.971;   -0.226;  240.407
445.280;   22.149; -517.230;  -94.585
445.568;    5.468; -694.212; -396.618
445.856;  185.798; -174.221;  357.398
446.143;  387.263;  -54.220;   -7.604
446.431;  345.374;  -25.228;  625.411
446.719;  186.616;  489.783;  675.391
447.007;  158.217;  481.769;  705.416
447.295;  184.478;  597.777;  871.402
447.583;   89.034; -464.229;  -34.587
447.870;  126.945; -434.221; -202.601
448.158;  302.247; -104.230;  129.415
448.446;  187.814; -800.219; -338.604
448.733;  146.320;   13.776;  269.403
449.021;  215.042;   60.788;  341.382
449.309;  184.835; -296.210;  208.379
449.596;  231.937;  128.783;   59.392
449.884;  192.987; -571.222; -325.600
450.172;  248.731; -756.227; -406.590
450.459;  592.193;  645.786;  780.387
450.747; 3595.785; -411.218; -147.608
451.034;11470.826;  493.772;  889.411
451.322; 9221.547; -413.214; -170.614
451.609;  716.222;  292.777;  508.403
451.897;  865.387; -550.203; -183.634
452.184; 2632.403; -622.223; -400.598
452.472; 2349.236;   97.792;  269.375
452.759;  351.140;  512.781;  864.395
453.047;   98.414; -407.212; -125.617
453.334;   51.600; -732.219; -216.606
453.621;   62.024; -438.214; -161.615
453.909;   97.577;   13.796;  384.368
454.196;  105.457; -299.199; -123.641
454.483;  236.853;  317.798;  540.364
454.771;  154.065; -215.208;  196.374
455.058;   60.194; -316.207;  102.374
455.345;  133.799;   71.807;  344.347
455.632;  123.123; -128.207;  235.373
455.919;   65.759;  -82.196;  182.354
456.207;  -39.562; -774.198; -450.642
456.494;    7.892; -475.200;  -66.639
456.781;    9.922; -399.202; -198.635
457.068;   58.206; -253.206;  -29.628
457.355;    4.557; -698.206; -401.629
457.642;   14.614; -552.205; -290.630
457.929;   40.788; -778.194; -417.651
458.216;  105.090; -575.212; -354.617
458.503;  358.594; -173.193;  -19.652
458.790;  371.387; -864.208; -630.625
459.077;  374.628;  -77.202;  110.364
459.364; 1169.930; -350.195; -210.649
459.651; 2446.878;  -46.206;  220.372
459.938; 1095.301; -864.209; -665.623
460.225;  129.332;  132.799;  276.363
460.512;  -32.544; -836.197; -688.645
460.799;  147.433;  -32.218;  320.392
461.086;  116.748; -370.200; -251.640
461.372;   28.963; -509.198; -279.642
461.659;   82.961; -165.196;  108.354
461.946;   44.642; -445.193;  -54.651
462.233;  204.670;  842.800;  888.361
462.519;  488.866; -814.201; -464.639
462.806; 1492.806; -768.197; -497.645
463.093; 1276.042; -445.191;  -66.656
463.380;   14.217; -920.186; -824.664
463.666;   50.584; -259.197;  -18.646
463.953;  113.348; -406.195; -243.648
464.239;  241.673; -173.195;  -77.648
464.526;  393.786;  413.806;  743.350
464.813;  304.031; -565.190; -304.658
465.099;  329.543;  606.807;  607.348
465.386;  280.023;  903.807;  921.348
465.672;   29.757; -694.197; -522.645
465.959;   50.728; -598.188; -520.662
466.245;   23.298; -468.193; -359.652
466.532;   63.146; -109.195;   63.352
466.818;   34.692; -357.186; -216.664
467.104;    1.341; -488.182; -415.672
467.391;  -11.466; -628.189; -459.658
467.677;   25.446; -289.186;    9.335
467.964;   -8.509; -682.189; -471.660
468.250;   53.849; -331.186; -160.665
468.536;   95.960;   90.811;  180.341
468.822;  -14.711; -821.184; -574.668
469.109;  150.664;  351.827;  471.311
469.395;  203.635;  729.808;  787.346
469.681;  236.689;   46.811;  156.341
469.967; 1751.469; -699.188; -382.660
470.254; 3873.804; -494.188; -306.662
470.540; 2434.409; -601.196; -476.646
470.826;  338.304; -488.181; -397.675
471.112;  372.518;  288.816;  113.331
471.398;   89.999; -253.183;  -58.670
471.684;   30.938; -626.177; -447.680
471.970;   14.184; -918.180; -981.675
472.256;   57.034; -521.192; -441.654
472.542;   44.952; -499.171; -434.691
472.828;   37.136; -743.182; -607.672
473.114;   27.380; -380.166; -283.700
473.400;   15.708; -504.175; -293.684
473.686;   37.512; -452.166; -400.701
473.972;   48.251; -230.174; -131.687
474.258;  -22.511; -925.173; -843.689
474.544;  290.728; -183.178;   -2.679
474.830;  443.885;  -65.175;   45.316
475.116;  700.383; -123.190; -196.658
475.401;  946.861; -558.180; -467.676
475.687;  245.885; -725.180; -718.676
475.973;  -14.080; -673.181; -770.673
476.259;  245.513;  736.825;  764.315
476.544;  503.048; -539.176; -437.682
476.830; 1178.072; -398.172; -322.690
477.116; 1048.521; -430.177; -336.682
477.401;  163.061;  346.820;  358.324
477.687;   -9.666; -289.175; -405.684
477.973;   40.825;   21.819;   28.326
478.258;  -11.863; -448.163; -348.706
478.544;   44.756;   21.815;   61.334
478.829;  -53.867; -818.171; -738.692
479.115;  -48.053; -749.172; -651.690
479.401;   -9.279; -444.174; -449.686
479.686;   37.884; -253.180;  -74.676
479.972;   -0.040; -886.178; -776.680
480.257;   56.681; -258.166;  -65.700
480.542;   34.638; -614.170; -469.693
480.828;  247.031; 1288.824; 1392.317
481.113;  -19.971; -464.176; -426.683
481.399;  -11.334; -236.161; -202.711
481.684;  -33.219; -620.166; -462.700
481.969;   16.107; -158.159;  -73.713
482.255;   -6.049; -439.169; -285.695
482.540;    1.560; -569.178; -441.680
482.825;    8.636; -395.187; -404.663
483.110;  122.755;  -85.169; -105.696
483.396;  308.058; -840.157; -652.718
483.681;  672.351;  543.826;  730.313
483.966;  243.550; -696.160; -700.712
484.251;   -5.950; -404.174; -310.687
484.536;   16.794; -356.165; -378.703
484.822;   45.879; -205.173; -218.687
485.107;   -6.120; -599.152; -502.726
485.392;  120.251;  662.836;  541.296
485.677;   73.917;  354.832;  163.302
485.962;  117.730;  160.843;  270.283
486.247;   97.897;  -14.162;   -8.707
486.532;   65.558; -178.166; -325.701
486.817;  174.534;  381.839;  431.291
487.102;  133.459; -453.154; -514.722
487.387;  935.486; -637.156; -652.718
487.672; 1701.182; -154.164;  -38.705
487.957; 1050.293; -394.160; -286.711
488.241;  301.100; -290.150; -314.729
488.526; 1032.456; -280.152; -148.726
488.811; 1758.562; -881.177; -818.680
489.096; 1235.537; -666.154; -702.723
489.381;  611.527;    3.847;  162.275
489.666;  557.765; -428.161; -510.710
489.950;  200.741;  558.846;  627.277
490.235;  -30.056; -480.151; -458.728
490.520;  -46.286; -756.161; -723.710
490.804;  -41.662; -827.156; -736.719
491.089;   17.094; -469.149; -299.732
491.374;   33.255; -132.164;  -75.704
491.658;   -6.017; -817.147; -717.735
491.943;  136.211; -657.152; -609.727
492.227;  208.304; -178.155;  -38.721
492.512;   30.955; -294.157; -341.717
492.797;  -53.713; -713.149; -716.731
493.081;  -45.014; -588.147; -598.735
493.366;  -21.884; -751.161; -635.711
493.650;  222.226;  831.859;  917.254
493.935;   51.357; -648.147; -447.734
494.219;  -22.315; -778.142; -687.743
494.503;  -30.995; -585.150; -487.730
494.788;   62.170;   46.842;   74.285
495.072;  110.701;  184.850;  434.271
495.356;  219.398; -463.148; -343.733
495.641;  505.369; -812.146; -736.736
495.925;  427.719; -976.156; -903.719
496.209;   32.468; -599.149; -451.732
496.494;  -31.514; -763.142; -544.744
496.778;   30.459; -364.154; -360.722
497.062;  -42.682; -819.156; -627.719
497.346;   -9.230; -869.160; -640.711
497.631;  158.602;  580.852;  560.266
497.915;   80.257;  -64.145;  175.261
498.199;   53.483; -341.157; -277.718
498.483;   40.229; -562.152; -508.725
498.767;  227.228;  301.850;  300.271
499.051;  238.415; -126.149; -100.732
499.335;   72.913; -693.149; -739.731
499.619;  -18.377; -381.129; -423.767
499.903;   11.902; -272.155;  -65.721
500.187;   32.443; -588.153; -316.724
500.471;   17.411; -796.152; -595.727
500.755;   85.165;   62.839;  -96.710
501.039;    7.378; -270.155; -357.721
501.323;   64.603;  -21.141;  264.254
501.607;   27.287; -447.163; -503.706
501.891;   -1.040; -607.156; -512.718
502.174;  -29.955; -726.144; -585.741
502.458;   62.415;   89.849;  370.273
502.742;   54.207; -180.138; -191.751
503.026;  162.856; -412.147; -254.734
503.310;  266.181; -437.159; -375.713
503.593;  188.009; -464.147; -325.735
503.877;  125.305; -232.133; -156.760
504.161;  177.946;    2.847;  -50.724
504.444;  172.797; -841.158; -710.716
504.728;  685.129; -487.164; -522.704
505.012; 1006.524; -257.150;  -76.729
505.295;  728.191; -417.161; -212.711
505.579;  746.893; -256.156; -496.719
505.862; 1100.627; -555.145; -333.738
506.146; 1094.709; -681.159; -758.714
506.429;  513.284;  568.841;  461.286
506.713;  104.170; -732.151; -667.728
506.996;  434.533;   90.846;  295.278
507.280;  503.098; -633.165; -474.703
507.563;  350.026; -469.155; -261.721
507.847;  151.369; -423.153; -112.724
508.130;  145.742; -665.161; -456.711
508.413;  209.451; -758.167; -577.700
508.697;  344.676; -151.167;   12.300
508.980;  232.970; -422.153; -312.724
509.263;   14.396; -466.155; -450.720
509.547;   61.299; -124.150;   82.271
509.830;   48.144; -172.160;  140.289
510.113;   96.843;  128.844;  298.281
510.396;   34.977; -530.152; -300.725
510.680;   79.304; -818.145; -812.738
510.963;  330.964;  184.846;  180.277
511.246;  259.608; -493.150; -357.730
511.529;  288.035; -482.145;  -83.739
511.812;  559.351; -250.134;   10.241
512.095;  399.092; -740.151; -396.728
512.378;   89.339; -317.147; -245.736
512.661;   59.966; -703.137; -623.753
512.944;   67.688; -750.142; -637.744
513.227;   93.863; -170.137; -171.752
513.510;   71.145; -479.144; -671.741
513.793;   38.008; -485.140; -435.747
514.076;  164.373;  -43.127;  -39.771
514.359;  148.419; -294.149; -135.732
514.642;  129.191; -442.142; -567.744
514.925; 1017.956;  581.860;  561.253
515.208; 1439.372; -498.134; -443.758
515.491;  913.614; -276.133; -182.761
515.773;  544.125; -410.143; -337.742
516.056; 2932.949;  249.864;  409.246
516.339; 3846.153; -754.136; -652.755
516.622; 1975.255; -518.150; -488.730
516.904;  750.633;  882.857;  975.257
517.187;  294.186; -730.138; -523.752
517.470;  429.882; -568.143; -510.743
517.752;  627.032; -624.136; -470.756
518.035;  515.346; -708.139; -725.749
518.318;  540.303; -799.136; -744.755
518.600; 3473.718; -300.132; -325.762
518.883; 4749.990;  310.858;   88.256
519.165; 2215.677; -585.138; -426.751
519.448;  429.517;  -61.132;  -19.762
519.730;  198.957; -573.126; -415.773
520.013;  263.284;  588.867;  664.240
520.295;  434.028;  -94.134;  -15.759
520.578;  951.983; -335.131; -305.764
520.860; 1207.543; -254.132;   56.238
521.143;  754.584; -763.135; -584.756
521.425;  562.273; -251.125; -279.775
521.707;  887.824; -622.127; -380.771
521.990; 2481.449; -199.127;  167.229
522.272; 2895.410; -116.140;   -4.748
522.554; 1093.751; -237.143; -157.742
522.836;  274.076;  -24.134;   99.241
523.119;  199.480; -496.148; -189.734
523.401;  171.517; -448.130; -314.766
523.683;  142.541; -865.137; -693.753
523.965;  383.308;  408.862;  260.248
524.247;  392.874;   54.878;  170.220
524.529;  269.328; -451.134; -367.759
524.812;  449.669;   -3.130;  191.234
525.094; 1248.608; -773.138; -631.751
525.376; 1948.434; -143.124;   78.223
525.658; 1169.950; -441.136; -339.754
525.940;   64.504; -805.131; -671.764
526.222;   33.404; -188.136;  -88.755
526.504;   72.427; -190.131;   32.237
526.786;   71.106; -960.133; -647.760
527.068;  159.741; -124.123;  -67.778
527.349;   37.721; -865.137; -774.754
527.631;  129.667; -137.132;   22.238
527.913;  176.623; -664.127; -450.771
528.195;  256.940; -761.125; -639.774
528.477;  340.122;  -93.134;  -30.758
528.759;  236.169; -648.130; -522.766
529.040;  129.639; -569.123; -293.778
529.322;   74.568; -235.125;  -10.774
529.604;   97.996;  -47.130;   93.233
529.886;   82.957; -546.126; -302.773
530.167;   78.286;  232.870;  192.235
530.449;   47.363;    1.853;   63.265
530.731;   68.048; -572.122; -459.779
531.012;  136.448; -513.120; -216.784
531.294;  107.120; -118.116;  -43.792
531.575;  189.623;  290.875;  538.225
531.857;  113.566; -548.135; -266.757
532.138;  107.976; -113.141;   40.254
532.420;  134.411;  294.865;  403.244
532.701;  114.459; -722.133; -751.760
532.983;  231.113;  232.867;  182.239
533.264;   69.755; -243.126;  175.228
533.546;  -33.096; -491.136; -508.755
533.827;   35.530;  173.867;   -1.759
534.109;   31.141; -352.135;  -80.757
534.390;   91.297; -725.132; -582.762
534.671;  283.986; -270.135;  -82.756
534.953;  183.218; -751.123; -611.779
535.234;   56.577; -426.117; -255.789
535.515;  -39.017; -891.119; -735.785
535.796;    0.618; -431.128; -193.770
536.078;  -97.816;-1050.124; -904.777
536.359;    2.518;  -22.123;    3.221
536.640;   -9.684; -480.125; -197.774
536.921;  164.978;  225.871;  143.232
537.202;  517.029;  -87.138;  -16.751
537.483;  619.433;  251.869;  377.236
537.764;  233.512;   17.870;   98.235
538.045;  -26.204; -543.134; -371.758
538.326;  -20.695; -596.129; -447.768
538.607;   50.200; -686.127; -476.771
538.888;  234.387;   98.879;    5.218
539.169;  280.605; -704.122; -535.781
539.450;  378.177;  236.871;   16.233
539.731;  256.192; -361.121; -182.783
540.012;  155.748;  199.880;  412.216
540.293;   98.302;   82.876;  158.224
540.574;   23.845; -895.113; -717.796
540.855;  500.940;  435.879;  377.218
541.136;  646.202;   47.878;  139.220
541.416;  347.445; -161.130; -220.766
541.697;  269.277; -274.131; -170.763
541.978; 1520.964; -270.135; -315.757
542.259; 1918.875; -211.127; -236.771
542.539;  871.888; -191.116; -186.790
542.820;  205.548;  461.875;  480.225
543.101;  157.256;  -52.145;  -77.738
543.381;   67.474; -638.127; -591.771
543.662;  363.721;  159.873; -254.771
543.942;  918.744; -751.127; -830.770
544.223; 1534.029;  193.878;  161.219
544.504;  993.833; -275.124; -182.777
544.784;  804.007; -592.126; -408.773
545.065; 2350.967;  104.884; -254.791
545.345; 2751.658;  227.881;   14.215
545.626; 1801.944;  -14.113; -108.796
545.906; 1287.911;   77.869;   98.235
546.186;  531.638;   92.874;  -95.773
546.467;  284.212;   99.877;  -95.778
546.747;  461.188;  264.884;  327.210
547.027;  515.682;   91.876;  111.223
547.308;  516.068; -376.127; -530.770
547.588;  550.856;  299.871;  371.232
547.868;  254.362;  458.870;  588.235
548.149;  221.176;  609.885;  593.207
548.429;  223.198; -347.127; -299.771
548.709;  313.573; -645.120; -461.784
548.989;  687.070;   84.882;   88.213
549.269; 2964.016;   10.868;  139.239
549.550; 6988.392;  215.877;  117.222
549.830; 6179.166; -758.111; -556.799
550.110; 1234.625; -468.110; -320.801
550.390; 1215.748; -128.122;  -56.779
550.670; 1721.564; -868.114; -783.795
550.950; 1202.415; -509.121; -471.782
551.230;  247.535;  549.879;  460.218
551.510;   35.388; -381.121; -326.782
551.790;   55.685; -173.109; -127.803
552.070;  303.036;  940.877; 1181.223
552.350;  616.888; -492.119; -377.786
552.630;  852.332;   -2.121;   77.219
552.909;  483.193;  181.884;   73.209
553.189;  334.074;  -49.132;   33.237
553.469;  337.738; -703.119; -514.786
553.749;  314.451; -469.127; -357.772
554.029;  241.207;   33.883;  -24.790
554.308;  225.456; -154.115;  -37.794
554.588;  119.417; -196.128; -204.770
554.868;  130.366; -366.121;  -47.782
555.147;  239.403; -114.115;  -46.793
555.427;  835.946; -260.116; -250.792
555.707; 5553.275; -284.115; -200.793
555.986; 6815.795; -719.111; -538.800
556.266; 3494.586;   23.884;   72.210
556.546;  198.763; -888.121; -675.782
556.825;  401.312; -657.114; -556.794
557.105; 2575.839; -125.128;   17.230
557.384; 2995.842;  122.884;  187.209
557.664; 1168.970; -717.116; -508.792
557.943;  196.665; -557.121; -411.782
558.222;  301.874; -345.118; -344.788
558.502;  361.555; -116.115;  -76.793
558.781;  645.849;  194.885;  499.208
559.061;  590.423; -232.118; -227.788
559.340;  388.529;  302.883;  353.211
559.619; 1029.336;   93.884;  148.210
559.899; 1501.132; -239.117; -266.789
560.178; 1386.004; -778.115; -593.793
560.457; 4321.633; -623.117; -562.790
560.736; 6188.297; -472.111; -482.800
561.015; 4066.387; -500.128; -502.769
561.295;  481.959;  180.893;  215.193
561.574;  426.226;  119.885;  116.207
561.853;  647.590;  274.891;  303.197
562.132;  721.232;  -45.114;  182.206
562.411;  605.658;  396.879;  553.219
562.690;  245.074; -592.115; -458.792
562.969;  165.853;  472.888;  630.203
563.248;  526.280; 2966.878; 2487.219
563.527;  411.446; -290.111; -408.800
563.806;  584.873; -650.127; -521.771
564.085;  626.927; -297.105; -206.810
564.364;  382.710; -594.117; -405.790
564.643;  718.533; -276.121; -223.781
564.922; 2627.958;  221.890;  397.198
565.201; 2747.387; -640.109; -700.803
565.479; 1143.022; -297.115; -219.792
565.758;  520.090; -810.128; -712.770
566.037;  698.938; -155.109; -100.803
566.316;  347.267; -286.116;  -28.791
566.595;   65.776;  -17.115;  -12.793
566.873;  111.473; -166.111;  -79.801
567.152;  -34.923; -490.113; -590.797
567.431;   35.287; -113.116;    6.210
567.709;   38.184; -344.107; -212.807
567.988;  437.536; -810.114; -769.794
568.266;  797.076; -160.115;  -68.793
568.545;  593.984; -644.100; -514.819
568.824;  822.472;  160.885;  356.208
569.102;  851.836; -351.114; -235.794
569.381;  366.696; -492.116; -407.792
569.659;  -16.427; -553.113; -553.796
569.938;  115.178; -743.122; -465.780
570.216;  193.416; -225.109; -225.804
570.494;   18.515; -632.114; -572.795
570.773;   47.613;  202.879;  114.218
571.051;   47.015; -373.123; -357.778
571.330;  113.095; -221.113; -174.796
571.608;   68.331; -181.098; -173.823
571.886;  -47.511; -671.111; -581.799
572.164;  -39.084; -739.121; -621.782
572.443;  -32.268; -562.105; -512.811
572.721;  -15.291; -399.117; -289.790
572.999;  -13.749; -280.117; -168.788
573.277;  106.999;  379.894;  620.191
573.555;  409.551;   94.894;   37.190
573.834; 1948.525;  -86.117; -114.788
574.112; 2213.587;  880.893;  811.193
574.390;  650.247; -143.111;  -96.801
574.668;   42.229;  -91.112;  -61.797
574.946;    3.127; -165.106; -187.810
575.224;   23.337;   71.891;  -16.803
575.502;   -2.361; -200.116; -204.791
575.780;  -58.970; -767.112; -829.798
576.058;  233.096; 1589.889; 1004.200
576.336;   -4.122; -210.110; -129.801
576.614;  -45.494; -511.112; -340.798
576.891;  137.106; -711.115; -823.794
577.169;  724.401; -158.108; -285.805
577.447;  810.036;  169.893;  202.193
577.725;  330.486;  629.888;  854.201
578.003;   27.958;  -71.112; -371.798
578.280;  127.342; -208.104; -242.812
578.558;  103.155; -450.115; -422.793
578.836;  139.515; -210.114; -145.795
579.114;   85.353; -630.112; -670.797
579.391;   79.528;   -6.117;  -18.789
579.669;  -31.743; -595.114; -704.794
579.947;  238.632; -326.107; -127.806
580.224;  500.907; -692.107; -524.806
580.502;  444.112;  127.893;   76.193
580.779;   43.410;  -42.117;   75.210
581.057;  -57.033; -584.109; -470.804
581.334;  -74.915; -726.102; -695.815
581.612;   40.378;   54.895;  511.190
581.889;   -7.398;  -83.101; -129.818
582.167;  -24.531; -298.099; -190.821
582.444;  -82.455; -845.102; -814.817
582.721;  106.446;  657.899;  715.183
582.999;   85.791; -326.100; -167.821
583.276;  800.245; -812.123; -713.779
583.553; 1050.539; -364.102; -294.816
583.831;  393.439; -607.104; -631.812
584.108;   78.199;  349.892;  174.195
584.385;   25.335; -122.102;  -98.815
584.662;  -39.126; -651.111; -828.801
584.940;   54.348;  204.889;  204.199
585.217;   -3.802;  -73.113; -303.796
585.494;   48.734;   71.890;  118.198
585.771;  328.293; -250.109; -354.804
586.048;  750.822; -196.113;  -76.796
586.325;  506.452; -721.110; -773.801
586.602;  125.468;  230.896;  213.188
586.879;   26.211; -499.100; -580.820
587.156;   92.354; -156.105; -331.810
587.433;    1.593; -701.102; -667.817
587.710;   99.556;  152.888;  234.202
587.987;  459.085; -264.105; -236.811
588.264; 1117.508;  315.888;  387.202
588.541; 1861.771;  -61.104;   26.187
588.818; 3835.995;   72.892;  171.196
589.095; 3266.265; -163.104; -174.812
589.371;  540.465; -459.109; -414.804
589.648;   63.662; -581.107; -437.807
589.925;   87.641; -517.114; -621.795
590.202;   75.956; -741.112; -607.798
590.478;  146.637; -166.105;  -73.811
590.755;  387.753; -241.108; -132.806
591.032; 3510.204; -741.110; -699.802
591.308; 4971.579; -732.094; -790.831
591.585; 2549.329; -573.110; -560.802
591.862;  277.694;-1056.102; -950.817
592.138;  118.925; -475.108; -474.805
592.415;  258.919; -486.104; -495.813
592.691; 2049.066;  460.896;  518.188
592.968; 2775.308; -208.098; -123.824
593.244; 1337.712; -695.116; -595.790
593.521;  126.820; -105.102;  -42.817
593.797;   41.925; -810.122; -720.780
594.074;  517.248; -611.096; -588.826
594.350;  924.562;  828.905;  729.172
594.626;  462.899; -303.111; -283.801
594.903;  213.570; -643.101; -645.817
595.179;  281.123;  243.896;  418.187
595.455;   47.463; -136.107; -150.807
595.731;   15.250;  -19.103;  -38.814
596.008;  -16.858; -464.111; -434.800
596.284;   65.414; -187.100; -242.820
596.560;  110.112; -501.093; -493.833
596.836;  314.431; -173.105;  -70.810
597.112;  527.776; -582.108; -437.805
597.388;  433.946;  -49.097;  -48.826
597.665;  156.251;  437.887;  530.203
597.941;  -23.053; -572.089; -658.839
598.217;   49.783; -323.110; -293.802
598.493;  389.920;   61.891; -204.804
598.769;  754.782; -175.100;  -50.819
599.045;  471.329; -490.108; -562.806
599.321;  101.863; -193.100; -261.820
599.597;  230.219; -355.109; -476.804
599.872;  667.721;  409.896;  429.187
600.148;  554.997;  -61.097; -172.826
600.424;  399.385;   91.893;  202.193
600.700;  363.413; -170.107; -280.807
600.976;  198.691; -442.097; -464.825
601.252;  384.440; -226.109; -272.803
601.527;  372.872; -833.104; -840.813
601.803;  239.238; -453.105; -404.812
602.079;  273.082; -124.100; -118.819
602.354;  835.049; -620.092; -531.835
602.630; 1209.548; -140.113; -482.796
602.906; 3162.202; -910.101; -863.818
603.181; 9481.688; -627.119; -534.786
603.457; 7958.345;   98.903; -278.826
603.733; 1202.518; -605.120; -626.783
604.008; 1359.302; -245.106; -164.810
604.284; 4415.047; -636.101; -580.817
604.559; 3809.836;   -3.112;  -42.799
604.835;  699.131; -163.105; -225.810
605.110;  646.519; -732.099; -892.821
605.385;  983.615;  224.907;  267.167
605.661;  970.815; -625.095; -729.829
605.936; 1729.155; -664.108; -737.806
606.211; 1419.658;  -17.103; -170.815
606.487;  325.185; -329.114; -376.794
606.762;   87.013; -791.119; -745.786
607.037;   13.881; -501.105; -433.810
607.313;  -10.743; -589.096; -574.828
607.588;   17.102; -375.106; -137.810
607.863;   81.251;  -28.101; -143.818
608.138;  243.132;  513.890;  516.198
608.413;   89.949; -576.099; -592.822
608.688;   92.600; -203.108; -267.805
608.964;  314.895; -509.106; -218.809
609.239;  378.753; -107.105; -212.810
609.514;  331.412;  281.895;  240.188
609.789; 1008.568; -187.104; -716.812
610.064; 1319.805; -435.096; -609.827
610.339; 1284.640; -855.109; -799.804
610.614; 1699.563; -131.100; -315.820
610.889;  930.363;  215.895;  107.188
611.163;   87.438; -407.104; -591.812
611.438;  136.111;   81.886; -167.794
611.713;   57.647; -467.101; -499.817
611.988;  106.950; -144.101; -328.818
612.263;   36.210; -771.102; -717.815
612.538;  283.822;  385.887;  251.204
612.812;  307.715; -832.100; -911.820
613.087;  205.155; -358.098; -338.823
613.362;  -21.362; -497.107; -557.807
613.637;   45.204;  261.897;  138.186
613.911;   19.100; -256.092; -345.835
614.186;  193.236; -249.107; -292.807
614.460; 1050.713; -842.081; -758.854
614.735; 1135.951;  -55.087;  -17.843
615.010;  250.188;   43.912;  -82.841
615.284;  323.574;  360.892;  246.195
615.559;  600.448; -792.092; -955.835
615.833;  435.697;  -76.099;  -87.822
616.108;   29.837; -225.090; -390.837
616.382;  185.153;  274.913;  402.156
616.656;  247.088; -241.090; -232.837
616.931;  766.247; -785.099; -700.822
617.205; 1562.147; -973.104; -979.813
617.480; 1405.770;  -91.125;    6.225
617.754;  273.667; -396.125; -128.774
618.028;   64.107; -369.129; -382.768
618.302;  115.423;   73.892;  -25.805
618.577;  -22.045; -371.103; -518.815
618.851;  -31.814; -399.109; -600.803
619.125;  -19.772; -335.134; -378.759
619.399;   -9.602; -244.104; -374.813
619.673;  -13.753; -330.115; -515.792
619.947;  -28.886; -333.114; -448.795
620.222;    6.225; -198.110; -204.801
620.496;   19.290;  -47.121;  -96.782
620.770;   63.455; -187.122;  -93.781
621.044;  277.979;  323.895;  346.190
621.318; 1093.119; -653.120; -614.783
621.592;  997.516; -430.121; -409.783
621.866;  568.887; -476.112; -572.799
622.140;   49.189; -207.116; -356.791
622.413;   75.567;  138.889;  112.200
622.687;   -4.928; -746.101; -492.817
622.961;   31.798; -130.108; -143.805
623.235;  -21.907; -633.111; -661.800
623.509;  -76.563; -816.105; -848.811
623.783;   22.658;  -12.107;   48.193
624.056;   -1.705; -254.120; -280.783
624.330;   69.629;   63.888;   -3.797
624.604;   92.460; -271.116; -355.790
624.877;  111.605;  180.890;   26.198
625.151;   77.958; -249.114; -238.794
625.425;  -15.300; -150.103; -283.814
625.698;  -28.944; -367.119; -374.785
625.972;  -44.592; -799.110; -765.802
626.245;   83.062;  685.884;  484.210
626.519;  -30.925; -426.120; -340.784
626.792;  -28.262; -192.107; -380.807
627.066;  -64.104; -485.122; -662.779
627.339;  -74.497; -736.110; -663.802
627.613;   71.323;  351.880;  148.216
627.886;   70.311;  187.891; -612.803
628.160;    7.993;  312.880; -161.783
628.433;  -79.176; -695.125; -703.775
628.706;  -49.950; -517.120; -615.784
628.979;   36.057;  296.876;  117.223
629.253;  -62.238; -785.119; -833.786
629.526;  526.955; -334.126; -253.772
629.799;  556.390; -641.123; -479.778
630.072;  276.484; -497.128; -516.769
630.346;  -15.912;-1115.116;-1080.790
630.619;  649.814; -467.107; -545.808
630.892;  851.319;  709.889;  593.200
631.165;  423.998;  790.896;  679.187
631.438;  -29.792;-1092.112;-1055.798
631.711;   56.644;  453.877;  257.221
631.984;  -37.393; -523.117; -624.789
632.257;  -47.797; -636.117; -681.789
632.530;  -40.044; -412.119; -433.785
632.803;   27.231; -109.115;    7.207
633.076;  -43.814; -360.123; -422.777
633.349;   16.064;  173.872;  121.231
633.622;  -26.395; -187.119; -240.785
633.895; -106.155; -903.120; -823.783
634.167;  -59.092; -496.126; -525.773
634.440;   -4.830;  -19.116; -137.792
634.713;   -0.614;  -22.119; -120.786
634.986;   83.976;  593.871;  453.233
635.258;  -51.797; -507.115; -597.793
635.531;  109.023;  742.882; -343.788
635.804;  -16.420; -303.117; -318.789
636.077;  -83.459; -830.116; -852.791
636.349;   38.801; -586.115; -474.793
636.622;  437.004; 1695.874; 1392.228
636.894;  375.875; -474.120; -909.784
637.167;  260.322; -836.127; -789.771
637.439;   63.592; -278.128; -213.770
637.712;  -34.894; -312.126; -293.772
637.984;  -59.084; -635.116; -707.791
638.257;  517.987;  515.877;  488.222
638.529;  925.700; -881.125; -924.776
638.802;  405.233; -508.128; -449.769
639.074;  -70.296; -927.122; -952.781
639.346;  -96.932; -942.135; -930.757
639.619;   11.714;  -79.142; -319.744
639.891;   -3.628;  -83.122; -168.779
640.163;  -63.026; -689.122; -756.780
640.435;   49.426;  273.878;  103.220
640.708;   25.828;  -72.122; -132.780
640.980;    2.255; -366.122; -362.781
641.252;  257.883;  -25.121;  -71.781
641.524; 2407.085;  580.879;  573.219
641.796; 2633.687;-1094.121; -907.782
642.068;  484.864; -191.121; -300.782
642.340;  -39.834; -486.121; -566.783
642.613;   40.044;  294.880;  323.217
642.885;  -79.654; -787.120; -878.783
643.157;    3.773; -810.120; -658.784
643.428;   64.925;  170.880;  218.216
643.700;  -61.672; -498.120; -425.784
643.972;  -38.645;  -16.119; -133.785
644.244;  -93.418; -474.119; -559.785
644.516;  -50.041; -250.119; -114.786
644.788;   66.086;  662.881;  548.214
645.060;  -12.311;  -12.119; -124.786
645.332;  -87.284; -525.118; -535.787
645.603;   45.668;  479.882;  342.213
645.875;  -78.480; -334.118; -369.787
646.147;  150.472; 1487.882; 1242.212
646.418;  -10.200; -931.117; -918.788
646.690;  256.952; -714.117; -715.789
646.962;   97.629; -413.117; -451.789
647.233;   -5.794;   15.883;   11.211
647.505;  -89.641; -595.117; -475.790
647.776;   28.286;  328.884;  229.210
648.048;   12.238; -248.116; -418.790
648.320;  -32.560; -752.116; -679.791
648.591; -138.883;-1055.116; -958.791
648.862;  -82.555; -505.116; -577.792
649.134;   24.672;  115.885;  198.208
649.405;  -11.851; -661.115; -618.792
649.677;  -26.599; -475.115; -598.793
649.948;   12.653; -181.115; -296.793
650.219;   12.181;  -37.115; -147.793
650.491;  -69.542; -431.114; -520.794
650.762; -110.940; -705.114; -731.794
651.033;  -76.413; -437.114; -424.795
651.304;  -53.760; -743.114; -728.795
651.576;  -30.983; -680.114; -645.795
651.847;  -41.781; -250.113; -140.796
652.118;  -18.554;  -32.113; -189.796
652.389; -104.227; -639.113; -722.796
652.660;  -36.974; -147.113;  -89.797
652.931; -125.547; -897.112; -871.797
653.202;  -71.445; -382.112; -541.798
653.473;  -46.893; -633.112; -533.798
653.744;  279.759; -595.112; -590.798
654.015;  249.487; -356.112; -303.799
654.286;  -35.761; -642.111; -663.799
654.557;  -35.559; -586.111; -521.799
654.828; -132.632;-1114.111;-1088.800
655.099;  -67.355; -404.111; -291.800
655.370;  -81.402; -427.111; -543.801
655.641; -114.075; -656.110; -714.801
655.911;  -90.648; -618.110; -638.801
656.182;   41.154;  437.890;  387.198
656.453;   93.632;  830.890;  746.198
656.724;  -62.066; -466.110; -426.802
656.994;  -63.764; -553.109; -568.803
657.265;  -89.537; -862.109; -873.803
657.536;  -75.810; -500.109; -377.804
657.806;  -97.632; -561.109; -593.804
658.077; -121.255; -866.109; -950.804
658.347;  -86.653; -523.108; -598.805
658.618;  -95.651; -646.108; -694.805
658.888;  -15.549;  -41.108;  112.195
659.159;  -72.971; -432.108; -548.806
659.429;    4.631; -292.108; -349.806
659.700;   50.658; -435.107; -390.807
659.970;   35.535; -370.107; -359.807
660.241;  105.538; -754.107; -921.807
660.511;  741.590; -147.107; -174.808
660.781;  195.042; -793.106; -748.808
661.052;  -39.581; -222.106; -381.808
661.322;   -9.929;   21.894;   -9.809
661.592;   26.624;  257.894;  148.191
661.862;  -70.274; -369.106; -382.810
662.133;  -85.772; -551.105; -502.810
662.403;  -97.170; -770.105; -676.810
662.673;  -46.843; -256.105; -213.811
662.943;  -80.990; -612.105; -551.811
663.213;   13.512;  -85.105;  -81.811
663.483;  -64.661; -593.104; -568.812
663.753;  -26.884; -194.104; -152.812
664.023;  -11.581;   68.896;  -32.813
664.293;  -66.704; -319.104; -126.813
664.563;  -92.727; -694.104; -648.813
664.833; -112.550; -743.103; -608.814
665.103; -113.273; -730.103; -793.814
665.373; -116.520; -766.103; -806.814
665.643;  -34.243; -863.103; -918.815
665.913;  101.859; -534.103; -714.815
666.182;  232.261; -685.102; -719.816
666.452;  407.238;  -22.102;  -89.816
666.722;   31.366; -724.102; -784.816
666.992;  -98.707; -948.102; -921.817
667.261;  -60.755; -824.102; -808.817
667.531;  322.747;  134.899;   45.183
667.801;  928.975; -440.101; -412.818
668.070;  329.077;  714.899;  697.182
668.340;  -70.371; -883.101; -840.819
668.609;  109.106;  588.900;  301.181
668.879;  -52.742; -490.100; -558.819
669.149;  -59.239; -539.100; -516.820
669.418;  -83.687; -698.100; -726.820
669.688;   10.890; -482.100; -666.820
669.957;  154.542; -423.099; -546.821
670.226;   -3.056; -268.099; -331.821
670.496;  -72.403; -431.099; -635.822
670.765;  -69.126; -418.099; -501.822
671.034; -115.374; -872.099; -828.822
671.304;   -7.397;   55.902; -111.823
671.573; -132.445;-1085.098; -957.823
671.842;  135.233; -380.098; -294.823
672.112;   86.435; -692.098; -586.824
672.381;   21.387; -239.098; -214.824
672.650; -117.436;-1005.097;-1021.825
672.919;  -68.558; -631.097; -507.825
673.188;  -73.281; -681.097; -878.825
673.457; -117.754;-1101.097;-1143.826
673.726;  -63.002; -579.096; -646.826
673.995;  -20.250; -533.096; -479.826
674.265;    9.553; -263.096; -333.827
674.534;   55.855; -183.096; -235.827
674.802;   40.457; -618.096; -703.828
675.071; 1357.159; -886.095; -801.828
675.340; 5631.936; -464.095; -339.828
675.609; 1833.064;  103.905;   82.171
675.878;  189.166; -949.095; -893.829
676.147;   57.568;  -26.095;   -8.829
676.416;  137.145; -210.094; -294.830
676.685;  979.623; 1000.906; -622.830
676.953;  203.725; -603.094; -452.831
677.222;  -13.298; -193.094; -273.831
677.491;  -21.871;  -24.094; -127.831
677.759;   -9.894;   11.907;  172.168
678.028;    3.584; -279.093; -222.832
678.297;    8.936;   71.907;  197.168
678.565; -140.962; -898.093; -944.833
678.834;  -49.385; -311.093; -268.833
679.102;  -71.858; -411.092; -391.834
679.371; -132.755; -898.092; -727.834
679.639; -118.128; -797.092; -786.834
679.908; -112.601; -794.092; -724.835
680.176; -142.124; -895.091; -941.835
680.445;  -52.371; -346.091; -352.835
680.713;   -7.069;  -58.091;  -23.836
680.982;  -87.717; -523.091; -525.836
681.250;  -91.140; -578.091; -507.837
681.518;  -78.563; -534.090; -751.837
681.787;   -6.360; -204.090; -167.837
682.055;  -46.933; -490.090; -422.838
682.323; -131.881; -993.090; -992.838
682.591;   58.196; -216.090; -538.838
682.859;  133.498;    9.911;  -35.839
683.128;   39.901;  232.911;  497.161
683.396; -159.447;-1102.089;-1122.840
683.664;  -24.520; -241.089;   21.160
683.932;    6.232;  144.911;  -76.840
684.200;  -69.741; -576.088; -320.841
684.468;  -19.263;  -73.088; -124.841
684.736;  -20.411; -214.088; -175.841
685.004;  -89.184;-1024.088; -982.842
685.272;   -9.182; -880.088; -774.842
685.540;  -37.429; -499.087; -557.843
685.808;  -60.777; -651.087; -682.843
686.076;  -81.450; -894.087; -969.843
686.343;  -30.623; -601.087; -815.844
686.611;   85.754; -195.087; -224.844
686.879;  604.032; -530.086; -553.844
687.147; 4653.109; -483.086; -480.845
687.414; 1348.086;  -12.086; -169.845
687.682;   63.138; -658.086; -757.846
687.950;  422.440;  259.915;  263.154
688.217;   87.868; -792.085; -760.846
688.485;   22.045; -632.085; -636.847
688.753;  760.822;  -11.085; -102.847
689.020;  332.874; -820.085; -851.847
689.288;  -71.898; -853.084; -787.848
689.555;  -21.221; -195.084; -148.848
689.823;  -38.619; -241.084; -345.849
690.090;  -60.542; -546.084; -651.849
690.358; -130.090; -877.084; -897.849
690.625;   19.313;  120.917;   45.150
690.892;  -68.585; -403.083; -369.850
691.160;   -0.408;   72.917;  -35.850
691.427;    7.394;  141.917;  130.149
691.694; -116.579; -855.083; -929.851
691.962; -108.051;-1177.082;-1060.852
692.229;   21.576;  127.918;   56.148
692.496;  112.953;  130.918;  -49.852
692.763;   31.355; -164.082; -201.853
693.031;  -35.142; -739.082; -716.853
693.298;   -9.740; -509.081; -368.853
693.565;  409.087; -155.081; -163.854
693.832; 1809.364;   -5.081;   -9.854
694.099;  243.916; -643.081; -642.855
694.366;  -23.356; -882.081; -896.855
694.633;   -5.829; -920.080; -633.855
694.900;  747.948; 4367.920; -114.856
695.167;  604.150; -214.080; -380.856
695.434;  176.702; -646.080; -623.856
695.701;  256.055;  121.921;  -61.857
695.968;  644.007; -365.079; -361.857
696.234; 1194.734; -415.079; -646.858
696.501;12435.036; -776.079; -614.858
696.768; 6832.964; -554.079; -617.858
697.035;  438.091; -632.078; -667.859
697.302;   90.943; -448.078; -552.859
697.568;   37.770; -458.078; -497.859
697.835;  -21.078; -683.078; -624.860
698.102;    4.250; -498.078; -407.860
698.368;   91.502;  384.923;  396.139
698.635;  -18.071;  -47.077; -424.861
698.901;   -5.644; -240.077; -348.861
699.168;  111.883; -534.077; -456.862
699.435;  119.011;  -72.077;  -13.862
699.701;  -78.662; -868.076; -764.862
699.968;   26.540;  144.924; -441.863
700.234;  -88.958; -783.076; -822.863
700.500;  -33.806; -448.076; -539.864
700.767;    2.372;   -1.075;   26.136
701.033;  -97.451;-1015.075; -963.864
701.299;  -30.874; -450.075; -483.865
701.566;  138.303;  950.925;  763.135
701.832;   41.006;  -31.075;  -76.865
702.098;  -65.067;-1054.074;-1034.866
702.365;  -58.815;-1098.074;-1030.866
702.631;   52.662;-1038.074;-1063.867
702.897; 1803.414; -765.074; -676.867
703.163; 3257.017;  348.926;  254.133
703.429;  266.269; -256.073; -273.868
703.695;   14.646; -796.073; -792.868
703.961;   71.923; -214.073; -210.868
704.227;  -20.350; -630.073; -725.869
704.493;  150.478;  613.927;  510.131
704.759;   17.380; -565.072; -540.870
705.025;   56.557; -203.072; -194.870
705.291;   31.559; -666.072; -562.870
705.557;  230.712;  719.928;   34.129
705.823;   76.739; -742.072; -694.871
706.089;  218.166; -307.071; -326.871
706.355;  473.993; -315.071; -244.872
706.620; 6749.770; -776.071; -729.872
706.886;10709.048; -309.071; -362.873
707.152; 1127.825; -818.070; -973.873
707.418;   56.577;-1153.070;-1186.873
707.683;   42.854; -550.070; -530.874
707.949;  -14.094; -547.070; -578.874
708.215;   34.484; -129.070; -207.874
708.480;   -2.089; -520.069; -420.875
708.746;  153.238;   68.931;   28.125
709.011;  -29.660; -578.069; -612.876
709.277;  -51.982; -538.069; -543.876
709.542;  -29.755; -428.069; -387.876
709.808;   14.872;  -59.068;   89.123
710.073;  -51.151; -577.068; -695.877
710.339;  -12.249; -242.068; -228.877
710.604;  154.229; -780.068; -845.878
710.869;  507.131; -277.068; -366.878
711.135;  -34.092; -715.067; -628.879
711.400;  -60.640; -507.067; -608.879
711.665;  -41.738; -404.067; -479.879
711.931;  -75.460; -661.067; -677.880
712.196;  -95.083; -876.067; -954.880
712.461;  184.119; -402.066; -490.880
712.726;  277.771; -727.066; -771.881
712.991;  -67.077; -647.066; -664.881
713.256;  -20.399; -350.066; -332.882
713.521;  -33.147; -417.065; -381.882
713.787;  -41.020; -454.065; -472.882
714.052;  -14.643; -214.065; -400.883
714.317;  -49.940;-1045.065; -981.883
714.581; 1455.487; -374.065; -268.883
714.846; 2305.014; -822.064; -888.884
715.111;  209.866;  261.936;  257.116
715.376;   10.368;  -86.064; -223.885
715.641;   10.046; -365.064; -367.885
715.906;  469.098;   15.936; -551.885
716.171;  197.025;  221.937;  209.114
716.436;   67.877;  -78.063; -104.886
716.700;  -84.396; -818.063; -692.886
716.965;  -92.868; -794.063; -807.887
717.230;  -48.991; -339.063; -392.887
717.494;   -9.789;  -40.062; -134.888
717.759;  -77.737; -784.062; -640.888
718.024;   23.791;  269.938;  250.112
718.288;   95.193;  685.938;  395.111
718.553; -127.730; -803.062; -977.889
718.817; -123.803; -883.061; -899.889
719.082;  -26.876; -115.061; -125.890
719.346; -128.673;-1000.061; -947.890
719.611;  -26.246; -300.061; -255.891
719.875;  -86.694; -568.060; -537.891
720.140;  -53.292; -453.060; -603.891
720.404;   63.310; -136.060; -249.892
720.668; 1202.713; -475.060; -411.892
720.933;  507.115;  146.940;  137.108
721.197;  -65.008; -667.059; -600.893
721.461; -113.706; -851.059; -826.893
721.725;    2.697;  -21.059; -250.894
721.990;  -49.276; -284.059; -204.894
722.254;  -19.849;  -26.059; -108.894
722.518;  -63.722; -286.058; -442.895
722.782;  -72.470; -743.058; -594.895
723.046;  150.358;  614.942;  570.105
723.310;   40.235;  374.942;  210.104
723.574;  -87.438; -654.058; -614.896
723.838;  -88.086; -576.057; -642.897
724.102;  -35.634; -226.057; -239.897
724.366; -119.806;-1032.057; -978.897
724.630;  -78.954; -749.057; -571.898
724.894;  -61.777; -722.057; -514.898
725.158;    5.350;   38.944; -295.898
725.422;  -30.647; -394.056; -327.899
725.685;  -35.820; -441.056; -349.899
725.949;  -46.918; -566.056; -519.900
726.213;  -41.591; -732.056; -811.900
726.477;  308.261;-1020.055; -933.900
726.740;  244.614; -274.055; -104.901
727.004;  481.641; -384.055; -510.901
727.268; 4798.743; -442.055; -400.901
727.531; 1584.895; -961.055; -775.902
727.795;   -3.403; -713.054; -673.902
728.059;  -38.925; -552.054; -557.903
728.322;  -49.548; -841.054; -669.903
728.586;   95.879; -692.054; -701.903
728.849;  -35.169; -695.053; -756.904
729.112;  -89.067; -812.053; -912.904
729.376; -102.689; -959.053; -905.904
729.639;  -49.112; -536.053; -536.905
729.903;  -80.885; -733.053; -699.905
730.166;  -22.533; -437.052; -399.906
730.429;   -7.180; -317.052; -468.906
730.693;  -47.303; -355.052; -894.906
730.956;  244.149;  810.948;  651.093
731.219; 1053.601; -310.052; -103.907
731.482;  223.653;-1003.051; -894.907
731.745;  222.331; -794.051; -935.908
732.009;   36.258;  -30.051;   50.092
732.272;  -83.265; -904.051; -771.909
732.535;  -10.763; -300.051; -310.909
732.798; -121.361;-1083.050;-1166.909
733.061;  -28.208; -430.050; -456.910
733.324;   15.944;   31.950; -180.910
733.587;   86.621;  290.950;  365.090
733.850;  -47.552; -973.049;-1050.911
734.113;   65.226;   33.951;   32.089
734.376;   49.253; -328.049; -447.912
734.639;  263.430; 1188.951; 1011.088
734.901;  126.607; -180.049; -402.912
735.164;  694.659; -883.048; -837.913
735.427; 1946.887; -166.048; -355.913
735.690;  203.114; -205.048; -234.913
735.952;   27.741; -923.048; -925.914
736.215;   46.618;-1113.048;-1009.914
736.478;  109.420; -771.047; -774.915
736.740;  290.223;   33.953;  129.085
737.003;  851.725; -658.047; -672.915
737.266; 5649.452;  -94.047;   46.084
737.528;  674.229; -682.047; -660.916
737.791;  458.107; -316.046; -327.916
738.053; 1015.634;  465.954;  649.083
738.316;13388.561; -162.046; -136.917
738.578;11077.238; -770.046; -736.918
738.841;  656.315; -382.046; -446.918
739.103;  304.918; -875.045; -777.918
739.365;  745.045;   79.955;  -69.919
739.628;   60.322; -884.045; -805.919
739.890;   22.599; -758.045; -710.919
740.152;   14.351; -692.044; -754.920
740.414;   35.354; -408.044; -359.920
740.677;   -9.844; -785.044; -634.921
740.939;  -23.117; -587.044; -487.921
741.201;  399.885; -432.044; -572.921
741.463;  110.437; -689.043; -745.922
741.725;   30.965;  -21.043; -199.922
741.987;   72.517;  220.957;  116.078
742.249;   64.794; -751.043; -859.923
742.511;  362.621; -703.043; -794.923
742.773;   90.049; -546.042; -546.924
743.035;  151.576;  796.958;  533.076
743.297;    6.403; -963.042;-1013.924
743.559; 1054.880; -278.042; -262.925
743.821;  167.432; -735.042; -744.925
744.083;   53.985;  -44.041; -149.925
744.345;  -54.363; -869.041; -892.926
744.607;   62.589;   75.959;  122.074
744.868;   -5.234; -490.041; -554.927
745.130;  -73.232; -994.041;-1008.927
745.392;   79.771;   -1.040;  -44.927
745.653;   34.798; -411.040; -378.928
745.915;  193.175;  896.960;  631.072
746.177;  107.352;   35.960;  -43.928
746.438;   46.030; -428.040; -543.929
746.700;   21.507; -947.039; -988.929
746.961;   72.459; -659.039; -740.930
747.223;  229.461; -190.039;  -74.930
747.484;  171.463; -391.039; -471.930
747.746;  232.866;  -23.038; -106.931
748.007;  230.543; -647.038; -689.931
748.269;  433.945; -468.038; -440.931
748.530;  749.672; -852.038; -638.932
748.791;  409.224; -354.038; -420.932
749.053;  613.627;  286.963;  163.067
749.314;  677.129; -236.037; -169.933
749.575;  785.256; -945.037; -905.933
749.836; 1221.833; -217.037;   86.066
750.098; 3177.011;  -60.037;  -21.934
750.359;49740.513;  414.964;  555.066
750.620;15002.690; -121.036; -220.935
750.881; 1522.492; -585.036; -513.935
751.142; 1883.944; -950.036; -938.936
751.403;21184.097; -789.036; -705.936
751.664;11323.624;-1034.035; -999.936
751.925;  741.751; -175.035; -262.937
752.186;  421.403; -298.035; -278.937
752.447;  237.805; -590.035; -445.937
752.708;  133.483; -532.035; -648.938
752.969;   71.960; -566.034; -576.938
753.230;   51.987; -777.034; -672.939
753.491;   64.789; -650.034; -631.939
753.751;  112.817;  109.966;   19.061
754.012;  136.669;  258.967;  181.060
754.273;  111.046; -174.033;  -71.940
754.534;   63.623; -487.033; -580.940
754.794;  -22.275; -926.033; -911.941
755.055;  169.053; 1051.967;  881.059
755.316;   -5.220; -700.032; -566.942
755.576;   22.857; -606.032; -576.942
755.837;   -1.316; -527.032; -695.942
756.097;    3.761; -530.032; -564.943
756.358;  -32.036; -725.032; -770.943
756.618;   -9.709; -705.031; -641.943
756.879;   55.593; -254.031; -349.944
757.139;  -74.430;-1098.031;-1116.944
757.400;  -12.203; -538.031; -553.945
757.660;    6.325; -365.031; -401.945
757.920;   39.427; -266.030; -228.945
758.181;   16.104; -468.030; -351.946
758.441;  -61.044; -870.030; -809.946
758.701;   -0.466; -308.030; -215.946
758.961;   -4.489; -220.030; -278.947
759.222;  -42.612; -574.029; -502.947
759.482;  -62.860; -683.029; -723.948
759.742;  -66.133; -706.029; -547.948
760.002;   20.895;  -83.029; -143.948
760.262;   43.747;   50.972;  182.051
760.522;  -19.601; -498.028; -574.949
760.782;  -31.099; -738.028; -612.949
761.042;   -0.247; -618.028; -573.950
761.302;   68.881;   55.972;  -18.950
761.562;   63.483; -164.027; -154.951
761.822;  133.135; -710.027; -551.951
762.082;  -16.838;-1104.027;-1093.951
762.342;   78.515; -328.027; -403.952
762.601;   80.392; -567.027; -506.952
762.861;  424.669; -281.026; -207.952
763.121;  408.421; -406.026; -411.953
763.381; 6511.048; -499.026; -485.953
763.640; 8646.326; -139.026; -307.954
763.900;  376.578; -242.026; -203.954
764.160;   94.305; -458.025; -491.954
764.419;   -1.968; -726.025; -782.955
764.679;  -60.766; -795.025; -726.955
764.939;   -0.588; -124.025; -210.955
765.198;  -73.661; -608.025; -563.956
765.458;  -66.959; -710.024; -612.956
765.717;  -75.857; -454.024; -590.957
765.976;  -53.654; -428.024; -411.957
766.236;  -62.027; -475.024; -610.957
766.495;   16.500;  260.977;   73.042
766.755;  -44.298;-1090.023; -987.958
767.014;   44.229; -594.023; -665.958
767.273;  -34.718; -373.023; -397.959
767.533;  -40.916; -228.023; -307.959
767.792;  -21.214; -151.022; -188.960
768.051;  -37.762; -228.022; -276.960
768.310;  -77.335; -546.022; -650.960
768.569;    3.368; -161.022;    4.039
768.828;  -18.830; -285.022; -363.961
769.088;  -83.528;-1050.021; -942.961
769.347;  -51.876; -755.021; -599.962
769.606;  -69.324; -876.021; -857.962
769.865;  -92.371;-1016.021;-1033.963
770.124;   24.031; -411.021; -336.963
770.383;  -19.717; -778.020; -910.963
770.641;   39.085; -398.020; -400.964
770.900;  -40.412; -953.020; -846.964
771.159;  -17.010; -851.020; -951.964
771.418;   29.567; -917.020; -779.965
771.677;  158.994; -224.019; -293.965
771.936;  201.921; -794.019; -865.966
772.194; 2253.299; -465.019; -437.966
772.453;13587.351; -213.019; -391.966
772.712; 1027.953;  416.982;  329.033
772.970;  174.380;   32.982;   63.033
773.229;  112.232;  -22.018;  102.033
773.488;  -66.540; -814.018; -770.968
773.746;   59.112;  296.982;  335.032
774.005;   14.839;  190.983;  -22.969
774.263;   23.391;  243.983;  177.031
774.522;  -35.706; -422.017; -548.969
774.780;  -63.179; -484.017; -417.970
775.039;  -75.177; -551.017; -531.970
775.297;    0.975; -135.016; -351.970
775.555;  -90.623; -489.016; -612.971
775.814; -108.870; -618.016; -570.971
776.072; -105.718; -749.016; -740.971
776.330;  -80.716; -630.016; -520.972
776.589; -106.464; -703.015; -721.972
776.847; -126.712; -645.015; -624.973
777.105; -151.334;-1016.015;-1032.973
777.363;  -83.957; -459.015; -454.973
777.621; -125.880; -660.015; -717.974
777.879;  -22.828;  -42.014;   32.026
778.138;  -82.900; -554.014; -717.974
778.396;  -87.473; -585.014; -526.975
778.654; -156.721;-1015.014; -970.975
778.912;  -61.019; -269.014; -371.976
779.170; -116.292; -880.013; -803.976
779.427; -132.164; -922.013; -897.976
779.685; -127.487; -880.013; -832.977
779.943;  -60.660; -654.013; -593.977
780.201; -147.408; -964.012; -883.978
780.459; -106.406; -651.012; -610.978
780.717;  -72.803; -440.012; -390.978
780.974;  -82.601; -449.012; -490.979
781.232;  -62.424; -358.012; -338.979
781.490;  -53.622; -551.011; -472.979
781.747;  -95.469; -555.011; -476.980
782.005;    9.933;  462.989;  254.020
782.263; -159.765; -542.011;-1004.981
782.520;  -84.163; -326.011; -501.981
782.778; -151.886;-1013.010;-1051.981
783.035; -151.608; -962.010; -938.982
783.293;  -49.231; -248.010; -206.982
783.550;  -42.704; -134.010; -198.982
783.808; -115.102; -764.010; -776.983
784.065; -151.350; -745.009; -874.983
784.322;  -30.147;   25.991;  -86.984
784.580; -124.870; -915.009; -771.984
784.837;  -86.168; -392.009; -466.984
785.094; -124.241; -783.009; -762.985
785.352;  -51.564; -304.008; -404.985
785.609;  -74.561; -934.008; -839.985
785.866;  -64.484; -345.008; -401.986
786.123;  -53.957; -639.008; -583.986
786.380;  -78.830; -665.008; -604.987
786.637;  -25.177; -225.007; -380.987
786.895;   28.150; -456.007; -543.987
787.152;  -46.198; -135.007; -267.988
787.409;  -41.196; -123.007; -225.988
787.666;  -78.669; -299.006; -378.988
787.923;  -99.716; -616.006; -695.989
788.179;  -86.514; -551.006; -584.989
788.436;  -97.087; -585.006; -585.990
788.693;  -26.210;  -92.006;  -87.990
788.950;  190.117; -125.005; -112.990
789.207;  387.320; -381.005; -372.991
789.464;  -37.903; -161.005; -301.991
789.720;  -10.426;  150.995;  110.009
789.977; -150.149;-1003.005; -671.992
790.234;  -14.521;   44.996;  -66.992
790.490; -142.069; -884.004;-1031.993
790.747;   -9.192;  -85.004;   22.007
791.004;   -0.040; -426.004; -348.993
791.260;  -65.138; -430.004; -560.994
791.517;  -77.985; -843.003; -788.994
791.773;  -33.983; -379.003; -342.994
792.030;  -97.056; -596.003; -660.995
792.286; -100.679; -686.003; -636.995
792.543;   -3.277;  -74.002; -159.995
792.799;  -51.299; -584.002; -382.996
793.055; -144.947;-1179.002;-1210.996
793.312;  -89.295; -827.002; -816.997
793.568;  -45.943; -746.002; -599.997
793.824;   16.010; -226.001; -284.997
794.081;   21.562; -447.001; -508.998
794.337;   70.139; -664.001; -561.998
794.593; 1050.916; -319.001; -271.999
794.849; 6861.893; -746.001; -772.999
795.105;  424.546; -270.000; -261.999
795.361;   32.548; -490.000; -457.000
795.617;  -25.875; -875.000; -945.000
795.873;  -32.925; -360.000; -407.000
796.129;  -17.650; -368.000; -306.000
796.385;   -5.100; -124.000; -156.000
796.641;   92.675;  412.000;  550.000
796.897;  -62.375; -666.000; -635.000
797.153;   75.600;  453.000;  357.000
797.409;  -81.950; -785.000; -868.000
797.665;  -50.525; -625.000; -732.000
797.921;  -45.400; -775.000; -762.000
798.176;  -31.400; -744.000; -747.000
798.432;  -11.850; -824.000; -596.000
798.688;  -27.275;-1174.000;-1078.000
798.943;  117.475; -165.000; -147.000
799.199;   53.300;-1005.000; -959.000
799.455;  283.150;  369.000;  316.000
799.710;  202.800; -813.000; -380.000
799.966;  416.125; -162.000; -160.000
800.221;  625.650; -638.000; -721.000
800.477;12069.425; -743.000; -710.000
800.732;13716.500; -773.000; -800.000
800.988;  839.825;  205.000;  -19.000
801.243; 1641.325; -454.000; -344.000
801.498; 8963.625; -814.000; -739.000
801.754;  606.800; -289.000; -163.000
802.009;  118.325; -257.000; -335.000
802.264;  -17.300; -967.000;-1033.000
802.520;   42.475;  222.000;   -3.000
802.775;  -23.650; -524.000; -359.000
803.030;   40.475;  395.000;  356.000
803.285;  -95.450; -840.000; -903.000
803.540;  -29.550; -686.000; -699.000
803.795;   -3.200; -648.000; -583.000
804.051;  -18.225; -279.000; -346.000
804.306;   32.025;  168.000;  128.000
804.561;  184.425;  451.000;  362.000
804.816;  150.750;  714.000;  861.000
805.071;   26.475; -185.000; -280.000
805.325;  329.075; -257.000; -427.000
805.580;  -69.875; -841.000; -877.000
805.835;    0.050; -204.000; -297.000
806.090;  -61.375; -760.000; -676.000
806.345;    1.475; -344.000; -264.000
806.600;   -8.825; -549.000; -632.000
806.854;   -6.750; -408.000; -538.000
807.109;   14.875; -493.000; -577.000
807.364;   30.425; -407.000; -328.000
807.618;   20.350; -415.000; -381.000
807.873;   94.775; -470.000; -494.000
808.128;  126.925; -257.000; -518.000
808.382;  146.425; -224.000; -332.000
808.637;   79.875; -440.000; -511.000
808.891;  217.675; -257.000; -180.000
809.146;  138.800; -902.000; -794.000
809.400;  301.225; -848.000; -923.000
809.654;  391.125; -779.000; -551.000
809.909;  559.725; -841.000; -927.000
810.163; 6286.275; -813.000; -651.000
810.418;21099.775; -940.000; -861.000
810.672; 1307.800; -685.000; -690.000
810.926;  754.300; -993.000; -973.000
811.180; 1310.975; -439.000; -372.000
811.434;28226.825;  240.000;  135.000
811.689;14823.900; -231.000; -365.000
811.943;  758.300; -936.000; -953.000
812.197;  354.325; -893.000; -671.000
812.451;  166.575; -379.000; -514.000
812.705;  -11.200; -809.000; -619.000
812.959;    6.700; -263.000; -388.000
813.213;    9.700; -283.000; -209.000
813.467;   72.100;  470.000;  253.000
813.721;  -74.350; -764.000; -792.000
813.975; -104.725; -826.000; -877.000
814.229;   52.350;  430.000;  353.000
814.482;  -59.500; -517.000; -566.000
814.736;  -99.775; -766.000; -744.000
814.990; -113.100; -779.000; -872.000
815.244;  -43.400; -228.000; -285.000
815.497;  -91.325; -636.000; -601.000
815.751;   -5.000; -141.000;   82.000
816.005;  -66.350; -470.000; -586.000
816.258;  -60.075; -510.000; -363.000
816.512; -100.675; -693.000; -610.000
816.766;    3.300;  121.000;  157.000
817.019;   30.825;  148.000;  149.000
817.273;  -88.150;-1000.000; -802.000
817.526;  -30.225; -206.000; -173.000
817.779;  -10.900;-1049.000; -960.000
818.033;  -28.925; -693.000; -807.000
818.286; -106.900; -725.000; -792.000
818.540;  -68.175; -403.000; -403.000
818.793;  -77.925; -402.000; -489.000
819.046;  -89.250; -582.000; -520.000
819.299;  -26.800; -157.000; -166.000
819.553; -115.625; -552.000; -592.000
819.806; -155.600;-1016.000; -838.000
820.059;  -46.500; -334.000; -354.000
820.312;   25.400;  152.000;  185.000
820.565;   -3.700;  110.000;  -27.000
820.818;  -57.150;  -59.000; -173.000
821.071; -140.600;-1041.000; -957.000
821.324;  -86.000; -536.000; -540.000
821.577;  -73.550; -457.000; -483.000
821.830;  -52.150; -270.000; -172.000
822.083; -108.125; -733.000; -288.000
822.336;  -34.300; -261.000; -167.000
822.589; -129.500; -805.000; -688.000
822.842; -128.775; -875.000; -770.000
823.094; -155.375;-1076.000;-1114.000
823.347; -116.425; -925.000; -729.000
823.600;   22.875;  402.000;  187.000
823.853;  -29.425; -311.000; -267.000
824.105;  -42.025; -331.000; -575.000
824.358;  -90.850; -617.000; -716.000
824.611;   41.250;  234.000;   40.000
824.863;   -7.525; -612.000; -591.000
825.116;   91.600;  -33.000;   27.000
825.368;  136.050; -366.000; -372.000
825.621;  250.150; -186.000; -240.000
825.873;  167.325; -704.000; -737.000
826.126;  694.950; -669.000; -641.000
826.378;14635.000; -389.000; -505.000
826.630; 4896.550; -890.000; -898.000
826.883;  147.750; -754.000; -693.000
827.135;   93.750; -279.000; -270.000
827.387;  -86.800; -893.000; -839.000
827.639;  -21.275;  -86.000;   32.000
827.892; -118.000; -742.000; -582.000
828.144; -138.750; -848.000; -804.000
828.396;  -25.500;  104.000;  -80.000
828.648; -105.475; -440.000; -333.000
828.900; -133.525; -702.000; -795.000
829.152; -108.150; -684.000; -683.000
829.404;  -56.250; -215.000; -267.000
829.656;    0.050;  321.000;  214.000
829.908;  -14.075;  393.000;  229.000
830.160; -153.325;-1064.000;-1047.000
830.412;  -92.500; -481.000; -430.000
830.664;  -99.250; -557.000; -665.000
830.916;  -84.150; -268.000; -206.000
831.167; -158.225;-1073.000; -951.000
831.419;  -99.025; -623.000; -566.000
831.671; -125.050; -764.000; -809.000
831.923;  -86.350; -311.000; -447.000
832.174;  -56.475; -273.000; -331.000
832.426;  -93.250; -493.000; -582.000
832.678; -156.350;-1043.000;-1091.000
832.929; -150.150; -947.000; -935.000
833.181;  -40.075; -575.000; -677.000
833.432;  -38.150;  -59.000; -186.000
833.684;   -7.700;  112.000;  -27.000
833.935; -104.125; -610.000; -566.000
834.187; -102.825; -829.000; -823.000
834.438;  -35.425;  -58.000;  -25.000
834.689;  -52.750; -255.000; -123.000
834.941;  -53.225; -343.000; -244.000
835.192;  -86.425; -590.000; -533.000
835.443;  -90.975; -419.000; -506.000
835.695;    5.175;  138.000;  -16.000
835.946;  -78.200; -608.000; -378.000
836.197; -103.425; -599.000; -622.000
836.448;  -70.625; -528.000; -395.000
836.699;  -35.925; -253.000; -341.000
836.950;   10.725;   72.000;    7.000
837.201; -129.950;-1003.000; -987.000
837.452;  -43.075; -356.000; -170.000
837.703; -111.750; -791.000; -737.000
837.954;   -8.450; -205.000; -365.000
838.205;  -52.700;-1029.000;-1008.000
838.456;  249.275; -196.000; -282.000
838.707;   59.475; -423.000; -519.000
838.958;   42.700; -634.000; -647.000
839.209;  368.200;   18.000;   40.000
839.460;  171.300; -439.000; -201.000
839.710;  225.025; -135.000; -297.000
839.961;  510.625;  730.000;  612.000
840.212;  452.875; -382.000; -497.000
840.462; 1296.250; -328.000; -277.000
840.713;20708.100; -571.000; -536.000
840.964;11056.175;  -62.000; -143.000
841.214;  687.450; -384.000; -624.000
841.465;  678.975; -214.000; -141.000
841.715;  603.200; -417.000; -380.000
841.966;  728.000; -746.000; -685.000
842.216; 7947.675; -330.000; -431.000
842.466;38793.800; -169.000; -313.000
842.717; 2968.925; -964.000; -952.000
842.967;  371.800; -635.000; -641.000
843.217;  346.225;   20.000;   28.000
843.468;  104.150; -104.000; -132.000
843.718;    1.925; -718.000; -726.000
843.968;  -67.425; -837.000; -765.000
844.218;   52.975; -315.000; -262.000
844.469;  -22.950; -577.000; -561.000
844.719;  -83.025; -537.000; -682.000
844.969;  -71.125; -550.000; -580.000
845.219; -137.825; -814.000; -862.000
845.469;  -69.575; -392.000; -342.000
845.719; -132.375; -792.000; -884.000
845.969;   -2.525;  119.000;  174.000
846.219; -103.575; -738.000; -720.000
846.469;   32.550;  464.000;  432.000
846.718;  -49.150; -115.000;   31.000
846.968; -118.175; -827.000; -827.000
847.218;  -35.525; -224.000; -371.000
847.468;   -7.250; -586.000; -555.000
847.718; -123.350; -827.000; -798.000
847.967; -115.600; -826.000; -915.000
848.217;  -83.275; -449.000; -569.000
848.467;  -50.225; -405.000; -376.000
848.716;  -99.325; -708.000; -725.000
848.966;   33.575; -372.000; -358.000
849.215;  -42.725; -428.000; -419.000
849.465;  -61.950; -785.000; -615.000
849.714; -119.975;-1132.000;-1150.000
849.964;  -43.575; -551.000; -613.000
850.213;    9.650; -393.000; -355.000
850.463;   93.900;  137.000;  340.000
850.712;   57.925; -542.000; -567.000
850.961;   71.800; -739.000; -678.000
851.211;  183.550; -513.000; -504.000
851.460;  271.050; -635.000; -650.000
851.709;  746.600;  -25.000;   18.000
851.958;12213.325; -912.000; -750.000
852.208;19525.025; -859.000; -879.000
852.457;  817.750; -181.000;  -13.000
852.706;  171.425; -791.000; -823.000
852.955;   90.500; -507.000; -528.000
853.204;  -40.175; -521.000; -461.000
853.453;  -57.525; -418.000; -458.000
853.702; -113.025; -660.000; -750.000
853.951;  -92.725; -532.000; -520.000
854.200;  -94.925; -613.000; -562.000
854.449; -117.300; -695.000; -661.000
854.698;  -90.750; -340.000; -279.000
854.946;  -64.675; -181.000; -284.000
855.195; -145.500; -843.000; -868.000
855.444;  -85.550; -395.000; -420.000
855.693; -110.650; -345.000; -432.000
855.941;  -92.925; -387.000; -516.000
856.190;  -31.500; -256.000; -382.000
856.439; -104.450; -652.000; -703.000
856.687;  -49.100;  -99.000;  -72.000
856.936;  -97.275; -621.000; -323.000
857.184; -167.650;-1067.000;-1020.000
857.433; -101.325; -423.000; -512.000
857.681; -144.125; -989.000; -953.000
857.930;  -59.750; -282.000; -433.000
858.178; -148.200; -856.000; -929.000
858.427; -137.675; -802.000; -781.000
858.675; -108.925; -377.000; -544.000
858.923;  -99.800; -527.000; -819.000
859.172; -157.575;-1094.000;-1070.000
859.420;  -83.300; -339.000; -239.000
859.668; -124.500; -624.000; -628.000
859.916;  -26.325;  109.000;  115.000
860.164;  -98.025; -699.000; -603.000
860.413;  413.000; -878.000; -696.000
860.661;  452.950; -709.000; -577.000
860.909;  -73.050; -339.000; -325.000
861.157;  -78.625; -277.000; -444.000
861.405;  -93.125; -534.000; -670.000
861.653;    6.750;  310.000;  310.000
861.901;  253.850; -543.000; -613.000
862.149;  116.275; -801.000; -824.000
862.396;  -59.175; -297.000; -187.000
862.644;  -83.750; -368.000; -347.000
862.892;  -33.375;   98.000;  138.000
863.140; -107.400; -549.000; -530.000
863.388; -137.500; -815.000; -759.000
863.635; -115.725; -642.000; -601.000
863.883;  -13.550;  231.000;  190.000
864.131;  -93.325; -288.000; -357.000
864.378; -117.700; -675.000; -540.000
864.626;  -95.450; -347.000; -415.000
864.873;  -99.275; -556.000; -505.000
865.121; -123.300; -714.000; -799.000
865.368;  -20.150; -173.000;   75.000
865.616;  -23.675;  -33.000;  -40.000
865.863;  -50.100; -462.000; -506.000
866.111;  -76.825; -795.000; -824.000
866.358;   73.075; -426.000; -420.000
866.605; 2711.775;  -64.000; -804.000
866.853; 3667.325; -621.000; -537.000
867.100;   47.150; -728.000; -775.000
867.347;  -69.675; -672.000; -611.000
867.594;  -55.400; -740.000; -714.000
867.841;  142.125;   97.000;   17.000
868.089; -133.650; -746.000; -698.000
868.336; -103.450; -477.000; -420.000
868.583; -130.925; -637.000; -741.000
868.830;  -53.050; -131.000; -170.000
869.077; -148.600; -859.000; -787.000
869.324; -130.400; -502.000; -458.000
869.571; -132.125; -398.000; -430.000
869.818; -114.075; -485.000; -439.000
870.065; -103.150; -439.000; -513.000
870.311; -109.850; -456.000; -542.000
870.558;  -96.200; -332.000; -311.000
870.805;  -87.050; -320.000; -384.000
871.052; -107.350; -494.000; -369.000
871.298;  -47.400; -204.000; -131.000
871.545;  -46.475; -151.000; -185.000
871.792;  -86.100; -173.000; -222.000
872.038;  -66.475;   43.000; -126.000
872.285; -116.250; -496.000; -387.000
872.532;  -94.775; -357.000; -387.000
872.778;    6.350;  556.000;  403.000
873.025;  -95.175; -384.000; -359.000
873.271;   11.525;  501.000;  578.000
873.517;  -11.975; -133.000; -209.000
873.764;  -17.400; -193.000;  -80.000
874.010;  -65.650; -143.000; -230.000
874.257;  -35.050;  123.000;   90.000
874.503; -120.000; -579.000; -479.000
874.749;  -56.825;   31.000;  275.000
874.995;  -67.975;  -80.000;  -20.000
875.242; -119.275; -540.000; -478.000
875.488;  -96.450; -414.000; -439.000
875.734;  -42.825; -106.000; -234.000
875.980;  279.125; -872.000;-1032.000
876.226;  640.550; -157.000; -255.000
876.472;   10.550;  343.000;  237.000
876.718;  -51.950;  184.000;  158.000
876.964;  -44.675;   56.000;   55.000
877.210; -135.900; -547.000; -677.000
877.456; -128.475; -630.000; -557.000
877.702; -161.125; -821.000; -832.000
877.948; -103.775; -377.000; -497.000
878.193;    5.275;  361.000;  255.000
878.439;  -69.975; -487.000; -472.000
878.685;  -98.100; -272.000; -343.000
878.931; -122.775; -618.000; -676.000
879.176;  -72.525; -201.000; -201.000
879.422; -180.375; -933.000; -820.000
879.668;   48.575;   10.000;   79.000
879.913;  235.050;   53.000;  137.000
880.159;  -32.475; -112.000;  -17.000
880.404;  -55.675; -152.000; -162.000
880.650;  -32.125;   91.000;  141.000
880.895; -147.475; -670.000; -710.000
881.141; -127.100; -454.000; -428.000
881.386; -146.950; -503.000; -658.000
881.631;  -93.900; -311.000; -166.000
881.877;  -36.725;  112.000;  -13.000
882.122; -131.375; -684.000; -600.000
882.367;  -72.725; -136.000; -186.000
882.612;  -74.900;  -80.000; -176.000
882.858; -173.625; -877.000; -823.000
883.103;  -88.700; -297.000; -267.000
883.348; -132.775; -759.000; -852.000
883.593; -137.400; -677.000; -602.000
883.838;  -37.000; -311.000;  -24.000
884.083;   40.975;  353.000;  288.000
884.328;  -72.050; -564.000; -545.000
884.573;  -46.300; -196.000; -143.000
884.818;  262.975; -694.000; -531.000
885.063;  364.700; -348.000; -315.000
885.308;  -85.175; -475.000; -398.000
885.553;   -8.150;  245.000;  325.000
885.797; -109.600; -545.000; -615.000
886.042;  -49.525;    8.000;   58.000
886.287;  -74.300; -253.000; -211.000
886.532;  -46.575;   26.000;  204.000
886.776;  -87.675; -407.000; -525.000
887.021; -137.225; -621.000; -574.000
887.265; -134.375; -685.000; -689.000
887.510; -112.325; -557.000; -496.000
887.755;  -90.375; -194.000; -164.000
887.999; -136.575; -552.000; -575.000
888.244;  -58.450;  -58.000;  161.000
888.488;   -6.825;  371.000;  393.000
888.732; -126.675; -368.000; -520.000
888.977; -119.675; -622.000; -567.000
889.221; -139.750; -683.000; -659.000
889.465; -112.750; -422.000; -566.000
889.710;  -77.100;  -56.000; -299.000
889.954;    4.800;  579.000;  467.000
890.198; -138.450; -584.000; -707.000
890.442; -144.050; -716.000; -712.000
890.687; -147.025; -800.000; -753.000
890.931;  -93.775; -273.000; -210.000
891.175; -122.750; -502.000; -500.000
891.419;  -75.750; -105.000; -110.000
891.663;  -85.100; -239.000; -112.000
891.907; -160.975; -801.000; -545.000
892.151; -160.750; -920.000; -815.000
892.395; -104.225; -274.000; -387.000
892.638;  -31.700;  408.000;  291.000
892.882; -169.400; -780.000; -867.000
893.126;   11.200;  758.000;  558.000
893.370;  -90.800; -167.000; -168.000
893.614; -136.525; -714.000; -715.000
893.857; -109.950; -183.000; -197.000
894.101; -124.800; -527.000; -631.000
894.345;  -47.025;  300.000;  150.000
894.588;    6.725;  569.000;  380.000
894.832;  -77.475; -178.000;  -84.000
895.075;  -80.375;   15.000;  -92.000
895.319; -113.050; -552.000; -420.000
895.563; -115.400; -413.000; -353.000
895.806; -133.450; -628.000; -741.000
896.049;  -36.775; -576.000; -368.000
896.293;  130.425;  527.000;  405.000
896.536;  -41.450; -465.000; -468.000
896.779;  -35.925; -149.000;   -1.000
897.023; -129.075; -751.000; -714.000
897.266;  -35.125;  325.000;  269.000
897.509; -173.550; -900.000; -901.000
897.752;  -58.375;  149.000;  171.000
897.996; -189.275; -972.000; -864.000
898.239;  -59.800;  168.000;  102.000
898.482; -114.775; -431.000; -453.000
898.725;  -27.300;  101.000;   53.000
898.968; -131.125; -609.000; -744.000
899.211; -103.650; -513.000; -361.000
899.454; -108.050; -633.000; -539.000
899.697;  -51.400;   90.000;  -43.000
899.940; -151.375; -761.000; -757.000
900.182; -105.725; -335.000; -405.000
900.425; -104.100; -150.000; -298.000
900.668;  -25.725;  491.000;  350.000
900.911;  -91.525; -292.000; -345.000
901.154;  -56.725;  141.000;   -3.000
901.396; -130.475; -407.000; -412.000
901.639; -139.275; -430.000; -496.000
901.882; -164.050; -790.000; -809.000
902.124;  -76.750;  -29.000; -143.000
902.367; -119.950; -315.000; -361.000
902.609; -138.125; -476.000; -453.000
902.852;  -84.325; -108.000; -260.000
903.094; -109.150; -458.000; -337.000
903.337;  -53.500;  -26.000;   53.000
903.579; -111.800; -228.000; -441.000
903.821; -143.450; -597.000; -744.000
904.064;  -60.825;   85.000;  127.000
904.306;  -95.075; -126.000; -166.000
904.548;  -99.875; -152.000; -366.000
904.790;  -95.300; -195.000; -340.000
905.033; -121.575; -625.000; -577.000
905.275; -132.975; -513.000; -524.000
905.517;   40.675;  468.000;  256.000
905.759;  -15.200; -667.000; -761.000
906.001;  -79.150; -322.000; -369.000
906.243;  -48.700; -162.000; -224.000
906.485;  155.975; -265.000; -207.000
906.727;  243.200; -499.000; -542.000
906.969;   -5.150;  -30.000; -135.000
907.211;  175.825; -316.000; -382.000
907.453;  417.375; -188.000; -237.000
907.695;   61.525; -158.000; -385.000
907.936;   58.975;  818.000;  706.000
908.178;  -45.975;   92.000; -135.000
908.420;  -64.450; -111.000; -162.000
908.662; -122.325; -633.000; -682.000
908.903;  -86.775; -208.000; -123.000
909.145;  -61.150; -240.000; -305.000
909.386;   -0.175;  315.000;  280.000
909.628;   34.725;  363.000;  397.000
909.870;    7.825;   29.000;  264.000
910.111;  -82.075; -809.000; -949.000
910.353;    1.400; -123.000; -161.000
910.594;   14.250; -574.000; -606.000
910.835;   83.525; -265.000; -326.000
911.077;  166.475; -503.000; -604.000
911.318;  289.225; -505.000; -471.000
911.559;  484.675; -577.000; -880.000
911.801; 1228.375; -284.000; -280.000
912.042; 8942.700;  -50.000; -159.000
912.283;27720.400;  404.000;  371.000
912.524; 5521.050; -396.000; -457.000
912.765;  571.175; -193.000;   79.000
913.006;  272.575; -307.000; -338.000
913.247;   86.150; -270.000; -290.000
913.488;   10.000;  -43.000;   30.000
913.729;  -66.475; -373.000; -373.000
913.970;  -55.350;  -96.000; -292.000
914.211;  -80.100; -160.000; -198.000
914.452;  -63.150; -118.000;  -11.000
914.693;   20.350;  510.000;  592.000
914.934;   19.000;  510.000;  440.000
915.175;  -61.875;   53.000;  -95.000
915.415;  -77.000; -137.000;   27.000
915.656;  -54.475;  -28.000;  192.000
915.897;  -71.525; -252.000;  -82.000
916.137;  -58.500;   74.000;   -9.000
916.378; -120.525; -573.000; -517.000
916.619;  -74.975; -159.000;  -63.000
916.859;  -15.200;  303.000;  330.000
917.100;  142.950; 1655.000; 1070.000
917.340;   56.575;  930.000;  728.000
917.581;   56.575;  965.000;  789.000
917.821;    3.125; -171.000;  143.000
918.061;   55.725; -199.000;  -72.000
918.302;  -38.925; -152.000; -211.000
918.542;    3.250;  -22.000;    3.000
918.782;   79.325;  369.000;  377.000
919.023;  192.450;  360.000;  427.000
919.263; 1926.250; 8131.000;  202.000
919.503; 1762.800; -137.000;  -54.000
919.743;  902.275;  390.000;  266.000
919.983;  475.700; -134.000;  -26.000
920.223;  144.700;  135.000;   14.000
920.463;  183.125;  631.000;  554.000
920.703;  215.850;   84.000;   39.000
920.943;  271.725; -110.000;   90.000
921.183;  369.100; -414.000; -405.000
921.423;  677.600;  307.000;  546.000
921.663;  994.100; -174.000; -257.000
921.903; 1997.400;  237.000;  173.000
922.143;10519.650;  372.000;  389.000
922.383;43673.875;  158.000;  115.000
922.622;19118.350; -120.000;  -15.000
922.862; 1938.675;  796.000;  785.000
923.102;  715.925;  -51.000;   33.000
923.341;  320.700;   59.000;   74.000
923.581;  148.900;  450.000;  360.000
923.821;   54.525;  301.000;  398.000
924.060;   22.600;  351.000;  193.000
924.300;  -31.375;  -16.000; -128.000
924.539;    7.200;  584.000;  473.000
924.779;   23.875;  812.000;  597.000
925.018;  -43.175;  247.000;  353.000
925.257;   16.450;  595.000;  666.000
925.497;  -33.150;  447.000;  412.000
925.736;  -71.550;  -35.000;  102.000
925.975;   -2.850;  687.000;  669.000
926.214;    8.775;  907.000;  850.000
926.454;   18.875;  706.000;  757.000
926.693;  -35.850;  419.000;  543.000
926.932;   40.925; 1021.000;  825.000
927.171;   70.750; 1107.000; 1044.000
927.410;   60.450; 1144.000;  967.000
927.649;   25.225;  924.000;  742.000
927.888;   -2.950;  590.000;  564.000
928.127;    7.175;  680.000;  678.000
928.366;   35.650;  842.000;  826.000
928.605;   56.950;  831.000;  737.000
928.844;  282.225; 1451.000; 1393.000
929.083;  863.000;  770.000;  613.000
929.321;  502.200; 1335.000; 1359.000
929.560;  124.975; 1158.000; 1122.000
929.799;   -7.725;  574.000;  475.000
930.038;   98.075; 1025.000; 1394.000
930.276;  -32.850;  334.000;  397.000
930.515;   -1.100;  827.000;  681.000
930.753;  -17.025;  614.000;  589.000
930.992;  -15.725;  664.000;  717.000
931.230;    0.900;  847.000;  847.000
931.469;  167.425; 2162.000;  892.000
931.707;   73.125;  840.000;  751.000
931.946;   64.200; 1278.000; 1344.000
932.184;   61.550; 1437.000; 1175.000
932.423;   54.325; 1265.000;  963.000
932.661;   91.650; 1296.000; 1428.000
932.899;   43.750;  987.000;  821.000
933.137;   34.850;  754.000;  564.000
933.376;  165.875; 1664.000; 1335.000
933.614;  179.475; 1759.000; 1196.000
933.852;   83.450; 1357.000; 1171.000
934.090;  160.000; 1722.000; 1747.000
934.328;  118.850; 1252.000; 1457.000
934.566;  120.300; 1431.000; 1110.000
934.804;  193.000; 1263.000; 1309.000
935.042;  640.575; 1861.000; 1850.000
935.280; 2524.625; 2088.000; 2063.000
935.518; 2917.875; 2113.000; 2007.000
935.756;  569.025; 2481.000; 2316.000
935.994;  216.550; 1808.000; 1751.000
936.231;  391.575; 2890.000; 2950.000
936.469;  214.900; 2367.000; 2378.000
936.707;  183.150; 2220.000; 2167.000
936.945;  239.700; 2825.000; 2882.000
937.182;  208.750; 2679.000; 2741.000
937.420;  313.175; 3602.000; 3031.000
937.657;  444.050; 3365.000; 3478.000
937.895;  408.900; 3331.000; 3488.000
938.133;  328.400; 3540.000; 3528.000
938.370;  320.775; 3896.000; 4191.000
938.607;  415.275; 4488.000; 4205.000
938.845;  539.375; 5587.000; 5549.000
939.082;  494.800; 5387.000; 5177.000
939.320;  553.425; 5799.000; 5728.000
939.557;  630.525; 6549.000; 6491.000
939.794;  728.050; 7285.000; 7097.000
940.031;  932.250; 8421.000; 8368.000
940.269; 1155.275; 9552.000; 9107.000
940.506; 1133.225;10901.000;10507.000

