
Integration time [ms]: 100.000
Averaging Nr. [scans]: 40
Smoothing Nr. [pixels]: 0
Data measured with spectrometer [name]: 2101013U2
Wave   ;Sample   ;Dark     ;Reference
[nm]   ;[counts] ;[counts] ;[counts] 

394.013;   52.104; -450.257; -315.536
394.305;  229.902; -461.258; -419.536
394.596; 1173.170; -676.269; -527.514
394.887; 2872.837; -796.268; -654.518
395.178; 1050.194;  145.736;   11.476
395.470;   86.231; -210.263; -356.526
395.761;  198.278;  305.734;  394.479
396.052;  356.490; -545.284; -306.489
396.343;  326.138; -557.276; -454.503
396.634;  117.955; -200.279; -290.497
396.926;  111.885; -618.268; -565.517
397.217;  108.567;   11.725;  -17.504
397.508;   61.734; -366.273; -154.507
397.799;   44.430; -555.279; -571.497
398.090;   -5.376; -973.280; -902.495
398.381;  111.412;   11.708;  -11.473
398.672;   -8.187; -585.292; -742.473
398.963;   50.261; -348.279; -373.498
399.254;  103.597;   54.709; -209.475
399.545;  -27.926;-1017.266; -883.520
399.836;   64.126; -407.277; -343.501
400.127;   52.212; -205.295; -209.468
400.418;   48.953; -423.274; -392.506
400.709;   53.336; -359.281; -333.493
401.000;   53.551; -268.291; -309.476
401.290;  109.471;  225.698;  115.545
401.581;   71.797; -166.286; -228.485
401.872;   19.683; -542.298; -486.462
402.163;   52.029; -313.296; -252.467
402.454;   71.273; -123.291; -163.475
402.744;   84.770; -844.297; -813.465
403.035;  422.128; -226.293;  -86.471
403.326;  545.491; -366.292; -384.474
403.617;  381.202;  204.701;  165.539
403.907;  263.096; -593.283; -679.490
404.198; 2486.298; -545.307; -599.446
404.489; 6570.026; -618.283; -588.491
404.779; 2094.100; -618.302; -660.456
405.070;  221.527;  -67.304; -174.451
405.360;  350.355; -259.293; -238.472
405.651;  370.136;  125.699;   98.542
405.942;  183.517;  209.714;  127.516
406.232;  258.757; -432.285; -413.487
406.523;  462.572;  641.706;  758.530
406.813;  101.344; -579.286; -644.484
407.104;  345.836;  261.708;  144.527
407.394;  158.678; -604.299; -591.462
407.685;  149.481;  336.715;  222.513
407.975;   63.324; -400.283; -382.490
408.265;  110.213; -134.289; -190.478
408.556;   61.545; -472.291; -459.475
408.846;  176.498;  474.706;  429.530
409.137;   89.097;   -1.288; -216.480
409.427;   61.932; -193.285; -271.487
409.717;   44.737; -776.273; -692.508
410.007;  145.700;    4.715; -170.486
410.298;   89.490; -360.295; -342.469
410.588;   70.004; -495.285; -510.486
410.878;   39.358; -792.287; -873.482
411.168;  124.561; -481.298; -478.463
411.459;  113.669; -295.283; -242.489
411.749;   65.468; -609.292; -507.474
412.039;   60.995; -755.289; -386.480
412.329;  212.094;   40.722;  132.501
412.619;  216.420;  -62.286; -148.485
412.909;  358.691;  639.711;  594.521
413.199;  330.474; -130.280; -251.495
413.490;  395.456;  521.710;  352.523
413.780;  156.404;-1013.279; -913.496
414.070;  324.414;  -46.276;  235.497
414.360;  392.565; -729.278; -666.498
414.650;  429.679; -726.288; -688.482
414.940;  563.628; -538.280; -441.496
415.230;  959.251;   50.712;   74.519
415.520; 6334.069;  155.730;   66.486
415.809;25281.210; -305.281; -125.493
416.099;19118.328; -388.277; -229.501
416.389; 5414.676;  435.726;  236.494
416.679; 3165.510;   91.738;   85.473
416.969;  554.763; -527.287; -503.483
417.259;  488.080;  341.721;  171.503
417.549;  723.934;  522.718;  318.508
417.838; 1714.612; -205.268; -147.518
418.128; 5773.462;  650.710;  492.522
418.418; 4733.469; -491.272; -579.509
418.708; 3224.126;    9.726;  -48.506
418.997;12279.796; -474.275; -480.505
419.287;12516.508; -733.273; -790.507
419.577;11969.968; -160.283; -123.489
419.866;39959.051; -588.277; -498.501
420.156;40658.615; -242.270;  -55.513
420.446; 7062.302; -112.263;  -26.526
420.735;  869.184; -376.271; -446.512
421.025;  826.764; 1830.722;  315.502
421.314;  659.682; -203.271; -226.512
421.604; 1323.229;   89.732;  233.484
421.893;  763.303; -705.271; -602.511
422.183;  230.252; -487.263; -461.526
422.472;  387.105;  -36.271; -107.511
422.762;  447.981; -416.266; -379.521
423.051;  237.514; -916.276; -916.503
423.341;  308.985; -491.273; -439.507
423.630;  412.837; -121.265;   15.477
423.919;  390.896;   58.725;   49.495
424.209;  396.383;  -31.263;   56.473
424.498;  512.484;   68.732;  161.483
424.787; 1123.716; -535.267; -601.518
425.077; 3474.010;   34.735;   29.478
425.366; 4718.113; -734.262; -744.528
425.655;10182.960;  639.727;  259.493
425.945;22922.623; -313.247; -268.554
426.234;12333.512;  117.741;  300.467
426.523; 5301.467;  -86.259; -350.534
426.812; 7132.426;  107.734;  159.480
427.101;10716.076; -127.269; -323.515
427.390;13244.669;  -55.270;  -86.514
427.680; 2836.713; -624.257; -411.538
427.969;  469.249; -330.255; -301.540
428.258;  334.229; -385.257; -477.536
428.547;  533.973;  449.728;  397.490
428.836; 1198.191; -421.253; -398.543
429.125; 1699.019; -199.259;  -72.534
429.414;  816.690; -330.251; -294.548
429.703; 3259.765; -231.251; -213.548
429.992; 9814.068; -938.250; -828.549
430.281; 6248.369; -397.264; -331.524
430.570;  580.305;  -21.252;   32.454
430.859;  551.417;  279.741;  352.466
431.148;  436.993;  636.752;  631.446
431.437;  283.854;  391.748;  367.454
431.725;  173.881; -544.257; -481.536
432.014;  145.299; -845.253; -756.545
432.303;  391.572; -149.239; -105.569
432.592;  624.226; -460.263; -178.525
432.881; 1084.069; -601.248; -437.554
433.169; 6472.150; -343.255;  -61.540
433.458;13259.607;  445.765;  540.424
433.747; 5400.719; -397.261; -289.529
434.036;  878.097; -275.242; -280.564
434.324; 2130.131; -395.249; -379.551
434.613; 3800.990;   40.757;  159.437
434.902; 1204.262;  333.760;  439.433
435.190;  533.596;   75.761;  295.431
435.479;  280.521;  -52.245;   83.441
435.767;  100.055; -411.244; -427.561
436.056;  226.142; -340.242; -294.563
436.345;  378.889; -372.240; -223.568
436.633;  391.576;   60.750;  383.450
436.922;  245.117;  208.760;  414.432
437.210;  522.072; -194.236;    1.426
437.499; 1687.530; -583.235; -432.576
437.787; 1853.146; -339.236;  -10.574
438.075;  484.027;   56.761;  162.430
438.364;  687.179;  -44.238;  250.429
438.652;  397.438; -286.226; -138.592
438.941;  123.551;    3.770;  269.415
439.229;   -0.523; -665.252; -466.545
439.517;   21.639; -160.234;  -85.577
439.806;    5.279; -501.225; -290.595
440.094;  178.647;  377.766;  650.421
440.382;  192.201; -653.233; -302.580
440.670;  190.455; -361.235; -285.576
440.959;   28.772; -347.223; -170.599
441.247;   77.412; -151.229; -109.587
441.535;  100.537; -266.235;   31.423
441.823;   35.119; -497.234; -305.578
442.111;  164.542;  173.771;  327.412
442.400;  474.446; -628.245; -335.559
442.688; 1272.896; -111.234; -620.579
442.976;  869.089; -786.213; -450.617
443.264;   95.561; -324.224; -364.597
443.552;   92.989; -258.226;   51.408
443.840;  141.336;  602.765;  876.423
444.128;   98.325;  265.767;  269.420
444.416;    5.245; -694.228; -312.588
444.704;   15.178; -465.219;  -92.605
444.992;   76.792;   -0.226;  240.407
445.280;   34.701; -517.230;  -94.585
445.568;   30.692; -694.212; -396.618
445.856;  314.062; -174.221;  357.398
446.143;  718.924;  -54.220;   -7.604
446.431;  580.873;  -25.228;  625.411
446.719;  227.023;  489.783;  675.391
447.007;  176.670;  481.769;  705.416
447.295;  177.394;  597.777;  871.402
447.583;   82.285; -464.229;  -34.587
447.870;  135.058; -434.221; -202.601
448.158;  390.850; -104.230;  129.415
448.446;  301.825; -800.219; -338.604
448.733;  165.063;   13.776;  269.403
449.021;  241.392;   60.788;  341.382
449.309;  168.983; -296.210;  208.379
449.596;  218.494;  128.783;   59.392
449.884;  156.952; -571.222; -325.600
450.172;  166.929; -756.227; -406.590
450.459;  444.396;  645.786;  780.387
450.747; 2500.343; -411.218; -147.608
451.034; 8086.875;  493.772;  889.411
451.322; 6507.799; -413.214; -170.614
451.609;  521.539;  292.777;  508.403
451.897;  629.948; -550.203; -183.634
452.184; 1896.545; -622.223; -400.598
452.472; 1749.980;   97.792;  269.375
452.759;  344.176;  512.781;  864.395
453.047;  105.889; -407.212; -125.617
453.334;   66.459; -732.219; -216.606
453.621;   79.877; -438.214; -161.615
453.909;  114.065;   13.796;  384.368
454.196;   98.987; -299.199; -123.641
454.483;  207.636;  317.798;  540.364
454.771;  128.558; -215.208;  196.374
455.058;   44.236; -316.207;  102.374
455.345;  106.169;   71.807;  344.347
455.632;   79.990; -128.207;  235.373
455.919;   43.685;  -82.196;  182.354
456.207;  -59.809; -774.198; -450.642
456.494;    4.974; -475.200;  -66.639
456.781;    2.182; -399.202; -198.635
457.068;   61.071; -253.206;  -29.628
457.355;   -9.077; -698.206; -401.629
457.642;   -4.472; -552.205; -290.630
457.929;   -2.965; -778.194; -417.651
458.216;   63.715; -575.212; -354.617
458.503;  256.065; -173.193;  -19.652
458.790;  250.906; -864.208; -630.625
459.077;  266.537;  -77.202;  110.364
459.364;  830.727; -350.195; -210.649
459.651; 1788.694;  -46.206;  220.372
459.938;  798.596; -864.209; -665.623
460.225;  138.915;  132.799;  276.363
460.512;  -38.543; -836.197; -688.645
460.799;  100.366;  -32.218;  320.392
461.086;   74.904; -370.200; -251.640
461.372;   40.417; -509.198; -279.642
461.659;  103.261; -165.196;  108.354
461.946;   57.863; -445.193;  -54.651
462.233;  241.626;  842.800;  888.361
462.519;  349.998; -814.201; -464.639
462.806; 1049.533; -768.197; -497.645
463.093;  898.760; -445.191;  -66.656
463.380;  -26.148; -920.186; -824.664
463.666;   46.760; -259.197;  -18.646
463.953;   89.497; -406.195; -243.648
464.239;  195.722; -173.195;  -77.648
464.526;  399.133;  413.806;  743.350
464.813;  347.397; -565.190; -304.658
465.099;  340.339;  606.807;  607.348
465.386;  323.118;  903.807;  921.348
465.672;   16.083; -694.197; -522.645
465.959;   27.665; -598.188; -520.662
466.245;   20.668; -468.193; -359.652
466.532;  104.620; -109.195;   63.352
466.818;   68.327; -357.186; -216.664
467.104;   -1.556; -488.182; -415.672
467.391;   -5.651; -628.189; -459.658
467.677;   24.031; -289.186;    9.335
467.964;    2.430; -682.189; -471.660
468.250;   55.609; -331.186; -160.665
468.536;   64.350;   90.811;  180.341
468.822;  -27.804; -821.184; -574.668
469.109;  159.478;  351.827;  471.311
469.395;  205.703;  729.808;  787.346
469.681;  190.203;   46.811;  156.341
469.967; 1305.208; -699.188; -382.660
470.254; 2861.716; -494.188; -306.662
470.540; 1772.760; -601.196; -476.646
470.826;  264.905; -488.181; -397.675
471.112;  298.175;  288.816;  113.331
471.398;   82.129; -253.183;  -58.670
471.684;   41.860; -626.177; -447.680
471.970;   10.159; -918.180; -981.675
472.256;   12.177; -521.192; -441.654
472.542;   19.639; -499.171; -434.691
472.828;    4.465; -743.182; -607.672
473.114;   27.634; -380.166; -283.700
473.400;    4.227; -504.175; -293.684
473.686;   41.666; -452.166; -400.701
473.972;   48.717; -230.174; -131.687
474.258;  -26.522; -925.173; -843.689
474.544;  196.401; -183.178;   -2.679
474.830;  326.954;  -65.175;   45.316
475.116;  507.598; -123.190; -196.658
475.401;  707.012; -558.180; -467.676
475.687;  192.336; -725.180; -718.676
475.973;   -0.752; -673.181; -770.673
476.259;  237.181;  736.825;  764.315
476.544;  360.868; -539.176; -437.682
476.830;  873.510; -398.172; -322.690
477.116;  726.117; -430.177; -336.682
477.401;  131.836;  346.820;  358.324
477.687;  -11.148; -289.175; -405.684
477.973;   39.327;   21.819;   28.326
478.258;   -0.338; -448.163; -348.706
478.544;   46.889;   21.815;   61.334
478.829;  -50.880; -818.171; -738.692
479.115;  -54.940; -749.172; -651.690
479.401;   -1.513; -444.174; -449.686
479.686;   33.385; -253.180;  -74.676
479.972;  -18.419; -886.178; -776.680
480.257;   31.136; -258.166;  -65.700
480.542;    0.674; -614.170; -469.693
480.828;  222.550; 1288.824; 1392.317
481.113;  -38.802; -464.176; -426.683
481.399;    0.412; -236.161; -202.711
481.684;  -57.490; -620.166; -462.700
481.969;   18.076; -158.159;  -73.713
482.255;  -12.015; -439.169; -285.695
482.540;    1.507; -569.178; -441.680
482.825;   16.547; -395.187; -404.663
483.110;   97.438;  -85.169; -105.696
483.396;  199.373; -840.157; -652.718
483.681;  488.667;  543.826;  730.313
483.966;  161.119; -696.160; -700.712
484.251;    5.866; -404.174; -310.687
484.536;    4.071; -356.165; -378.703
484.822;   15.844; -205.173; -218.687
485.107;  -29.187; -599.152; -502.726
485.392;  119.727;  662.836;  541.296
485.677;   65.974;  354.832;  163.302
485.962;   94.170;  160.843;  270.283
486.247;   82.345;  -14.162;   -8.707
486.532;   40.862; -178.166; -325.701
486.817;  149.031;  381.839;  431.291
487.102;  118.695; -453.154; -514.722
487.387;  691.225; -637.156; -652.718
487.672; 1241.108; -154.164;  -38.705
487.957;  748.163; -394.160; -286.711
488.241;  202.655; -290.150; -314.729
488.526;  773.664; -280.152; -148.726
488.811; 1252.484; -881.177; -818.680
489.096;  913.573; -666.154; -702.723
489.381;  513.810;    3.847;  162.275
489.666;  390.761; -428.161; -510.710
489.950;  168.551;  558.846;  627.277
490.235;  -27.025; -480.151; -458.728
490.520;  -41.015; -756.161; -723.710
490.804;  -61.948; -827.156; -736.719
491.089;   -0.004; -469.149; -299.732
491.374;   35.006; -132.164;  -75.704
491.658;   -6.842; -817.147; -717.735
491.943;  154.744; -657.152; -609.727
492.227;  275.641; -178.155;  -38.721
492.512;   52.720; -294.157; -341.717
492.797;  -61.335; -713.149; -716.731
493.081;  -54.089; -588.147; -598.735
493.366;  -31.138; -751.161; -635.711
493.650;  199.091;  831.859;  917.254
493.935;   32.058; -648.147; -447.734
494.219;  -29.972; -778.142; -687.743
494.503;  -19.240; -585.150; -487.730
494.788;   40.311;   46.842;   74.285
495.072;  112.256;  184.850;  434.271
495.356;  168.150; -463.148; -343.733
495.641;  461.418; -812.146; -736.736
495.925;  436.307; -976.156; -903.719
496.209;   19.071; -599.149; -451.732
496.494;  -43.396; -763.142; -544.744
496.778;    5.120; -364.154; -360.722
497.062;  -59.793; -819.156; -627.719
497.346;  -22.160; -869.160; -640.711
497.631;  145.203;  580.852;  560.266
497.915;   61.004;  -64.145;  175.261
498.199;   58.998; -341.157; -277.718
498.483;   31.262; -562.152; -508.725
498.767;  199.783;  301.850;  300.271
499.051;  194.893; -126.149; -100.732
499.335;   41.591; -693.149; -739.731
499.619;  -31.704; -381.129; -423.767
499.903;   23.489; -272.155;  -65.721
500.187;   43.103; -588.153; -316.724
500.471;    7.518; -796.152; -595.727
500.755;   98.486;   62.839;  -96.710
501.039;   16.640; -270.155; -357.721
501.323;   78.018;  -21.141;  264.254
501.607;   32.237; -447.163; -503.706
501.891;  -11.025; -607.156; -512.718
502.174;  -27.610; -726.144; -585.741
502.458;   66.247;   89.849;  370.273
502.742;   28.893; -180.138; -191.751
503.026;   97.957; -412.147; -254.734
503.310;  185.750; -437.159; -375.713
503.593;  126.709; -464.147; -325.735
503.877;  123.410; -232.133; -156.760
504.161;  163.755;    2.847;  -50.724
504.444;  149.039; -841.158; -710.716
504.728;  463.355; -487.164; -522.704
505.012;  743.204; -257.150;  -76.729
505.295;  557.612; -417.161; -212.711
505.579;  560.382; -256.156; -496.719
505.862;  789.150; -555.145; -333.738
506.146;  760.352; -681.159; -758.714
506.429;  401.503;  568.841;  461.286
506.713;   72.651; -732.151; -667.728
506.996;  316.345;   90.846;  295.278
507.280;  356.700; -633.165; -474.703
507.563;  248.788; -469.155; -261.721
507.847;  102.178; -423.153; -112.724
508.130;  106.038; -665.161; -456.711
508.413;  123.781; -758.167; -577.700
508.697;  254.181; -151.167;   12.300
508.980;  154.205; -422.153; -312.724
509.263;   -0.366; -466.155; -450.720
509.547;   32.654; -124.150;   82.271
509.830;   51.690; -172.160;  140.289
510.113;   71.656;  128.844;  298.281
510.396;   41.911; -530.152; -300.725
510.680;  126.651; -818.145; -812.738
510.963;  536.924;  184.846;  180.277
511.246;  468.012; -493.150; -357.730
511.529;  249.732; -482.145;  -83.739
511.812;  395.081; -250.134;   10.241
512.095;  286.423; -740.151; -396.728
512.378;   55.738; -317.147; -245.736
512.661;   30.801; -703.137; -623.753
512.944;   35.805; -750.142; -637.744
513.227;   58.598; -170.137; -171.752
513.510;   33.740; -479.144; -671.741
513.793;   28.298; -485.140; -435.747
514.076;  139.418;  -43.127;  -39.771
514.359;  100.097; -294.149; -135.732
514.642;   86.758; -442.142; -567.744
514.925;  787.946;  581.860;  561.253
515.208; 1057.527; -498.134; -443.758
515.491;  682.342; -276.133; -182.761
515.773;  376.369; -410.143; -337.742
516.056; 2189.207;  249.864;  409.246
516.339; 2960.686; -754.136; -652.755
516.622; 1862.410; -518.150; -488.730
516.904; 1168.926;  882.857;  975.257
517.187;  523.847; -730.138; -523.752
517.470;  385.725; -568.143; -510.743
517.752;  463.689; -624.136; -470.756
518.035;  364.209; -708.139; -725.749
518.318;  385.687; -799.136; -744.755
518.600; 2531.120; -300.132; -325.762
518.883; 3519.508;  310.858;   88.256
519.165; 1676.489; -585.138; -426.751
519.448;  393.670;  -61.132;  -19.762
519.730;  186.351; -573.126; -415.773
520.013;  291.613;  588.867;  664.240
520.295;  794.508;  -94.134;  -15.759
520.578; 1743.859; -335.131; -305.764
520.860; 1989.670; -254.132;   56.238
521.143; 1021.317; -763.135; -584.756
521.425;  488.814; -251.125; -279.775
521.707;  690.893; -622.127; -380.771
521.990; 1849.444; -199.127;  167.229
522.272; 2140.224; -116.140;   -4.748
522.554;  932.870; -237.143; -157.742
522.836;  346.481;  -24.134;   99.241
523.119;  216.181; -496.148; -189.734
523.401;  174.941; -448.130; -314.766
523.683;   93.301; -865.137; -693.753
523.965;  266.844;  408.862;  260.248
524.247;  285.811;   54.878;  170.220
524.529;  203.283; -451.134; -367.759
524.812;  344.018;   -3.130;  191.234
525.094;  897.169; -773.138; -631.751
525.376; 1404.798; -143.124;   78.223
525.658;  861.059; -441.136; -339.754
525.940;   39.855; -805.131; -671.764
526.222;   32.337; -188.136;  -88.755
526.504;  110.803; -190.131;   32.237
526.786;  154.535; -960.133; -647.760
527.068;  298.879; -124.123;  -67.778
527.349;  120.980; -865.137; -774.754
527.631;  116.295; -137.132;   22.238
527.913;  145.817; -664.127; -450.771
528.195;  150.657; -761.125; -639.774
528.477;  240.227;  -93.134;  -30.758
528.759;  140.092; -648.130; -522.766
529.040;   67.278; -569.123; -293.778
529.322;   56.335; -235.125;  -10.774
529.604;  135.270;  -47.130;   93.233
529.886;  126.550; -546.126; -302.773
530.167;  120.686;  232.870;  192.235
530.449;   45.613;    1.853;   63.265
530.731;   23.985; -572.122; -459.779
531.012;   69.557; -513.120; -216.784
531.294;   65.797; -118.116;  -43.792
531.575;  139.939;  290.875;  538.225
531.857;   74.022; -548.135; -266.757
532.138;   99.942; -113.141;   40.254
532.420;  161.868;  294.865;  403.244
532.701;  198.138; -722.133; -751.760
532.983;  339.741;  232.867;  182.239
533.264;  104.073; -243.126;  175.228
533.546;  -35.013; -491.136; -508.755
533.827;   34.384;  173.867;   -1.759
534.109;   41.847; -352.135;  -80.757
534.390;   94.774; -725.132; -582.762
534.671;  251.918; -270.135;  -82.756
534.953;  132.931; -751.123; -611.779
535.234;   29.532; -426.117; -255.789
535.515;  -78.010; -891.119; -735.785
535.796;  -18.937; -431.128; -193.770
536.078; -101.827;-1050.124; -904.777
536.359;    3.181;  -22.123;    3.221
536.640;  -21.242; -480.125; -197.774
536.921;  148.175;  225.871;  143.232
537.202;  377.765;  -87.138;  -16.751
537.483;  475.008;  251.869;  377.236
537.764;  176.736;   17.870;   98.235
538.045;  -45.773; -543.134; -371.758
538.326;  -36.398; -596.129; -447.768
538.607;   18.669; -686.127; -476.771
538.888;  176.197;   98.879;    5.218
539.169;  191.317; -704.122; -535.781
539.450;  336.099;  236.871;   16.233
539.731;  216.476; -361.121; -182.783
540.012;  127.457;  199.880;  412.216
540.293;   74.617;   82.876;  158.224
540.574;   10.769; -895.113; -717.796
540.855;  443.750;  435.879;  377.218
541.136;  545.564;   47.878;  139.220
541.416;  275.543; -161.130; -220.766
541.697;  214.628; -274.131; -170.763
541.978; 1053.445; -270.135; -315.757
542.259; 1393.644; -211.127; -236.771
542.539;  633.966; -191.116; -186.790
542.820;  189.689;  461.875;  480.225
543.101;  129.978;  -52.145;  -77.738
543.381;   36.619; -638.127; -591.771
543.662;  260.291;  159.873; -254.771
543.942;  604.964; -751.127; -830.770
544.223; 1107.316;  193.878;  161.219
544.504;  698.148; -275.124; -182.777
544.784;  597.700; -592.126; -408.773
545.065; 1730.195;  104.884; -254.791
545.345; 2057.915;  227.881;   14.215
545.626; 1316.768;  -14.113; -108.796
545.906;  915.686;   77.869;   98.235
546.186;  348.480;   92.874;  -95.773
546.467;  201.700;   99.877;  -95.778
546.747;  331.916;  264.884;  327.210
547.027;  363.171;   91.876;  111.223
547.308;  333.813; -376.127; -530.770
547.588;  398.503;  299.871;  371.232
547.868;  207.287;  458.870;  588.235
548.149;  184.352;  609.885;  593.207
548.429;  124.417; -347.127; -299.771
548.709;  202.306; -645.120; -461.784
548.989;  503.075;   84.882;   88.213
549.269; 2168.543;   10.868;  139.239
549.550; 5089.580;  215.877;  117.222
549.830; 4504.361; -758.111; -556.799
550.110;  869.819; -468.110; -320.801
550.390;  858.885; -128.122;  -56.779
550.670; 1195.038; -868.114; -783.795
550.950;  818.824; -509.121; -471.782
551.230;  180.121;  549.879;  460.218
551.510;   -4.577; -381.121; -326.782
551.790;   45.852; -173.109; -127.803
552.070;  248.150;  940.877; 1181.223
552.350;  429.695; -492.119; -377.786
552.630;  606.568;   -2.121;   77.219
552.909;  377.745;  181.884;   73.209
553.189;  242.025;  -49.132;   33.237
553.469;  197.419; -703.119; -514.786
553.749;  203.945; -469.127; -357.772
554.029;  165.711;   33.883;  -24.790
554.308;  161.182; -154.115;  -37.794
554.588;   61.387; -196.128; -204.770
554.868;   65.725; -366.121;  -47.782
555.147;  151.704; -114.115;  -46.793
555.427;  600.873; -260.116; -250.792
555.707; 4069.302; -284.115; -200.793
555.986; 4957.915; -719.111; -538.800
556.266; 2550.914;   23.884;   72.210
556.546;  136.248; -888.121; -675.782
556.825;  257.461; -657.114; -556.794
557.105; 1871.235; -125.128;   17.230
557.384; 2213.319;  122.884;  187.209
557.664;  837.247; -717.116; -508.792
557.943;  123.975; -557.121; -411.782
558.222;  193.179; -345.118; -344.788
558.502;  281.955; -116.115;  -76.793
558.781;  507.126;  194.885;  499.208
559.061;  418.803; -232.118; -227.788
559.340;  301.083;  302.883;  353.211
559.619;  724.414;   93.884;  148.210
559.899; 1070.085; -239.117; -266.789
560.178;  967.955; -778.115; -593.793
560.457; 3271.612; -623.117; -562.790
560.736; 4642.791; -472.111; -482.800
561.015; 3022.633; -500.128; -502.769
561.295;  380.198;  180.893;  215.193
561.574;  337.127;  119.885;  116.207
561.853;  504.732;  274.891;  303.197
562.132;  493.882;  -45.114;  182.206
562.411;  460.044;  396.879;  553.219
562.690;  146.250; -592.115; -458.792
562.969;  154.850;  472.888;  630.203
563.248;  480.266; 2966.878; 2487.219
563.527;  296.115; -290.111; -408.800
563.806;  414.392; -650.127; -521.771
564.085;  415.664; -297.105; -206.810
564.364;  258.814; -594.117; -405.790
564.643;  503.444; -276.121; -223.781
564.922; 1989.601;  221.890;  397.198
565.201; 1998.629; -640.109; -700.803
565.479;  841.649; -297.115; -219.792
565.758;  362.135; -810.128; -712.770
566.037;  488.030; -155.109; -100.803
566.316;  243.194; -286.116;  -28.791
566.595;   40.052;  -17.115;  -12.793
566.873;   99.193; -166.111;  -79.801
567.152;  -58.925; -490.113; -590.797
567.431;    3.740; -113.116;    6.210
567.709;   16.098; -344.107; -212.807
567.988;  277.586; -810.114; -769.794
568.266;  548.702; -160.115;  -68.793
568.545;  394.212; -644.100; -514.819
568.824;  589.323;  160.885;  356.208
569.102;  573.461; -351.114; -235.794
569.381;  252.072; -492.116; -407.792
569.659;  -35.204; -553.113; -553.796
569.938;   23.114; -743.122; -465.780
570.216;  108.258; -225.109; -225.804
570.494;  -21.436; -632.114; -572.795
570.773;   22.548;  202.879;  114.218
571.051;   -0.097; -373.123; -357.778
571.330;   66.818; -221.113; -174.796
571.608;   26.156; -181.098; -173.823
571.886;  -63.166; -671.111; -581.799
572.164;  -66.750; -739.121; -621.782
572.443;  -37.957; -562.105; -512.811
572.721;  -23.913; -399.117; -289.790
572.999;  -15.544; -280.117; -168.788
573.277;   82.086;  379.894;  620.191
573.555;  282.688;   94.894;   37.190
573.834; 1417.355;  -86.117; -114.788
574.112; 1651.551;  880.893;  811.193
574.390;  489.592; -143.111;  -96.801
574.668;    8.276;  -91.112;  -61.797
574.946;  -12.062; -165.106; -187.810
575.224;   12.954;   71.891;  -16.803
575.502;   -4.808; -200.116; -204.791
575.780;  -76.723; -767.112; -829.798
576.058;  214.666; 1589.889; 1004.200
576.336;  -15.329; -210.110; -129.801
576.614;  -53.548; -511.112; -340.798
576.891;   42.881; -711.115; -823.794
577.169;  514.991; -158.108; -285.805
577.447;  608.125;  169.893;  202.193
577.725;  262.582;  629.888;  854.201
578.003;   14.405;  -71.112; -371.798
578.280;   88.202; -208.104; -242.812
578.558;   63.855; -450.115; -422.793
578.836;  133.314; -210.114; -145.795
579.114;   54.351; -630.112; -670.797
579.391;   63.132;   -6.117;  -18.789
579.669;  -55.893; -595.114; -704.794
579.947;  179.872; -326.107; -127.806
580.224;  352.596; -692.107; -524.806
580.502;  322.176;  127.893;   76.193
580.779;   22.213;  -42.117;   75.210
581.057;  -72.316; -584.109; -470.804
581.334;  -78.483; -726.102; -695.815
581.612;   27.689;   54.895;  511.190
581.889;  -29.819;  -83.101; -129.818
582.167;  -39.929; -298.099; -190.821
582.444;  -83.350; -845.102; -814.817
582.721;   94.851;  657.899;  715.183
582.999;   50.693; -326.100; -167.821
583.276;  553.483; -812.123; -713.779
583.553;  771.396; -364.102; -294.816
583.831;  255.073; -607.104; -631.812
584.108;   64.264;  349.892;  174.195
584.385;   12.467; -122.102;  -98.815
584.662;  -62.457; -651.111; -828.801
584.940;   35.167;  204.889;  204.199
585.217;  -15.004;  -73.113; -303.796
585.494;   27.701;   71.890;  118.198
585.771;  209.409; -250.109; -354.804
586.048;  531.845; -196.113;  -76.796
586.325;  317.970; -721.110; -773.801
586.602;   85.502;  230.896;  213.188
586.879;    0.364; -499.100; -580.820
587.156;   50.440; -156.105; -331.810
587.433;  -26.377; -701.102; -667.817
587.710;   69.303;  152.888;  234.202
587.987;  311.920; -264.105; -236.811
588.264;  809.655;  315.888;  387.202
588.541; 1380.980;  -61.104;   26.187
588.818; 2830.637;   72.892;  171.196
589.095; 2392.075; -163.104; -174.812
589.371;  386.932; -459.109; -414.804
589.648;   24.826; -581.107; -437.807
589.925;   27.390; -517.114; -621.795
590.202;   20.177; -741.112; -607.798
590.478;   93.172; -166.105;  -73.811
590.755;  243.593; -241.108; -132.806
591.032; 2572.423; -741.110; -699.802
591.308; 3617.272; -732.094; -790.831
591.585; 1831.797; -573.110; -560.802
591.862;  152.850;-1056.102; -950.817
592.138;   64.265; -475.108; -474.805
592.415;  143.828; -486.104; -495.813
592.691; 1468.751;  460.896;  518.188
592.968; 1962.908; -208.098; -123.824
593.244;  912.515; -695.116; -595.790
593.521;   71.025; -105.102;  -42.817
593.797;  -21.463; -810.122; -720.780
594.074;  328.946; -611.096; -588.826
594.350;  689.007;  828.905;  729.172
594.626;  295.243; -303.111; -283.801
594.903;  116.676; -643.101; -645.817
595.179;  187.257;  243.896;  418.187
595.455;    8.827; -136.107; -150.807
595.731;   -0.116;  -19.103;  -38.814
596.008;  -46.913; -464.111; -434.800
596.284;   30.367; -187.100; -242.820
596.560;   65.129; -501.093; -493.833
596.836;  218.892; -173.105;  -70.810
597.112;  358.491; -582.108; -437.805
597.388;  293.669;  -49.097;  -48.826
597.665;  105.098;  437.887;  530.203
597.941;  -62.966; -572.089; -658.839
598.217;   20.876; -323.110; -293.802
598.493;  264.886;   61.891; -204.804
598.769;  530.961; -175.100;  -50.819
599.045;  318.769; -490.108; -562.806
599.321;   56.191; -193.100; -261.820
599.597;  147.160; -355.109; -476.804
599.872;  479.755;  409.896;  429.187
600.148;  382.320;  -61.097; -172.826
600.424;  296.799;   91.893;  202.193
600.700;  240.976; -170.107; -280.807
600.976;  135.239; -442.097; -464.825
601.252;  244.732; -226.109; -272.803
601.527;  227.906; -833.104; -840.813
601.803;  150.873; -453.105; -404.812
602.079;  185.686; -124.100; -118.819
602.354;  569.239; -620.092; -531.835
602.630;  848.471; -140.113; -482.796
602.906; 2342.681; -910.101; -863.818
603.181; 7055.669; -627.119; -534.786
603.457; 5993.143;   98.903; -278.826
603.733;  852.227; -605.120; -626.783
604.008;  981.114; -245.106; -164.810
604.284; 3187.902; -636.101; -580.817
604.559; 2735.882;   -3.112;  -42.799
604.835;  490.567; -163.105; -225.810
605.110;  436.621; -732.099; -892.821
605.385;  697.682;  224.907;  267.167
605.661;  656.010; -625.095; -729.829
605.936; 1214.819; -664.108; -737.806
606.211; 1015.165;  -17.103; -170.815
606.487;  211.584; -329.114; -376.794
606.762;   21.270; -791.119; -745.786
607.037;  -24.283; -501.105; -433.810
607.313;  -42.472; -589.096; -574.828
607.588;   -8.062; -375.106; -137.810
607.863;   46.630;  -28.101; -143.818
608.138;  173.575;  513.890;  516.198
608.413;   20.525; -576.099; -592.822
608.688;   46.141; -203.108; -267.805
608.964;  226.232; -509.106; -218.809
609.239;  264.814; -107.105; -212.810
609.514;  271.772;  281.895;  240.188
609.789;  663.177; -187.104; -716.812
610.064;  900.552; -435.096; -609.827
610.339;  889.757; -855.109; -799.804
610.614; 1245.416; -131.100; -315.820
610.889;  674.498;  215.895;  107.188
611.163;   38.098; -407.104; -591.812
611.438;   87.586;   81.886; -167.794
611.713;   12.927; -467.101; -499.817
611.988;   55.554; -144.101; -328.818
612.263;   -3.808; -771.102; -717.815
612.538;  205.470;  385.887;  251.204
612.812;  191.092; -832.100; -911.820
613.087;  153.181; -358.098; -338.823
613.362;  -43.348; -497.107; -557.807
613.637;   23.711;  261.897;  138.186
613.911;  -12.160; -256.092; -345.835
614.186;  130.250; -249.107; -292.807
614.460;  713.587; -842.081; -758.854
614.735;  796.284;  -55.087;  -17.843
615.010;  178.073;   43.912;  -82.841
615.284;  244.965;  360.892;  246.195
615.559;  393.214; -792.092; -955.835
615.833;  289.923;  -76.099;  -87.822
616.108;   -1.274; -225.090; -390.837
616.382;  137.735;  274.913;  402.156
616.656;  158.826; -241.090; -232.837
616.931;  536.224; -785.099; -700.822
617.205; 1102.706; -973.104; -979.813
617.480; 1001.612;  -91.125;    6.225
617.754;  171.309; -396.125; -128.774
618.028;   22.504; -369.129; -382.768
618.302;   58.264;   73.892;  -25.805
618.577;  -60.787; -371.103; -518.815
618.851;  -68.271; -399.109; -600.803
619.125;  -45.967; -335.134; -378.759
619.399;  -29.069; -244.104; -374.813
619.673;  -42.151; -330.115; -515.792
619.947;  -56.686; -333.114; -448.795
620.222;  -20.356; -198.110; -204.801
620.496;   -5.875;  -47.121;  -96.782
620.770;   10.891; -187.122;  -93.781
621.044;  208.690;  323.895;  346.190
621.318;  761.578; -653.120; -614.783
621.592;  687.376; -430.121; -409.783
621.866;  377.583; -476.112; -572.799
622.140;   20.142; -207.116; -356.791
622.413;   44.662;  138.889;  112.200
622.687;  -38.198; -746.101; -492.817
622.961;    3.489; -130.108; -143.805
623.235;  -63.887; -633.111; -661.800
623.509; -115.803; -816.105; -848.811
623.783;   10.747;  -12.107;   48.193
624.056;  -28.721; -254.120; -280.783
624.330;   54.326;   63.888;   -3.797
624.604;   43.089; -271.116; -355.790
624.877;   62.449;  180.890;   26.198
625.151;   45.708; -249.114; -238.794
625.425;  -39.517; -150.103; -283.814
625.698;  -49.611; -367.119; -374.785
625.972;  -99.999; -799.110; -765.802
626.245;   72.116;  685.884;  484.210
626.519;  -55.917; -426.120; -340.784
626.792;  -40.024; -192.107; -380.807
627.066;  -86.116; -485.122; -662.779
627.339;  -93.553; -736.110; -663.802
627.613;   46.982;  351.880;  148.216
627.886;   49.003;  187.891; -612.803
628.160;  -13.872;  312.880; -161.783
628.433;  -95.535; -695.125; -703.775
628.706;  -82.017; -517.120; -615.784
628.979;   27.146;  296.876;  117.223
629.253;  -86.431; -785.119; -833.786
629.526;  370.774; -334.126; -253.772
629.799;  369.179; -641.123; -479.778
630.072;  180.130; -497.128; -516.769
630.346;  -62.159;-1115.116;-1080.790
630.619;  455.952; -467.107; -545.808
630.892;  660.514;  709.889;  593.200
631.165;  333.856;  790.896;  679.187
631.438;  -78.145;-1092.112;-1055.798
631.711;   40.557;  453.877;  257.221
631.984;  -59.414; -523.117; -624.789
632.257;  -74.068; -636.117; -681.789
632.530;  -61.436; -412.119; -433.785
632.803;   21.806; -109.115;    7.207
633.076;  -63.400; -360.123; -422.777
633.349;    0.709;  173.872;  121.231
633.622;  -50.562; -187.119; -240.785
633.895; -112.646; -903.120; -823.783
634.167;  -68.724; -496.126; -525.773
634.440;  -19.978;  -19.116; -137.792
634.713;  -12.707;  -22.119; -120.786
634.986;   72.424;  593.871;  453.233
635.258;  -85.346; -507.115; -597.793
635.531;   90.928;  742.882; -343.788
635.804;  -40.541; -303.117; -318.789
636.077;  -97.407; -830.116; -852.791
636.349;    9.377; -586.115; -474.793
636.622;  379.323; 1695.874; 1392.228
636.894;  247.584; -474.120; -909.784
637.167;  176.142; -836.127; -789.771
637.439;   24.938; -278.128; -213.770
637.712;  -54.900; -312.126; -293.772
637.984;  -68.006; -635.116; -707.791
638.257;  383.251;  515.877;  488.222
638.529;  583.441; -881.125; -924.776
638.802;  256.530; -508.128; -449.769
639.074; -114.185; -927.122; -952.781
639.346; -112.401; -942.135; -930.757
639.619;    6.131;  -79.142; -319.744
639.891;  -18.741;  -83.122; -168.779
640.163;  -82.564; -689.122; -756.780
640.435;   31.538;  273.878;  103.220
640.708;    5.815;  -72.122; -132.780
640.980;  -31.633; -366.122; -362.781
641.252;  192.669;  -25.121;  -71.781
641.524; 1792.120;  580.879;  573.219
641.796; 1903.822;-1094.121; -907.782
642.068;  330.399; -191.121; -300.782
642.340;  -51.674; -486.121; -566.783
642.613;   21.103;  294.880;  323.217
642.885;  -93.970; -787.120; -878.783
643.157;  -47.118; -810.120; -658.784
643.428;   51.184;  170.880;  218.216
643.700;  -64.914; -498.120; -425.784
643.972;  -39.738;  -16.119; -133.785
644.244;  -88.761; -474.119; -559.785
644.516;  -45.059; -250.119; -114.786
644.788;   55.718;  662.881;  548.214
645.060;  -34.230;  -12.119; -124.786
645.332; -107.478; -525.118; -535.787
645.603;   26.099;  479.882;  342.213
645.875;  -74.924; -334.118; -369.787
646.147;  153.703; 1487.882; 1242.212
646.418;  -69.495; -931.117; -918.788
646.690;  155.681; -714.117; -715.789
646.962;   45.008; -413.117; -451.789
647.233;  -12.690;   15.883;   11.211
647.505; -104.663; -595.117; -475.790
647.776;   13.939;  328.884;  229.210
648.048;  -13.284; -248.116; -418.790
648.320;  -71.757; -752.116; -679.791
648.591; -153.480;-1055.116; -958.791
648.862;  -91.228; -505.116; -577.792
649.134;   14.798;  115.885;  198.208
649.405;  -41.425; -661.115; -618.792
649.677;  -47.048; -475.115; -598.793
649.948;  -23.121; -181.115; -296.793
650.219;   -9.144;  -37.115; -147.793
650.491;  -83.792; -431.114; -520.794
650.762; -128.040; -705.114; -731.794
651.033;  -88.713; -437.114; -424.795
651.304;  -87.861; -743.114; -728.795
651.576;  -54.359; -680.114; -645.795
651.847;  -35.233; -250.113; -140.796
652.118;  -29.506;  -32.113; -189.796
652.389;  -92.179; -639.113; -722.796
652.660;  -35.027; -147.113;  -89.797
652.931; -130.875; -897.112; -871.797
653.202;  -75.823; -382.112; -541.798
653.473;  -67.371; -633.112; -533.798
653.744;  149.556; -595.112; -590.798
654.015;  144.933; -356.112; -303.799
654.286;  -56.116; -642.111; -663.799
654.557;  -52.289; -586.111; -521.799
654.828; -159.112;-1114.111;-1088.800
655.099;  -81.960; -404.111; -291.800
655.370;  -99.508; -427.111; -543.801
655.641; -123.881; -656.110; -714.801
655.911;  -99.379; -618.110; -638.801
656.182;   35.973;  437.890;  387.198
656.453;   84.100;  830.890;  746.198
656.724;  -75.373; -466.110; -426.802
656.994;  -80.172; -553.109; -568.803
657.265; -110.220; -862.109; -873.803
657.536;  -79.418; -500.109; -377.804
657.806; -127.116; -561.109; -593.804
658.077; -137.639; -866.109; -950.804
658.347;  -93.462; -523.108; -598.805
658.618; -115.285; -646.108; -694.805
658.888;  -33.858;  -41.108;  112.195
659.159;  -77.131; -432.108; -548.806
659.429;  -12.930; -292.108; -349.806
659.700;   13.247; -435.107; -390.807
659.970;  -13.826; -370.107; -359.807
660.241;   13.076; -754.107; -921.807
660.511;  499.928; -147.107; -174.808
660.781;   95.330; -793.106; -748.808
661.052;  -58.068; -222.106; -381.808
661.322;  -23.191;   21.894;   -9.809
661.592;   11.611;  257.894;  148.191
661.862;  -72.837; -369.106; -382.810
662.133; -102.836; -551.105; -502.810
662.403; -117.634; -770.105; -676.810
662.673;  -71.907; -256.105; -213.811
662.943;  -96.455; -612.105; -551.811
663.213;  -19.828;  -85.105;  -81.811
663.483;  -91.901; -593.104; -568.812
663.753;  -61.649; -194.104; -152.812
664.023;  -15.872;   68.896;  -32.813
664.293;  -70.595; -319.104; -126.813
664.563; -106.219; -694.104; -648.813
664.833; -130.767; -743.103; -608.814
665.103; -149.465; -730.103; -793.814
665.373; -115.888; -766.103; -806.814
665.643;  -80.786; -863.103; -918.815
665.913;   29.466; -534.103; -714.815
666.182;  161.618; -685.102; -719.816
666.452;  272.845;  -22.102;  -89.816
666.722;  -28.778; -724.102; -784.816
666.992; -140.976; -948.102; -921.817
667.261;  -85.750; -824.102; -808.817
667.531;  187.502;  134.899;   45.183
667.801;  558.904; -440.101; -412.818
668.070;  230.281;  714.899;  697.182
668.340; -116.667; -883.101; -840.819
668.609;   83.410;  588.900;  301.181
668.879;  -83.488; -490.100; -558.819
669.149;  -76.561; -539.100; -516.820
669.418; -109.109; -698.100; -726.820
669.688;  -45.008; -482.100; -666.820
669.957;   67.894; -423.099; -546.821
670.226;  -26.154; -268.099; -331.821
670.496;  -90.977; -431.099; -635.822
670.765;  -84.550; -418.099; -501.822
671.034; -120.023; -872.099; -828.822
671.304;  -25.671;   55.902; -111.823
671.573; -151.619;-1085.098; -957.823
671.842;   77.933; -380.098; -294.823
672.112;   30.360; -692.098; -586.824
672.381;   -4.114; -239.098; -214.824
672.650; -148.887;-1005.097;-1021.825
672.919;  -90.485; -631.097; -507.825
673.188;  -99.983; -681.097; -878.825
673.457; -150.206;-1101.097;-1143.826
673.726;  -73.804; -579.096; -646.826
673.995;  -48.452; -533.096; -479.826
674.265;  -10.800; -263.096; -333.827
674.534;   -4.973; -183.096; -235.827
674.802;   -4.897; -618.096; -703.828
675.071;  939.530; -886.095; -801.828
675.340; 4103.257; -464.095; -339.828
675.609; 1357.459;  103.905;   82.171
675.878;   83.436; -949.095; -893.829
676.147;   41.138;  -26.095;   -8.829
676.416;   73.365; -210.094; -294.830
676.685;  747.292; 1000.906; -622.830
676.953;  120.469; -603.094; -452.831
677.222;  -38.804; -193.094; -273.831
677.491;  -28.128;  -24.094; -127.831
677.759;   -6.501;   11.907;  172.168
678.028;  -28.074; -279.093; -222.832
678.297;  -12.247;   71.907;  197.168
678.565; -134.520; -898.093; -944.833
678.834;  -61.643; -311.093; -268.833
679.102;  -80.216; -411.092; -391.834
679.371; -154.414; -898.092; -727.834
679.639; -135.562; -797.092; -786.834
679.908; -133.261; -794.092; -724.835
680.176; -160.734; -895.091; -941.835
680.445;  -72.607; -346.091; -352.835
680.713;  -24.780;  -58.091;  -23.836
680.982;  -91.053; -523.091; -525.836
681.250; -105.551; -578.091; -507.837
681.518; -107.824; -534.090; -751.837
681.787;  -17.972; -204.090; -167.837
682.055;  -67.795; -490.090; -422.838
682.323; -151.918; -993.090; -992.838
682.591;   24.633; -216.090; -538.838
682.859;   89.960;    9.911;  -35.839
683.128;   -8.238;  232.911;  497.161
683.396; -167.636;-1102.089;-1122.840
683.664;  -35.634; -241.089;   21.160
683.932;  -10.432;  144.911;  -76.840
684.200;  -80.430; -576.088; -320.841
684.468;  -23.278;  -73.088; -124.841
684.736;  -35.276; -214.088; -175.841
685.004; -117.525;-1024.088; -982.842
685.272;  -44.748; -880.088; -774.842
685.540;  -62.921; -499.087; -557.843
685.808;  -90.844; -651.087; -682.843
686.076; -101.367; -894.087; -969.843
686.343;  -58.240; -601.087; -815.844
686.611;   40.787; -195.087; -224.844
686.879;  427.139; -530.086; -553.844
687.147; 3407.316; -483.086; -480.845
687.414;  996.968;  -12.086; -169.845
687.682;    7.644; -658.086; -757.846
687.950;  296.821;  259.915;  263.154
688.217;    6.323; -792.085; -760.846
688.485;  -15.525; -632.085; -636.847
688.753;  530.077;  -11.085; -102.847
689.020;  177.854; -820.085; -851.847
689.288;  -96.394; -853.084; -787.848
689.555;  -37.267; -195.084; -148.848
689.823;  -45.265; -241.084; -345.849
690.090;  -86.264; -546.084; -651.849
690.358; -135.712; -877.084; -897.849
690.625;   -0.660;  120.917;   45.150
690.892;  -76.458; -403.083; -369.850
691.160;  -23.131;   72.917;  -35.850
691.427;    4.696;  141.917;  130.149
691.694; -121.227; -855.083; -929.851
691.962; -132.475;-1177.082;-1060.852
692.229;   10.177;  127.918;   56.148
692.496;   72.429;  130.918;  -49.852
692.763;    9.755; -164.082; -201.853
693.031;  -77.993; -739.082; -716.853
693.298;  -40.766; -509.081; -368.853
693.565;  280.411; -155.081; -163.854
693.832; 1330.613;   -5.081;   -9.854
694.099;  159.665; -643.081; -642.855
694.366;  -56.458; -882.081; -896.855
694.633;  -54.331; -920.080; -633.855
694.900;  693.746; 4367.920; -114.856
695.167;  437.997; -214.080; -380.856
695.434;  119.774; -646.080; -623.856
695.701;  184.301;  121.921;  -61.857
695.968;  493.503; -365.079; -361.857
696.234;  977.780; -415.079; -646.858
696.501;10562.132; -776.079; -614.858
696.768; 5721.134; -554.079; -617.858
697.035;  337.661; -632.078; -667.859
697.302;   40.388; -448.078; -552.859
697.568;   12.565; -458.078; -497.859
697.835;  -46.359; -683.078; -624.860
698.102;  -27.082; -498.078; -407.860
698.368;   84.045;  384.923;  396.139
698.635;  -30.478;  -47.077; -424.861
698.901;  -10.376; -240.077; -348.861
699.168;   80.351; -534.077; -456.862
699.435;   77.803;  -72.077;  -13.862
699.701; -120.145; -868.076; -764.862
699.968;    7.182;  144.924; -441.863
700.234;  -97.867; -783.076; -822.863
700.500;  -49.990; -448.076; -539.864
700.767;   -2.763;   -1.075;   26.136
701.033; -126.436;-1015.075; -963.864
701.299;  -51.834; -450.075; -483.865
701.566;  117.968;  950.925;  763.135
701.832;   28.870;  -31.075;  -76.865
702.098;  -84.778;-1054.074;-1034.866
702.365;  -74.501;-1098.074;-1030.866
702.631;  -30.799;-1038.074;-1063.867
702.897; 1327.902; -765.074; -676.867
703.163; 2393.329;  348.926;  254.133
703.429;  168.406; -256.073; -273.868
703.695;  -27.742; -796.073; -792.868
703.961;   18.710; -214.073; -210.868
704.227;  -52.788; -630.073; -725.869
704.493;  121.414;  613.927;  510.131
704.759;  -30.109; -565.072; -540.870
705.025;   26.243; -203.072; -194.870
705.291;  -14.381; -666.072; -562.870
705.557;  189.921;  719.928;   34.129
705.823;   41.823; -742.072; -694.871
706.089;  132.925; -307.071; -326.871
706.355;  351.152; -315.071; -244.872
706.620; 5465.004; -776.071; -729.872
706.886; 8246.131; -309.071; -362.873
707.152;  804.008; -818.070; -973.873
707.418;  -21.765;-1153.070;-1186.873
707.683;    0.212; -550.070; -530.874
707.949;  -30.637; -547.070; -578.874
708.215;   -2.110; -129.070; -207.874
708.480;  -22.308; -520.069; -420.875
708.746;  103.544;   68.931;   28.125
709.011;  -49.454; -578.069; -612.876
709.277;  -69.377; -538.069; -543.876
709.542;  -54.475; -428.069; -387.876
709.808;   -6.698;  -59.068;   89.123
710.073;  -88.671; -577.068; -695.877
710.339;  -16.020; -242.068; -228.877
710.604;   72.257; -780.068; -845.878
710.869;  336.009; -277.068; -366.878
711.135;  -72.814; -715.067; -628.879
711.400;  -79.737; -507.067; -608.879
711.665;  -62.085; -404.067; -479.879
711.931; -106.258; -661.067; -677.880
712.196; -120.581; -876.067; -954.880
712.461;   98.921; -402.066; -490.880
712.726;  173.248; -727.066; -771.881
712.991;  -84.751; -647.066; -664.881
713.256;  -43.174; -350.066; -332.882
713.521;  -53.322; -417.065; -381.882
713.787;  -60.495; -454.065; -472.882
714.052;  -42.093; -214.065; -400.883
714.317;  -98.916;-1045.065; -981.883
714.581;  971.936; -374.065; -268.883
714.846; 1505.513; -822.064; -888.884
715.111;  127.990;  261.936;  257.116
715.376;  -29.909;  -86.064; -223.885
715.641;  -13.432; -365.064; -367.885
715.906;  291.120;   15.936; -551.885
716.171;  128.272;  221.937;  209.114
716.436;   34.874;  -78.063; -104.886
716.700; -108.899; -818.063; -692.886
716.965; -119.672; -794.063; -807.887
717.230;  -82.370; -339.063; -392.887
717.494;  -25.868;  -40.062; -134.888
717.759; -116.516; -784.062; -640.888
718.024;    3.985;  269.938;  250.112
718.288;   74.487;  685.938;  395.111
718.553; -137.361; -803.062; -977.889
718.817; -130.984; -883.061; -899.889
719.082;  -37.457; -115.061; -125.890
719.346; -128.930;-1000.061; -947.890
719.611;  -42.253; -300.061; -255.891
719.875;  -96.026; -568.060; -537.891
720.140;  -71.499; -453.060; -603.891
720.404;   21.827; -136.060; -249.892
720.668;  823.504; -475.060; -411.892
720.933;  350.756;  146.940;  137.108
721.197;  -97.592; -667.059; -600.893
721.461; -137.990; -851.059; -826.893
721.725;  -15.613;  -21.059; -250.894
721.990;  -56.311; -284.059; -204.894
722.254;  -25.534;  -26.059; -108.894
722.518;  -69.857; -286.058; -442.895
722.782; -101.430; -743.058; -594.895
723.046;  123.271;  614.942;  570.105
723.310;   14.498;  374.942;  210.104
723.574;  -92.675; -654.058; -614.896
723.838; -101.923; -576.057; -642.897
724.102;  -41.721; -226.057; -239.897
724.366; -127.219;-1032.057; -978.897
724.630;  -95.442; -749.057; -571.898
724.894;  -88.365; -722.057; -514.898
725.158;  -13.288;   38.944; -295.898
725.422;  -50.587; -394.056; -327.899
725.685;  -61.935; -441.056; -349.899
725.949;  -83.483; -566.056; -519.900
726.213;  -72.781; -732.056; -811.900
726.477;  172.321;-1020.055; -933.900
726.740;  155.048; -274.055; -104.901
727.004;  314.675; -384.055; -510.901
727.268; 3316.902; -442.055; -400.901
727.531; 1035.329; -961.055; -775.902
727.795;  -38.419; -713.054; -673.902
728.059;  -69.543; -552.054; -557.903
728.322;  -69.041; -841.054; -669.903
728.586;   29.986; -692.054; -701.903
728.849;  -88.187; -695.053; -756.904
729.112; -113.485; -812.053; -912.904
729.376; -126.783; -959.053; -905.904
729.639;  -80.781; -536.053; -536.905
729.903; -113.854; -733.053; -699.905
730.166;  -50.827; -437.052; -399.906
730.429;  -37.301; -317.052; -468.906
730.693;  -57.774; -355.052; -894.906
730.956;  191.203;  810.948;  651.093
731.219;  724.580; -310.052; -103.907
731.482;  117.157;-1003.051; -894.907
731.745;  125.284; -794.051; -935.908
732.009;   16.336;  -30.051;   50.092
732.272; -100.662; -904.051; -771.909
732.535;  -41.485; -300.051; -310.909
732.798; -164.558;-1083.050;-1166.909
733.061;  -35.432; -430.050; -456.910
733.324;  -10.030;   31.950; -180.910
733.587;   63.897;  290.950;  365.090
733.850;  -65.501; -973.049;-1050.911
734.113;   21.426;   33.951;   32.089
734.376;   -4.397; -328.049; -447.912
734.639;  203.855; 1188.951; 1011.088
734.901;   60.907; -180.049; -402.912
735.164;  490.084; -883.048; -837.913
735.427; 1382.260; -166.048; -355.913
735.690;  137.437; -205.048; -234.913
735.952;  -30.636; -923.048; -925.914
736.215;  -25.809;-1113.048;-1009.914
736.478;   42.843; -771.047; -774.915
736.740;  223.745;   33.953;  129.085
737.003;  606.897; -658.047; -672.915
737.266; 4234.949;  -94.047;   46.084
737.528;  478.601; -682.047; -660.916
737.791;  318.628; -316.046; -327.916
738.053;  778.304;  465.954;  649.083
738.316;10502.306; -162.046; -136.917
738.578; 8479.933; -770.046; -736.918
738.841;  482.210; -382.046; -446.918
739.103;  175.187; -875.045; -777.918
739.365;  531.339;   79.955;  -69.919
739.628;   26.966; -884.045; -805.919
739.890;  -19.007; -758.045; -710.919
740.152;  -37.505; -692.044; -754.920
740.414;  -10.054; -408.044; -359.920
740.677;  -41.627; -785.044; -634.921
740.939;  -40.775; -587.044; -487.921
741.201;  260.752; -432.044; -572.921
741.463;   60.129; -689.043; -745.922
741.725;   29.331;  -21.043; -199.922
741.987;   54.983;  220.957;  116.078
742.249;   12.610; -751.043; -859.923
742.511;  213.737; -703.043; -794.923
742.773;   36.363; -546.042; -546.924
743.035;  130.015;  796.958;  533.076
743.297;  -36.733; -963.042;-1013.924
743.559;  754.844; -278.042; -262.925
743.821;   73.121; -735.042; -744.925
744.083;   10.023;  -44.041; -149.925
744.345;  -76.425; -869.041; -892.926
744.607;   35.427;   75.959;  122.074
744.868;  -69.396; -490.041; -554.927
745.130;  -97.819; -994.041;-1008.927
745.392;   35.382;   -1.040;  -44.927
745.653;  -10.116; -411.040; -378.928
745.915;  154.536;  896.960;  631.072
746.177;   25.663;   35.960;  -43.928
746.438;   18.115; -428.040; -543.929
746.700;  -46.233; -947.039; -988.929
746.961;    9.094; -659.039; -740.930
747.223;  134.296; -190.039;  -74.930
747.484;  100.148; -391.039; -471.930
747.746;  148.674;  -23.038; -106.931
748.007;  119.576; -647.038; -689.931
748.269;  277.353; -468.038; -440.931
748.530;  523.230; -852.038; -638.932
748.791;  259.007; -354.038; -420.932
749.053;  430.084;  286.963;  163.067
749.314;  469.036; -236.037; -169.933
749.575;  547.113; -945.037; -905.933
749.836;  870.815; -217.037;   86.066
750.098; 2292.892;  -60.037;  -21.934
750.359;36602.068;  414.964;  555.066
750.620;10698.345; -121.036; -220.935
750.881; 1063.022; -585.036; -513.935
751.142; 1394.624; -950.036; -938.936
751.403;16319.201; -789.036; -705.936
751.664; 8387.728;-1034.035; -999.936
751.925;  512.705; -175.035; -262.937
752.186;  296.857; -298.035; -278.937
752.447;  147.509; -590.035; -445.937
752.708;   42.610; -532.035; -648.938
752.969;    5.112; -566.034; -576.938
753.230;    2.014; -777.034; -672.939
753.491;    6.116; -650.034; -631.939
753.751;   75.718;  109.966;   19.061
754.012;   93.495;  258.967;  181.060
754.273;   70.447; -174.033;  -71.940
754.534;    7.574; -487.033; -580.940
754.794;  -85.224; -926.033; -911.941
755.055;  139.103; 1051.967;  881.059
755.316;  -35.496; -700.032; -566.942
755.576;  -16.269; -606.032; -576.942
755.837;  -34.992; -527.032; -695.942
756.097;  -34.540; -530.032; -564.943
756.358;  -66.213; -725.032; -770.943
756.618;  -46.361; -705.031; -641.943
756.879;    5.916; -254.031; -349.944
757.139; -124.232;-1098.031;-1116.944
757.400;  -69.430; -538.031; -553.945
757.660;  -13.904; -365.031; -401.945
757.920;    8.723; -266.030; -228.945
758.181;    4.100; -468.030; -351.946
758.441;  -76.873; -870.030; -809.946
758.701;  -20.171; -308.030; -215.946
758.961;  -16.669; -220.030; -278.947
759.222;  -43.767; -574.029; -502.947
759.482;  -64.765; -683.029; -723.948
759.742;  -89.338; -706.029; -547.948
760.002;   12.414;  -83.029; -143.948
760.262;   26.640;   50.972;  182.051
760.522;  -37.883; -498.028; -574.949
760.782;  -51.306; -738.028; -612.949
761.042;  -25.579; -618.028; -573.950
761.302;   52.648;   55.972;  -18.950
761.562;   55.900; -164.027; -154.951
761.822;   86.702; -710.027; -551.951
762.082;  -23.946;-1104.027;-1093.951
762.342;   76.831; -328.027; -403.952
762.601;   84.057; -567.027; -506.952
762.861;  377.184; -281.026; -207.952
763.121;  437.686; -406.026; -411.953
763.381; 7206.938; -499.026; -485.953
763.640; 9395.465; -139.026; -307.954
763.900;  408.542; -242.026; -203.954
764.160;  112.694; -458.025; -491.954
764.419;   -7.679; -726.025; -782.955
764.679;  -60.652; -795.025; -726.955
764.939;  -14.325; -124.025; -210.955
765.198;  -70.574; -608.025; -563.956
765.458;  -80.147; -710.024; -612.956
765.717;  -81.695; -454.024; -590.957
765.976;  -60.818; -428.024; -411.957
766.236;  -64.116; -475.024; -610.957
766.495;   17.211;  260.977;   73.042
766.755;  -92.037;-1090.023; -987.958
767.014;    9.715; -594.023; -665.958
767.273;  -61.808; -373.023; -397.959
767.533;  -50.832; -228.023; -307.959
767.792;  -20.705; -151.022; -188.960
768.051;  -49.378; -228.022; -276.960
768.310;  -88.801; -546.022; -650.960
768.569;  -12.124; -161.022;    4.039
768.828;  -29.097; -285.022; -363.961
769.088; -114.670;-1050.021; -942.961
769.347;  -73.118; -755.021; -599.962
769.606;  -93.391; -876.021; -857.962
769.865; -114.689;-1016.021;-1033.963
770.124;  -11.888; -411.021; -336.963
770.383;  -43.736; -778.020; -910.963
770.641;   -0.959; -398.020; -400.964
770.900;  -59.282; -953.020; -846.964
771.159;  -33.530; -851.020; -951.964
771.418;  -16.353; -917.020; -779.965
771.677;  122.024; -224.019; -293.965
771.936;  144.951; -794.019; -865.966
772.194; 1914.228; -465.019; -437.966
772.453;11778.204; -213.019; -391.966
772.712;  872.606;  416.982;  329.033
772.970;  123.508;   32.982;   63.033
773.229;   87.335;  -22.018;  102.033
773.488;  -77.588; -814.018; -770.968
773.746;   46.864;  296.982;  335.032
774.005;    2.566;  190.983;  -22.969
774.263;   -0.982;  243.983;  177.031
774.522;  -44.980; -422.017; -548.969
774.780;  -87.428; -484.017; -417.970
775.039;  -81.902; -551.017; -531.970
775.297;  -18.850; -135.016; -351.970
775.555;  -83.673; -489.016; -612.971
775.814; -131.771; -618.016; -570.971
776.072; -124.444; -749.016; -740.971
776.330; -103.267; -630.016; -520.972
776.589; -121.340; -703.015; -721.972
776.847; -120.288; -645.015; -624.973
777.105; -165.736;-1016.015;-1032.973
777.363;  -80.385; -459.015; -454.973
777.621; -138.508; -660.015; -717.974
777.879;  -31.906;  -42.014;   32.026
778.138; -106.654; -554.014; -717.974
778.396; -120.977; -585.014; -526.975
778.654; -163.350;-1015.014; -970.975
778.912;  -74.698; -269.014; -371.976
779.170; -122.621; -880.013; -803.976
779.427; -152.569; -922.013; -897.976
779.685; -134.042; -880.013; -832.977
779.943;  -80.066; -654.013; -593.977
780.201; -159.064; -964.012; -883.978
780.459; -126.112; -651.012; -610.978
780.717;  -95.385; -440.012; -390.978
780.974; -115.083; -449.012; -490.979
781.232;  -66.756; -358.012; -338.979
781.490;  -75.129; -551.011; -472.979
781.747; -104.202; -555.011; -476.980
782.005;   15.200;  462.989;  254.020
782.263; -163.624; -542.011;-1004.981
782.520;  -89.247; -326.011; -501.981
782.778; -165.670;-1013.010;-1051.981
783.035; -179.843; -962.010; -938.982
783.293;  -52.166; -248.010; -206.982
783.550;  -61.514; -134.010; -198.982
783.808; -131.162; -764.010; -776.983
784.065; -151.460; -745.009; -874.983
784.322;  -53.733;   25.991;  -86.984
784.580; -138.131; -915.009; -771.984
784.837;  -87.730; -392.009; -466.984
785.094; -138.653; -783.009; -762.985
785.352;  -85.976; -304.008; -404.985
785.609; -108.274; -934.008; -839.985
785.866;  -82.372; -345.008; -401.986
786.123;  -77.995; -639.008; -583.986
786.380;  -97.843; -665.008; -604.987
786.637;  -44.441; -225.007; -380.987
786.895;  -20.814; -456.007; -543.987
787.152;  -39.713; -135.007; -267.988
787.409;  -46.336; -123.007; -225.988
787.666;  -93.509; -299.006; -378.988
787.923; -115.357; -616.006; -695.989
788.179; -106.655; -551.006; -584.989
788.436; -110.178; -585.006; -585.990
788.693;  -44.426;  -92.006;  -87.990
788.950;  115.626; -125.005; -112.990
789.207;  252.153; -381.005; -372.991
789.464;  -57.870; -161.005; -301.991
789.720;   -8.844;  150.995;  110.009
789.977; -166.517;-1003.005; -671.992
790.234;  -24.015;   44.996;  -66.992
790.490; -148.613; -884.004;-1031.993
790.747;  -24.061;  -85.004;   22.007
791.004;  -27.584; -426.004; -348.993
791.260;  -87.532; -430.004; -560.994
791.517;  -99.705; -843.003; -788.994
791.773;  -41.803; -379.003; -342.994
792.030; -120.302; -596.003; -660.995
792.286;  -95.650; -686.003; -636.995
792.543;  -18.148;  -74.002; -159.995
792.799;  -59.946; -584.002; -382.996
793.055; -148.469;-1179.002;-1210.996
793.312;  -95.917; -827.002; -816.997
793.568;  -46.115; -746.002; -599.997
793.824;    8.162; -226.001; -284.997
794.081;   18.964; -447.001; -508.998
794.337;   73.366; -664.001; -561.998
794.593; 1152.817; -319.001; -271.999
794.849; 7148.669; -746.001; -772.999
795.105;  425.046; -270.000; -261.999
795.361;   11.023; -490.000; -457.000
795.617;  -44.375; -875.000; -945.000
795.873;  -49.250; -360.000; -407.000
796.129;  -44.025; -368.000; -306.000
796.385;  -21.950; -124.000; -156.000
796.641;   56.375;  412.000;  550.000
796.897;  -78.775; -666.000; -635.000
797.153;   61.200;  453.000;  357.000
797.409;  -97.825; -785.000; -868.000
797.665;  -69.675; -625.000; -732.000
797.921;  -68.600; -775.000; -762.000
798.176;  -57.550; -744.000; -747.000
798.432;  -53.400; -824.000; -596.000
798.688;  -64.225;-1174.000;-1078.000
798.943;   94.125; -165.000; -147.000
799.199;    3.625;-1005.000; -959.000
799.455;  232.575;  369.000;  316.000
799.710;  139.325; -813.000; -380.000
799.966;  317.925; -162.000; -160.000
800.221;  491.550; -638.000; -721.000
800.477; 9647.950; -743.000; -710.000
800.732;10607.925; -773.000; -800.000
800.988;  683.550;  205.000;  -19.000
801.243; 1556.350; -454.000; -344.000
801.498; 8340.250; -814.000; -739.000
801.754;  566.300; -289.000; -163.000
802.009;   94.025; -257.000; -335.000
802.264;  -37.925; -967.000;-1033.000
802.520;   24.150;  222.000;   -3.000
802.775;  -49.050; -524.000; -359.000
803.030;   44.950;  395.000;  356.000
803.285; -101.750; -840.000; -903.000
803.540;  -69.800; -686.000; -699.000
803.795;  -38.125; -648.000; -583.000
804.051;  -33.575; -279.000; -346.000
804.306;   10.225;  168.000;  128.000
804.561;  131.475;  451.000;  362.000
804.816;  139.125;  714.000;  861.000
805.071;  -13.150; -185.000; -280.000
805.325;  239.800; -257.000; -427.000
805.580;  -88.300; -841.000; -877.000
805.835;  -26.475; -204.000; -297.000
806.090;  -65.675; -760.000; -676.000
806.345;   -6.250; -344.000; -264.000
806.600;  -21.350; -549.000; -632.000
806.854;  -26.100; -408.000; -538.000
807.109;  -18.275; -493.000; -577.000
807.364;   11.500; -407.000; -328.000
807.618;    1.275; -415.000; -381.000
807.873;   60.375; -470.000; -494.000
808.128;  112.850; -257.000; -518.000
808.382;  129.325; -224.000; -332.000
808.637;   71.825; -440.000; -511.000
808.891;  192.600; -257.000; -180.000
809.146;  117.300; -902.000; -794.000
809.400;  266.175; -848.000; -923.000
809.654;  360.525; -779.000; -551.000
809.909;  535.775; -841.000; -927.000
810.163; 5925.550; -813.000; -651.000
810.418;18868.150; -940.000; -861.000
810.672; 1224.225; -685.000; -690.000
810.926;  760.775; -993.000; -973.000
811.180; 1416.225; -439.000; -372.000
811.434;31357.625;  240.000;  135.000
811.689;15842.425; -231.000; -365.000
811.943;  760.450; -936.000; -953.000
812.197;  392.725; -893.000; -671.000
812.451;  164.475; -379.000; -514.000
812.705;   -7.175; -809.000; -619.000
812.959;   -3.050; -263.000; -388.000
813.213;   19.125; -283.000; -209.000
813.467;   67.950;  470.000;  253.000
813.721;  -96.150; -764.000; -792.000
813.975; -105.450; -826.000; -877.000
814.229;   42.550;  430.000;  353.000
814.482;  -84.550; -517.000; -566.000
814.736; -122.475; -766.000; -744.000
814.990; -117.050; -779.000; -872.000
815.244;  -49.725; -228.000; -285.000
815.497;  -96.925; -636.000; -601.000
815.751;  -21.575; -141.000;   82.000
816.005;  -74.825; -470.000; -586.000
816.258;  -69.900; -510.000; -363.000
816.512; -101.725; -693.000; -610.000
816.766;    7.625;  121.000;  157.000
817.019;   12.200;  148.000;  149.000
817.273; -117.250;-1000.000; -802.000
817.526;  -25.575; -206.000; -173.000
817.779;  -45.050;-1049.000; -960.000
818.033;  -57.400; -693.000; -807.000
818.286; -115.825; -725.000; -792.000
818.540;  -87.175; -403.000; -403.000
818.793;  -80.500; -402.000; -489.000
819.046; -104.575; -582.000; -520.000
819.299;  -56.800; -157.000; -166.000
819.553; -109.275; -552.000; -592.000
819.806; -162.250;-1016.000; -838.000
820.059;  -67.750; -334.000; -354.000
820.312;   -7.075;  152.000;  185.000
820.565;  -22.900;  110.000;  -27.000
820.818;  -43.125;  -59.000; -173.000
821.071; -163.500;-1041.000; -957.000
821.324; -113.725; -536.000; -540.000
821.577;  -92.950; -457.000; -483.000
821.830;  -66.275; -270.000; -172.000
822.083; -126.600; -733.000; -288.000
822.336;  -50.900; -261.000; -167.000
822.589; -135.100; -805.000; -688.000
822.842; -136.575; -875.000; -770.000
823.094; -167.550;-1076.000;-1114.000
823.347; -131.850; -925.000; -729.000
823.600;   20.000;  402.000;  187.000
823.853;  -59.000; -311.000; -267.000
824.105;  -72.525; -331.000; -575.000
824.358; -106.700; -617.000; -716.000
824.611;   24.200;  234.000;   40.000
824.863;  -53.125; -612.000; -591.000
825.116;   40.075;  -33.000;   27.000
825.368;   66.275; -366.000; -372.000
825.621;  175.450; -186.000; -240.000
825.873;   89.850; -704.000; -737.000
826.126;  531.750; -669.000; -641.000
826.378;11325.475; -389.000; -505.000
826.630; 3625.225; -890.000; -898.000
826.883;   54.925; -754.000; -693.000
827.135;   42.075; -279.000; -270.000
827.387; -109.975; -893.000; -839.000
827.639;  -39.375;  -86.000;   32.000
827.892; -115.700; -742.000; -582.000
828.144; -131.475; -848.000; -804.000
828.396;  -45.925;  104.000;  -80.000
828.648; -102.800; -440.000; -333.000
828.900; -145.350; -702.000; -795.000
829.152; -101.525; -684.000; -683.000
829.404;  -60.050; -215.000; -267.000
829.656;  -15.575;  321.000;  214.000
829.908;  -22.250;  393.000;  229.000
830.160; -168.350;-1064.000;-1047.000
830.412; -106.150; -481.000; -430.000
830.664; -114.175; -557.000; -665.000
830.916;  -78.775; -268.000; -206.000
831.167; -174.075;-1073.000; -951.000
831.419; -110.125; -623.000; -566.000
831.671; -151.825; -764.000; -809.000
831.923;  -81.875; -311.000; -447.000
832.174;  -63.175; -273.000; -331.000
832.426; -126.775; -493.000; -582.000
832.678; -172.900;-1043.000;-1091.000
832.929; -164.400; -947.000; -935.000
833.181;  -61.000; -575.000; -677.000
833.432;  -61.525;  -59.000; -186.000
833.684;  -36.250;  112.000;  -27.000
833.935; -101.650; -610.000; -566.000
834.187; -124.250; -829.000; -823.000
834.438;  -41.675;  -58.000;  -25.000
834.689;  -62.750; -255.000; -123.000
834.941;  -42.650; -343.000; -244.000
835.192;  -85.175; -590.000; -533.000
835.443; -101.175; -419.000; -506.000
835.695;  -23.300;  138.000;  -16.000
835.946;  -89.925; -608.000; -378.000
836.197; -111.625; -599.000; -622.000
836.448;  -90.675; -528.000; -395.000
836.699;  -63.225; -253.000; -341.000
836.950;   -6.650;   72.000;    7.000
837.201; -147.600;-1003.000; -987.000
837.452;  -62.100; -356.000; -170.000
837.703; -109.700; -791.000; -737.000
837.954;  -55.500; -205.000; -365.000
838.205;  -77.375;-1029.000;-1008.000
838.456;  177.025; -196.000; -282.000
838.707;   22.275; -423.000; -519.000
838.958;   12.875; -634.000; -647.000
839.209;  301.900;   18.000;   40.000
839.460;  134.700; -439.000; -201.000
839.710;  170.175; -135.000; -297.000
839.961;  424.775;  730.000;  612.000
840.212;  340.700; -382.000; -497.000
840.462; 1055.550; -328.000; -277.000
840.713;17218.550; -571.000; -536.000
840.964; 8770.925;  -62.000; -143.000
841.214;  559.900; -384.000; -624.000
841.465;  585.450; -214.000; -141.000
841.715;  546.950; -417.000; -380.000
841.966;  690.075; -746.000; -685.000
842.216; 7908.650; -330.000; -431.000
842.466;37521.075; -169.000; -313.000
842.717; 2725.675; -964.000; -952.000
842.967;  343.475; -635.000; -641.000
843.217;  312.850;   20.000;   28.000
843.468;   79.100; -104.000; -132.000
843.718;  -29.625; -718.000; -726.000
843.968;  -96.025; -837.000; -765.000
844.218;   29.475; -315.000; -262.000
844.469;  -43.550; -577.000; -561.000
844.719;  -96.225; -537.000; -682.000
844.969;  -86.125; -550.000; -580.000
845.219; -131.050; -814.000; -862.000
845.469;  -78.025; -392.000; -342.000
845.719; -126.800; -792.000; -884.000
845.969;  -18.575;  119.000;  174.000
846.219; -122.025; -738.000; -720.000
846.469;   20.325;  464.000;  432.000
846.718;  -54.500; -115.000;   31.000
846.968; -136.300; -827.000; -827.000
847.218;  -38.825; -224.000; -371.000
847.468;   -3.575; -586.000; -555.000
847.718; -149.300; -827.000; -798.000
847.967; -124.975; -826.000; -915.000
848.217;  -80.450; -449.000; -569.000
848.467;  -68.825; -405.000; -376.000
848.716; -128.475; -708.000; -725.000
848.966;   -7.925; -372.000; -358.000
849.215;  -57.550; -428.000; -419.000
849.465;  -87.975; -785.000; -615.000
849.714; -135.375;-1132.000;-1150.000
849.964;  -64.525; -551.000; -613.000
850.213;  -23.100; -393.000; -355.000
850.463;   70.350;  137.000;  340.000
850.712;   -1.950; -542.000; -567.000
850.961;   32.150; -739.000; -678.000
851.211;  112.375; -513.000; -504.000
851.460;  165.575; -635.000; -650.000
851.709;  540.100;  -25.000;   18.000
851.958; 9473.625; -912.000; -750.000
852.208;14581.475; -859.000; -879.000
852.457;  572.575; -181.000;  -13.000
852.706;   83.550; -791.000; -823.000
852.955;   37.325; -507.000; -528.000
853.204;  -57.900; -521.000; -461.000
853.453;  -75.400; -418.000; -458.000
853.702; -115.975; -660.000; -750.000
853.951; -115.275; -532.000; -520.000
854.200; -109.450; -613.000; -562.000
854.449; -150.925; -695.000; -661.000
854.698;  -87.425; -340.000; -279.000
854.946;  -81.050; -181.000; -284.000
855.195; -160.550; -843.000; -868.000
855.444;  -95.975; -395.000; -420.000
855.693; -120.675; -345.000; -432.000
855.941; -109.425; -387.000; -516.000
856.190;  -61.475; -256.000; -382.000
856.439; -121.350; -652.000; -703.000
856.687;  -67.575;  -99.000;  -72.000
856.936; -118.925; -621.000; -323.000
857.184; -185.650;-1067.000;-1020.000
857.433; -115.950; -423.000; -512.000
857.681; -159.050; -989.000; -953.000
857.930;  -80.225; -282.000; -433.000
858.178; -165.075; -856.000; -929.000
858.427; -154.350; -802.000; -781.000
858.675; -107.975; -377.000; -544.000
858.923; -113.400; -527.000; -819.000
859.172; -186.100;-1094.000;-1070.000
859.420;  -86.925; -339.000; -239.000
859.668; -137.000; -624.000; -628.000
859.916;  -38.750;  109.000;  115.000
860.164; -115.750; -699.000; -603.000
860.413;  248.250; -878.000; -696.000
860.661;  285.775; -709.000; -577.000
860.909;  -79.000; -339.000; -325.000
861.157;  -94.225; -277.000; -444.000
861.405; -118.675; -534.000; -670.000
861.653;    2.500;  310.000;  310.000
861.901;  166.175; -543.000; -613.000
862.149;   39.800; -801.000; -824.000
862.396;  -74.550; -297.000; -187.000
862.644;  -95.750; -368.000; -347.000
862.892;  -48.075;   98.000;  138.000
863.140; -104.575; -549.000; -530.000
863.388; -164.775; -815.000; -759.000
863.635; -140.525; -642.000; -601.000
863.883;  -34.750;  231.000;  190.000
864.131; -100.100; -288.000; -357.000
864.378; -127.425; -675.000; -540.000
864.626;  -90.500; -347.000; -415.000
864.873; -115.850; -556.000; -505.000
865.121; -134.900; -714.000; -799.000
865.368;  -55.650; -173.000;   75.000
865.616;  -33.575;  -33.000;  -40.000
865.863;  -81.100; -462.000; -506.000
866.111; -107.275; -795.000; -824.000
866.358;   26.400; -426.000; -420.000
866.605; 2036.175;  -64.000; -804.000
866.853; 2652.300; -621.000; -537.000
867.100;  -21.150; -728.000; -775.000
867.347;  -94.750; -672.000; -611.000
867.594; -105.025; -740.000; -714.000
867.841;  100.800;   97.000;   17.000
868.089; -139.225; -746.000; -698.000
868.336; -119.075; -477.000; -420.000
868.583; -140.725; -637.000; -741.000
868.830;  -55.825; -131.000; -170.000
869.077; -170.950; -859.000; -787.000
869.324; -123.075; -502.000; -458.000
869.571; -131.925; -398.000; -430.000
869.818; -128.550; -485.000; -439.000
870.065; -103.750; -439.000; -513.000
870.311; -124.250; -456.000; -542.000
870.558; -108.925; -332.000; -311.000
870.805;  -87.500; -320.000; -384.000
871.052; -120.275; -494.000; -369.000
871.298;  -60.400; -204.000; -131.000
871.545;  -63.775; -151.000; -185.000
871.792; -101.975; -173.000; -222.000
872.038;  -76.375;   43.000; -126.000
872.285; -128.675; -496.000; -387.000
872.532;  -97.750; -357.000; -387.000
872.778;   -0.325;  556.000;  403.000
873.025;  -96.025; -384.000; -359.000
873.271;   20.450;  501.000;  578.000
873.517;  -37.425; -133.000; -209.000
873.764;  -41.300; -193.000;  -80.000
874.010;  -75.325; -143.000; -230.000
874.257;  -47.500;  123.000;   90.000
874.503; -130.125; -579.000; -479.000
874.749;  -71.100;   31.000;  275.000
874.995;  -68.750;  -80.000;  -20.000
875.242; -127.750; -540.000; -478.000
875.488; -108.175; -414.000; -439.000
875.734;  -65.175; -106.000; -234.000
875.980;  161.625; -872.000;-1032.000
876.226;  440.950; -157.000; -255.000
876.472;   -6.425;  343.000;  237.000
876.718;  -60.525;  184.000;  158.000
876.964;  -51.025;   56.000;   55.000
877.210; -148.700; -547.000; -677.000
877.456; -133.625; -630.000; -557.000
877.702; -173.600; -821.000; -832.000
877.948; -120.375; -377.000; -497.000
878.193;   18.400;  361.000;  255.000
878.439;  -91.050; -487.000; -472.000
878.685; -109.050; -272.000; -343.000
878.931; -130.700; -618.000; -676.000
879.176;  -98.775; -201.000; -201.000
879.422; -171.375; -933.000; -820.000
879.668;   55.075;   10.000;   79.000
879.913;  151.425;   53.000;  137.000
880.159;  -58.825; -112.000;  -17.000
880.404;  -49.100; -152.000; -162.000
880.650;  -39.375;   91.000;  141.000
880.895; -156.475; -670.000; -710.000
881.141; -137.425; -454.000; -428.000
881.386; -152.925; -503.000; -658.000
881.631;  -92.275; -311.000; -166.000
881.877;  -35.450;  112.000;  -13.000
882.122; -141.800; -684.000; -600.000
882.367;  -87.625; -136.000; -186.000
882.612;  -84.925;  -80.000; -176.000
882.858; -181.750; -877.000; -823.000
883.103; -104.725; -297.000; -267.000
883.348; -161.375; -759.000; -852.000
883.593; -144.575; -677.000; -602.000
883.838;  -52.500; -311.000;  -24.000
884.083;    6.125;  353.000;  288.000
884.328; -100.500; -564.000; -545.000
884.573;  -59.775; -196.000; -143.000
884.818;  162.625; -694.000; -531.000
885.063;  226.625; -348.000; -315.000
885.308; -109.550; -475.000; -398.000
885.553;  -31.450;  245.000;  325.000
885.797; -132.575; -545.000; -615.000
886.042;  -57.350;    8.000;   58.000
886.287;  -94.950; -253.000; -211.000
886.532;  -53.075;   26.000;  204.000
886.776; -110.850; -407.000; -525.000
887.021; -156.400; -621.000; -574.000
887.265; -146.875; -685.000; -689.000
887.510; -139.325; -557.000; -496.000
887.755;  -97.300; -194.000; -164.000
887.999; -137.275; -552.000; -575.000
888.244;  -56.550;  -58.000;  161.000
888.488;   -7.000;  371.000;  393.000
888.732; -130.300; -368.000; -520.000
888.977; -142.425; -622.000; -567.000
889.221; -145.875; -683.000; -659.000
889.465; -138.100; -422.000; -566.000
889.710;  -84.925;  -56.000; -299.000
889.954;   -3.975;  579.000;  467.000
890.198; -149.450; -584.000; -707.000
890.442; -146.175; -716.000; -712.000
890.687; -159.575; -800.000; -753.000
890.931;  -98.325; -273.000; -210.000
891.175; -135.700; -502.000; -500.000
891.419;  -93.850; -105.000; -110.000
891.663;  -92.050; -239.000; -112.000
891.907; -177.550; -801.000; -545.000
892.151; -178.500; -920.000; -815.000
892.395; -105.900; -274.000; -387.000
892.638;  -32.250;  408.000;  291.000
892.882; -170.575; -780.000; -867.000
893.126;   13.350;  758.000;  558.000
893.370; -100.800; -167.000; -168.000
893.614; -136.925; -714.000; -715.000
893.857; -102.950; -183.000; -197.000
894.101; -132.675; -527.000; -631.000
894.345;  -68.375;  300.000;  150.000
894.588;   -9.275;  569.000;  380.000
894.832;  -95.900; -178.000;  -84.000
895.075;  -95.300;   15.000;  -92.000
895.319; -122.550; -552.000; -420.000
895.563; -110.900; -413.000; -353.000
895.806; -158.150; -628.000; -741.000
896.049;  -67.150; -576.000; -368.000
896.293;   99.425;  527.000;  405.000
896.536;  -77.725; -465.000; -468.000
896.779;  -55.075; -149.000;   -1.000
897.023; -135.525; -751.000; -714.000
897.266;  -27.400;  325.000;  269.000
897.509; -165.100; -900.000; -901.000
897.752;  -64.750;  149.000;  171.000
897.996; -198.700; -972.000; -864.000
898.239;  -45.375;  168.000;  102.000
898.482; -128.650; -431.000; -453.000
898.725;  -51.950;  101.000;   53.000
898.968; -152.600; -609.000; -744.000
899.211; -116.600; -513.000; -361.000
899.454; -119.375; -633.000; -539.000
899.697;  -76.700;   90.000;  -43.000
899.940; -156.375; -761.000; -757.000
900.182; -103.375; -335.000; -405.000
900.425;  -95.125; -150.000; -298.000
900.668;  -32.875;  491.000;  350.000
900.911; -104.650; -292.000; -345.000
901.154;  -65.150;  141.000;   -3.000
901.396; -144.050; -407.000; -412.000
901.639; -136.875; -430.000; -496.000
901.882; -178.425; -790.000; -809.000
902.124;  -86.975;  -29.000; -143.000
902.367; -118.900; -315.000; -361.000
902.609; -139.225; -476.000; -453.000
902.852;  -93.925; -108.000; -260.000
903.094; -124.225; -458.000; -337.000
903.337;  -72.150;  -26.000;   53.000
903.579; -104.525; -228.000; -441.000
903.821; -157.100; -597.000; -744.000
904.064;  -71.700;   85.000;  127.000
904.306;  -95.525; -126.000; -166.000
904.548; -111.500; -152.000; -366.000
904.790;  -95.675; -195.000; -340.000
905.033; -142.900; -625.000; -577.000
905.275; -134.525; -513.000; -524.000
905.517;   30.500;  468.000;  256.000
905.759;  -61.225; -667.000; -761.000
906.001; -102.050; -322.000; -369.000
906.243;  -60.025; -162.000; -224.000
906.485;   87.225; -265.000; -207.000
906.727;  143.325; -499.000; -542.000
906.969;  -35.425;  -30.000; -135.000
907.211;  111.375; -316.000; -382.000
907.453;  283.975; -188.000; -237.000
907.695;   34.625; -158.000; -385.000
907.936;   45.800;  818.000;  706.000
908.178;  -59.950;   92.000; -135.000
908.420;  -82.375; -111.000; -162.000
908.662; -136.475; -633.000; -682.000
908.903; -109.500; -208.000; -123.000
909.145;  -64.775; -240.000; -305.000
909.386;   -8.050;  315.000;  280.000
909.628;   31.650;  363.000;  397.000
909.870;   11.600;   29.000;  264.000
910.111; -103.525; -809.000; -949.000
910.353;   12.175; -123.000; -161.000
910.594;   13.925; -574.000; -606.000
910.835;  105.975; -265.000; -326.000
911.077;  178.775; -503.000; -604.000
911.318;  316.825; -505.000; -471.000
911.559;  481.425; -577.000; -880.000
911.801; 1349.950; -284.000; -280.000
912.042; 9732.325;  -50.000; -159.000
912.283;29370.100;  404.000;  371.000
912.524; 5574.050; -396.000; -457.000
912.765;  586.050; -193.000;   79.000
913.006;  279.050; -307.000; -338.000
913.247;   73.375; -270.000; -290.000
913.488;  -11.075;  -43.000;   30.000
913.729;  -80.750; -373.000; -373.000
913.970;  -60.725;  -96.000; -292.000
914.211;  -60.200; -160.000; -198.000
914.452;  -69.600; -118.000;  -11.000
914.693;   11.675;  510.000;  592.000
914.934;    5.400;  510.000;  440.000
915.175;  -76.875;   53.000;  -95.000
915.415;  -73.025; -137.000;   27.000
915.656;  -72.025;  -28.000;  192.000
915.897;  -91.825; -252.000;  -82.000
916.137;  -75.000;   74.000;   -9.000
916.378; -129.400; -573.000; -517.000
916.619; -100.700; -159.000;  -63.000
916.859;  -35.100;  303.000;  330.000
917.100;  122.125; 1655.000; 1070.000
917.340;   41.850;  930.000;  728.000
917.581;   31.825;  965.000;  789.000
917.821;  -31.600; -171.000;  143.000
918.061;   17.725; -199.000;  -72.000
918.302;  -43.450; -152.000; -211.000
918.542;  -34.975;  -22.000;    3.000
918.782;   44.625;  369.000;  377.000
919.023;  126.650;  360.000;  427.000
919.263; 1250.650; 8131.000;  202.000
919.503; 1203.475; -137.000;  -54.000
919.743;  655.100;  390.000;  266.000
919.983;  323.450; -134.000;  -26.000
920.223;   92.250;  135.000;   14.000
920.463;  143.875;  631.000;  554.000
920.703;  138.550;   84.000;   39.000
920.943;  182.425; -110.000;   90.000
921.183;  251.200; -414.000; -405.000
921.423;  497.925;  307.000;  546.000
921.663;  742.175; -174.000; -257.000
921.903; 1521.925;  237.000;  173.000
922.143; 8154.100;  372.000;  389.000
922.383;33638.625;  158.000;  115.000
922.622;14111.400; -120.000;  -15.000
922.862; 1439.175;  796.000;  785.000
923.102;  517.675;  -51.000;   33.000
923.341;  212.475;   59.000;   74.000
923.581;   93.875;  450.000;  360.000
923.821;   30.125;  301.000;  398.000
924.060;   10.800;  351.000;  193.000
924.300;  -69.650;  -16.000; -128.000
924.539;  -14.575;  584.000;  473.000
924.779;    2.450;  812.000;  597.000
925.018;  -46.100;  247.000;  353.000
925.257;  -18.100;  595.000;  666.000
925.497;  -30.725;  447.000;  412.000
925.736;  -87.875;  -35.000;  102.000
925.975;   -1.250;  687.000;  669.000
926.214;   21.825;  907.000;  850.000
926.454;   26.775;  706.000;  757.000
926.693;  -34.725;  419.000;  543.000
926.932;   45.450; 1021.000;  825.000
927.171;   59.675; 1107.000; 1044.000
927.410;   49.175; 1144.000;  967.000
927.649;   10.400;  924.000;  742.000
927.888;   -8.675;  590.000;  564.000
928.127;   -9.525;  680.000;  678.000
928.366;   29.350;  842.000;  826.000
928.605;   38.475;  831.000;  737.000
928.844;  243.400; 1451.000; 1393.000
929.083;  611.300;  770.000;  613.000
929.321;  361.525; 1335.000; 1359.000
929.560;   81.125; 1158.000; 1122.000
929.799;  -35.900;  574.000;  475.000
930.038;   86.600; 1025.000; 1394.000
930.276;  -38.700;  334.000;  397.000
930.515;   -5.225;  827.000;  681.000
930.753;  -23.325;  614.000;  589.000
930.992;  -22.525;  664.000;  717.000
931.230;    0.900;  847.000;  847.000
931.469;  167.000; 2162.000;  892.000
931.707;   71.250;  840.000;  751.000
931.946;   62.475; 1278.000; 1344.000
932.184;   64.725; 1437.000; 1175.000
932.423;   37.350; 1265.000;  963.000
932.661;   90.650; 1296.000; 1428.000
932.899;   31.450;  987.000;  821.000
933.137;   14.050;  754.000;  564.000
933.376;  142.100; 1664.000; 1335.000
933.614;  171.000; 1759.000; 1196.000
933.852;   45.400; 1357.000; 1171.000
934.090;  128.175; 1722.000; 1747.000
934.328;  105.600; 1252.000; 1457.000
934.566;   88.800; 1431.000; 1110.000
934.804;  132.975; 1263.000; 1309.000
935.042;  415.750; 1861.000; 1850.000
935.280; 1680.125; 2088.000; 2063.000
935.518; 1850.375; 2113.000; 2007.000
935.756;  399.725; 2481.000; 2316.000
935.994;  176.475; 1808.000; 1751.000
936.231;  364.575; 2890.000; 2950.000
936.469;  217.275; 2367.000; 2378.000
936.707;  158.075; 2220.000; 2167.000
936.945;  226.175; 2825.000; 2882.000
937.182;  207.175; 2679.000; 2741.000
937.420;  292.225; 3602.000; 3031.000
937.657;  393.000; 3365.000; 3478.000
937.895;  362.875; 3331.000; 3488.000
938.133;  301.675; 3540.000; 3528.000
938.370;  336.800; 3896.000; 4191.000
938.607;  379.150; 4488.000; 4205.000
938.845;  541.450; 5587.000; 5549.000
939.082;  481.600; 5387.000; 5177.000
939.320;  516.025; 5799.000; 5728.000
939.557;  643.250; 6549.000; 6491.000
939.794;  718.850; 7285.000; 7097.000
940.031;  900.650; 8421.000; 8368.000
940.269; 1114.750; 9552.000; 9107.000
940.506; 1115.475;10901.000;10507.000

