
Integration time [ms]: 100.000
Averaging Nr. [scans]: 40
Smoothing Nr. [pixels]: 0
Data measured with spectrometer [name]: 2101013U2
Wave   ;Sample   ;Dark     ;Reference
[nm]   ;[counts] ;[counts] ;[counts] 

394.013;   51.413; -450.257; -315.536
394.305;  217.485; -461.258; -419.536
394.596; 1083.208; -676.269; -527.514
394.887; 2578.775; -796.268; -654.518
395.178; 1018.830;  145.736;   11.476
395.470;   85.466; -210.263; -356.526
395.761;  200.289;  305.734;  394.479
396.052;  309.409; -545.284; -306.489
396.343;  315.903; -557.276; -454.503
396.634;  142.322; -200.279; -290.497
396.926;  155.347; -618.268; -565.517
397.217;  125.883;   11.725;  -17.504
397.508;   60.098; -366.273; -154.507
397.799;   66.947; -555.279; -571.497
398.090;  -10.533; -973.280; -902.495
398.381;  147.359;   11.708;  -11.473
398.672;  -18.539; -585.292; -742.473
398.963;   54.953; -348.279; -373.498
399.254;  121.320;   54.709; -209.475
399.545;  -15.339;-1017.266; -883.520
399.836;   71.067; -407.277; -343.501
400.127;   53.586; -205.295; -209.468
400.418;   75.793; -423.274; -392.506
400.709;   77.379; -359.281; -333.493
401.000;   50.574; -268.291; -309.476
401.290;  124.423;  225.698;  115.545
401.581;   66.867; -166.286; -228.485
401.872;   30.958; -542.298; -486.462
402.163;   48.328; -313.296; -252.467
402.454;   95.120; -123.291; -163.475
402.744;   77.220; -844.297; -813.465
403.035;  501.151; -226.293;  -86.471
403.326;  666.863; -366.292; -384.474
403.617;  428.578;  204.701;  165.539
403.907;  253.565; -593.283; -679.490
404.198; 2320.327; -545.307; -599.446
404.489; 6130.819; -618.283; -588.491
404.779; 2167.801; -618.302; -660.456
405.070;  229.980;  -67.304; -174.451
405.360;  335.428; -259.293; -238.472
405.651;  362.138;  125.699;   98.542
405.942;  199.087;  209.714;  127.516
406.232;  320.477; -432.285; -413.487
406.523;  567.396;  641.706;  758.530
406.813;  114.214; -579.286; -644.484
407.104;  400.708;  261.708;  144.527
407.394;  212.454; -604.299; -591.462
407.685;  170.751;  336.715;  222.513
407.975;   57.518; -400.283; -382.490
408.265;  123.385; -134.289; -190.478
408.556;   75.517; -472.291; -459.475
408.846;  170.397;  474.706;  429.530
409.137;   72.243;   -1.288; -216.480
409.427;   57.126; -193.285; -271.487
409.717;   33.577; -776.273; -692.508
410.007;  159.845;    4.715; -170.486
410.298;  101.764; -360.295; -342.469
410.588;   75.374; -495.285; -510.486
410.878;   19.554; -792.287; -873.482
411.168;  121.911; -481.298; -478.463
411.459;  102.563; -295.283; -242.489
411.749;   65.466; -609.292; -507.474
412.039;   50.466; -755.289; -386.480
412.329;  223.785;   40.722;  132.501
412.619;  196.740;  -62.286; -148.485
412.909;  390.937;  639.711;  594.521
413.199;  349.892; -130.280; -251.495
413.490;  429.478;  521.710;  352.523
413.780;  154.121;-1013.279; -913.496
414.070;  330.629;  -46.276;  235.497
414.360;  380.707; -729.278; -666.498
414.650;  441.650; -726.288; -688.482
414.940;  512.545; -538.280; -441.496
415.230;  922.022;   50.712;   74.519
415.520; 5962.357;  155.730;   66.486
415.809;23499.003; -305.281; -125.493
416.099;18266.945; -388.277; -229.501
416.389; 4995.341;  435.726;  236.494
416.679; 2956.195;   91.738;   85.473
416.969;  528.108; -527.287; -503.483
417.259;  583.848;  341.721;  171.503
417.549;  700.477;  522.718;  318.508
417.838; 1602.449; -205.268; -147.518
418.128; 5298.933;  650.710;  492.522
418.418; 4452.158; -491.272; -579.509
418.708; 3041.241;    9.726;  -48.506
418.997;11144.737; -474.275; -480.505
419.287;11704.598; -733.273; -790.507
419.577;10841.412; -160.283; -123.489
419.866;36125.518; -588.277; -498.501
420.156;37536.753; -242.270;  -55.513
420.446; 6941.062; -112.263;  -26.526
420.735;  955.972; -376.271; -446.512
421.025;  886.681; 1830.722;  315.502
421.314;  785.446; -203.271; -226.512
421.604; 1744.117;   89.732;  233.484
421.893; 1031.942; -705.271; -602.511
422.183;  251.337; -487.263; -461.526
422.472;  390.018;  -36.271; -107.511
422.762;  475.717; -416.266; -379.521
423.051;  254.830; -916.276; -916.503
423.341;  338.975; -491.273; -439.507
423.630;  435.798; -121.265;   15.477
423.919;  396.961;   58.725;   49.495
424.209;  383.243;  -31.263;   56.473
424.498;  509.847;   68.732;  161.483
424.787; 1077.778; -535.267; -601.518
425.077; 3378.646;   34.735;   29.478
425.366; 4997.648; -734.262; -744.528
425.655; 9760.875;  639.727;  259.493
425.945;20214.251; -313.247; -268.554
426.234;11356.696;  117.741;  300.467
426.523; 4995.576;  -86.259; -350.534
426.812; 6888.913;  107.734;  159.480
427.101; 9920.263; -127.269; -323.515
427.390;12729.157;  -55.270;  -86.514
427.680; 3230.321; -624.257; -411.538
427.969;  520.406; -330.255; -301.540
428.258;  321.862; -385.257; -477.536
428.547;  575.362;  449.728;  397.490
428.836; 1431.022; -421.253; -398.543
429.125; 2088.828; -199.259;  -72.534
429.414;  878.520; -330.251; -294.548
429.703; 3080.295; -231.251; -213.548
429.992; 9064.448; -938.250; -828.549
430.281; 6044.180; -397.264; -331.524
430.570;  635.235;  -21.252;   32.454
430.859;  646.926;  279.741;  352.466
431.148;  469.147;  636.752;  631.446
431.437;  313.085;  391.748;  367.454
431.725;  168.814; -544.257; -481.536
432.014;  142.205; -845.253; -756.545
432.303;  409.372; -149.239; -105.569
432.592;  680.537; -460.263; -178.525
432.881; 1047.773; -601.248; -437.554
433.169; 5937.357; -343.255;  -61.540
433.458;12087.456;  445.765;  540.424
433.747; 5224.804; -397.261; -289.529
434.036; 1011.623; -275.242; -280.564
434.324; 2084.861; -395.249; -379.551
434.613; 3601.342;   40.757;  159.437
434.902; 1255.738;  333.760;  439.433
435.190;  708.621;   75.761;  295.431
435.479;  402.749;  -52.245;   83.441
435.767;  132.457; -411.244; -427.561
436.056;  256.394; -340.242; -294.563
436.345;  387.965; -372.240; -223.568
436.633;  401.606;   60.750;  383.450
436.922;  298.717;  208.760;  414.432
437.210;  751.996; -194.236;    1.426
437.499; 2492.929; -583.235; -432.576
437.787; 2727.845; -339.236;  -10.574
438.075;  668.852;   56.761;  162.430
438.364;  913.129;  -44.238;  250.429
438.652;  549.758; -286.226; -138.592
438.941;  157.472;    3.770;  269.415
439.229;   15.483; -665.252; -466.545
439.517;   29.437; -160.234;  -85.577
439.806;   -9.226; -501.225; -290.595
440.094;  214.520;  377.766;  650.421
440.382;  218.674; -653.233; -302.580
440.670;  260.279; -361.235; -285.576
440.959;   29.041; -347.223; -170.599
441.247;   79.009; -151.229; -109.587
441.535;  113.886; -266.235;   31.423
441.823;   66.792; -497.234; -305.578
442.111;  199.813;  173.771;  327.412
442.400;  633.523; -628.245; -335.559
442.688; 1714.794; -111.234; -620.579
442.976; 1305.053; -786.213; -450.617
443.264;  119.405; -324.224; -364.597
443.552;  124.034; -258.226;   51.408
443.840;  175.309;  602.765;  876.423
444.128;  104.823;  265.767;  269.420
444.416;   -5.810; -694.228; -312.588
444.704;   43.270; -465.219;  -92.605
444.992;   86.062;   -0.226;  240.407
445.280;   62.798; -517.230;  -94.585
445.568;   57.631; -694.212; -396.618
445.856;  410.429; -174.221;  357.398
446.143;  923.642;  -54.220;   -7.604
446.431;  784.944;  -25.228;  625.411
446.719;  275.889;  489.783;  675.391
447.007;  211.342;  481.769;  705.416
447.295;  180.838;  597.777;  871.402
447.583;  101.706; -464.229;  -34.587
447.870;  164.326; -434.221; -202.601
448.158;  504.797; -104.230;  129.415
448.446;  388.793; -800.219; -338.604
448.733;  189.732;   13.776;  269.403
449.021;  276.406;   60.788;  341.382
449.309;  199.021; -296.210;  208.379
449.596;  216.511;  128.783;   59.392
449.884;  166.795; -571.222; -325.600
450.172;  144.774; -756.227; -406.590
450.459;  412.936;  645.786;  780.387
450.747; 2241.834; -411.218; -147.608
451.034; 7205.595;  493.772;  889.411
451.322; 5985.414; -413.214; -170.614
451.609;  534.283;  292.777;  508.403
451.897;  553.483; -550.203; -183.634
452.184; 1753.688; -622.223; -400.598
452.472; 1651.992;   97.792;  269.375
452.759;  362.843;  512.781;  864.395
453.047;  131.629; -407.212; -125.617
453.334;   94.251; -732.219; -216.606
453.621;   89.042; -438.214; -161.615
453.909;  130.300;   13.796;  384.368
454.196;  113.670; -299.199; -123.641
454.483;  222.921;  317.798;  540.364
454.771;  122.645; -215.208;  196.374
455.058;   52.773; -316.207;  102.374
455.345;  105.475;   71.807;  344.347
455.632;   76.251; -128.207;  235.373
455.919;   42.718;  -82.196;  182.354
456.207;  -53.700; -774.198; -450.642
456.494;   -9.242; -475.200;  -66.639
456.781;   13.542; -399.202; -198.635
457.068;   54.358; -253.206;  -29.628
457.355;    0.634; -698.206; -401.629
457.642;   -3.610; -552.205; -290.630
457.929;    7.766; -778.194; -417.651
458.216;   40.279; -575.212; -354.617
458.503;  219.921; -173.193;  -19.652
458.790;  199.218; -864.208; -630.625
459.077;  275.147;  -77.202;  110.364
459.364;  758.509; -350.195; -210.649
459.651; 1614.206;  -46.206;  220.372
459.938;  741.333; -864.209; -665.623
460.225;  179.150;  132.799;  276.363
460.512;  -41.960; -836.197; -688.645
460.799;   89.433;  -32.218;  320.392
461.086;   77.538; -370.200; -251.640
461.372;   66.000; -509.198; -279.642
461.659;  115.969; -165.196;  108.354
461.946;   79.569; -445.193;  -54.651
462.233;  245.010;  842.800;  888.361
462.519;  350.382; -814.201; -464.639
462.806;  978.240; -768.197; -497.645
463.093;  868.915; -445.191;  -66.656
463.380;  -50.944; -920.186; -824.664
463.666;   54.667; -259.197;  -18.646
463.953;   82.279; -406.195; -243.648
464.239;  181.204; -173.195;  -77.648
464.526;  408.065;  413.806;  743.350
464.813;  366.376; -565.190; -304.658
465.099;  376.595;  606.807;  607.348
465.386;  374.749;  903.807;  921.348
465.672;   27.490; -694.197; -522.645
465.959;   34.694; -598.188; -520.662
466.245;   20.174; -468.193; -359.652
466.532;  104.152; -109.195;   63.352
466.818;   84.680; -357.186; -216.664
467.104;   -1.855; -488.182; -415.672
467.391;  -22.072; -628.189; -459.658
467.677;   38.259; -289.186;    9.335
467.964;    0.210; -682.189; -471.660
468.250;   69.862; -331.186; -160.665
468.536;   84.779;   90.811;  180.341
468.822;  -31.952; -821.184; -574.668
469.109;  127.850;  351.827;  471.311
469.395;  201.709;  729.808;  787.346
469.681;  201.007;   46.811;  156.341
469.967; 1187.387; -699.188; -382.660
470.254; 2594.170; -494.188; -306.662
470.540; 1682.767; -601.196; -476.646
470.826;  240.956; -488.181; -397.675
471.112;  306.702;  288.816;  113.331
471.398;   73.881; -253.183;  -58.670
471.684;   42.234; -626.177; -447.680
471.970;   -9.190; -918.180; -981.675
472.256;   32.633; -521.192; -441.654
472.542;   25.386; -499.171; -434.691
472.828;   17.266; -743.182; -607.672
473.114;   25.079; -380.166; -283.700
473.400;   12.751; -504.175; -293.684
473.686;   35.285; -452.166; -400.701
473.972;   52.115; -230.174; -131.687
474.258;  -47.025; -925.173; -843.689
474.544;  188.301; -183.178;   -2.679
474.830;  284.977;  -65.175;   45.316
475.116;  451.153; -123.190; -196.658
475.401;  578.012; -558.180; -467.676
475.687;  200.236; -725.180; -718.676
475.973;    5.024; -673.181; -770.673
476.259;  257.304;  736.825;  764.315
476.544;  354.192; -539.176; -437.682
476.830;  772.132; -398.172; -322.690
477.116;  661.516; -430.177; -336.682
477.401;  136.037;  346.820;  358.324
477.687;  -23.824; -289.175; -405.684
477.973;   32.828;   21.819;   28.326
478.258;   -8.294; -448.163; -348.706
478.544;   53.917;   21.815;   61.334
478.829;  -56.434; -818.171; -738.692
479.115;  -38.018; -749.172; -651.690
479.401;  -17.239; -444.174; -449.686
479.686;   34.386; -253.180;  -74.676
479.972;  -46.269; -886.178; -776.680
480.257;   32.606; -258.166;  -65.700
480.542;   -9.380; -614.170; -469.693
480.828;  232.549; 1288.824; 1392.317
481.113;  -31.303; -464.176; -426.683
481.399;    1.529; -236.161; -202.711
481.684;  -62.670; -620.166; -462.700
481.969;   30.017; -158.159;  -73.713
482.255;  -14.669; -439.169; -285.695
482.540;    4.506; -569.178; -441.680
482.825;   -6.249; -395.187; -404.663
483.110;   88.109;  -85.169; -105.696
483.396;  161.314; -840.157; -652.718
483.681;  473.865;  543.826;  730.313
483.966;  137.236; -696.160; -700.712
484.251;    6.389; -404.174; -310.687
484.536;    2.191; -356.165; -378.703
484.822;   14.467; -205.173; -218.687
485.107;  -30.273; -599.152; -502.726
485.392;  136.671;  662.836;  541.296
485.677;   68.494;  354.832;  163.302
485.962;  109.736;  160.843;  270.283
486.247;   99.738;  -14.162;   -8.707
486.532;   44.832; -178.166; -325.701
486.817;  157.349;  381.839;  431.291
487.102;  124.460; -453.154; -514.722
487.387;  611.116; -637.156; -652.718
487.672; 1101.801; -154.164;  -38.705
487.957;  675.356; -394.160; -286.711
488.241;  193.568; -290.150; -314.729
488.526;  670.403; -280.152; -148.726
488.811; 1095.833; -881.177; -818.680
489.096;  809.537; -666.154; -702.723
489.381;  455.199;    3.847;  162.275
489.666;  332.779; -428.161; -510.710
489.950;  169.615;  558.846;  627.277
490.235;  -32.562; -480.151; -458.728
490.520;  -41.672; -756.161; -723.710
490.804;  -59.207; -827.156; -736.719
491.089;   -2.341; -469.149; -299.732
491.374;   18.225; -132.164;  -75.704
491.658;   -1.805; -817.147; -717.735
491.943;  187.007; -657.152; -609.727
492.227;  274.606; -178.155;  -38.721
492.512;   56.336; -294.157; -341.717
492.797;  -63.822; -713.149; -716.731
493.081;  -49.277; -588.147; -598.735
493.366;  -36.846; -751.161; -635.711
493.650;  198.625;  831.859;  917.254
493.935;   27.294; -648.147; -447.734
494.219;  -53.387; -778.142; -687.743
494.503;  -55.052; -585.150; -487.730
494.788;   38.978;   46.842;   74.285
495.072;  109.419;  184.850;  434.271
495.356;  150.912; -463.148; -343.733
495.641;  479.129; -812.146; -736.736
495.925;  462.597; -976.156; -903.719
496.209;   48.483; -599.149; -451.732
496.494;  -60.862; -763.142; -544.744
496.778;    7.910; -364.154; -360.722
497.062;  -60.753; -819.156; -627.719
497.346;  -44.143; -869.160; -640.711
497.631;  136.590;  580.852;  560.266
497.915;   79.715;  -64.145;  175.261
498.199;   54.214; -341.157; -277.718
498.483;   50.576; -562.152; -508.725
498.767;  204.771;  301.850;  300.271
499.051;  172.906; -126.149; -100.732
499.335;    9.904; -693.149; -739.731
499.619;  -30.124; -381.129; -423.767
499.903;   18.079; -272.155;  -65.721
500.187;   24.792; -588.153; -316.724
500.471;   24.731; -796.152; -595.727
500.755;  117.303;   62.839;  -96.710
501.039;   20.480; -270.155; -357.721
501.323;   99.702;  -21.141;  264.254
501.607;   34.081; -447.163; -503.706
501.891;   -7.410; -607.156; -512.718
502.174;  -34.124; -726.144; -585.741
502.458;   80.460;   89.849;  370.273
502.742;   30.776; -180.138; -191.751
503.026;   99.469; -412.147; -254.734
503.310;  149.991; -437.159; -375.713
503.593;  101.246; -464.147; -325.735
503.877;  121.966; -232.133; -156.760
504.161;  197.694;    2.847;  -50.724
504.444;  126.255; -841.158; -710.716
504.728;  418.599; -487.164; -522.704
505.012;  658.092; -257.150;  -76.729
505.295;  524.279; -417.161; -212.711
505.579;  505.797; -256.156; -496.719
505.862;  681.711; -555.145; -333.738
506.146;  679.494; -681.159; -758.714
506.429;  400.594;  568.841;  461.286
506.713;   47.190; -732.151; -667.728
506.996;  292.484;   90.846;  295.278
507.280;  324.469; -633.165; -474.703
507.563;  234.678; -469.155; -261.721
507.847;   83.318; -423.153; -112.724
508.130;   76.980; -665.161; -456.711
508.413;   83.501; -758.167; -577.700
508.697;  241.926; -151.167;   12.300
508.980;  129.494; -422.153; -312.724
509.263;   -9.326; -466.155; -450.720
509.547;   32.142; -124.150;   82.271
509.830;   47.557; -172.160;  140.289
510.113;   84.672;  128.844;  298.281
510.396;   35.025; -530.152; -300.725
510.680;  195.037; -818.145; -812.738
510.963;  801.464;  184.846;  180.277
511.246;  704.025; -493.150; -357.730
511.529;  284.742; -482.145;  -83.739
511.812;  356.412; -250.134;   10.241
512.095;  237.312; -740.151; -396.728
512.378;   74.825; -317.147; -245.736
512.661;   20.783; -703.137; -623.753
512.944;   17.590; -750.142; -637.744
513.227;   74.706; -170.137; -171.752
513.510;    1.726; -479.144; -671.741
513.793;   33.206; -485.140; -435.747
514.076;  128.971;  -43.127;  -39.771
514.359;  107.134; -294.149; -135.732
514.642;   74.043; -442.142; -567.744
514.925;  705.005;  581.860;  561.253
515.208;  912.984; -498.134; -443.758
515.491;  611.822; -276.133; -182.761
515.773;  340.629; -410.143; -337.742
516.056; 1964.090;  249.864;  409.246
516.339; 2668.919; -754.136; -652.755
516.622; 2073.148; -518.150; -488.730
516.904; 1509.311;  882.857;  975.257
517.187;  712.729; -730.138; -523.752
517.470;  407.585; -568.143; -510.743
517.752;  401.221; -624.136; -470.756
518.035;  329.217; -708.139; -725.749
518.318;  336.019; -799.136; -744.755
518.600; 2209.601; -300.132; -325.762
518.883; 3063.267;  310.858;   88.256
519.165; 1522.397; -585.138; -426.751
519.448;  411.300;  -61.132;  -19.762
519.730;  207.954; -573.126; -415.773
520.013;  343.293;  588.867;  664.240
520.295; 1024.464;  -94.134;  -15.759
520.578; 2327.963; -335.131; -305.764
520.860; 2555.451; -254.132;   56.238
521.143; 1321.123; -763.135; -584.756
521.425;  480.241; -251.125; -279.775
521.707;  657.697; -622.127; -380.771
521.990; 1660.097; -199.127;  167.229
522.272; 1885.558; -116.140;   -4.748
522.554;  932.780; -237.143; -157.742
522.836;  423.012;  -24.134;   99.241
523.119;  241.743; -496.148; -189.734
523.401;  159.495; -448.130; -314.766
523.683;   86.584; -865.137; -693.753
523.965;  254.702;  408.862;  260.248
524.247;  259.537;   54.878;  170.220
524.529;  200.464; -451.134; -367.759
524.812;  342.922;   -3.130;  191.234
525.094;  800.027; -773.138; -631.751
525.376; 1267.975; -143.124;   78.223
525.658;  770.116; -441.136; -339.754
525.940;    3.110; -805.131; -671.764
526.222;   46.019; -188.136;  -88.755
526.504;  133.983; -190.131;   32.237
526.786;  246.341; -960.133; -647.760
527.068;  377.831; -124.123;  -67.778
527.349;  165.837; -865.137; -774.754
527.631;  129.175; -137.132;   22.238
527.913;  130.596; -664.127; -450.771
528.195;  150.559; -761.125; -639.774
528.477;  254.334;  -93.134;  -30.758
528.759;  112.847; -648.130; -522.766
529.040;   41.755; -569.123; -293.778
529.322;   47.412; -235.125;  -10.774
529.604;  156.074;  -47.130;   93.233
529.886;  144.553; -546.126; -302.773
530.167;  130.941;  232.870;  192.235
530.449;   27.099;    1.853;   63.265
530.731;   11.386; -572.122; -459.779
531.012;   53.057; -513.120; -216.784
531.294;   57.371; -118.116;  -43.792
531.575;  131.141;  290.875;  538.225
531.857;   45.879; -548.135; -266.757
532.138;   97.301; -113.141;   40.254
532.420;  205.775;  294.865;  403.244
532.701;  253.319; -722.133; -751.760
532.983;  408.097;  232.867;  182.239
533.264;  153.601; -243.126;  175.228
533.546;  -32.981; -491.136; -508.755
533.827;   55.365;  173.867;   -1.759
534.109;   58.979; -352.135;  -80.757
534.390;   89.279; -725.132; -582.762
534.671;  254.550; -270.135;  -82.756
534.953;  125.957; -751.123; -611.779
535.234;   22.556; -426.117; -255.789
535.515;  -87.585; -891.119; -735.785
535.796;  -21.933; -431.128; -193.770
536.078; -129.150;-1050.124; -904.777
536.359;   16.058;  -22.123;    3.221
536.640;  -25.764; -480.125; -197.774
536.921;  151.329;  225.871;  143.232
537.202;  345.123;  -87.138;  -16.751
537.483;  437.413;  251.869;  377.236
537.764;  153.941;   17.870;   98.235
538.045;  -44.117; -543.134; -371.758
538.326;  -45.369; -596.129; -447.768
538.607;    0.072; -686.127; -476.771
538.888;  159.823;   98.879;    5.218
539.169;  178.718; -704.122; -535.781
539.450;  320.378;  236.871;   16.233
539.731;  220.777; -361.121; -182.783
540.012;  126.432;  199.880;  412.216
540.293;   91.170;   82.876;  158.224
540.574;    7.191; -895.113; -717.796
540.855;  441.751;  435.879;  377.218
541.136;  531.115;   47.878;  139.220
541.416;  260.723; -161.130; -220.766
541.697;  177.234; -274.131; -170.763
541.978;  984.827; -270.135; -315.757
542.259; 1195.847; -211.127; -236.771
542.539;  582.815; -191.116; -186.790
542.820;  187.366;  461.875;  480.225
543.101;  144.764;  -52.145;  -77.738
543.381;   25.397; -638.127; -591.771
543.662;  268.620;  159.873; -254.771
543.942;  529.868; -751.127; -830.770
544.223; 1005.417;  193.878;  161.219
544.504;  643.775; -275.124; -182.777
544.784;  563.103; -592.126; -408.773
545.065; 1553.218;  104.884; -254.791
545.345; 1832.490;  227.881;   14.215
545.626; 1165.190;  -14.113; -108.796
545.906;  838.215;   77.869;   98.235
546.186;  328.408;   92.874;  -95.773
546.467;  184.827;   99.877;  -95.778
546.747;  306.189;  264.884;  327.210
547.027;  344.748;   91.876;  111.223
547.308;  299.167; -376.127; -530.770
547.588;  372.707;  299.871;  371.232
547.868;  187.442;  458.870;  588.235
548.149;  200.726;  609.885;  593.207
548.429;  123.195; -347.127; -299.771
548.709;  160.357; -645.120; -461.784
548.989;  430.125;   84.882;   88.213
549.269; 1968.124;   10.868;  139.239
549.550; 4451.056;  215.877;  117.222
549.830; 3999.808; -758.111; -556.799
550.110;  817.291; -468.110; -320.801
550.390;  753.862; -128.122;  -56.779
550.670; 1052.036; -868.114; -783.795
550.950;  743.875; -509.121; -471.782
551.230;  166.396;  549.879;  460.218
551.510;  -23.376; -381.121; -326.782
551.790;   19.073; -173.109; -127.803
552.070;  253.452;  940.877; 1181.223
552.350;  357.744; -492.119; -377.786
552.630;  542.369;   -2.121;   77.219
552.909;  338.294;  181.884;   73.209
553.189;  213.680;  -49.132;   33.237
553.469;  159.444; -703.119; -514.786
553.749;  169.224; -469.127; -357.772
554.029;  141.685;   33.883;  -24.790
554.308;  114.655; -154.115;  -37.794
554.588;   40.116; -196.128; -204.770
554.868;   61.426; -366.121;  -47.782
555.147;  133.277; -114.115;  -46.793
555.427;  563.371; -260.116; -250.792
555.707; 3634.075; -284.115; -200.793
555.986; 4298.961; -719.111; -538.800
556.266; 2295.663;   23.884;   72.210
556.546;  104.699; -888.121; -675.782
556.825;  231.309; -657.114; -556.794
557.105; 1665.864; -125.128;   17.230
557.384; 1931.168;  122.884;  187.209
557.664;  740.145; -717.116; -508.792
557.943;   93.300; -557.121; -411.782
558.222;  150.253; -345.118; -344.788
558.502;  274.903; -116.115;  -76.793
558.781;  458.699;  194.885;  499.208
559.061;  362.403; -232.118; -227.788
559.340;  273.933;  302.883;  353.211
559.619;  628.338;   93.884;  148.210
559.899;  932.409; -239.117; -266.789
560.178;  873.778; -778.115; -593.793
560.457; 2939.711; -623.117; -562.790
560.736; 4012.188; -472.111; -482.800
561.015; 2695.362; -500.128; -502.769
561.295;  359.793;  180.893;  215.193
561.574;  341.300;  119.885;  116.207
561.853;  462.803;  274.891;  303.197
562.132;  451.505;  -45.114;  182.206
562.411;  408.045;  396.879;  553.219
562.690;  105.074; -592.115; -458.792
562.969;  132.747;  472.888;  630.203
563.248;  509.292; 2966.878; 2487.219
563.527;  243.612; -290.111; -408.800
563.806;  358.495; -650.127; -521.771
564.085;  371.158; -297.105; -206.810
564.364;  211.687; -594.117; -405.790
564.643;  473.495; -276.121; -223.781
564.922; 1721.897;  221.890;  397.198
565.201; 1713.800; -640.109; -700.803
565.479;  746.197; -297.115; -219.792
565.758;  284.289; -810.128; -712.770
566.037;  441.401; -155.109; -100.803
566.316;  207.268; -286.116;  -28.791
566.595;   49.625;  -17.115;  -12.793
566.873;   94.914; -166.111;  -79.801
567.152;  -49.528; -490.113; -590.797
567.431;  -20.761; -113.116;    6.210
567.709;   28.268; -344.107; -212.807
567.988;  224.484; -810.114; -769.794
568.266;  486.625; -160.115;  -68.793
568.545;  351.929; -644.100; -514.819
568.824;  539.872;  160.885;  356.208
569.102;  487.033; -351.114; -235.794
569.381;  217.646; -492.116; -407.792
569.659;  -60.232; -553.113; -553.796
569.938;   25.966; -743.122; -465.780
570.216;   90.229; -225.109; -225.804
570.494;  -29.913; -632.114; -572.795
570.773;   30.549;  202.879;  114.218
571.051;   -2.045; -373.123; -357.778
571.330;   40.916; -221.113; -174.796
571.608;   24.097; -181.098; -173.823
571.886;  -86.319; -671.111; -581.799
572.164;  -77.299; -739.121; -621.782
572.443;  -56.288; -562.105; -512.811
572.721;  -31.589; -399.117; -289.790
572.999;  -38.095; -280.117; -168.788
573.277;  100.155;  379.894;  620.191
573.555;  270.207;   94.894;   37.190
573.834; 1209.704;  -86.117; -114.788
574.112; 1436.245;  880.893;  811.193
574.390;  437.613; -143.111;  -96.801
574.668;    7.873;  -91.112;  -61.797
574.946;  -19.618; -165.106; -187.810
575.224;   -0.100;   71.891;  -16.803
575.502;  -20.609; -200.116; -204.791
575.780;  -96.301; -767.112; -829.798
576.058;  109.487; 1589.889; 1004.200
576.336;  -23.432; -210.110; -129.801
576.614;  -53.651; -511.112; -340.798
576.891;   32.629; -711.115; -823.794
577.169;  415.312; -158.108; -285.805
577.447;  521.995;  169.893;  202.193
577.725;  262.229;  629.888;  854.201
578.003;    6.852;  -71.112; -371.798
578.280;   87.745; -208.104; -242.812
578.558;   60.728; -450.115; -422.793
578.836;  133.736; -210.114; -145.795
579.114;   29.798; -630.112; -670.797
579.391;   87.731;   -6.117;  -18.789
579.669;  -81.445; -595.114; -704.794
579.947;  178.167; -326.107; -127.806
580.224;  295.417; -692.107; -524.806
580.502;  285.721;  127.893;   76.193
580.779;   27.162;  -42.117;   75.210
581.057;  -80.971; -584.109; -470.804
581.334; -104.315; -726.102; -695.815
581.612;   27.633;   54.895;  511.190
581.889;  -49.502;  -83.101; -129.818
582.167;  -26.613; -298.099; -190.821
582.444; -105.507; -845.102; -814.817
582.721;  100.819;  657.899;  715.183
582.999;   38.910; -326.100; -167.821
583.276;  451.859; -812.123; -713.779
583.553;  636.813; -364.102; -294.816
583.831;  218.217; -607.104; -631.812
584.108;   52.885;  349.892;  174.195
584.385;   -7.165; -122.102;  -98.815
584.662;  -90.486; -651.111; -828.801
584.940;   33.139;  204.889;  204.199
585.217;  -40.657;  -73.113; -303.796
585.494;   34.972;   71.890;  118.198
585.771;  178.580; -250.109; -354.804
586.048;  467.893; -196.113;  -76.796
586.325;  278.392; -721.110; -773.801
586.602;   80.996;  230.896;  213.188
586.879;  -33.744; -499.100; -580.820
587.156;   35.759; -156.105; -331.810
587.433;  -65.109; -701.102; -667.817
587.710;   61.400;  152.888;  234.202
587.987;  287.489; -264.105; -236.811
588.264;  772.102;  315.888;  387.202
588.541; 1277.323;  -61.104;   26.187
588.818; 2539.882;   72.892;  171.196
589.095; 2189.269; -163.104; -174.812
589.371;  356.853; -459.109; -414.804
589.648;    6.270; -581.107; -437.807
589.925;   14.662; -517.114; -621.795
590.202;   -8.325; -741.112; -607.798
590.478;   72.116; -166.105;  -73.811
590.755;  232.663; -241.108; -132.806
591.032; 2305.869; -741.110; -699.802
591.308; 3150.237; -732.094; -790.831
591.585; 1633.594; -573.110; -560.802
591.862;  103.792;-1056.102; -950.817
592.138;   46.861; -475.108; -474.805
592.415;  123.172; -486.104; -495.813
592.691; 1394.069;  460.896;  518.188
592.968; 1744.299; -208.098; -123.824
593.244;  830.864; -695.116; -595.790
593.521;   60.593; -105.102;  -42.817
593.797;  -22.462; -810.122; -720.780
594.074;  295.836; -611.096; -588.826
594.350;  616.022;  828.905;  729.172
594.626;  265.940; -303.111; -283.801
594.903;   93.293; -643.101; -645.817
595.179;  178.250;  243.896;  418.187
595.455;   12.747; -136.107; -150.807
595.731;   -1.173;  -19.103;  -38.814
596.008;  -49.491; -464.111; -434.800
596.284;   23.834; -187.100; -242.820
596.560;   45.368; -501.093; -493.833
596.836;  175.686; -173.105;  -70.810
597.112;  289.836; -582.108; -437.805
597.388;  253.734;  -49.097;  -48.826
597.665;  105.570;  437.887;  530.203
597.941;  -77.128; -572.089; -658.839
598.217;   -0.303; -323.110; -293.802
598.493;  226.981;   61.891; -204.804
598.769;  450.978; -175.100;  -50.819
599.045;  261.114; -490.108; -562.806
599.321;   35.633; -193.100; -261.820
599.597;  110.506; -355.109; -476.804
599.872;  439.448;  409.896;  429.187
600.148;  317.761;  -61.097; -172.826
600.424;  263.994;   91.893;  202.193
600.700;  224.871; -170.107; -280.807
600.976;  100.855; -442.097; -464.825
601.252;  221.452; -226.109; -272.803
601.527;  175.974; -833.104; -840.813
601.803;  121.992; -453.105; -404.812
602.079;  173.603; -124.100; -118.819
602.354;  509.278; -620.092; -531.835
602.630;  756.368; -140.113; -482.796
602.906; 2162.148; -910.101; -863.818
603.181; 6174.344; -627.119; -534.786
603.457; 5261.559;   98.903; -278.826
603.733;  771.053; -605.120; -626.783
604.008;  912.658; -245.106; -164.810
604.284; 2850.345; -636.101; -580.817
604.559; 2459.654;   -3.112;  -42.799
604.835;  441.136; -163.105; -225.810
605.110;  380.238; -732.099; -892.821
605.385;  610.921;  224.907;  267.167
605.661;  576.975; -625.095; -729.829
605.936; 1035.115; -664.108; -737.806
606.211;  910.958;  -17.103; -170.815
606.487;  182.532; -329.114; -376.794
606.762;  -22.881; -791.119; -745.786
607.037;  -40.364; -501.105; -433.810
607.313;  -62.056; -589.096; -574.828
607.588;   -7.892; -375.106; -137.810
607.863;   16.973;  -28.101; -143.818
608.138;  177.721;  513.890;  516.198
608.413;  -11.708; -576.099; -592.822
608.688;   16.661; -203.108; -267.805
608.964;  167.477; -509.106; -218.809
609.239;  214.183; -107.105; -212.810
609.514;  227.691;  281.895;  240.188
609.789;  588.721; -187.104; -716.812
610.064;  808.967; -435.096; -609.827
610.339;  809.328; -855.109; -799.804
610.614; 1060.508; -131.100; -315.820
610.889;  588.516;  215.895;  107.188
611.163;   28.067; -407.104; -591.812
611.438;   69.959;   81.886; -167.794
611.713;  -13.580; -467.101; -499.817
611.988;   57.022; -144.101; -328.818
612.263;  -42.015; -771.102; -717.815
612.538;  194.242;  385.887;  251.204
612.812;  130.984; -832.100; -911.820
613.087;  104.547; -358.098; -338.823
613.362;  -68.128; -497.107; -557.807
613.637;   39.230;  261.897;  138.186
613.911;  -19.597; -256.092; -345.835
614.186;  109.070; -249.107; -292.807
614.460;  590.821; -842.081; -758.854
614.735;  686.995;  -55.087;  -17.843
615.010;  146.560;   43.912;  -82.841
615.284;  256.410;  360.892;  246.195
615.559;  321.652; -792.092; -955.835
615.833;  284.415;  -76.099;  -87.822
616.108;  -16.986; -225.090; -390.837
616.382;  133.272;  274.913;  402.156
616.656;  132.364; -241.090; -232.837
616.931;  471.815; -785.099; -700.822
617.205;  972.200; -973.104; -979.813
617.480;  915.389;  -91.125;    6.225
617.754;  134.087; -396.125; -128.774
618.028;    6.358; -369.129; -382.768
618.302;   68.934;   73.892;  -25.805
618.577;  -56.119; -371.103; -518.815
618.851;  -77.701; -399.109; -600.803
619.125;  -51.236; -335.134; -378.759
619.399;  -54.325; -244.104; -374.813
619.673;  -55.178; -330.115; -515.792
619.947;  -65.589; -333.114; -448.795
620.222;  -28.060; -198.110; -204.801
620.496;  -19.599;  -47.121;  -96.782
620.770;    0.292; -187.122;  -93.781
621.044;  169.609;  323.895;  346.190
621.318;  683.578; -653.120; -614.783
621.592;  609.451; -430.121; -409.783
621.866;  291.130; -476.112; -572.799
622.140;    2.841; -207.116; -356.791
622.413;   44.359;  138.889;  112.200
622.687;  -54.055; -746.101; -492.817
622.961;   10.934; -130.108; -143.805
623.235;  -75.590; -633.111; -661.800
623.509; -104.734; -816.105; -848.811
623.783;  -10.332;  -12.107;   48.193
624.056;  -28.670; -254.120; -280.783
624.330;   31.823;   63.888;   -3.797
624.604;   53.537; -271.116; -355.790
624.877;   65.470;  180.890;   26.198
625.151;   44.606; -249.114; -238.794
625.425;  -47.948; -150.103; -283.814
625.698;  -57.711; -367.119; -374.785
625.972; -103.928; -799.110; -765.802
626.245;   71.964;  685.884;  484.210
626.519;  -71.816; -426.120; -340.784
626.792;  -45.329; -192.107; -380.807
627.066;  -96.140; -485.122; -662.779
627.339; -102.232; -736.110; -663.802
627.613;   14.907;  351.880;  148.216
627.886;  -65.326;  187.891; -612.803
628.160;  -33.172;  312.880; -161.783
628.433; -109.408; -695.125; -703.775
628.706;  -81.866; -517.120; -615.784
628.979;   10.748;  296.876;  117.223
629.253;  -91.181; -785.119; -833.786
629.526;  337.802; -334.126; -253.772
629.799;  294.205; -641.123; -479.778
630.072;  141.034; -497.128; -516.769
630.346;  -72.386;-1115.116;-1080.790
630.619;  401.422; -467.107; -545.808
630.892;  564.385;  709.889;  593.200
631.165;  318.850;  790.896;  679.187
631.438; -104.473;-1092.112;-1055.798
631.711;   33.433;  453.877;  257.221
631.984;  -61.040; -523.117; -624.789
632.257;  -83.144; -636.117; -681.789
632.530;  -55.336; -412.119; -433.785
632.803;   15.329; -109.115;    7.207
633.076;  -85.173; -360.123; -422.777
633.349;   -0.362;  173.872;  121.231
633.622;  -62.037; -187.119; -240.785
633.895; -139.146; -903.120; -823.783
634.167;  -84.096; -496.126; -525.773
634.440;  -18.329;  -19.116; -137.792
634.713;  -10.833;  -22.119; -120.786
634.986;   62.578;  593.871;  453.233
635.258;  -84.273; -507.115; -597.793
635.531;   92.352;  742.882; -343.788
635.804;  -36.267; -303.117; -318.789
636.077;  -95.358; -830.116; -852.791
636.349;  -15.724; -586.115; -474.793
636.622;  369.876; 1695.874; 1392.228
636.894;  200.909; -474.120; -909.784
637.167;  125.770; -836.127; -789.771
637.439;   10.141; -278.128; -213.770
637.712;  -73.847; -312.126; -293.772
637.984; -101.933; -635.116; -707.791
638.257;  376.603;  515.877;  488.222
638.529;  504.968; -881.125; -924.776
638.802;  231.234; -508.128; -449.769
639.074; -125.733; -927.122; -952.781
639.346; -134.870; -942.135; -930.757
639.619;   -7.909;  -79.142; -319.744
639.891;    1.785;  -83.122; -168.779
640.163;  -90.863; -689.122; -756.780
640.435;   31.564;  273.878;  103.220
640.708;   -3.259;  -72.122; -132.780
640.980;  -41.507; -366.122; -362.781
641.252;  177.295;  -25.121;  -71.781
641.524; 1725.271;  580.879;  573.219
641.796; 1720.498;-1094.121; -907.782
642.068;  297.075; -191.121; -300.782
642.340;  -58.848; -486.121; -566.783
642.613;   20.679;  294.880;  323.217
642.885; -113.345; -787.120; -878.783
643.157;  -57.693; -810.120; -658.784
643.428;   46.034;  170.880;  218.216
643.700;  -69.139; -498.120; -425.784
643.972;  -39.187;  -16.119; -133.785
644.244;  -94.611; -474.119; -559.785
644.516;  -61.634; -250.119; -114.786
644.788;   57.193;  662.881;  548.214
645.060;  -37.230;  -12.119; -124.786
645.332; -104.728; -525.118; -535.787
645.603;   18.448;  479.882;  342.213
645.875;  -81.200; -334.118; -369.787
646.147;  151.727; 1487.882; 1242.212
646.418;  -63.871; -931.117; -918.788
646.690;  117.381; -714.117; -715.789
646.962;   28.182; -413.117; -451.789
647.233;  -22.841;   15.883;   11.211
647.505; -116.939; -595.117; -475.790
647.776;    9.488;  328.884;  229.210
648.048;  -13.435; -248.116; -418.790
648.320;  -86.283; -752.116; -679.791
648.591; -164.332;-1055.116; -958.791
648.862; -103.680; -505.116; -577.792
649.134;   19.947;  115.885;  198.208
649.405;  -51.601; -661.115; -618.792
649.677;  -65.849; -475.115; -598.793
649.948;  -19.248; -181.115; -296.793
650.219;   -7.996;  -37.115; -147.793
650.491;  -96.644; -431.114; -520.794
650.762; -119.867; -705.114; -731.794
651.033;  -97.465; -437.114; -424.795
651.304;  -99.739; -743.114; -728.795
651.576;  -92.637; -680.114; -645.795
651.847;  -57.160; -250.113; -140.796
652.118;  -45.183;  -32.113; -189.796
652.389; -106.956; -639.113; -722.796
652.660;  -45.505; -147.113;  -89.797
652.931; -159.378; -897.112; -871.797
653.202;  -95.801; -382.112; -541.798
653.473;  -66.699; -633.112; -533.798
653.744;  126.878; -595.112; -590.798
654.015;  113.229; -356.112; -303.799
654.286;  -81.169; -642.111; -663.799
654.557;  -72.692; -586.111; -521.799
654.828; -169.065;-1114.111;-1088.800
655.099;  -95.738; -404.111; -291.800
655.370; -117.737; -427.111; -543.801
655.641; -129.585; -656.110; -714.801
655.911; -118.108; -618.110; -638.801
656.182;   46.794;  437.890;  387.198
656.453;   87.246;  830.890;  746.198
656.724; -101.277; -466.110; -426.802
656.994;  -99.726; -553.109; -568.803
657.265; -110.199; -862.109; -873.803
657.536;  -97.872; -500.109; -377.804
657.806; -128.195; -561.109; -593.804
658.077; -158.293; -866.109; -950.804
658.347;  -93.417; -523.108; -598.805
658.618; -139.890; -646.108; -694.805
658.888;  -18.638;  -41.108;  112.195
659.159;  -98.986; -432.108; -548.806
659.429;  -29.384; -292.108; -349.806
659.700;  -10.083; -435.107; -390.807
659.970;  -19.006; -370.107; -359.807
660.241;    5.946; -754.107; -921.807
660.511;  470.248; -147.107; -174.808
660.781;   73.725; -793.106; -748.808
661.052;  -53.149; -222.106; -381.808
661.322;  -28.122;   21.894;   -9.809
661.592;   15.455;  257.894;  148.191
661.862;  -78.543; -369.106; -382.810
662.133; -102.591; -551.105; -502.810
662.403; -136.740; -770.105; -676.810
662.673;  -61.188; -256.105; -213.811
662.943; -117.136; -612.105; -551.811
663.213;  -10.759;  -85.105;  -81.811
663.483;  -86.607; -593.104; -568.812
663.753;  -62.830; -194.104; -152.812
664.023;  -31.504;   68.896;  -32.813
664.293;  -69.302; -319.104; -126.813
664.563; -125.050; -694.104; -648.813
664.833; -131.048; -743.103; -608.814
665.103; -136.971; -730.103; -793.814
665.373; -129.795; -766.103; -806.814
665.643; -100.043; -863.103; -918.815
665.913;   22.684; -534.103; -714.815
666.182;  110.086; -685.102; -719.816
666.452;  242.938;  -22.102;  -89.816
666.722;  -44.211; -724.102; -784.816
666.992; -139.234; -948.102; -921.817
667.261; -106.357; -824.102; -808.817
667.531;  190.945;  134.899;   45.183
667.801;  530.272; -440.101; -412.818
668.070;  237.148;  714.899;  697.182
668.340; -101.825; -883.101; -840.819
668.609;   91.827;  588.900;  301.181
668.879;  -85.921; -490.100; -558.819
669.149;  -81.344; -539.100; -516.820
669.418; -107.143; -698.100; -726.820
669.688;  -43.366; -482.100; -666.820
669.957;   52.436; -423.099; -546.821
670.226;  -34.662; -268.099; -331.821
670.496; -107.085; -431.099; -635.822
670.765;  -90.108; -418.099; -501.822
671.034; -142.332; -872.099; -828.822
671.304;  -15.405;   55.902; -111.823
671.573; -155.803;-1085.098; -957.823
671.842;   73.699; -380.098; -294.823
672.112;    5.176; -692.098; -586.824
672.381;  -15.323; -239.098; -214.824
672.650; -151.746;-1005.097;-1021.825
672.919; -101.669; -631.097; -507.825
673.188; -118.092; -681.097; -878.825
673.457; -156.990;-1101.097;-1143.826
673.726;  -92.839; -579.096; -646.826
673.995;  -60.387; -533.096; -479.826
674.265;  -33.710; -263.096; -333.827
674.534;   -9.283; -183.096; -235.827
674.802;  -13.656; -618.096; -703.828
675.071;  946.045; -886.095; -801.828
675.340; 3593.597; -464.095; -339.828
675.609; 1203.174;  103.905;   82.171
675.878;   50.951; -949.095; -893.829
676.147;   32.303;  -26.095;   -8.829
676.416;   54.754; -210.094; -294.830
676.685;  684.181; 1000.906; -622.830
676.953;   74.708; -603.094; -452.831
677.222;  -33.690; -193.094; -273.831
677.491;  -33.913;  -24.094; -127.831
677.759;  -17.336;   11.907;  172.168
678.028;  -38.885; -279.093; -222.832
678.297;  -10.433;   71.907;  197.168
678.565; -151.356; -898.093; -944.833
678.834;  -62.854; -311.093; -268.833
679.102;  -92.027; -411.092; -391.834
679.371; -159.851; -898.092; -727.834
679.639; -129.324; -797.092; -786.834
679.908; -131.447; -794.092; -724.835
680.176; -166.770; -895.091; -941.835
680.445;  -78.693; -346.091; -352.835
680.713;  -34.417;  -58.091;  -23.836
680.982; -104.790; -523.091; -525.836
681.250; -122.763; -578.091; -507.837
681.518; -108.461; -534.090; -751.837
681.787;  -32.984; -204.090; -167.837
682.055;  -74.333; -490.090; -422.838
682.323; -160.306; -993.090; -992.838
682.591;   29.396; -216.090; -538.838
682.859;   74.573;    9.911;  -35.839
683.128;   12.625;  232.911;  497.161
683.396; -183.024;-1102.089;-1122.840
683.664;  -43.822; -241.089;   21.160
683.932;  -14.470;  144.911;  -76.840
684.200;  -92.193; -576.088; -320.841
684.468;  -33.591;  -73.088; -124.841
684.736;  -36.690; -214.088; -175.841
685.004; -137.613;-1024.088; -982.842
685.272;  -61.061; -880.088; -774.842
685.540;  -79.634; -499.087; -557.843
685.808;  -86.382; -651.087; -682.843
686.076; -127.980; -894.087; -969.843
686.343;  -71.729; -601.087; -815.844
686.611;   30.023; -195.087; -224.844
686.879;  453.425; -530.086; -553.844
687.147; 3067.177; -483.086; -480.845
687.414;  875.404;  -12.086; -169.845
687.682;  -15.595; -658.086; -757.846
687.950;  288.582;  259.915;  263.154
688.217;  -17.591; -792.085; -760.846
688.485;   -2.814; -632.085; -636.847
688.753;  467.363;  -11.085; -102.847
689.020;  122.989; -820.085; -851.847
689.288; -120.609; -853.084; -787.848
689.555;  -40.332; -195.084; -148.848
689.823;  -71.230; -241.084; -345.849
690.090;  -92.903; -546.084; -651.849
690.358; -162.602; -877.084; -897.849
690.625;    6.000;  120.917;   45.150
690.892;  -93.698; -403.083; -369.850
691.160;  -22.946;   72.917;  -35.850
691.427;   -7.369;  141.917;  130.149
691.694; -138.843; -855.083; -929.851
691.962; -150.791;-1177.082;-1060.852
692.229;    4.686;  127.918;   56.148
692.496;   53.288;  130.918;  -49.852
692.763;    4.840; -164.082; -201.853
693.031;  -82.858; -739.082; -716.853
693.298;  -46.282; -509.081; -368.853
693.565;  278.820; -155.081; -163.854
693.832; 1170.997;   -5.081;   -9.854
694.099;  110.549; -643.081; -642.855
694.366;  -64.024; -882.081; -896.855
694.633;  -60.023; -920.080; -633.855
694.900;  752.879; 4367.920; -114.856
695.167;  393.056; -214.080; -380.856
695.434;   91.008; -646.080; -623.856
695.701;  187.185;  121.921;  -61.857
695.968;  451.411; -365.079; -361.857
696.234; 1020.688; -415.079; -646.858
696.501;10570.640; -776.079; -614.858
696.768; 5260.467; -554.079; -617.858
697.035;  314.719; -632.078; -667.859
697.302;   33.095; -448.078; -552.859
697.568;   -3.428; -458.078; -497.859
697.835;  -59.826; -683.078; -624.860
698.102;  -35.974; -498.078; -407.860
698.368;   63.053;  384.923;  396.139
698.635;  -46.196;  -47.077; -424.861
698.901;  -27.219; -240.077; -348.861
699.168;   43.908; -534.077; -456.862
699.435;   48.360;  -72.077;  -13.862
699.701; -106.113; -868.076; -764.862
699.968;  -52.636;  144.924; -441.863
700.234; -110.560; -783.076; -822.863
700.500;  -85.733; -448.076; -539.864
700.767;  -11.831;   -1.075;   26.136
701.033; -153.529;-1015.075; -963.864
701.299;  -59.527; -450.075; -483.865
701.566;  106.849;  950.925;  763.135
701.832;   18.051;  -31.075;  -76.865
702.098; -115.522;-1054.074;-1034.866
702.365; -102.345;-1098.074;-1030.866
702.631;  -47.893;-1038.074;-1063.867
702.897; 1363.933; -765.074; -676.867
703.163; 2107.010;  348.926;  254.133
703.429;  159.912; -256.073; -273.868
703.695;  -52.686; -796.073; -792.868
703.961;   -0.609; -214.073; -210.868
704.227;  -69.458; -630.073; -725.869
704.493;  121.244;  613.927;  510.131
704.759;  -26.729; -565.072; -540.870
705.025;   20.873; -203.072; -194.870
705.291;   -8.725; -666.072; -562.870
705.557;  203.876;  719.928;   34.129
705.823;   14.628; -742.072; -694.871
706.089;  152.655; -307.071; -326.871
706.355;  378.007; -315.071; -244.872
706.620; 5905.234; -776.071; -729.872
706.886; 7928.261; -309.071; -362.873
707.152;  726.437; -818.070; -973.873
707.418;  -23.236;-1153.070;-1186.873
707.683;   -2.034; -550.070; -530.874
707.949;  -48.607; -547.070; -578.874
708.215;   -3.855; -129.070; -207.874
708.480;  -33.054; -520.069; -420.875
708.746;   99.098;   68.931;   28.125
709.011;  -80.800; -578.069; -612.876
709.277;  -89.198; -538.069; -543.876
709.542;  -62.521; -428.069; -387.876
709.808;   19.230;  -59.068;   89.123
710.073;  -97.568; -577.068; -695.877
710.339;  -31.466; -242.068; -228.877
710.604;   58.886; -780.068; -845.878
710.869;  298.238; -277.068; -366.878
711.135;  -91.311; -715.067; -628.879
711.400;  -80.584; -507.067; -608.879
711.665;  -64.582; -404.067; -479.879
711.931; -110.005; -661.067; -677.880
712.196; -129.353; -876.067; -954.880
712.461;   92.673; -402.066; -490.880
712.726;  120.325; -727.066; -771.881
712.991;  -95.898; -647.066; -664.881
713.256;  -40.346; -350.066; -332.882
713.521;  -58.969; -417.065; -381.882
713.787;  -72.718; -454.065; -472.882
714.052;  -39.541; -214.065; -400.883
714.317; -103.689;-1045.065; -981.883
714.581; 1118.738; -374.065; -268.883
714.846; 1412.890; -822.064; -888.884
715.111;  135.342;  261.936;  257.116
715.376;  -23.082;  -86.064; -223.885
715.641;   -7.730; -365.064; -367.885
715.906;  267.372;   15.936; -551.885
716.171;  114.949;  221.937;  209.114
716.436;   25.301;  -78.063; -104.886
716.700; -107.798; -818.063; -692.886
716.965; -139.646; -794.063; -807.887
717.230;  -84.069; -339.063; -392.887
717.494;  -36.367;  -40.062; -134.888
717.759; -101.240; -784.062; -640.888
718.024;   -6.264;  269.938;  250.112
718.288;   57.213;  685.938;  395.111
718.553; -165.110; -803.062; -977.889
718.817; -145.583; -883.061; -899.889
719.082;  -47.206; -115.061; -125.890
719.346; -150.030;-1000.061; -947.890
719.611;  -56.453; -300.061; -255.891
719.875; -100.976; -568.060; -537.891
720.140;  -78.599; -453.060; -603.891
720.404;   32.378; -136.060; -249.892
720.668;  800.754; -475.060; -411.892
720.933;  293.106;  146.940;  137.108
721.197; -112.192; -667.059; -600.893
721.461; -149.990; -851.059; -826.893
721.725;  -26.638;  -21.059; -250.894
721.990;  -49.786; -284.059; -204.894
722.254;  -45.435;  -26.059; -108.894
722.518;  -86.433; -286.058; -442.895
722.782; -108.056; -743.058; -594.895
723.046;  113.221;  614.942;  570.105
723.310;   12.673;  374.942;  210.104
723.574; -108.401; -654.058; -614.896
723.838; -117.949; -576.057; -642.897
724.102;  -45.822; -226.057; -239.897
724.366; -156.970;-1032.057; -978.897
724.630; -112.118; -749.057; -571.898
724.894;  -95.367; -722.057; -514.898
725.158;  -10.765;   38.944; -295.898
725.422;  -78.813; -394.056; -327.899
725.685;  -64.511; -441.056; -349.899
725.949; -103.859; -566.056; -519.900
726.213;  -87.408; -732.056; -811.900
726.477;  145.394;-1020.055; -933.900
726.740;  127.971; -274.055; -104.901
727.004;  345.148; -384.055; -510.901
727.268; 3415.725; -442.055; -400.901
727.531;  902.226; -961.055; -775.902
727.795;  -58.322; -713.054; -673.902
728.059;  -74.570; -552.054; -557.903
728.322;  -80.568; -841.054; -669.903
728.586;    2.009; -692.054; -701.903
728.849;  -97.114; -695.053; -756.904
729.112; -133.063; -812.053; -912.904
729.376; -129.211; -959.053; -905.904
729.639;  -99.434; -536.053; -536.905
729.903; -119.107; -733.053; -699.905
730.166;  -66.430; -437.052; -399.906
730.429;  -42.779; -317.052; -468.906
730.693;  -93.752; -355.052; -894.906
730.956;  198.100;  810.948;  651.093
731.219;  663.652; -310.052; -103.907
731.482;   91.454;-1003.051; -894.907
731.745;   55.355; -794.051; -935.908
732.009;   19.857;  -30.051;   50.092
732.272; -117.291; -904.051; -771.909
732.535;  -48.164; -300.051; -310.909
732.798; -164.787;-1083.050;-1166.909
733.061;  -69.211; -430.050; -456.910
733.324;    8.416;   31.950; -180.910
733.587;   63.493;  290.950;  365.090
733.850;  -72.780; -973.049;-1050.911
734.113;   32.772;   33.951;   32.089
734.376;   -1.602; -328.049; -447.912
734.639;  207.875; 1188.951; 1011.088
734.901;   52.477; -180.049; -402.912
735.164;  476.304; -883.048; -837.913
735.427; 1225.756; -166.048; -355.913
735.690;  105.283; -205.048; -234.913
735.952;  -61.341; -923.048; -925.914
736.215;  -32.164;-1113.048;-1009.914
736.478;    7.888; -771.047; -774.915
736.740;  197.765;   33.953;  129.085
737.003;  678.417; -658.047; -672.915
737.266; 3779.493;  -94.047;   46.084
737.528;  408.945; -682.047; -660.916
737.791;  314.497; -316.046; -327.916
738.053;  819.899;  465.954;  649.083
738.316;11262.676; -162.046; -136.917
738.578; 7472.602; -770.046; -736.918
738.841;  436.429; -382.046; -446.918
739.103;  160.881; -875.045; -777.918
739.365;  497.083;   79.955;  -69.919
739.628;  -13.015; -884.045; -805.919
739.890;  -24.789; -758.045; -710.919
740.152;  -54.937; -692.044; -754.920
740.414;  -18.635; -408.044; -359.920
740.677;  -41.883; -785.044; -634.921
740.939;  -47.181; -587.044; -487.921
741.201;  235.845; -432.044; -572.921
741.463;   25.972; -689.043; -745.922
741.725;   -5.976;  -21.043; -199.922
741.987;   61.701;  220.957;  116.078
742.249;   -7.372; -751.043; -859.923
742.511;  185.329; -703.043; -794.923
742.773;  -14.694; -546.042; -546.924
743.035;  128.983;  796.958;  533.076
743.297;  -52.640; -963.042;-1013.924
743.559;  711.612; -278.042; -262.925
743.821;   45.989; -735.042; -744.925
744.083;    6.665;  -44.041; -149.925
744.345; -102.808; -869.041; -892.926
744.607;   35.969;   75.959;  122.074
744.868;  -68.804; -490.041; -554.927
745.130; -127.027; -994.041;-1008.927
745.392;   20.349;   -1.040;  -44.927
745.653;  -16.224; -411.040; -378.928
745.915;  154.028;  896.960;  631.072
746.177;   56.730;   35.960;  -43.928
746.438;  -24.143; -428.040; -543.929
746.700;  -57.142; -947.039; -988.929
746.961;  -13.065; -659.039; -740.930
747.223;  143.862; -190.039;  -74.930
747.484;   67.014; -391.039; -471.930
747.746;  128.866;  -23.038; -106.931
748.007;   89.267; -647.038; -689.931
748.269;  296.719; -468.038; -440.931
748.530;  438.971; -852.038; -638.932
748.791;  256.673; -354.038; -420.932
749.053;  430.050;  286.963;  163.067
749.314;  445.626; -236.037; -169.933
749.575;  486.428; -945.037; -905.933
749.836;  822.880; -217.037;   86.066
750.098; 2503.457;  -60.037;  -21.934
750.359;36235.259;  414.964;  555.066
750.620; 8672.711; -121.036; -220.935
750.881; 1004.712; -585.036; -513.935
751.142; 1343.664; -950.036; -938.936
751.403;17146.566; -789.036; -705.936
751.664; 7011.393;-1034.035; -999.936
751.925;  478.820; -175.035; -262.937
752.186;  260.421; -298.035; -278.937
752.447;  121.173; -590.035; -445.937
752.708;   36.850; -532.035; -648.938
752.969;    6.902; -566.034; -576.938
753.230;  -28.146; -777.034; -672.939
753.491;  -11.670; -650.034; -631.939
753.751;   41.957;  109.966;   19.061
754.012;   91.959;  258.967;  181.060
754.273;   41.661; -174.033;  -71.940
754.534;   -1.137; -487.033; -580.940
754.794; -111.561; -926.033; -911.941
755.055;  141.116; 1051.967;  881.059
755.316;  -56.932; -700.032; -566.942
755.576;  -37.655; -606.032; -576.942
755.837;  -57.203; -527.032; -695.942
756.097;  -40.102; -530.032; -564.943
756.358;  -90.650; -725.032; -770.943
756.618;  -62.923; -705.031; -641.943
756.879;    0.029; -254.031; -349.944
757.139; -142.869;-1098.031;-1116.944
757.400;  -75.792; -538.031; -553.945
757.660;  -22.716; -365.031; -401.945
757.920;    7.486; -266.030; -228.945
758.181;  -26.237; -468.030; -351.946
758.441; -109.135; -870.030; -809.946
758.701;  -26.683; -308.030; -215.946
758.961;  -27.282; -220.030; -278.947
759.222;  -57.880; -574.029; -502.947
759.482;  -85.203; -683.029; -723.948
759.742;  -84.901; -706.029; -547.948
760.002;   -8.624;  -83.029; -143.948
760.262;   18.802;   50.972;  182.051
760.522;  -54.321; -498.028; -574.949
760.782;  -72.444; -738.028; -612.949
761.042;  -36.392; -618.028; -573.950
761.302;   46.610;   55.972;  -18.950
761.562;   42.386; -164.027; -154.951
761.822;   73.038; -710.027; -551.951
762.082;  -45.585;-1104.027;-1093.951
762.342;   53.892; -328.027; -403.952
762.601;   65.444; -567.027; -506.952
762.861;  357.095; -281.026; -207.952
763.121;  383.697; -406.026; -411.953
763.381; 7641.474; -499.026; -485.953
763.640; 7828.776; -139.026; -307.954
763.900;  347.478; -242.026; -203.954
764.160;   68.205; -458.025; -491.954
764.419;  -10.694; -726.025; -782.955
764.679;  -70.467; -795.025; -726.955
764.939;  -15.765; -124.025; -210.955
765.198;  -89.388; -608.025; -563.956
765.458; -101.936; -710.024; -612.956
765.717;  -78.660; -454.024; -590.957
765.976;  -72.258; -428.024; -411.957
766.236;  -91.481; -475.024; -610.957
766.495;   10.521;  260.977;   73.042
766.755; -106.202;-1090.023; -987.958
767.014;   -4.276; -594.023; -665.958
767.273;  -72.174; -373.023; -397.959
767.533;  -58.072; -228.023; -307.959
767.792;  -49.195; -151.022; -188.960
768.051;  -56.893; -228.022; -276.960
768.310; -100.892; -546.022; -650.960
768.569;  -14.915; -161.022;    4.039
768.828;  -52.638; -285.022; -363.961
769.088; -123.761;-1050.021; -942.961
769.347; -100.359; -755.021; -599.962
769.606;  -99.558; -876.021; -857.962
769.865; -137.256;-1016.021;-1033.963
770.124;  -13.354; -411.021; -336.963
770.383;  -80.277; -778.020; -910.963
770.641;  -10.900; -398.020; -400.964
770.900;  -82.924; -953.020; -846.964
771.159;  -40.447; -851.020; -951.964
771.418;  -17.620; -917.020; -779.965
771.677;  112.307; -224.019; -293.965
771.936;  149.934; -794.019; -865.966
772.194; 2498.811; -465.019; -437.966
772.453;11231.087; -213.019; -391.966
772.712;  757.789;  416.982;  329.033
772.970;  115.141;   32.982;   63.033
773.229;   82.968;  -22.018;  102.033
773.488; -105.880; -814.018; -770.968
773.746;   53.221;  296.982;  335.032
774.005;  -18.477;  190.983;  -22.969
774.263;    5.325;  243.983;  177.031
774.522;  -98.148; -422.017; -548.969
774.780;  -92.221; -484.017; -417.970
775.039; -109.645; -551.017; -531.970
775.297;  -32.968; -135.016; -351.970
775.555; -113.991; -489.016; -612.971
775.814; -131.089; -618.016; -570.971
776.072; -139.012; -749.016; -740.971
776.330; -118.636; -630.016; -520.972
776.589; -133.759; -703.015; -721.972
776.847; -130.557; -645.015; -624.973
777.105; -192.405;-1016.015;-1032.973
777.363;  -94.253; -459.015; -454.973
777.621; -146.702; -660.015; -717.974
777.879;  -31.600;  -42.014;   32.026
778.138; -111.048; -554.014; -717.974
778.396; -112.021; -585.014; -526.975
778.654; -191.794;-1015.014; -970.975
778.912;  -71.342; -269.014; -371.976
779.170; -150.441; -880.013; -803.976
779.427; -163.989; -922.013; -897.976
779.685; -148.862; -880.013; -832.977
779.943;  -99.160; -654.013; -593.977
780.201; -171.733; -964.012; -883.978
780.459; -122.307; -651.012; -610.978
780.717;  -97.780; -440.012; -390.978
780.974; -112.078; -449.012; -490.979
781.232;  -96.676; -358.012; -338.979
781.490;  -77.499; -551.011; -472.979
781.747; -112.048; -555.011; -476.980
782.005;   18.404;  462.989;  254.020
782.263; -179.569; -542.011;-1004.981
782.520;  -96.492; -326.011; -501.981
782.778; -185.465;-1013.010;-1051.981
783.035; -172.989; -962.010; -938.982
783.293;  -74.637; -248.010; -206.982
783.550;  -71.085; -134.010; -198.982
783.808; -148.733; -764.010; -776.983
784.065; -181.956; -745.009; -874.983
784.322;  -73.230;   25.991;  -86.984
784.580; -154.128; -915.009; -771.984
784.837; -117.301; -392.009; -466.984
785.094; -136.674; -783.009; -762.985
785.352;  -85.997; -304.008; -404.985
785.609; -120.795; -934.008; -839.985
785.866;  -99.169; -345.008; -401.986
786.123;  -81.867; -639.008; -583.986
786.380; -123.840; -665.008; -604.987
786.637;  -45.913; -225.007; -380.987
786.895;  -53.086; -456.007; -543.987
787.152;  -54.635; -135.007; -267.988
787.409;  -50.483; -123.007; -225.988
787.666;  -90.931; -299.006; -378.988
787.923; -124.529; -616.006; -695.989
788.179; -103.602; -551.006; -584.989
788.436; -122.576; -585.006; -585.990
788.693;  -36.824;  -92.006;  -87.990
788.950;  133.303; -125.005; -112.990
789.207;  188.680; -381.005; -372.991
789.464;  -63.343; -161.005; -301.991
789.720;   -9.717;  150.995;  110.009
789.977; -171.440;-1003.005; -671.992
790.234;  -39.938;   44.996;  -66.992
790.490; -171.086; -884.004;-1031.993
790.747;  -35.034;  -85.004;   22.007
791.004;  -39.608; -426.004; -348.993
791.260;  -77.481; -430.004; -560.994
791.517; -112.979; -843.003; -788.994
791.773;  -55.102; -379.003; -342.994
792.030; -127.525; -596.003; -660.995
792.286;  -97.073; -686.003; -636.995
792.543;  -28.497;  -74.002; -159.995
792.799;  -54.020; -584.002; -382.996
793.055; -180.543;-1179.002;-1210.996
793.312; -102.616; -827.002; -816.997
793.568;  -79.064; -746.002; -599.997
793.824;   14.862; -226.001; -284.997
794.081;    7.939; -447.001; -508.998
794.337;   56.791; -664.001; -561.998
794.593; 1402.543; -319.001; -271.999
794.849; 6379.895; -746.001; -772.999
795.105;  295.671; -270.000; -261.999
795.361;    4.023; -490.000; -457.000
795.617;  -77.475; -875.000; -945.000
795.873;  -48.400; -360.000; -407.000
796.129;  -56.725; -368.000; -306.000
796.385;  -26.750; -124.000; -156.000
796.641;   51.975;  412.000;  550.000
796.897;  -91.500; -666.000; -635.000
797.153;   59.150;  453.000;  357.000
797.409; -101.850; -785.000; -868.000
797.665;  -93.450; -625.000; -732.000
797.921;  -76.600; -775.000; -762.000
798.176;  -72.850; -744.000; -747.000
798.432;  -57.200; -824.000; -596.000
798.688;  -91.225;-1174.000;-1078.000
798.943;   91.025; -165.000; -147.000
799.199;  -16.350;-1005.000; -959.000
799.455;  241.650;  369.000;  316.000
799.710;  117.950; -813.000; -380.000
799.966;  307.350; -162.000; -160.000
800.221;  491.975; -638.000; -721.000
800.477;11137.750; -743.000; -710.000
800.732; 9017.675; -773.000; -800.000
800.988;  641.275;  205.000;  -19.000
801.243; 2033.075; -454.000; -344.000
801.498; 8083.275; -814.000; -739.000
801.754;  423.700; -289.000; -163.000
802.009;   78.725; -257.000; -335.000
802.264;  -66.425; -967.000;-1033.000
802.520;   17.975;  222.000;   -3.000
802.775;  -64.450; -524.000; -359.000
803.030;   44.325;  395.000;  356.000
803.285; -124.000; -840.000; -903.000
803.540;  -65.100; -686.000; -699.000
803.795;  -56.850; -648.000; -583.000
804.051;  -36.750; -279.000; -346.000
804.306;   14.725;  168.000;  128.000
804.561;  132.575;  451.000;  362.000
804.816;  123.800;  714.000;  861.000
805.071;    3.575; -185.000; -280.000
805.325;  187.825; -257.000; -427.000
805.580; -115.400; -841.000; -877.000
805.835;  -42.625; -204.000; -297.000
806.090;  -92.900; -760.000; -676.000
806.345;  -29.275; -344.000; -264.000
806.600;  -36.650; -549.000; -632.000
806.854;  -35.925; -408.000; -538.000
807.109;  -16.650; -493.000; -577.000
807.364;  -16.575; -407.000; -328.000
807.618;   -8.650; -415.000; -381.000
807.873;   32.450; -470.000; -494.000
808.128;   74.275; -257.000; -518.000
808.382;   91.275; -224.000; -332.000
808.637;   68.150; -440.000; -511.000
808.891;  172.775; -257.000; -180.000
809.146;   97.550; -902.000; -794.000
809.400;  252.525; -848.000; -923.000
809.654;  309.100; -779.000; -551.000
809.909;  474.075; -841.000; -927.000
810.163; 6848.975; -813.000; -651.000
810.418;16286.950; -940.000; -861.000
810.672;  978.300; -685.000; -690.000
810.926;  727.300; -993.000; -973.000
811.180; 1479.000; -439.000; -372.000
811.434;33139.400;  240.000;  135.000
811.689;12138.375; -231.000; -365.000
811.943;  588.075; -936.000; -953.000
812.197;  298.525; -893.000; -671.000
812.451;  106.575; -379.000; -514.000
812.705;  -32.725; -809.000; -619.000
812.959;  -15.175; -263.000; -388.000
813.213;   -7.875; -283.000; -209.000
813.467;   58.700;  470.000;  253.000
813.721; -115.250; -764.000; -792.000
813.975; -118.375; -826.000; -877.000
814.229;   42.600;  430.000;  353.000
814.482;  -84.950; -517.000; -566.000
814.736; -120.025; -766.000; -744.000
814.990; -145.925; -779.000; -872.000
815.244;  -54.325; -228.000; -285.000
815.497; -111.125; -636.000; -601.000
815.751;  -10.950; -141.000;   82.000
816.005; -100.100; -470.000; -586.000
816.258;  -77.475; -510.000; -363.000
816.512; -123.325; -693.000; -610.000
816.766;   -7.950;  121.000;  157.000
817.019;   16.700;  148.000;  149.000
817.273; -131.875;-1000.000; -802.000
817.526;  -46.325; -206.000; -173.000
817.779;  -58.675;-1049.000; -960.000
818.033;  -92.050; -693.000; -807.000
818.286; -126.600; -725.000; -792.000
818.540;  -96.100; -403.000; -403.000
818.793;  -83.600; -402.000; -489.000
819.046; -122.325; -582.000; -520.000
819.299;  -38.825; -157.000; -166.000
819.553; -124.400; -552.000; -592.000
819.806; -168.200;-1016.000; -838.000
820.059;  -73.700; -334.000; -354.000
820.312;    6.850;  152.000;  185.000
820.565;  -19.825;  110.000;  -27.000
820.818;  -51.525;  -59.000; -173.000
821.071; -179.250;-1041.000; -957.000
821.324; -110.475; -536.000; -540.000
821.577; -123.975; -457.000; -483.000
821.830;  -70.850; -270.000; -172.000
822.083; -152.175; -733.000; -288.000
822.336;  -69.450; -261.000; -167.000
822.589; -135.975; -805.000; -688.000
822.842; -163.700; -875.000; -770.000
823.094; -197.925;-1076.000;-1114.000
823.347; -126.725; -925.000; -729.000
823.600;    3.275;  402.000;  187.000
823.853;  -51.625; -311.000; -267.000
824.105;  -93.175; -331.000; -575.000
824.358; -136.050; -617.000; -716.000
824.611;   17.375;  234.000;   40.000
824.863;  -69.775; -612.000; -591.000
825.116;   29.850;  -33.000;   27.000
825.368;   57.675; -366.000; -372.000
825.621;  153.425; -186.000; -240.000
825.873;   81.000; -704.000; -737.000
826.126;  615.075; -669.000; -641.000
826.378;11905.275; -389.000; -505.000
826.630; 2597.800; -890.000; -898.000
826.883;   19.500; -754.000; -693.000
827.135;   30.250; -279.000; -270.000
827.387; -124.700; -893.000; -839.000
827.639;  -44.200;  -86.000;   32.000
827.892; -131.225; -742.000; -582.000
828.144; -155.575; -848.000; -804.000
828.396;  -39.375;  104.000;  -80.000
828.648; -118.975; -440.000; -333.000
828.900; -159.000; -702.000; -795.000
829.152; -131.975; -684.000; -683.000
829.404;  -73.150; -215.000; -267.000
829.656;  -66.350;  321.000;  214.000
829.908;  -22.675;  393.000;  229.000
830.160; -190.200;-1064.000;-1047.000
830.412; -102.150; -481.000; -430.000
830.664; -137.050; -557.000; -665.000
830.916;  -74.700; -268.000; -206.000
831.167; -193.000;-1073.000; -951.000
831.419; -120.400; -623.000; -566.000
831.671; -154.250; -764.000; -809.000
831.923;  -98.750; -311.000; -447.000
832.174;  -95.750; -273.000; -331.000
832.426; -120.475; -493.000; -582.000
832.678; -194.675;-1043.000;-1091.000
832.929; -173.700; -947.000; -935.000
833.181;  -74.650; -575.000; -677.000
833.432;  -49.575;  -59.000; -186.000
833.684;  -29.275;  112.000;  -27.000
833.935; -124.775; -610.000; -566.000
834.187; -146.300; -829.000; -823.000
834.438;  -50.025;  -58.000;  -25.000
834.689;  -73.700; -255.000; -123.000
834.941;  -69.575; -343.000; -244.000
835.192; -117.750; -590.000; -533.000
835.443; -108.450; -419.000; -506.000
835.695;  -16.300;  138.000;  -16.000
835.946;  -93.600; -608.000; -378.000
836.197; -115.475; -599.000; -622.000
836.448;  -98.500; -528.000; -395.000
836.699;  -81.050; -253.000; -341.000
836.950;  -19.450;   72.000;    7.000
837.201; -171.300;-1003.000; -987.000
837.452;  -52.050; -356.000; -170.000
837.703; -130.450; -791.000; -737.000
837.954;  -51.575; -205.000; -365.000
838.205;  -98.525;-1029.000;-1008.000
838.456;  161.300; -196.000; -282.000
838.707;   -3.175; -423.000; -519.000
838.958;    5.350; -634.000; -647.000
839.209;  253.375;   18.000;   40.000
839.460;  106.375; -439.000; -201.000
839.710;  164.625; -135.000; -297.000
839.961;  415.750;  730.000;  612.000
840.212;  322.525; -382.000; -497.000
840.462; 1162.975; -328.000; -277.000
840.713;18534.075; -571.000; -536.000
840.964; 6772.550;  -62.000; -143.000
841.214;  470.675; -384.000; -624.000
841.465;  544.950; -214.000; -141.000
841.715;  462.075; -417.000; -380.000
841.966;  616.100; -746.000; -685.000
842.216; 9271.300; -330.000; -431.000
842.466;32392.075; -169.000; -313.000
842.717; 1596.500; -964.000; -952.000
842.967;  292.150; -635.000; -641.000
843.217;  235.800;   20.000;   28.000
843.468;   53.875; -104.000; -132.000
843.718;  -60.675; -718.000; -726.000
843.968;  -96.600; -837.000; -765.000
844.218;    7.800; -315.000; -262.000
844.469;  -68.575; -577.000; -561.000
844.719; -123.925; -537.000; -682.000
844.969; -104.250; -550.000; -580.000
845.219; -160.575; -814.000; -862.000
845.469;  -85.025; -392.000; -342.000
845.719; -152.500; -792.000; -884.000
845.969;  -15.400;  119.000;  174.000
846.219; -139.575; -738.000; -720.000
846.469;   21.025;  464.000;  432.000
846.718;  -62.900; -115.000;   31.000
846.968; -148.775; -827.000; -827.000
847.218;  -68.575; -224.000; -371.000
847.468;  -18.475; -586.000; -555.000
847.718; -164.900; -827.000; -798.000
847.967; -152.900; -826.000; -915.000
848.217; -107.500; -449.000; -569.000
848.467;  -62.800; -405.000; -376.000
848.716; -124.225; -708.000; -725.000
848.966;   -8.175; -372.000; -358.000
849.215;  -83.625; -428.000; -419.000
849.465; -106.250; -785.000; -615.000
849.714; -168.025;-1132.000;-1150.000
849.964;  -74.350; -551.000; -613.000
850.213;  -30.425; -393.000; -355.000
850.463;  103.500;  137.000;  340.000
850.712;  -28.250; -542.000; -567.000
850.961;   -1.000; -739.000; -678.000
851.211;   75.400; -513.000; -504.000
851.460;  170.325; -635.000; -650.000
851.709;  588.050;  -25.000;   18.000
851.958;10944.975; -912.000; -750.000
852.208;12262.150; -859.000; -879.000
852.457;  435.150; -181.000;  -13.000
852.706;   45.200; -791.000; -823.000
852.955;   -5.625; -507.000; -528.000
853.204;  -91.275; -521.000; -461.000
853.453;  -75.425; -418.000; -458.000
853.702; -144.925; -660.000; -750.000
853.951; -124.400; -532.000; -520.000
854.200; -122.225; -613.000; -562.000
854.449; -135.525; -695.000; -661.000
854.698; -104.575; -340.000; -279.000
854.946;  -57.375; -181.000; -284.000
855.195; -165.950; -843.000; -868.000
855.444; -104.725; -395.000; -420.000
855.693; -138.825; -345.000; -432.000
855.941; -113.775; -387.000; -516.000
856.190;  -69.600; -256.000; -382.000
856.439; -138.675; -652.000; -703.000
856.687;  -71.350;  -99.000;  -72.000
856.936; -134.875; -621.000; -323.000
857.184; -195.500;-1067.000;-1020.000
857.433; -118.475; -423.000; -512.000
857.681; -191.675; -989.000; -953.000
857.930;  -89.750; -282.000; -433.000
858.178; -190.625; -856.000; -929.000
858.427; -163.675; -802.000; -781.000
858.675; -134.675; -377.000; -544.000
858.923; -120.875; -527.000; -819.000
859.172; -203.900;-1094.000;-1070.000
859.420; -104.025; -339.000; -239.000
859.668; -141.950; -624.000; -628.000
859.916;  -17.500;  109.000;  115.000
860.164; -140.075; -699.000; -603.000
860.413;  278.250; -878.000; -696.000
860.661;  149.825; -709.000; -577.000
860.909; -102.350; -339.000; -325.000
861.157;  -98.950; -277.000; -444.000
861.405; -140.725; -534.000; -670.000
861.653;   18.125;  310.000;  310.000
861.901;  159.700; -543.000; -613.000
862.149;  -41.925; -801.000; -824.000
862.396;  -90.625; -297.000; -187.000
862.644; -111.975; -368.000; -347.000
862.892;  -35.925;   98.000;  138.000
863.140; -129.200; -549.000; -530.000
863.388; -183.200; -815.000; -759.000
863.635; -153.650; -642.000; -601.000
863.883;  -25.000;  231.000;  190.000
864.131; -110.075; -288.000; -357.000
864.378; -148.750; -675.000; -540.000
864.626; -111.175; -347.000; -415.000
864.873; -135.750; -556.000; -505.000
865.121; -158.125; -714.000; -799.000
865.368;  -51.100; -173.000;   75.000
865.616;  -43.350;  -33.000;  -40.000
865.863;  -77.150; -462.000; -506.000
866.111; -116.625; -795.000; -824.000
866.358;   42.825; -426.000; -420.000
866.605; 2559.700;  -64.000; -804.000
866.853; 2374.900; -621.000; -537.000
867.100;  -42.875; -728.000; -775.000
867.347; -111.650; -672.000; -611.000
867.594;  -96.350; -740.000; -714.000
867.841;   69.850;   97.000;   17.000
868.089; -169.825; -746.000; -698.000
868.336; -116.850; -477.000; -420.000
868.583; -157.675; -637.000; -741.000
868.830;  -64.775; -131.000; -170.000
869.077; -187.025; -859.000; -787.000
869.324; -131.850; -502.000; -458.000
869.571; -140.575; -398.000; -430.000
869.818; -133.450; -485.000; -439.000
870.065; -120.975; -439.000; -513.000
870.311; -119.525; -456.000; -542.000
870.558; -114.225; -332.000; -311.000
870.805;  -98.425; -320.000; -384.000
871.052; -124.100; -494.000; -369.000
871.298;  -64.225; -204.000; -131.000
871.545;  -77.875; -151.000; -185.000
871.792;  -96.975; -173.000; -222.000
872.038;  -84.050;   43.000; -126.000
872.285; -139.625; -496.000; -387.000
872.532; -112.450; -357.000; -387.000
872.778;    5.100;  556.000;  403.000
873.025; -124.550; -384.000; -359.000
873.271;    8.025;  501.000;  578.000
873.517;  -44.475; -133.000; -209.000
873.764;  -47.550; -193.000;  -80.000
874.010;  -89.325; -143.000; -230.000
874.257;  -49.250;  123.000;   90.000
874.503; -156.225; -579.000; -479.000
874.749;  -77.075;   31.000;  275.000
874.995;  -89.850;  -80.000;  -20.000
875.242; -142.525; -540.000; -478.000
875.488; -122.125; -414.000; -439.000
875.734;  -67.500; -106.000; -234.000
875.980;  167.025; -872.000;-1032.000
876.226;  319.450; -157.000; -255.000
876.472;  -24.525;  343.000;  237.000
876.718;  -55.900;  184.000;  158.000
876.964;  -57.650;   56.000;   55.000
877.210; -175.025; -547.000; -677.000
877.456; -159.375; -630.000; -557.000
877.702; -178.600; -821.000; -832.000
877.948; -132.425; -377.000; -497.000
878.193;    4.100;  361.000;  255.000
878.439; -105.475; -487.000; -472.000
878.685; -115.425; -272.000; -343.000
878.931; -144.375; -618.000; -676.000
879.176;  -82.800; -201.000; -201.000
879.422; -187.950; -933.000; -820.000
879.668;   63.775;   10.000;   79.000
879.913;  107.275;   53.000;  137.000
880.159;  -65.800; -112.000;  -17.000
880.404;  -73.950; -152.000; -162.000
880.650;  -64.300;   91.000;  141.000
880.895; -175.400; -670.000; -710.000
881.141; -134.050; -454.000; -428.000
881.386; -165.250; -503.000; -658.000
881.631;  -98.925; -311.000; -166.000
881.877;  -49.325;  112.000;  -13.000
882.122; -134.875; -684.000; -600.000
882.367; -105.250; -136.000; -186.000
882.612;  -89.100;  -80.000; -176.000
882.858; -194.825; -877.000; -823.000
883.103; -118.450; -297.000; -267.000
883.348; -174.300; -759.000; -852.000
883.593; -134.525; -677.000; -602.000
883.838;  -66.725; -311.000;  -24.000
884.083;   32.950;  353.000;  288.000
884.328; -111.925; -564.000; -545.000
884.573;  -67.475; -196.000; -143.000
884.818;  175.275; -694.000; -531.000
885.063;  140.800; -348.000; -315.000
885.308; -115.925; -475.000; -398.000
885.553;  -22.650;  245.000;  325.000
885.797; -151.825; -545.000; -615.000
886.042;  -63.625;    8.000;   58.000
886.287; -105.250; -253.000; -211.000
886.532;  -57.050;   26.000;  204.000
886.776; -114.750; -407.000; -525.000
887.021; -142.475; -621.000; -574.000
887.265; -176.375; -685.000; -689.000
887.510; -150.175; -557.000; -496.000
887.755; -104.425; -194.000; -164.000
887.999; -152.925; -552.000; -575.000
888.244;  -70.700;  -58.000;  161.000
888.488;   -4.650;  371.000;  393.000
888.732; -138.850; -368.000; -520.000
888.977; -149.450; -622.000; -567.000
889.221; -172.475; -683.000; -659.000
889.465; -130.050; -422.000; -566.000
889.710;  -84.050;  -56.000; -299.000
889.954;   -1.100;  579.000;  467.000
890.198; -152.975; -584.000; -707.000
890.442; -174.575; -716.000; -712.000
890.687; -182.500; -800.000; -753.000
890.931; -111.125; -273.000; -210.000
891.175; -150.025; -502.000; -500.000
891.419;  -96.900; -105.000; -110.000
891.663; -117.400; -239.000; -112.000
891.907; -183.375; -801.000; -545.000
892.151; -185.875; -920.000; -815.000
892.395; -124.325; -274.000; -387.000
892.638;  -46.725;  408.000;  291.000
892.882; -198.975; -780.000; -867.000
893.126;    5.900;  758.000;  558.000
893.370; -103.100; -167.000; -168.000
893.614; -173.275; -714.000; -715.000
893.857; -109.825; -183.000; -197.000
894.101; -166.325; -527.000; -631.000
894.345;  -64.550;  300.000;  150.000
894.588;    5.325;  569.000;  380.000
894.832;  -91.500; -178.000;  -84.000
895.075;  -88.000;   15.000;  -92.000
895.319; -141.525; -552.000; -420.000
895.563; -133.075; -413.000; -353.000
895.806; -170.175; -628.000; -741.000
896.049;  -90.650; -576.000; -368.000
896.293;   86.100;  527.000;  405.000
896.536;  -97.150; -465.000; -468.000
896.779;  -66.850; -149.000;   -1.000
897.023; -163.125; -751.000; -714.000
897.266;  -43.250;  325.000;  269.000
897.509; -192.875; -900.000; -901.000
897.752;  -54.875;  149.000;  171.000
897.996; -211.400; -972.000; -864.000
898.239;  -58.850;  168.000;  102.000
898.482; -142.975; -431.000; -453.000
898.725;  -54.825;  101.000;   53.000
898.968; -175.950; -609.000; -744.000
899.211; -112.725; -513.000; -361.000
899.454; -148.875; -633.000; -539.000
899.697;  -71.875;   90.000;  -43.000
899.940; -179.350; -761.000; -757.000
900.182; -117.725; -335.000; -405.000
900.425; -110.900; -150.000; -298.000
900.668;  -25.050;  491.000;  350.000
900.911; -123.525; -292.000; -345.000
901.154;  -50.125;  141.000;   -3.000
901.396; -145.725; -407.000; -412.000
901.639; -150.775; -430.000; -496.000
901.882; -194.175; -790.000; -809.000
902.124;  -97.650;  -29.000; -143.000
902.367; -124.775; -315.000; -361.000
902.609; -132.900; -476.000; -453.000
902.852; -112.925; -108.000; -260.000
903.094; -133.050; -458.000; -337.000
903.337;  -83.700;  -26.000;   53.000
903.579; -126.425; -228.000; -441.000
903.821; -175.500; -597.000; -744.000
904.064;  -57.675;   85.000;  127.000
904.306;  -99.400; -126.000; -166.000
904.548; -115.400; -152.000; -366.000
904.790; -125.050; -195.000; -340.000
905.033; -151.925; -625.000; -577.000
905.275; -146.025; -513.000; -524.000
905.517;   21.950;  468.000;  256.000
905.759;  -84.225; -667.000; -761.000
906.001; -112.000; -322.000; -369.000
906.243;  -80.650; -162.000; -224.000
906.485;   99.175; -265.000; -207.000
906.727;   61.225; -499.000; -542.000
906.969;  -44.800;  -30.000; -135.000
907.211;   96.800; -316.000; -382.000
907.453;  243.675; -188.000; -237.000
907.695;  -32.950; -158.000; -385.000
907.936;   44.625;  818.000;  706.000
908.178;  -76.675;   92.000; -135.000
908.420;  -77.375; -111.000; -162.000
908.662; -143.550; -633.000; -682.000
908.903;  -98.650; -208.000; -123.000
909.145;  -81.700; -240.000; -305.000
909.386;    4.775;  315.000;  280.000
909.628;   32.075;  363.000;  397.000
909.870;   -9.000;   29.000;  264.000
910.111; -110.775; -809.000; -949.000
910.353;   19.225; -123.000; -161.000
910.594;  -12.225; -574.000; -606.000
910.835;   73.750; -265.000; -326.000
911.077;  134.850; -503.000; -604.000
911.318;  276.375; -505.000; -471.000
911.559;  438.050; -577.000; -880.000
911.801; 1364.100; -284.000; -280.000
912.042;10958.225;  -50.000; -159.000
912.283;26505.300;  404.000;  371.000
912.524; 3709.675; -396.000; -457.000
912.765;  455.650; -193.000;   79.000
913.006;  205.650; -307.000; -338.000
913.247;   16.925; -270.000; -290.000
913.488;  -12.400;  -43.000;   30.000
913.729;  -95.125; -373.000; -373.000
913.970;  -85.625;  -96.000; -292.000
914.211;  -75.375; -160.000; -198.000
914.452;  -69.425; -118.000;  -11.000
914.693;    1.825;  510.000;  592.000
914.934;   -2.575;  510.000;  440.000
915.175;  -72.400;   53.000;  -95.000
915.415;  -91.950; -137.000;   27.000
915.656;  -92.750;  -28.000;  192.000
915.897; -102.575; -252.000;  -82.000
916.137;  -85.275;   74.000;   -9.000
916.378; -147.875; -573.000; -517.000
916.619;  -97.100; -159.000;  -63.000
916.859;  -34.950;  303.000;  330.000
917.100;  134.400; 1655.000; 1070.000
917.340;   33.900;  930.000;  728.000
917.581;   52.800;  965.000;  789.000
917.821;  -42.825; -171.000;  143.000
918.061;   -5.375; -199.000;  -72.000
918.302;  -76.500; -152.000; -211.000
918.542;  -39.300;  -22.000;    3.000
918.782;   25.650;  369.000;  377.000
919.023;  132.675;  360.000;  427.000
919.263; 1354.800; 8131.000;  202.000
919.503; 1062.525; -137.000;  -54.000
919.743;  583.400;  390.000;  266.000
919.983;  205.550; -134.000;  -26.000
920.223;   74.450;  135.000;   14.000
920.463;  149.975;  631.000;  554.000
920.703;  133.975;   84.000;   39.000
920.943;  159.825; -110.000;   90.000
921.183;  225.425; -414.000; -405.000
921.423;  519.275;  307.000;  546.000
921.663;  740.975; -174.000; -257.000
921.903; 1658.925;  237.000;  173.000
922.143; 9368.725;  372.000;  389.000
922.383;35027.875;  158.000;  115.000
922.622;10815.250; -120.000;  -15.000
922.862; 1155.900;  796.000;  785.000
923.102;  421.375;  -51.000;   33.000
923.341;  180.425;   59.000;   74.000
923.581;   69.250;  450.000;  360.000
923.821;   13.725;  301.000;  398.000
924.060;    4.275;  351.000;  193.000
924.300;  -80.225;  -16.000; -128.000
924.539;  -30.900;  584.000;  473.000
924.779;    2.375;  812.000;  597.000
925.018;  -61.875;  247.000;  353.000
925.257;  -18.500;  595.000;  666.000
925.497;  -62.775;  447.000;  412.000
925.736;  -87.925;  -35.000;  102.000
925.975;  -19.475;  687.000;  669.000
926.214;   24.575;  907.000;  850.000
926.454;    4.700;  706.000;  757.000
926.693;  -47.100;  419.000;  543.000
926.932;   27.650; 1021.000;  825.000
927.171;   51.050; 1107.000; 1044.000
927.410;   36.250; 1144.000;  967.000
927.649;   18.900;  924.000;  742.000
927.888;  -15.575;  590.000;  564.000
928.127;  -23.275;  680.000;  678.000
928.366;   14.500;  842.000;  826.000
928.605;   29.125;  831.000;  737.000
928.844;  248.450; 1451.000; 1393.000
929.083;  589.800;  770.000;  613.000
929.321;  283.550; 1335.000; 1359.000
929.560;   74.225; 1158.000; 1122.000
929.799;  -55.675;  574.000;  475.000
930.038;   66.650; 1025.000; 1394.000
930.276;  -71.850;  334.000;  397.000
930.515;   -5.350;  827.000;  681.000
930.753;  -42.950;  614.000;  589.000
930.992;  -15.700;  664.000;  717.000
931.230;  -20.125;  847.000;  847.000
931.469;  172.700; 2162.000;  892.000
931.707;   63.875;  840.000;  751.000
931.946;   67.175; 1278.000; 1344.000
932.184;   44.675; 1437.000; 1175.000
932.423;   31.400; 1265.000;  963.000
932.661;   89.400; 1296.000; 1428.000
932.899;   11.150;  987.000;  821.000
933.137;   -2.925;  754.000;  564.000
933.376;  125.075; 1664.000; 1335.000
933.614;  146.250; 1759.000; 1196.000
933.852;   58.250; 1357.000; 1171.000
934.090;  132.375; 1722.000; 1747.000
934.328;  100.700; 1252.000; 1457.000
934.566;   92.525; 1431.000; 1110.000
934.804;  133.025; 1263.000; 1309.000
935.042;  491.575; 1861.000; 1850.000
935.280; 2006.000; 2088.000; 2063.000
935.518; 1737.625; 2113.000; 2007.000
935.756;  377.425; 2481.000; 2316.000
935.994;  137.400; 1808.000; 1751.000
936.231;  315.650; 2890.000; 2950.000
936.469;  194.175; 2367.000; 2378.000
936.707;  169.650; 2220.000; 2167.000
936.945;  224.575; 2825.000; 2882.000
937.182;  207.950; 2679.000; 2741.000
937.420;  299.725; 3602.000; 3031.000
937.657;  411.375; 3365.000; 3478.000
937.895;  349.875; 3331.000; 3488.000
938.133;  326.275; 3540.000; 3528.000
938.370;  333.825; 3896.000; 4191.000
938.607;  386.575; 4488.000; 4205.000
938.845;  540.350; 5587.000; 5549.000
939.082;  494.225; 5387.000; 5177.000
939.320;  532.550; 5799.000; 5728.000
939.557;  655.150; 6549.000; 6491.000
939.794;  704.375; 7285.000; 7097.000
940.031;  904.450; 8421.000; 8368.000
940.269; 1112.775; 9552.000; 9107.000
940.506; 1118.675;10901.000;10507.000

