
Integration time [ms]: 100.000
Averaging Nr. [scans]: 40
Smoothing Nr. [pixels]: 0
Data measured with spectrometer [name]: 2101013U2
Wave   ;Sample   ;Dark     ;Reference
[nm]   ;[counts] ;[counts] ;[counts] 

394.013;   34.274; -450.257; -315.536
394.305;  207.422; -461.258; -419.536
394.596; 1158.193; -676.269; -527.514
394.887; 2863.960; -796.268; -654.518
395.178; 1086.541;  145.736;   11.476
395.470;   61.302; -210.263; -356.526
395.761;  195.375;  305.734;  394.479
396.052;  309.892; -545.284; -306.489
396.343;  308.762; -557.276; -454.503
396.634;  102.606; -200.279; -290.497
396.926;  115.407; -618.268; -565.517
397.217;  100.767;   11.725;  -17.504
397.508;   42.908; -366.273; -154.507
397.799;   40.181; -555.279; -571.497
398.090;  -14.375; -973.280; -902.495
398.381;  109.716;   11.708;  -11.473
398.672;    0.767; -585.292; -742.473
398.963;   42.012; -348.279; -373.498
399.254;  112.176;   54.709; -209.475
399.545;  -37.753;-1017.266; -883.520
399.836;   60.576; -407.277; -343.501
400.127;   52.467; -205.295; -209.468
400.418;   48.277; -423.274; -392.506
400.709;   50.312; -359.281; -333.493
401.000;   39.330; -268.291; -309.476
401.290;   84.128;  225.698;  115.545
401.581;   58.649; -166.286; -228.485
401.872;   10.889; -542.298; -486.462
402.163;   58.235; -313.296; -252.467
402.454;   82.227; -123.291; -163.475
402.744;   62.001; -844.297; -813.465
403.035;  383.782; -226.293;  -86.471
403.326;  520.045; -366.292; -384.474
403.617;  344.433;  204.701;  165.539
403.907;  263.898; -593.283; -679.490
404.198; 2489.882; -545.307; -599.446
404.489; 6517.653; -618.283; -588.491
404.779; 2128.882; -618.302; -660.456
405.070;  229.910;  -67.304; -174.451
405.360;  341.459; -259.293; -238.472
405.651;  366.943;  125.699;   98.542
405.942;  131.345;  209.714;  127.516
406.232;  230.284; -432.285; -413.487
406.523;  417.152;  641.706;  758.530
406.813;   88.072; -579.286; -644.484
407.104;  308.665;  261.708;  144.527
407.394;  146.935; -604.299; -591.462
407.685;  130.508;  336.715;  222.513
407.975;   48.176; -400.283; -382.490
408.265;  105.192; -134.289; -190.478
408.556;   52.924; -472.291; -459.475
408.846;  162.303;  474.706;  429.530
409.137;  101.950;   -1.288; -216.480
409.427;   47.684; -193.285; -271.487
409.717;   26.411; -776.273; -692.508
410.007;  145.503;    4.715; -170.486
410.298;   84.770; -360.295; -342.469
410.588;   71.231; -495.285; -510.486
410.878;   33.086; -792.287; -873.482
411.168;  105.841; -481.298; -478.463
411.459;  113.646; -295.283; -242.489
411.749;   57.998; -609.292; -507.474
412.039;   51.448; -755.289; -386.480
412.329;  206.494;   40.722;  132.501
412.619;  190.922;  -62.286; -148.485
412.909;  360.420;  639.711;  594.521
413.199;  328.500; -130.280; -251.495
413.490;  370.960;  521.710;  352.523
413.780;  151.654;-1013.279; -913.496
414.070;  303.063;  -46.276;  235.497
414.360;  365.915; -729.278; -666.498
414.650;  414.957; -726.288; -688.482
414.940;  537.654; -538.280; -441.496
415.230;  956.904;   50.712;   74.519
415.520; 6300.167;  155.730;   66.486
415.809;24988.687; -305.281; -125.493
416.099;19116.929; -388.277; -229.501
416.389; 5480.675;  435.726;  236.494
416.679; 3177.506;   91.738;   85.473
416.969;  550.966; -527.287; -503.483
417.259;  475.631;  341.721;  171.503
417.549;  703.685;  522.718;  318.508
417.838; 1733.235; -205.268; -147.518
418.128; 5774.065;  650.710;  492.522
418.418; 4807.168; -491.272; -579.509
418.708; 3237.950;    9.726;  -48.506
418.997;12333.996; -474.275; -480.505
419.287;12703.482; -733.273; -790.507
419.577;12227.670; -160.283; -123.489
419.866;40259.752; -588.277; -498.501
420.156;40711.113; -242.270;  -55.513
420.446; 7162.023; -112.263;  -26.526
420.735;  831.307; -376.271; -446.512
421.025;  842.739; 1830.722;  315.502
421.314;  647.280; -203.271; -226.512
421.604; 1242.577;   89.732;  233.484
421.893;  734.252; -705.271; -602.511
422.183;  230.748; -487.263; -461.526
422.472;  376.328;  -36.271; -107.511
422.762;  435.728; -416.266; -379.521
423.051;  255.464; -916.276; -916.503
423.341;  286.884; -491.273; -439.507
423.630;  407.509; -121.265;   15.477
423.919;  386.045;   58.725;   49.495
424.209;  384.379;  -31.263;   56.473
424.498;  494.782;   68.732;  161.483
424.787; 1134.638; -535.267; -601.518
425.077; 3514.657;   34.735;   29.478
425.366; 4718.535; -734.262; -744.528
425.655;10456.785;  639.727;  259.493
425.945;23452.515; -313.247; -268.554
426.234;12848.308;  117.741;  300.467
426.523; 5243.613;  -86.259; -350.534
426.812; 7193.298;  107.734;  159.480
427.101;10781.874; -127.269; -323.515
427.390;13424.042;  -55.270;  -86.514
427.680; 2855.208; -624.257; -411.538
427.969;  477.769; -330.255; -301.540
428.258;  304.874; -385.257; -477.536
428.547;  521.822;  449.728;  397.490
428.836; 1199.635; -421.253; -398.543
429.125; 1717.015; -199.259;  -72.534
429.414;  781.558; -330.251; -294.548
429.703; 3248.233; -231.251; -213.548
429.992; 9851.761; -938.250; -828.549
430.281; 6340.016; -397.264; -331.524
430.570;  563.273;  -21.252;   32.454
430.859;  513.037;  279.741;  352.466
431.148;  391.786;  636.752;  631.446
431.437;  279.198;  391.748;  367.454
431.725;  148.526; -544.257; -481.536
432.014;  131.392; -845.253; -756.545
432.303;  367.287; -149.239; -105.569
432.592;  571.348; -460.263; -178.525
432.881; 1084.312; -601.248; -437.554
433.169; 6576.519; -343.255;  -61.540
433.458;13333.671;  445.765;  540.424
433.747; 5450.790; -397.261; -289.529
434.036;  860.138; -275.242; -280.564
434.324; 2141.949; -395.249; -379.551
434.613; 3778.881;   40.757;  159.437
434.902; 1201.652;  333.760;  439.433
435.190;  490.236;   75.761;  295.431
435.479;  282.363;  -52.245;   83.441
435.767;   96.596; -411.244; -427.561
436.056;  194.658; -340.242; -294.563
436.345;  399.804; -372.240; -223.568
436.633;  371.194;   60.750;  383.450
436.922;  243.732;  208.760;  414.432
437.210;  485.086; -194.236;    1.426
437.499; 1582.394; -583.235; -432.576
437.787; 1752.710; -339.236;  -10.574
438.075;  446.666;   56.761;  162.430
438.364;  622.969;  -44.238;  250.429
438.652;  372.124; -286.226; -138.592
438.941;  118.163;    3.770;  269.415
439.229;    1.795; -665.252; -466.545
439.517;   19.827; -160.234;  -85.577
439.806;    3.390; -501.225; -290.595
440.094;  155.110;  377.766;  650.421
440.382;  152.739; -653.233; -302.580
440.670;  157.244; -361.235; -285.576
440.959;   30.258; -347.223; -170.599
441.247;   68.700; -151.229; -109.587
441.535;   72.326; -266.235;   31.423
441.823;   13.607; -497.234; -305.578
442.111;  167.404;  173.771;  327.412
442.400;  467.712; -628.245; -335.559
442.688; 1213.735; -111.234; -620.579
442.976;  819.596; -786.213; -450.617
443.264;   98.572; -324.224; -364.597
443.552;  100.626; -258.226;   51.408
443.840;  151.150;  602.765;  876.423
444.128;  115.963;  265.767;  269.420
444.416;   10.332; -694.228; -312.588
444.704;   17.738; -465.219;  -92.605
444.992;   76.428;   -0.226;  240.407
445.280;   36.664; -517.230;  -94.585
445.568;   32.825; -694.212; -396.618
445.856;  293.247; -174.221;  357.398
446.143;  685.384;  -54.220;   -7.604
446.431;  557.460;  -25.228;  625.411
446.719;  230.632;  489.783;  675.391
447.007;  174.333;  481.769;  705.416
447.295;  180.530;  597.777;  871.402
447.583;   75.772; -464.229;  -34.587
447.870;  128.619; -434.221; -202.601
448.158;  383.338; -104.230;  129.415
448.446;  282.360; -800.219; -338.604
448.733;  161.173;   13.776;  269.403
449.021;  246.400;   60.788;  341.382
449.309;  161.715; -296.210;  208.379
449.596;  210.903;  128.783;   59.392
449.884;  156.837; -571.222; -325.600
450.172;  163.891; -756.227; -406.590
450.459;  452.954;  645.786;  780.387
450.747; 2562.052; -411.218; -147.608
451.034; 8209.961;  493.772;  889.411
451.322; 6740.358; -413.214; -170.614
451.609;  541.800;  292.777;  508.403
451.897;  629.478; -550.203; -183.634
452.184; 1878.980; -622.223; -400.598
452.472; 1770.436;   97.792;  269.375
452.759;  329.661;  512.781;  864.395
453.047;  103.222; -407.212; -125.617
453.334;   51.644; -732.219; -216.606
453.621;   76.835; -438.214; -161.615
453.909;  112.270;   13.796;  384.368
454.196;  103.691; -299.199; -123.641
454.483;  192.616;  317.798;  540.364
454.771;  121.314; -215.208;  196.374
455.058;   47.018; -316.207;  102.374
455.345;   93.346;   71.807;  344.347
455.632;   89.121; -128.207;  235.373
455.919;   48.588;  -82.196;  182.354
456.207;  -57.705; -774.198; -450.642
456.494;  -11.397; -475.200;  -66.639
456.781;   10.212; -399.202; -198.635
457.068;   52.202; -253.206;  -29.628
457.355;  -10.921; -698.206; -401.629
457.642;   -2.066; -552.205; -290.630
457.929;   -5.638; -778.194; -417.651
458.216;   64.822; -575.212; -354.617
458.503;  253.217; -173.193;  -19.652
458.790;  256.362; -864.208; -630.625
459.077;  270.217;  -77.202;  110.364
459.364;  824.930; -350.195; -210.649
459.651; 1764.750;  -46.206;  220.372
459.938;  804.427; -864.209; -665.623
460.225;  137.420;  132.799;  276.363
460.512;  -42.814; -836.197; -688.645
460.799;   90.726;  -32.218;  320.392
461.086;   81.008; -370.200; -251.640
461.372;   36.371; -509.198; -279.642
461.659;   95.365; -165.196;  108.354
461.946;   55.666; -445.193;  -54.651
462.233;  232.206;  842.800;  888.361
462.519;  352.202; -814.201; -464.639
462.806; 1055.386; -768.197; -497.645
463.093;  923.361; -445.191;  -66.656
463.380;  -34.672; -920.186; -824.664
463.666;   38.963; -259.197;  -18.646
463.953;   86.125; -406.195; -243.648
464.239;  199.900; -173.195;  -77.648
464.526;  393.386;  413.806;  743.350
464.813;  314.023; -565.190; -304.658
465.099;  345.717;  606.807;  607.348
465.386;  312.571;  903.807;  921.348
465.672;   11.636; -694.197; -522.645
465.959;   10.791; -598.188; -520.662
466.245;    8.771; -468.193; -359.652
466.532;   94.098; -109.195;   63.352
466.818;   66.703; -357.186; -216.664
467.104;   -5.957; -488.182; -415.672
467.391;  -20.600; -628.189; -459.658
467.677;   26.081; -289.186;    9.335
467.964;   -6.618; -682.189; -471.660
468.250;   43.734; -331.186; -160.665
468.536;   62.226;   90.811;  180.341
468.822;  -45.329; -821.184; -574.668
469.109;  142.625;  351.827;  471.311
469.395;  184.005;  729.808;  787.346
469.681;  178.379;   46.811;  156.341
469.967; 1306.484; -699.188; -382.660
470.254; 2852.042; -494.188; -306.662
470.540; 1795.088; -601.196; -476.646
470.826;  250.154; -488.181; -397.675
471.112;  317.750;  288.816;  113.331
471.398;   77.729; -253.183;  -58.670
471.684;   31.183; -626.177; -447.680
471.970;   -1.117; -918.180; -981.675
472.256;   22.954; -521.192; -441.654
472.542;   11.786; -499.171; -434.691
472.828;   -1.636; -743.182; -607.672
473.114;   34.079; -380.166; -283.700
473.400;    1.250; -504.175; -293.684
473.686;   24.636; -452.166; -400.701
473.972;   42.214; -230.174; -131.687
474.258;  -35.725; -925.173; -843.689
474.544;  204.400; -183.178;   -2.679
474.830;  327.876;  -65.175;   45.316
475.116;  525.450; -123.190; -196.658
475.401;  723.686; -558.180; -467.676
475.687;  219.785; -725.180; -718.676
475.973;   -3.703; -673.181; -770.673
476.259;  229.778;  736.825;  764.315
476.544;  379.841; -539.176; -437.682
476.830;  903.432; -398.172; -322.690
477.116;  798.040; -430.177; -336.682
477.401;  133.810;  346.820;  358.324
477.687;  -25.075; -289.175; -405.684
477.973;   30.126;   21.819;   28.326
478.258;  -18.094; -448.163; -348.706
478.544;   44.389;   21.815;   61.334
478.829;  -61.409; -818.171; -738.692
479.115;  -49.344; -749.172; -651.690
479.401;  -13.140; -444.174; -449.686
479.686;   40.684; -253.180;  -74.676
479.972;  -19.995; -886.178; -776.680
480.257;   17.656; -258.166;  -65.700
480.542;  -13.055; -614.170; -469.693
480.828;  213.548; 1288.824; 1392.317
481.113;  -26.929; -464.176; -426.683
481.399;  -18.770; -236.161; -202.711
481.684;  -55.070; -620.166; -462.700
481.969;   18.219; -158.159;  -73.713
482.255;   -5.719; -439.169; -285.695
482.540;  -16.745; -569.178; -441.680
482.825;    2.223; -395.187; -404.663
483.110;   96.934;  -85.169; -105.696
483.396;  216.691; -840.157; -652.718
483.681;  510.239;  543.826;  730.313
483.966;  178.913; -696.160; -700.712
484.251;    9.563; -404.174; -310.687
484.536;    6.841; -356.165; -378.703
484.822;    0.691; -205.173; -218.687
485.107;  -25.071; -599.152; -502.726
485.392;  114.697;  662.836;  541.296
485.677;   63.694;  354.832;  163.302
485.962;   91.063;  160.843;  270.283
486.247;   88.464;  -14.162;   -8.707
486.532;   42.982; -178.166; -325.701
486.817;  162.700;  381.839;  431.291
487.102;  125.287; -453.154; -514.722
487.387;  719.967; -637.156; -652.718
487.672; 1294.877; -154.164;  -38.705
487.957;  800.232; -394.160; -286.711
488.241;  220.596; -290.150; -314.729
488.526;  804.730; -280.152; -148.726
488.811; 1304.832; -881.177; -818.680
489.096;  965.140; -666.154; -702.723
489.381;  520.627;    3.847;  162.275
489.666;  404.930; -428.161; -510.710
489.950;  165.018;  558.846;  627.277
490.235;  -21.084; -480.151; -458.728
490.520;  -46.421; -756.161; -723.710
490.804;  -56.506; -827.156; -736.719
491.089;    8.512; -469.149; -299.732
491.374;   20.576; -132.164;  -75.704
491.658;  -10.027; -817.147; -717.735
491.943;  157.410; -657.152; -609.727
492.227;  226.233; -178.155;  -38.721
492.512;   39.113; -294.157; -341.717
492.797;  -79.419; -713.149; -716.731
493.081;  -52.824; -588.147; -598.735
493.366;  -54.094; -751.161; -635.711
493.650;  211.605;  831.859;  917.254
493.935;   35.423; -648.147; -447.734
494.219;  -47.308; -778.142; -687.743
494.503;  -40.574; -585.150; -487.730
494.788;   50.204;   46.842;   74.285
495.072;  102.847;  184.850;  434.271
495.356;  175.865; -463.148; -343.733
495.641;  469.233; -812.146; -736.736
495.925;  447.424; -976.156; -903.719
496.209;   31.636; -599.149; -451.732
496.494;  -44.183; -763.142; -544.744
496.778;  -19.588; -364.154; -360.722
497.062;  -61.476; -819.156; -627.719
497.346;  -37.566; -869.160; -640.711
497.631;  138.119;  580.852;  560.266
497.915;   73.393;  -64.145;  175.261
498.199;   49.841; -341.157; -277.718
498.483;   31.104; -562.152; -508.725
498.767;  197.698;  301.850;  300.271
499.051;  199.759; -126.149; -100.732
499.335;   44.857; -693.149; -739.731
499.619;  -37.994; -381.129; -423.767
499.903;   10.031; -272.155;  -65.721
500.187;   15.069; -588.153; -316.724
500.471;   26.884; -796.152; -595.727
500.755;  100.354;   62.839;  -96.710
501.039;   24.407; -270.155; -357.721
501.323;   63.556;  -21.141;  264.254
501.607;   26.782; -447.163; -503.706
501.891;   -8.833; -607.156; -512.718
502.174;  -37.445; -726.144; -585.741
502.458;   62.413;   89.849;  370.273
502.742;   48.230; -180.138; -191.751
503.026;  111.147; -412.147; -254.734
503.310;  180.493; -437.159; -375.713
503.593;  141.299; -464.147; -325.735
503.877;  113.221; -232.133; -156.760
504.161;  164.497;    2.847;  -50.724
504.444;  145.282; -841.158; -710.716
504.728;  501.000; -487.164; -522.704
505.012;  754.770; -257.150;  -76.729
505.295;  552.255; -417.161; -212.711
505.579;  551.499; -256.156; -496.719
505.862;  819.715; -555.145; -333.738
506.146;  821.370; -681.159; -758.714
506.429;  423.471;  568.841;  461.286
506.713;   70.342; -732.151; -667.728
506.996;  329.536;   90.846;  295.278
507.280;  372.295; -633.165; -474.703
507.563;  246.580; -469.155; -261.721
507.847;   93.495; -423.153; -112.724
508.130;   91.531; -665.161; -456.711
508.413;  129.851; -758.167; -577.700
508.697;  266.177; -151.167;   12.300
508.980;  158.096; -422.153; -312.724
509.263;   -9.974; -466.155; -450.720
509.547;   40.970; -124.150;   82.271
509.830;   28.408; -172.160;  140.289
510.113;   80.774;  128.844;  298.281
510.396;   29.377; -530.152; -300.725
510.680;  131.641; -818.145; -812.738
510.963;  503.716;  184.846;  180.277
511.246;  428.528; -493.150; -357.730
511.529;  257.496; -482.145;  -83.739
511.812;  393.392; -250.134;   10.241
512.095;  290.889; -740.151; -396.728
512.378;   74.603; -317.147; -245.736
512.661;   39.613; -703.137; -623.753
512.944;   35.569; -750.142; -637.744
513.227;   66.485; -170.137; -171.752
513.510;   28.354; -479.144; -671.741
513.793;   25.961; -485.140; -435.747
514.076;  133.927;  -43.127;  -39.771
514.359;  116.012; -294.149; -135.732
514.642;   85.172; -442.142; -567.744
514.925;  805.234;  581.860;  561.253
515.208; 1102.114; -498.134; -443.758
515.491;  710.978; -276.133; -182.761
515.773;  384.583; -410.143; -337.742
516.056; 2257.244;  249.864;  409.246
516.339; 3048.298; -754.136; -652.755
516.622; 1873.125; -518.150; -488.730
516.904; 1112.090;  882.857;  975.257
517.187;  508.684; -730.138; -523.752
517.470;  406.664; -568.143; -510.743
517.752;  480.526; -624.136; -470.756
518.035;  369.621; -708.139; -725.749
518.318;  419.648; -799.136; -744.755
518.600; 2677.756; -300.132; -325.762
518.883; 3711.621;  310.858;   88.256
519.165; 1754.977; -585.138; -426.751
519.448;  388.556;  -61.132;  -19.762
519.730;  211.885; -573.126; -415.773
520.013;  295.274;  588.867;  664.240
520.295;  739.319;  -94.134;  -15.759
520.578; 1667.619; -335.131; -305.764
520.860; 1875.406; -254.132;   56.238
521.143; 1012.553; -763.135; -584.756
521.425;  492.773; -251.125; -279.775
521.707;  718.128; -622.127; -380.771
521.990; 1907.453; -199.127;  167.229
522.272; 2167.587; -116.140;   -4.748
522.554;  941.284; -237.143; -157.742
522.836;  337.492;  -24.134;   99.241
523.119;  207.246; -496.148; -189.734
523.401;  158.176; -448.130; -314.766
523.683;  112.413; -865.137; -693.753
523.965;  287.532;  408.862;  260.248
524.247;  308.419;   54.878;  170.220
524.529;  205.569; -451.134; -367.759
524.812;  364.753;   -3.130;  191.234
525.094;  923.331; -773.138; -631.751
525.376; 1474.007; -143.124;   78.223
525.658;  889.021; -441.136; -339.754
525.940;   31.366; -805.131; -671.764
526.222;   35.474; -188.136;  -88.755
526.504;  105.314; -190.131;   32.237
526.786;  159.372; -960.133; -647.760
527.068;  279.638; -124.123;  -67.778
527.349;  104.867; -865.137; -774.754
527.631;  133.631; -137.132;   22.238
527.913;  148.927; -664.127; -450.771
528.195;  196.216; -761.125; -639.774
528.477;  266.139;  -93.134;  -30.758
528.759;  148.503; -648.130; -522.766
529.040;   81.536; -569.123; -293.778
529.322;   71.119; -235.125;  -10.774
529.604;  151.755;  -47.130;   93.233
529.886;  112.435; -546.126; -302.773
530.167;  106.572;  232.870;  192.235
530.449;   45.327;    1.853;   63.265
530.731;   25.268; -572.122; -459.779
531.012;   70.839; -513.120; -216.784
531.294;   72.804; -118.116;  -43.792
531.575;  146.848;  290.875;  538.225
531.857;   72.609; -548.135; -266.757
532.138;   93.380; -113.141;   40.254
532.420;  157.155;  294.865;  403.244
532.701;  193.124; -722.133; -751.760
532.983;  323.727;  232.867;  182.239
533.264;  104.183; -243.126;  175.228
533.546;  -46.026; -491.136; -508.755
533.827;   53.320;  173.867;   -1.759
534.109;   30.509; -352.135;  -80.757
534.390;  101.935; -725.132; -582.762
534.671;  251.055; -270.135;  -82.756
534.953;  150.214; -751.123; -611.779
535.234;   14.439; -426.117; -255.789
535.515;  -76.602; -891.119; -735.785
535.796;  -14.102; -431.128; -193.770
536.078; -120.118;-1050.124; -904.777
536.359;   -7.860;  -22.123;    3.221
536.640;  -18.283; -480.125; -197.774
536.921;  150.635;  225.871;  143.232
537.202;  392.153;  -87.138;  -16.751
537.483;  486.069;  251.869;  377.236
537.764;  185.497;   17.870;   98.235
538.045;  -38.412; -543.134; -371.758
538.326;  -31.238; -596.129; -447.768
538.607;   17.554; -686.127; -476.771
538.888;  189.680;   98.879;    5.218
539.169;  198.875; -704.122; -535.781
539.450;  348.959;  236.871;   16.233
539.731;  226.984; -361.121; -182.783
540.012;  134.489;  199.880;  412.216
540.293;   87.626;   82.876;  158.224
540.574;   13.274; -895.113; -717.796
540.855;  449.158;  435.879;  377.218
541.136;  544.722;   47.878;  139.220
541.416;  296.053; -161.130; -220.766
541.697;  206.789; -274.131; -170.763
541.978; 1103.607; -270.135; -315.757
542.259; 1424.428; -211.127; -236.771
542.539;  664.322; -191.116; -186.790
542.820;  193.647;  461.875;  480.225
543.101;  120.343;  -52.145;  -77.738
543.381;   41.578; -638.127; -591.771
543.662;  288.201;  159.873; -254.771
543.942;  625.249; -751.127; -830.770
544.223; 1133.599;  193.878;  161.219
544.504;  735.131; -275.124; -182.777
544.784;  603.534; -592.126; -408.773
545.065; 1766.101;  104.884; -254.791
545.345; 2048.423;  227.881;   14.215
545.626; 1381.274;  -14.113; -108.796
545.906;  957.371;   77.869;   98.235
546.186;  379.189;   92.874;  -95.773
546.467;  208.959;   99.877;  -95.778
546.747;  345.947;  264.884;  327.210
547.027;  388.705;   91.876;  111.223
547.308;  359.698; -376.127; -530.770
547.588;  404.963;  299.871;  371.232
547.868;  195.522;  458.870;  588.235
548.149;  195.009;  609.885;  593.207
548.429;  155.927; -347.127; -299.771
548.709;  207.164; -645.120; -461.784
548.989;  521.157;   84.882;   88.213
549.269; 2301.979;   10.868;  139.239
549.550; 5217.613;  215.877;  117.222
549.830; 4689.767; -758.111; -556.799
550.110;  934.474; -468.110; -320.801
550.390;  883.169; -128.122;  -56.779
550.670; 1246.444; -868.114; -783.795
550.950;  874.482; -509.121; -471.782
551.230;  197.229;  549.879;  460.218
551.510;    0.106; -381.121; -326.782
551.790;   42.057; -173.109; -127.803
552.070;  252.534;  940.877; 1181.223
552.350;  460.677; -492.119; -377.786
552.630;  640.026;   -2.121;   77.219
552.909;  395.227;  181.884;   73.209
553.189;  234.111;  -49.132;   33.237
553.469;  214.076; -703.119; -514.786
553.749;  228.830; -469.127; -357.772
554.029;  176.993;   33.883;  -24.790
554.308;  152.913; -154.115;  -37.794
554.588;   80.922; -196.128; -204.770
554.868;   63.908; -366.121;  -47.782
555.147;  166.960; -114.115;  -46.793
555.427;  649.354; -260.116; -250.792
555.707; 4216.608; -284.115; -200.793
555.986; 5169.245; -719.111; -538.800
556.266; 2696.321;   23.884;   72.210
556.546;  122.606; -888.121; -675.782
556.825;  278.642; -657.114; -556.794
557.105; 1926.795; -125.128;   17.230
557.384; 2267.625;  122.884;  187.209
557.664;  873.428; -717.116; -508.792
557.943;  128.207; -557.121; -411.782
558.222;  189.161; -345.118; -344.788
558.502;  296.736; -116.115;  -76.793
558.781;  518.732;  194.885;  499.208
559.061;  416.085; -232.118; -227.788
559.340;  323.540;  302.883;  353.211
559.619;  782.896;   93.884;  148.210
559.899; 1110.242; -239.117; -266.789
560.178; 1023.436; -778.115; -593.793
560.457; 3362.994; -623.117; -562.790
560.736; 4744.771; -472.111; -482.800
561.015; 3157.793; -500.128; -502.769
561.295;  417.252;  180.893;  215.193
561.574;  349.233;  119.885;  116.207
561.853;  531.886;  274.891;  303.197
562.132;  539.713;  -45.114;  182.206
562.411;  482.402;  396.879;  553.219
562.690;  143.507; -592.115; -458.792
562.969;  152.831;  472.888;  630.203
563.248;  479.024; 2966.878; 2487.219
563.527;  311.546; -290.111; -408.800
563.806;  438.752; -650.127; -521.771
564.085;  445.167; -297.105; -206.810
564.364;  266.745; -594.117; -405.790
564.643;  561.227; -276.121; -223.781
564.922; 2023.580;  221.890;  397.198
565.201; 2088.209; -640.109; -700.803
565.479;  885.880; -297.115; -219.792
565.758;  361.195; -810.128; -712.770
566.037;  511.060; -155.109; -100.803
566.316;  264.101; -286.116;  -28.791
566.595;   51.208;  -17.115;  -12.793
566.873;   90.598; -166.111;  -79.801
567.152;  -51.945; -490.113; -590.797
567.431;   15.847; -113.116;    6.210
567.709;   16.627; -344.107; -212.807
567.988;  276.217; -810.114; -769.794
568.266;  576.083; -160.115;  -68.793
568.545;  417.590; -644.100; -514.819
568.824;  641.280;  160.885;  356.208
569.102;  607.842; -351.114; -235.794
569.381;  246.979; -492.116; -407.792
569.659;  -40.498; -553.113; -553.796
569.938;   41.548; -743.122; -465.780
570.216;  123.338; -225.109; -225.804
570.494;  -21.880; -632.114; -572.795
570.773;   31.706;  202.879;  114.218
571.051;   14.387; -373.123; -357.778
571.330;   66.699; -221.113; -174.796
571.608;   43.058; -181.098; -173.823
571.886;  -64.010; -671.111; -581.799
572.164;  -64.092; -739.121; -621.782
572.443;  -52.954; -562.105; -512.811
572.721;  -36.256; -399.117; -289.790
572.999;  -22.738; -280.117; -168.788
573.277;   84.265;  379.894;  620.191
573.555;  315.567;   94.894;   37.190
573.834; 1472.287;  -86.117; -114.788
574.112; 1708.030;  880.893;  811.193
574.390;  515.272; -143.111;  -96.801
574.668;    7.456;  -91.112;  -61.797
574.946;  -19.383; -165.106; -187.810
575.224;   21.484;   71.891;  -16.803
575.502;  -20.476; -200.116; -204.791
575.780;  -86.092; -767.112; -829.798
576.058;  226.321; 1589.889; 1004.200
576.336;  -10.724; -210.110; -129.801
576.614;  -56.492; -511.112; -340.798
576.891;   71.537; -711.115; -823.794
577.169;  523.696; -158.108; -285.805
577.447;  636.879;  169.893;  202.193
577.725;  264.837;  629.888;  854.201
578.003;   19.810;  -71.112; -371.798
578.280;   90.880; -208.104; -242.812
578.558;   65.136; -450.115; -422.793
578.836;  128.770; -210.114; -145.795
579.114;   50.781; -630.112; -670.797
579.391;   60.714;   -6.117;  -18.789
579.669;  -95.787; -595.114; -704.794
579.947;  179.451; -326.107; -127.806
580.224;  366.326; -692.107; -524.806
580.502;  343.330;  127.893;   76.193
580.779;   35.595;  -42.117;   75.210
581.057;  -68.562; -584.109; -470.804
581.334;  -85.155; -726.102; -695.815
581.612;   34.743;   54.895;  511.190
581.889;  -24.592;  -83.101; -129.818
582.167;  -28.352; -298.099; -190.821
582.444; -104.247; -845.102; -814.817
582.721;   98.529;  657.899;  715.183
582.999;   59.870; -326.100; -167.821
583.276;  585.291; -812.123; -713.779
583.553;  793.223; -364.102; -294.816
583.831;  244.527; -607.104; -631.812
584.108;   52.644;  349.892;  174.195
584.385;   11.194; -122.102;  -98.815
584.662;  -66.502; -651.111; -828.801
584.940;   21.672;  204.889;  204.199
585.217;  -15.924;  -73.113; -303.796
585.494;   30.206;   71.890;  118.198
585.771;  233.739; -250.109; -354.804
586.048;  537.901; -196.113;  -76.796
586.325;  345.850; -721.110; -773.801
586.602;   95.855;  230.896;  213.188
586.879;  -14.259; -499.100; -580.820
587.156;   41.918; -156.105; -331.810
587.433;  -46.224; -701.102; -667.817
587.710;   72.583;  152.888;  234.202
587.987;  311.924; -264.105; -236.811
588.264;  816.160;  315.888;  387.202
588.541; 1432.658;  -61.104;   26.187
588.818; 2826.891;   72.892;  171.196
589.095; 2446.303; -163.104; -174.812
589.371;  399.187; -459.109; -414.804
589.648;   14.105; -581.107; -437.807
589.925;   20.971; -517.114; -621.795
590.202;   23.833; -741.112; -607.798
590.478;   98.076; -166.105;  -73.811
590.755;  268.122; -241.108; -132.806
591.032; 2683.103; -741.110; -699.802
591.308; 3680.898; -732.094; -790.831
591.585; 1906.052; -573.110; -560.802
591.862;  170.802;-1056.102; -950.817
592.138;   66.495; -475.108; -474.805
592.415;  139.381; -486.104; -495.813
592.691; 1531.429;  460.896;  518.188
592.968; 1982.709; -208.098; -123.824
593.244;  952.922; -695.116; -595.790
593.521;   79.853; -105.102;  -42.817
593.797;  -11.855; -810.122; -720.780
594.074;  366.647; -611.096; -588.826
594.350;  682.708;  828.905;  729.172
594.626;  318.623; -303.111; -283.801
594.903;  118.078; -643.101; -645.817
595.179;  193.360;  243.896;  418.187
595.455;    8.706; -136.107; -150.807
595.731;    6.587;  -19.103;  -38.814
596.008;  -30.858; -464.111; -434.800
596.284;   44.594; -187.100; -242.820
596.560;   70.954; -501.093; -493.833
596.836;  204.720; -173.105;  -70.810
597.112;  367.720; -582.108; -437.805
597.388;  306.220;  -49.097;  -48.826
597.665;  123.579;  437.887;  530.203
597.941;  -45.566; -572.089; -658.839
598.217;   19.931; -323.110; -293.802
598.493;  273.515;   61.891; -204.804
598.769;  544.588; -175.100;  -50.819
599.045;  331.423; -490.108; -562.806
599.321;   60.943; -193.100; -261.820
599.597;  157.190; -355.109; -476.804
599.872;  505.408;  409.896;  429.187
600.148;  390.147;  -61.097; -172.826
600.424;  315.678;   91.893;  202.193
600.700;  273.530; -170.107; -280.807
600.976;  151.041; -442.097; -464.825
601.252;  277.211; -226.109; -272.803
601.527;  243.159; -833.104; -840.813
601.803;  173.051; -453.105; -404.812
602.079;  183.988; -124.100; -118.819
602.354;  606.114; -620.092; -531.835
602.630;  869.101; -140.113; -482.796
602.906; 2446.383; -910.101; -863.818
603.181; 7232.827; -627.119; -534.786
603.457; 6133.244;   98.903; -278.826
603.733;  875.385; -605.120; -626.783
604.008; 1027.067; -245.106; -164.810
604.284; 3228.655; -636.101; -580.817
604.559; 2792.362;   -3.112;  -42.799
604.835;  503.245; -163.105; -225.810
605.110;  448.048; -732.099; -892.821
605.385;  726.207;  224.907;  267.167
605.661;  694.936; -625.095; -729.829
605.936; 1266.324; -664.108; -737.806
606.211; 1060.218;  -17.103; -170.815
606.487;  211.440; -329.114; -376.794
606.762;   27.402; -791.119; -745.786
607.037;  -22.655; -501.105; -433.810
607.313;  -51.796; -589.096; -574.828
607.588;    3.892; -375.106; -137.810
607.863;   45.483;  -28.101; -143.818
608.138;  187.404;  513.890;  516.198
608.413;   24.977; -576.099; -592.822
608.688;   61.895; -203.108; -267.805
608.964;  200.761; -509.106; -218.809
609.239;  262.793; -107.105; -212.810
609.514;  245.276;  281.895;  240.188
609.789;  677.630; -187.104; -716.812
610.064;  918.678; -435.096; -609.827
610.339;  945.712; -855.109; -799.804
610.614; 1264.668; -131.100; -315.820
610.889;  710.526;  215.895;  107.188
611.163;   33.302; -407.104; -591.812
611.438;   73.742;   81.886; -167.794
611.713;   18.555; -467.101; -499.817
611.988;   54.232; -144.101; -328.818
612.263;  -15.405; -771.102; -717.815
612.538;  204.301;  385.887;  251.204
612.812;  203.145; -832.100; -911.820
613.087;  144.707; -358.098; -338.823
613.362;  -45.044; -497.107; -557.807
613.637;   31.639;  261.897;  138.186
613.911;   -6.560; -256.092; -345.835
614.186;  129.154; -249.107; -292.807
614.460;  738.159; -842.081; -758.854
614.735;  826.582;  -55.087;  -17.843
615.010;  157.847;   43.912;  -82.841
615.284;  248.044;  360.892;  246.195
615.559;  402.339; -792.092; -955.835
615.833;  315.050;  -76.099;  -87.822
616.108;    2.901; -225.090; -390.837
616.382;  142.184;  274.913;  402.156
616.656;  168.201; -241.090; -232.837
616.931;  532.726; -785.099; -700.822
617.205; 1145.934; -973.104; -979.813
617.480; 1062.921;  -91.125;    6.225
617.754;  187.743; -396.125; -128.774
618.028;   20.689; -369.129; -382.768
618.302;   65.343;   73.892;  -25.805
618.577;  -41.834; -371.103; -518.815
618.851;  -68.717; -399.109; -600.803
619.125;  -56.631; -335.134; -378.759
619.399;  -35.915; -244.104; -374.813
619.673;  -44.520; -330.115; -515.792
619.947;  -35.080; -333.114; -448.795
620.222;  -11.051; -198.110; -204.801
620.496;  -12.392;  -47.121;  -96.782
620.770;   16.849; -187.122;  -93.781
621.044;  223.893;  323.895;  346.190
621.318;  786.086; -653.120; -614.783
621.592;  730.683; -430.121; -409.783
621.866;  393.188; -476.112; -572.799
622.140;   34.073; -207.116; -356.791
622.413;   57.542;  138.889;  112.200
622.687;  -42.520; -746.101; -492.817
622.961;   12.468; -130.108; -143.805
623.235;  -44.982; -633.111; -661.800
623.509; -112.525; -816.105; -848.811
623.783;   10.702;  -12.107;   48.193
624.056;  -13.813; -254.120; -280.783
624.330;   54.981;   63.888;   -3.797
624.604;   60.470; -271.116; -355.790
624.877;   75.553;  180.890;   26.198
625.151;   46.014; -249.114; -238.794
625.425;  -27.539; -150.103; -283.814
625.698;  -69.479; -367.119; -374.785
625.972;  -86.444; -799.110; -765.802
626.245;   55.872;  685.884;  484.210
626.519;  -42.334; -426.120; -340.784
626.792;  -37.220; -192.107; -380.807
627.066;  -83.933; -485.122; -662.779
627.339; -103.773; -736.110; -663.802
627.613;   42.364;  351.880;  148.216
627.886;   52.858;  187.891; -612.803
628.160;  -25.665;  312.880; -161.783
628.433;  -89.302; -695.125; -703.775
628.706;  -89.659; -517.120; -615.784
628.979;   19.855;  296.876;  117.223
629.253;  -73.824; -785.119; -833.786
629.526;  385.633; -334.126; -253.772
629.799;  381.587; -641.123; -479.778
630.072;  193.090; -497.128; -516.769
630.346;  -49.703;-1115.116;-1080.790
630.619;  468.431; -467.107; -545.808
630.892;  672.244;  709.889;  593.200
631.165;  345.309;  790.896;  679.187
631.438;  -70.215;-1092.112;-1055.798
631.711;   58.140;  453.877;  257.221
631.984;  -64.933; -523.117; -624.789
632.257;  -75.286; -636.117; -681.789
632.530;  -37.654; -412.119; -433.785
632.803;   15.962; -109.115;    7.207
633.076;  -74.341; -360.123; -422.777
633.349;    4.769;  173.872;  121.231
633.622;  -42.605; -187.119; -240.785
633.895; -134.213; -903.120; -823.783
634.167;  -74.065; -496.126; -525.773
634.440;  -17.722;  -19.116; -137.792
634.713;  -13.575;  -22.119; -120.786
634.986;   74.384;  593.871;  453.233
635.258;  -71.890; -507.115; -597.793
635.531;   90.285;  742.882; -343.788
635.804;  -22.309; -303.117; -318.789
636.077;  -86.450; -830.116; -852.791
636.349;   -4.191; -586.115; -474.793
636.622;  391.407; 1695.874; 1392.228
636.894;  270.441; -474.120; -909.784
637.167;  173.601; -836.127; -789.771
637.439;   23.172; -278.128; -213.770
637.712;  -58.041; -312.126; -293.772
637.984;  -76.200; -635.116; -707.791
638.257;  379.909;  515.877;  488.222
638.529;  585.374; -881.125; -924.776
638.802;  251.065; -508.128; -449.769
639.074; -105.876; -927.122; -952.781
639.346; -132.515; -942.135; -930.757
639.619;    0.770;  -79.142; -319.744
639.891;  -17.708;  -83.122; -168.779
640.163;  -78.981; -689.122; -756.780
640.435;   21.446;  273.878;  103.220
640.708;    8.298;  -72.122; -132.780
640.980;  -25.025; -366.122; -362.781
641.252;  186.052;  -25.121;  -71.781
641.524; 1832.853;  580.879;  573.219
641.796; 1870.280;-1094.121; -907.782
642.068;  335.907; -191.121; -300.782
642.340;  -68.966; -486.121; -566.783
642.613;   39.861;  294.880;  323.217
642.885;  -96.487; -787.120; -878.783
643.157;  -44.336; -810.120; -658.784
643.428;   62.566;  170.880;  218.216
643.700;  -71.557; -498.120; -425.784
643.972;  -48.955;  -16.119; -133.785
644.244;  -98.578; -474.119; -559.785
644.516;  -43.901; -250.119; -114.786
644.788;   63.050;  662.881;  548.214
645.060;  -15.398;  -12.119; -124.786
645.332;  -97.871; -525.118; -535.787
645.603;   39.131;  479.882;  342.213
645.875;  -87.392; -334.118; -369.787
646.147;  160.835; 1487.882; 1242.212
646.418;  -63.714; -931.117; -918.788
646.690;  154.613; -714.117; -715.789
646.962;   47.890; -413.117; -451.789
647.233;  -11.783;   15.883;   11.211
647.505; -109.756; -595.117; -475.790
647.776;   40.271;  328.884;  229.210
648.048;    2.847; -248.116; -418.790
648.320;  -69.851; -752.116; -679.791
648.591; -166.624;-1055.116; -958.791
648.862;  -99.072; -505.116; -577.792
649.134;   -4.820;  115.885;  198.208
649.405;  -41.868; -661.115; -618.792
649.677;  -50.966; -475.115; -598.793
649.948;  -13.140; -181.115; -296.793
650.219;  -14.688;  -37.115; -147.793
650.491;  -95.911; -431.114; -520.794
650.762; -124.384; -705.114; -731.794
651.033;  -93.682; -437.114; -424.795
651.304;  -99.755; -743.114; -728.795
651.576;  -57.679; -680.114; -645.795
651.847;  -43.527; -250.113; -140.796
652.118;  -20.100;  -32.113; -189.796
652.389; -104.323; -639.113; -722.796
652.660;  -36.496; -147.113;  -89.797
652.931; -133.169; -897.112; -871.797
653.202;  -70.318; -382.112; -541.798
653.473;  -72.741; -633.112; -533.798
653.744;  163.436; -595.112; -590.798
654.015;  145.013; -356.112; -303.799
654.286;  -72.685; -642.111; -663.799
654.557;  -63.608; -586.111; -521.799
654.828; -157.057;-1114.111;-1088.800
655.099;  -84.030; -404.111; -291.800
655.370;  -98.128; -427.111; -543.801
655.641; -125.601; -656.110; -714.801
655.911; -102.849; -618.110; -638.801
656.182;   42.878;  437.890;  387.198
656.453;   81.379;  830.890;  746.198
656.724;  -73.294; -466.110; -426.802
656.994;  -89.267; -553.109; -568.803
657.265; -111.040; -862.109; -873.803
657.536;  -80.663; -500.109; -377.804
657.806; -104.586; -561.109; -593.804
658.077; -138.110; -866.109; -950.804
658.347;  -88.783; -523.108; -598.805
658.618; -104.731; -646.108; -694.805
658.888;  -16.304;  -41.108;  112.195
659.159;  -89.602; -432.108; -548.806
659.429;  -29.225; -292.108; -349.806
659.700;   18.902; -435.107; -390.807
659.970;  -12.747; -370.107; -359.807
660.241;   21.455; -754.107; -921.807
660.511;  527.232; -147.107; -174.808
660.781;   99.384; -793.106; -748.808
661.052;  -59.114; -222.106; -381.808
661.322;  -33.662;   21.894;   -9.809
661.592;   16.239;  257.894;  148.191
661.862;  -74.959; -369.106; -382.810
662.133;  -95.707; -551.105; -502.810
662.403; -117.755; -770.105; -676.810
662.673;  -66.753; -256.105; -213.811
662.943; -110.576; -612.105; -551.811
663.213;  -16.925;  -85.105;  -81.811
663.483;  -68.948; -593.104; -568.812
663.753;  -46.621; -194.104; -152.812
664.023;  -12.994;   68.896;  -32.813
664.293;  -69.717; -319.104; -126.813
664.563; -115.015; -694.104; -648.813
664.833; -128.339; -743.103; -608.814
665.103; -115.037; -730.103; -793.814
665.373; -118.285; -766.103; -806.814
665.643;  -74.708; -863.103; -918.815
665.913;    9.069; -534.103; -714.815
666.182;  154.171; -685.102; -719.816
666.452;  285.847;  -22.102;  -89.816
666.722;  -20.126; -724.102; -784.816
666.992; -129.099; -948.102; -921.817
667.261; -103.847; -824.102; -808.817
667.531;  193.630;  134.899;   45.183
667.801;  550.857; -440.101; -412.818
668.070;  240.984;  714.899;  697.182
668.340;  -91.990; -883.101; -840.819
668.609;   81.437;  588.900;  301.181
668.879;  -73.411; -490.100; -558.819
669.149;  -68.784; -539.100; -516.820
669.418;  -97.832; -698.100; -726.820
669.688;  -31.905; -482.100; -666.820
669.957;   88.796; -423.099; -546.821
670.226;  -18.027; -268.099; -331.821
670.496;  -86.075; -431.099; -635.822
670.765;  -85.748; -418.099; -501.822
671.034; -127.546; -872.099; -828.822
671.304;  -22.169;   55.902; -111.823
671.573; -149.043;-1085.098; -957.823
671.842;   87.509; -380.098; -294.823
672.112;   39.786; -692.098; -586.824
672.381;    7.463; -239.098; -214.824
672.650; -134.460;-1005.097;-1021.825
672.919;  -79.808; -631.097; -507.825
673.188; -104.557; -681.097; -878.825
673.457; -136.480;-1101.097;-1143.826
673.726;  -85.903; -579.096; -646.826
673.995;  -45.101; -533.096; -479.826
674.265;  -27.624; -263.096; -333.827
674.534;    2.353; -183.096; -235.827
674.802;    1.554; -618.096; -703.828
675.071; 1045.931; -886.095; -801.828
675.340; 4232.133; -464.095; -339.828
675.609; 1418.485;  103.905;   82.171
675.878;   90.737; -949.095; -893.829
676.147;   31.439;  -26.095;   -8.829
676.416;   88.590; -210.094; -294.830
676.685;  769.842; 1000.906; -622.830
676.953;  129.694; -603.094; -452.831
677.222;  -31.504; -193.094; -273.831
677.491;  -21.827;  -24.094; -127.831
677.759;  -16.700;   11.907;  172.168
678.028;  -14.973; -279.093; -222.832
678.297;  -11.647;   71.907;  197.168
678.565; -147.395; -898.093; -944.833
678.834;  -64.743; -311.093; -268.833
679.102;  -75.791; -411.092; -391.834
679.371; -163.564; -898.092; -727.834
679.639; -126.562; -797.092; -786.834
679.908; -120.036; -794.092; -724.835
680.176; -141.209; -895.091; -941.835
680.445;  -79.682; -346.091; -352.835
680.713;  -18.855;  -58.091;  -23.836
680.982;  -98.828; -523.091; -525.836
681.250; -111.176; -578.091; -507.837
681.518; -104.350; -534.090; -751.837
681.787;  -11.598; -204.090; -167.837
682.055;  -72.071; -490.090; -422.838
682.323; -155.344; -993.090; -992.838
682.591;   25.833; -216.090; -538.838
682.859;  105.060;    9.911;  -35.839
683.128;    4.636;  232.911;  497.161
683.396; -165.362;-1102.089;-1122.840
683.664;  -44.060; -241.089;   21.160
683.932;    7.692;  144.911;  -76.840
684.200;  -87.031; -576.088; -320.841
684.468;  -31.679;  -73.088; -124.841
684.736;  -24.578; -214.088; -175.841
685.004; -104.026;-1024.088; -982.842
685.272;  -39.274; -880.088; -774.842
685.540;  -57.347; -499.087; -557.843
685.808;  -86.695; -651.087; -682.843
686.076; -101.518; -894.087; -969.843
686.343;  -52.167; -601.087; -815.844
686.611;   43.310; -195.087; -224.844
686.879;  463.687; -530.086; -553.844
687.147; 3483.989; -483.086; -480.845
687.414; 1007.716;  -12.086; -169.845
687.682;    6.368; -658.086; -757.846
687.950;  314.220;  259.915;  263.154
688.217;   16.846; -792.085; -760.846
688.485;  -27.202; -632.085; -636.847
688.753;  575.575;  -11.085; -102.847
689.020;  198.752; -820.085; -851.847
689.288;  -90.696; -853.084; -787.848
689.555;  -32.444; -195.084; -148.848
689.823;  -52.443; -241.084; -345.849
690.090;  -84.491; -546.084; -651.849
690.358; -147.914; -877.084; -897.849
690.625;    2.163;  120.917;   45.150
690.892;  -83.935; -403.083; -369.850
691.160;  -21.258;   72.917;  -35.850
691.427;    6.043;  141.917;  130.149
691.694; -143.780; -855.083; -929.851
691.962; -148.178;-1177.082;-1060.852
692.229;   -9.226;  127.918;   56.148
692.496;   93.826;  130.918;  -49.852
692.763;   10.803; -164.082; -201.853
693.031;  -70.621; -739.082; -716.853
693.298;  -27.344; -509.081; -368.853
693.565;  304.608; -155.081; -163.854
693.832; 1354.285;   -5.081;   -9.854
694.099;  159.712; -643.081; -642.855
694.366;  -59.311; -882.081; -896.855
694.633;  -52.310; -920.080; -633.855
694.900;  710.667; 4367.920; -114.856
695.167;  469.894; -214.080; -380.856
695.434;  105.146; -646.080; -623.856
695.701;  200.798;  121.921;  -61.857
695.968;  468.575; -365.079; -361.857
696.234;  968.727; -415.079; -646.858
696.501;10224.528; -776.079; -614.858
696.768; 5359.455; -554.079; -617.858
697.035;  323.732; -632.078; -667.859
697.302;   27.884; -448.078; -552.859
697.568;   20.686; -458.078; -497.859
697.835;  -43.512; -683.078; -624.860
698.102;  -26.886; -498.078; -407.860
698.368;   62.716;  384.923;  396.139
698.635;  -43.332;  -47.077; -424.861
698.901;  -30.630; -240.077; -348.861
699.168;   78.422; -534.077; -456.862
699.435;   90.124;  -72.077;  -13.862
699.701; -122.750; -868.076; -764.862
699.968;    6.927;  144.924; -441.863
700.234; -105.021; -783.076; -822.863
700.500;  -58.519; -448.076; -539.864
700.767;  -10.392;   -1.075;   26.136
701.033; -117.465;-1015.075; -963.864
701.299;  -52.689; -450.075; -483.865
701.566;  107.163;  950.925;  763.135
701.832;   26.240;  -31.075;  -76.865
702.098;  -94.483;-1054.074;-1034.866
702.365;  -85.906;-1098.074;-1030.866
702.631;  -29.279;-1038.074;-1063.867
702.897; 1373.172; -765.074; -676.867
703.163; 2371.649;  348.926;  254.133
703.429;  166.951; -256.073; -273.868
703.695;  -30.697; -796.073; -792.868
703.961;   19.155; -214.073; -210.868
704.227;  -57.668; -630.073; -725.869
704.493;  124.908;  613.927;  510.131
704.759;  -25.840; -565.072; -540.870
705.025;   21.387; -203.072; -194.870
705.291;  -18.086; -666.072; -562.870
705.557;  171.866;  719.928;   34.129
705.823;   32.768; -742.072; -694.871
706.089;  150.845; -307.071; -326.871
706.355;  336.646; -315.071; -244.872
706.620; 5167.473; -776.071; -729.872
706.886; 7732.975; -309.071; -362.873
707.152;  746.227; -818.070; -973.873
707.418;  -13.121;-1153.070;-1186.873
707.683;    1.606; -550.070; -530.874
707.949;  -44.418; -547.070; -578.874
708.215;   -6.066; -129.070; -207.874
708.480;  -32.989; -520.069; -420.875
708.746;   89.413;   68.931;   28.125
709.011;  -52.110; -578.069; -612.876
709.277;  -85.908; -538.069; -543.876
709.542;  -40.032; -428.069; -387.876
709.808;    5.970;  -59.068;   89.123
710.073;  -76.428; -577.068; -695.877
710.339;  -41.776; -242.068; -228.877
710.604;   79.351; -780.068; -845.878
710.869;  334.928; -277.068; -366.878
711.135;  -62.996; -715.067; -628.879
711.400;  -86.919; -507.067; -608.879
711.665;  -58.867; -404.067; -479.879
711.931;  -89.440; -661.067; -677.880
712.196; -118.913; -876.067; -954.880
712.461;   97.489; -402.066; -490.880
712.726;  145.140; -727.066; -771.881
712.991;  -84.933; -647.066; -664.881
713.256;  -49.881; -350.066; -332.882
713.521;  -69.829; -417.065; -381.882
713.787;  -66.577; -454.065; -472.882
714.052;  -44.000; -214.065; -400.883
714.317;  -98.973;-1045.065; -981.883
714.581;  957.178; -374.065; -268.883
714.846; 1392.580; -822.064; -888.884
715.111;  122.432;  261.936;  257.116
715.376;  -30.016;  -86.064; -223.885
715.641;  -23.614; -365.064; -367.885
715.906;  298.613;   15.936; -551.885
716.171;  121.364;  221.937;  209.114
716.436;   32.116;  -78.063; -104.886
716.700; -109.432; -818.063; -692.886
716.965; -124.630; -794.063; -807.887
717.230;  -83.053; -339.063; -392.887
717.494;  -18.701;  -40.062; -134.888
717.759;  -93.575; -784.062; -640.888
718.024;    5.202;  269.938;  250.112
718.288;   75.679;  685.938;  395.111
718.553; -144.769; -803.062; -977.889
718.817; -145.642; -883.061; -899.889
719.082;  -48.065; -115.061; -125.890
719.346; -138.439;-1000.061; -947.890
719.611;  -58.087; -300.061; -255.891
719.875; -106.485; -568.060; -537.891
720.140;  -71.583; -453.060; -603.891
720.404;   36.594; -136.060; -249.892
720.668;  888.146; -475.060; -411.892
720.933;  374.047;  146.940;  137.108
721.197;  -92.626; -667.059; -600.893
721.461; -131.699; -851.059; -826.893
721.725;  -10.197;  -21.059; -250.894
721.990;  -53.570; -284.059; -204.894
722.254;  -29.293;  -26.059; -108.894
722.518;  -81.842; -286.058; -442.895
722.782; -104.565; -743.058; -594.895
723.046;  109.637;  614.942;  570.105
723.310;   28.614;  374.942;  210.104
723.574; -109.834; -654.058; -614.896
723.838; -110.807; -576.057; -642.897
724.102;  -54.205; -226.057; -239.897
724.366; -147.354;-1032.057; -978.897
724.630; -105.227; -749.057; -571.898
724.894;  -72.000; -722.057; -514.898
725.158;    3.602;   38.944; -295.898
725.422;  -47.596; -394.056; -327.899
725.685;  -69.644; -441.056; -349.899
725.949;  -78.143; -566.056; -519.900
726.213;  -68.441; -732.056; -811.900
726.477;  173.886;-1020.055; -933.900
726.740;  162.313; -274.055; -104.901
727.004;  313.590; -384.055; -510.901
727.268; 3224.142; -442.055; -400.901
727.531;  955.568; -961.055; -775.902
727.795;  -53.855; -713.054; -673.902
728.059;  -60.778; -552.054; -557.903
728.322;  -83.451; -841.054; -669.903
728.586;   24.376; -692.054; -701.903
728.849;  -74.772; -695.053; -756.904
729.112; -105.871; -812.053; -912.904
729.376; -118.219; -959.053; -905.904
729.639;  -72.517; -536.053; -536.905
729.903; -116.165; -733.053; -699.905
730.166;  -46.088; -437.052; -399.906
730.429;  -41.961; -317.052; -468.906
730.693;  -75.110; -355.052; -894.906
730.956;  194.367;  810.948;  651.093
731.219;  729.919; -310.052; -103.907
731.482;  116.921;-1003.051; -894.907
731.745;  119.598; -794.051; -935.908
732.009;   13.075;  -30.051;   50.092
732.272; -102.524; -904.051; -771.909
732.535;  -46.472; -300.051; -310.909
732.798; -156.820;-1083.050;-1166.909
733.061;  -56.918; -430.050; -456.910
733.324;    5.009;   31.950; -180.910
733.587;   67.186;  290.950;  365.090
733.850;  -70.612; -973.049;-1050.911
734.113;   31.164;   33.951;   32.089
734.376;   10.141; -328.049; -447.912
734.639;  201.843; 1188.951; 1011.088
734.901;   59.045; -180.049; -402.912
735.164;  490.597; -883.048; -837.913
735.427; 1367.024; -166.048; -355.913
735.690;  129.150; -205.048; -234.913
735.952;  -30.198; -923.048; -925.914
736.215;  -30.546;-1113.048;-1009.914
736.478;   53.881; -771.047; -774.915
736.740;  210.458;   33.953;  129.085
737.003;  676.110; -658.047; -672.915
737.266; 4318.086;  -94.047;   46.084
737.528;  461.913; -682.047; -660.916
737.791;  308.115; -316.046; -327.916
738.053;  775.892;  465.954;  649.083
738.316;10440.694; -162.046; -136.917
738.578; 7876.396; -770.046; -736.918
738.841;  444.272; -382.046; -446.918
739.103;  185.674; -875.045; -777.918
739.365;  540.426;   79.955;  -69.919
739.628;    2.153; -884.045; -805.919
739.890;  -31.020; -758.045; -710.919
740.152;  -30.993; -692.044; -754.920
740.414;  -14.117; -408.044; -359.920
740.677;  -51.665; -785.044; -634.921
740.939;  -35.563; -587.044; -487.921
741.201;  291.189; -432.044; -572.921
741.463;   52.491; -689.043; -745.922
741.725;    3.668;  -21.043; -199.922
741.987;   42.520;  220.957;  116.078
742.249;   28.446; -751.043; -859.923
742.511;  242.998; -703.043; -794.923
742.773;   22.725; -546.042; -546.924
743.035;  125.152;  796.958;  533.076
743.297;  -23.571; -963.042;-1013.924
743.559;  750.656; -278.042; -262.925
743.821;   82.282; -735.042; -744.925
744.083;    7.684;  -44.041; -149.925
744.345;  -85.439; -869.041; -892.926
744.607;   28.638;   75.959;  122.074
744.868;  -43.335; -490.041; -554.927
745.130; -111.208; -994.041;-1008.927
745.392;   36.418;   -1.040;  -44.927
745.653;  -17.030; -411.040; -378.928
745.915;  142.322;  896.960;  631.072
746.177;   70.649;   35.960;  -43.928
746.438;    7.401; -428.040; -543.929
746.700;  -42.197; -947.039; -988.929
746.961;    4.554; -659.039; -740.930
747.223;  128.531; -190.039;  -74.930
747.484;   82.683; -391.039; -471.930
747.746;  146.210;  -23.038; -106.931
748.007;  113.462; -647.038; -689.931
748.269;  310.164; -468.038; -440.931
748.530;  481.115; -852.038; -638.932
748.791;  274.992; -354.038; -420.932
749.053;  443.644;  286.963;  163.067
749.314;  465.621; -236.037; -169.933
749.575;  549.048; -945.037; -905.933
749.836;  848.100; -217.037;   86.066
750.098; 2403.976;  -60.037;  -21.934
750.359;37289.653;  414.964;  555.066
750.620;10137.205; -121.036; -220.935
750.881; 1057.232; -585.036; -513.935
751.142; 1392.959; -950.036; -938.936
751.403;16512.611; -789.036; -705.936
751.664; 7835.863;-1034.035; -999.936
751.925;  507.289; -175.035; -262.937
752.186;  286.016; -298.035; -278.937
752.447;  132.743; -590.035; -445.937
752.708;   54.145; -532.035; -648.938
752.969;    9.947; -566.034; -576.938
753.230;   -1.526; -777.034; -672.939
753.491;  -11.875; -650.034; -631.939
753.751;   66.227;  109.966;   19.061
754.012;   85.954;  258.967;  181.060
754.273;   67.406; -174.033;  -71.940
754.534;    2.458; -487.033; -580.940
754.794;  -89.565; -926.033; -911.941
755.055;  144.136; 1051.967;  881.059
755.316;  -36.787; -700.032; -566.942
755.576;  -27.660; -606.032; -576.942
755.837;  -42.383; -527.032; -695.942
756.097;  -39.456; -530.032; -564.943
756.358;  -66.379; -725.032; -770.943
756.618;  -52.103; -705.031; -641.943
756.879;   13.774; -254.031; -349.944
757.139; -113.349;-1098.031;-1116.944
757.400;  -52.947; -538.031; -553.945
757.660;  -22.270; -365.031; -401.945
757.920;   18.932; -266.030; -228.945
758.181;  -24.117; -468.030; -351.946
758.441;  -97.765; -870.030; -809.946
758.701;  -25.813; -308.030; -215.946
758.961;  -20.336; -220.030; -278.947
759.222;  -44.609; -574.029; -502.947
759.482;  -89.082; -683.029; -723.948
759.742;  -75.606; -706.029; -547.948
760.002;    7.321;  -83.029; -143.948
760.262;   17.748;   50.972;  182.051
760.522;  -40.525; -498.028; -574.949
760.782;  -46.748; -738.028; -612.949
761.042;  -35.396; -618.028; -573.950
761.302;   48.781;   55.972;  -18.950
761.562;   49.632; -164.027; -154.951
761.822;   93.909; -710.027; -551.951
762.082;  -42.914;-1104.027;-1093.951
762.342;   56.863; -328.027; -403.952
762.601;   84.890; -567.027; -506.952
762.861;  361.667; -281.026; -207.952
763.121;  404.668; -406.026; -411.953
763.381; 7116.845; -499.026; -485.953
763.640; 8476.297; -139.026; -307.954
763.900;  358.124; -242.026; -203.954
764.160;   91.626; -458.025; -491.954
764.419;  -14.247; -726.025; -782.955
764.679;  -67.996; -795.025; -726.955
764.939;  -13.244; -124.025; -210.955
765.198;  -74.042; -608.025; -563.956
765.458;  -92.465; -710.024; -612.956
765.717;  -83.188; -454.024; -590.957
765.976;  -57.411; -428.024; -411.957
766.236;  -76.035; -475.024; -610.957
766.495;    5.692;  260.977;   73.042
766.755;  -79.906;-1090.023; -987.958
767.014;    3.521; -594.023; -665.958
767.273;  -57.177; -373.023; -397.959
767.533;  -62.225; -228.023; -307.959
767.792;  -37.649; -151.022; -188.960
768.051;  -61.897; -228.022; -276.960
768.310;  -90.920; -546.022; -650.960
768.569;  -19.043; -161.022;    4.039
768.828;  -27.941; -285.022; -363.961
769.088; -113.514;-1050.021; -942.961
769.347;  -74.712; -755.021; -599.962
769.606;  -93.161; -876.021; -857.962
769.865; -111.009;-1016.021;-1033.963
770.124;   -8.807; -411.021; -336.963
770.383;  -61.555; -778.020; -910.963
770.641;    2.472; -398.020; -400.964
770.900;  -58.576; -953.020; -846.964
771.159;  -49.825; -851.020; -951.964
771.418;   -5.373; -917.020; -779.965
771.677;  105.729; -224.019; -293.965
771.936;  136.956; -794.019; -865.966
772.194; 1949.583; -465.019; -437.966
772.453;10992.835; -213.019; -391.966
772.712;  793.361;  416.982;  329.033
772.970;  117.813;   32.982;   63.033
773.229;   76.540;  -22.018;  102.033
773.488;  -88.583; -814.018; -770.968
773.746;   49.644;  296.982;  335.032
774.005;    0.196;  190.983;  -22.969
774.263;    4.422;  243.983;  177.031
774.522;  -51.151; -422.017; -548.969
774.780;  -83.224; -484.017; -417.970
775.039;  -85.772; -551.017; -531.970
775.297;  -19.195; -135.016; -351.970
775.555; -111.093; -489.016; -612.971
775.814; -122.267; -618.016; -570.971
776.072; -123.290; -749.016; -740.971
776.330; -113.338; -630.016; -520.972
776.589; -113.261; -703.015; -721.972
776.847; -122.884; -645.015; -624.973
777.105; -170.682;-1016.015;-1032.973
777.363;  -95.256; -459.015; -454.973
777.621; -136.604; -660.015; -717.974
777.879;  -32.402;  -42.014;   32.026
778.138;  -89.225; -554.014; -717.974
778.396; -107.198; -585.014; -526.975
778.654; -164.346;-1015.014; -970.975
778.912;  -61.294; -269.014; -371.976
779.170; -129.318; -880.013; -803.976
779.427; -143.416; -922.013; -897.976
779.685; -133.464; -880.013; -832.977
779.943;  -90.287; -654.013; -593.977
780.201; -164.110; -964.012; -883.978
780.459; -122.808; -651.012; -610.978
780.717;  -83.407; -440.012; -390.978
780.974;  -94.030; -449.012; -490.979
781.232;  -84.878; -358.012; -338.979
781.490;  -78.126; -551.011; -472.979
781.747; -100.949; -555.011; -476.980
782.005;   10.428;  462.989;  254.020
782.263; -166.896; -542.011;-1004.981
782.520;  -82.119; -326.011; -501.981
782.778; -166.242;-1013.010;-1051.981
783.035; -168.165; -962.010; -938.982
783.293;  -56.663; -248.010; -206.982
783.550;  -73.086; -134.010; -198.982
783.808; -119.660; -764.010; -776.983
784.065; -159.258; -745.009; -874.983
784.322;  -48.781;   25.991;  -86.984
784.580; -141.879; -915.009; -771.984
784.837;  -93.102; -392.009; -466.984
785.094; -138.275; -783.009; -762.985
785.352;  -74.899; -304.008; -404.985
785.609; -102.022; -934.008; -839.985
785.866;  -87.070; -345.008; -401.986
786.123;  -69.643; -639.008; -583.986
786.380;  -93.991; -665.008; -604.987
786.637;  -66.464; -225.007; -380.987
786.895;  -20.237; -456.007; -543.987
787.152;  -47.061; -135.007; -267.988
787.409;  -51.584; -123.007; -225.988
787.666;  -92.832; -299.006; -378.988
787.923; -127.830; -616.006; -695.989
788.179; -107.353; -551.006; -584.989
788.436; -103.226; -585.006; -585.990
788.693;  -31.700;  -92.006;  -87.990
788.950;  157.002; -125.005; -112.990
789.207;  256.579; -381.005; -372.991
789.464;  -52.694; -161.005; -301.991
789.720;  -18.317;  150.995;  110.009
789.977; -179.690;-1003.005; -671.992
790.234;  -33.889;   44.996;  -66.992
790.490; -149.887; -884.004;-1031.993
790.747;  -33.660;  -85.004;   22.007
791.004;   -8.858; -426.004; -348.993
791.260;  -81.581; -430.004; -560.994
791.517; -107.729; -843.003; -788.994
791.773;  -49.553; -379.003; -342.994
792.030; -104.551; -596.003; -660.995
792.286; -105.549; -686.003; -636.995
792.543;  -14.972;  -74.002; -159.995
792.799;  -63.220; -584.002; -382.996
793.055; -157.193;-1179.002;-1210.996
793.312; -108.242; -827.002; -816.997
793.568;  -49.740; -746.002; -599.997
793.824;   13.737; -226.001; -284.997
794.081;   14.839; -447.001; -508.998
794.337;   60.291; -664.001; -561.998
794.593; 1198.143; -319.001; -271.999
794.849; 6689.019; -746.001; -772.999
795.105;  357.546; -270.000; -261.999
795.361;    9.298; -490.000; -457.000
795.617;  -55.825; -875.000; -945.000
795.873;  -50.875; -360.000; -407.000
796.129;  -43.225; -368.000; -306.000
796.385;  -16.750; -124.000; -156.000
796.641;   66.025;  412.000;  550.000
796.897;  -86.675; -666.000; -635.000
797.153;   62.325;  453.000;  357.000
797.409; -108.025; -785.000; -868.000
797.665;  -66.625; -625.000; -732.000
797.921;  -79.150; -775.000; -762.000
798.176;  -51.725; -744.000; -747.000
798.432;  -48.450; -824.000; -596.000
798.688;  -84.100;-1174.000;-1078.000
798.943;   86.400; -165.000; -147.000
799.199;   11.175;-1005.000; -959.000
799.455;  225.900;  369.000;  316.000
799.710;  116.425; -813.000; -380.000
799.966;  296.300; -162.000; -160.000
800.221;  457.750; -638.000; -721.000
800.477; 9818.600; -743.000; -710.000
800.732; 9773.950; -773.000; -800.000
800.988;  614.075;  205.000;  -19.000
801.243; 1557.750; -454.000; -344.000
801.498; 7417.100; -814.000; -739.000
801.754;  445.175; -289.000; -163.000
802.009;   71.950; -257.000; -335.000
802.264;  -46.300; -967.000;-1033.000
802.520;   20.825;  222.000;   -3.000
802.775;  -47.725; -524.000; -359.000
803.030;   46.375;  395.000;  356.000
803.285; -111.800; -840.000; -903.000
803.540;  -63.250; -686.000; -699.000
803.795;  -51.100; -648.000; -583.000
804.051;  -44.350; -279.000; -346.000
804.306;   14.800;  168.000;  128.000
804.561;  151.150;  451.000;  362.000
804.816;  135.625;  714.000;  861.000
805.071;    1.425; -185.000; -280.000
805.325;  222.325; -257.000; -427.000
805.580; -118.500; -841.000; -877.000
805.835;  -18.150; -204.000; -297.000
806.090;  -89.350; -760.000; -676.000
806.345;   -4.500; -344.000; -264.000
806.600;  -25.400; -549.000; -632.000
806.854;  -34.500; -408.000; -538.000
807.109;  -19.675; -493.000; -577.000
807.364;   -9.400; -407.000; -328.000
807.618;   -1.175; -415.000; -381.000
807.873;   53.150; -470.000; -494.000
808.128;   98.075; -257.000; -518.000
808.382;  114.775; -224.000; -332.000
808.637;   57.350; -440.000; -511.000
808.891;  173.575; -257.000; -180.000
809.146;  103.600; -902.000; -794.000
809.400;  280.875; -848.000; -923.000
809.654;  349.825; -779.000; -551.000
809.909;  513.050; -841.000; -927.000
810.163; 6326.425; -813.000; -651.000
810.418;18321.825; -940.000; -861.000
810.672; 1134.650; -685.000; -690.000
810.926;  728.175; -993.000; -973.000
811.180; 1327.450; -439.000; -372.000
811.434;30193.225;  240.000;  135.000
811.689;13678.300; -231.000; -365.000
811.943;  674.950; -936.000; -953.000
812.197;  332.525; -893.000; -671.000
812.451;  129.300; -379.000; -514.000
812.705;  -32.300; -809.000; -619.000
812.959;    1.300; -263.000; -388.000
813.213;  -14.200; -283.000; -209.000
813.467;   70.125;  470.000;  253.000
813.721; -104.600; -764.000; -792.000
813.975; -107.300; -826.000; -877.000
814.229;   45.325;  430.000;  353.000
814.482;  -68.650; -517.000; -566.000
814.736; -115.800; -766.000; -744.000
814.990; -129.825; -779.000; -872.000
815.244;  -53.775; -228.000; -285.000
815.497;  -98.950; -636.000; -601.000
815.751;  -15.325; -141.000;   82.000
816.005;  -90.150; -470.000; -586.000
816.258;  -65.425; -510.000; -363.000
816.512; -103.600; -693.000; -610.000
816.766;   -1.050;  121.000;  157.000
817.019;   11.125;  148.000;  149.000
817.273; -110.050;-1000.000; -802.000
817.526;  -42.500; -206.000; -173.000
817.779;  -35.825;-1049.000; -960.000
818.033;  -76.650; -693.000; -807.000
818.286; -109.525; -725.000; -792.000
818.540;  -91.975; -403.000; -403.000
818.793;  -81.825; -402.000; -489.000
819.046; -109.425; -582.000; -520.000
819.299;  -52.025; -157.000; -166.000
819.553;  -96.250; -552.000; -592.000
819.806; -153.025;-1016.000; -838.000
820.059;  -68.900; -334.000; -354.000
820.312;    2.925;  152.000;  185.000
820.565;  -18.400;  110.000;  -27.000
820.818;  -54.950;  -59.000; -173.000
821.071; -160.750;-1041.000; -957.000
821.324; -120.675; -536.000; -540.000
821.577;  -97.925; -457.000; -483.000
821.830;  -69.350; -270.000; -172.000
822.083; -124.625; -733.000; -288.000
822.336;  -65.075; -261.000; -167.000
822.589; -132.150; -805.000; -688.000
822.842; -144.175; -875.000; -770.000
823.094; -188.000;-1076.000;-1114.000
823.347; -137.025; -925.000; -729.000
823.600;    7.000;  402.000;  187.000
823.853;  -56.400; -311.000; -267.000
824.105;  -64.300; -331.000; -575.000
824.358; -112.700; -617.000; -716.000
824.611;   29.900;  234.000;   40.000
824.863;  -65.175; -612.000; -591.000
825.116;   43.475;  -33.000;   27.000
825.368;   66.525; -366.000; -372.000
825.621;  177.375; -186.000; -240.000
825.873;   87.350; -704.000; -737.000
826.126;  543.225; -669.000; -641.000
826.378;11404.475; -389.000; -505.000
826.630; 3197.675; -890.000; -898.000
826.883;   35.750; -754.000; -693.000
827.135;   50.225; -279.000; -270.000
827.387; -115.725; -893.000; -839.000
827.639;  -38.150;  -86.000;   32.000
827.892; -120.675; -742.000; -582.000
828.144; -138.100; -848.000; -804.000
828.396;  -39.525;  104.000;  -80.000
828.648; -100.775; -440.000; -333.000
828.900; -146.600; -702.000; -795.000
829.152; -118.625; -684.000; -683.000
829.404;  -73.275; -215.000; -267.000
829.656;  -23.225;  321.000;  214.000
829.908;  -21.925;  393.000;  229.000
830.160; -170.200;-1064.000;-1047.000
830.412; -108.150; -481.000; -430.000
830.664; -113.175; -557.000; -665.000
830.916;  -81.800; -268.000; -206.000
831.167; -177.650;-1073.000; -951.000
831.419; -117.800; -623.000; -566.000
831.671; -154.150; -764.000; -809.000
831.923;  -79.925; -311.000; -447.000
832.174;  -78.175; -273.000; -331.000
832.426; -128.550; -493.000; -582.000
832.678; -186.200;-1043.000;-1091.000
832.929; -160.625; -947.000; -935.000
833.181;  -70.750; -575.000; -677.000
833.432;  -56.125;  -59.000; -186.000
833.684;  -24.975;  112.000;  -27.000
833.935; -126.750; -610.000; -566.000
834.187; -130.850; -829.000; -823.000
834.438;  -44.325;  -58.000;  -25.000
834.689;  -57.750; -255.000; -123.000
834.941;  -60.125; -343.000; -244.000
835.192;  -99.625; -590.000; -533.000
835.443; -111.225; -419.000; -506.000
835.695;  -18.725;  138.000;  -16.000
835.946; -101.750; -608.000; -378.000
836.197; -117.000; -599.000; -622.000
836.448;  -93.625; -528.000; -395.000
836.699;  -63.700; -253.000; -341.000
836.950;  -31.850;   72.000;    7.000
837.201; -147.250;-1003.000; -987.000
837.452;  -53.700; -356.000; -170.000
837.703; -105.225; -791.000; -737.000
837.954;  -54.575; -205.000; -365.000
838.205;  -85.075;-1029.000;-1008.000
838.456;  173.625; -196.000; -282.000
838.707;    5.600; -423.000; -519.000
838.958;   15.250; -634.000; -647.000
839.209;  295.000;   18.000;   40.000
839.460;  109.125; -439.000; -201.000
839.710;  171.925; -135.000; -297.000
839.961;  418.925;  730.000;  612.000
840.212;  342.800; -382.000; -497.000
840.462; 1053.800; -328.000; -277.000
840.713;17465.550; -571.000; -536.000
840.964; 7981.200;  -62.000; -143.000
841.214;  548.300; -384.000; -624.000
841.465;  597.800; -214.000; -141.000
841.715;  523.375; -417.000; -380.000
841.966;  685.125; -746.000; -685.000
842.216; 8665.050; -330.000; -431.000
842.466;36969.475; -169.000; -313.000
842.717; 2318.775; -964.000; -952.000
842.967;  342.275; -635.000; -641.000
843.217;  295.125;   20.000;   28.000
843.468;   65.400; -104.000; -132.000
843.718;  -30.825; -718.000; -726.000
843.968;  -87.575; -837.000; -765.000
844.218;    3.675; -315.000; -262.000
844.469;  -47.900; -577.000; -561.000
844.719; -115.625; -537.000; -682.000
844.969;  -98.750; -550.000; -580.000
845.219; -141.575; -814.000; -862.000
845.469;  -75.250; -392.000; -342.000
845.719; -133.675; -792.000; -884.000
845.969;  -20.200;  119.000;  174.000
846.219; -117.275; -738.000; -720.000
846.469;   18.625;  464.000;  432.000
846.718;  -48.250; -115.000;   31.000
846.968; -149.175; -827.000; -827.000
847.218;  -47.725; -224.000; -371.000
847.468;  -96.050; -586.000; -555.000
847.718; -148.900; -827.000; -798.000
847.967; -145.225; -826.000; -915.000
848.217;  -89.650; -449.000; -569.000
848.467;  -69.350; -405.000; -376.000
848.716; -114.400; -708.000; -725.000
848.966;   -4.000; -372.000; -358.000
849.215;  -67.850; -428.000; -419.000
849.465;  -93.925; -785.000; -615.000
849.714; -143.525;-1132.000;-1150.000
849.964;  -53.700; -551.000; -613.000
850.213;  -31.850; -393.000; -355.000
850.463;   81.200;  137.000;  340.000
850.712;   13.425; -542.000; -567.000
850.961;    9.250; -739.000; -678.000
851.211;   85.475; -513.000; -504.000
851.460;  160.650; -635.000; -650.000
851.709;  535.025;  -25.000;   18.000
851.958; 9718.525; -912.000; -750.000
852.208;13522.150; -859.000; -879.000
852.457;  508.025; -181.000;  -13.000
852.706;   84.450; -791.000; -823.000
852.955;   16.325; -507.000; -528.000
853.204;  -62.325; -521.000; -461.000
853.453;  -72.675; -418.000; -458.000
853.702; -123.700; -660.000; -750.000
853.951; -107.275; -532.000; -520.000
854.200; -112.675; -613.000; -562.000
854.449; -141.625; -695.000; -661.000
854.698; -110.800; -340.000; -279.000
854.946;  -67.900; -181.000; -284.000
855.195; -155.225; -843.000; -868.000
855.444;  -99.325; -395.000; -420.000
855.693; -112.825; -345.000; -432.000
855.941; -119.250; -387.000; -516.000
856.190;  -55.125; -256.000; -382.000
856.439; -137.025; -652.000; -703.000
856.687;  -53.975;  -99.000;  -72.000
856.936; -126.450; -621.000; -323.000
857.184; -183.925;-1067.000;-1020.000
857.433; -101.225; -423.000; -512.000
857.681; -173.900; -989.000; -953.000
857.930;  -70.725; -282.000; -433.000
858.178; -170.325; -856.000; -929.000
858.427; -146.950; -802.000; -781.000
858.675; -126.750; -377.000; -544.000
858.923; -105.500; -527.000; -819.000
859.172; -181.825;-1094.000;-1070.000
859.420;  -97.475; -339.000; -239.000
859.668; -134.700; -624.000; -628.000
859.916;  -36.500;  109.000;  115.000
860.164; -116.525; -699.000; -603.000
860.413;  288.600; -878.000; -696.000
860.661;  285.700; -709.000; -577.000
860.909;  -95.350; -339.000; -325.000
861.157;  -92.425; -277.000; -444.000
861.405; -133.850; -534.000; -670.000
861.653;    7.300;  310.000;  310.000
861.901;  178.375; -543.000; -613.000
862.149;   25.275; -801.000; -824.000
862.396;  -82.050; -297.000; -187.000
862.644;  -93.300; -368.000; -347.000
862.892;  -39.975;   98.000;  138.000
863.140; -116.850; -549.000; -530.000
863.388; -155.575; -815.000; -759.000
863.635; -135.650; -642.000; -601.000
863.883;  -30.925;  231.000;  190.000
864.131;  -95.475; -288.000; -357.000
864.378; -142.250; -675.000; -540.000
864.626; -101.325; -347.000; -415.000
864.873; -128.850; -556.000; -505.000
865.121; -145.550; -714.000; -799.000
865.368;  -39.550; -173.000;   75.000
865.616;  -45.050;  -33.000;  -40.000
865.863;  -81.225; -462.000; -506.000
866.111; -113.950; -795.000; -824.000
866.358;    9.850; -426.000; -420.000
866.605; 1990.525;  -64.000; -804.000
866.853; 2337.425; -621.000; -537.000
867.100;  -55.650; -728.000; -775.000
867.347; -100.125; -672.000; -611.000
867.594;  -79.525; -740.000; -714.000
867.841;   86.075;   97.000;   17.000
868.089; -134.675; -746.000; -698.000
868.336; -122.025; -477.000; -420.000
868.583; -150.450; -637.000; -741.000
868.830;  -65.750; -131.000; -170.000
869.077; -179.975; -859.000; -787.000
869.324; -138.200; -502.000; -458.000
869.571; -135.250; -398.000; -430.000
869.818; -128.225; -485.000; -439.000
870.065; -101.700; -439.000; -513.000
870.311; -115.250; -456.000; -542.000
870.558; -104.950; -332.000; -311.000
870.805;  -89.050; -320.000; -384.000
871.052; -116.900; -494.000; -369.000
871.298;  -57.900; -204.000; -131.000
871.545;  -68.150; -151.000; -185.000
871.792; -101.225; -173.000; -222.000
872.038;  -76.200;   43.000; -126.000
872.285; -132.850; -496.000; -387.000
872.532;  -93.600; -357.000; -387.000
872.778;   14.375;  556.000;  403.000
873.025;  -94.200; -384.000; -359.000
873.271;   17.850;  501.000;  578.000
873.517;  -34.750; -133.000; -209.000
873.764;  -34.125; -193.000;  -80.000
874.010;  -64.275; -143.000; -230.000
874.257;  -41.900;  123.000;   90.000
874.503; -130.550; -579.000; -479.000
874.749;  -76.125;   31.000;  275.000
874.995;  -74.600;  -80.000;  -20.000
875.242; -129.525; -540.000; -478.000
875.488; -118.150; -414.000; -439.000
875.734;  -67.275; -106.000; -234.000
875.980;  182.925; -872.000;-1032.000
876.226;  422.275; -157.000; -255.000
876.472;   -9.100;  343.000;  237.000
876.718;  -47.525;  184.000;  158.000
876.964;  -39.550;   56.000;   55.000
877.210; -152.100; -547.000; -677.000
877.456; -131.300; -630.000; -557.000
877.702; -185.275; -821.000; -832.000
877.948; -122.175; -377.000; -497.000
878.193;   -1.600;  361.000;  255.000
878.439;  -93.250; -487.000; -472.000
878.685;  -94.575; -272.000; -343.000
878.931; -139.725; -618.000; -676.000
879.176;  -94.450; -201.000; -201.000
879.422; -186.525; -933.000; -820.000
879.668;   49.975;   10.000;   79.000
879.913;  160.775;   53.000;  137.000
880.159;  -50.825; -112.000;  -17.000
880.404;  -57.900; -152.000; -162.000
880.650;  -56.500;   91.000;  141.000
880.895; -154.775; -670.000; -710.000
881.141; -113.000; -454.000; -428.000
881.386; -160.150; -503.000; -658.000
881.631;  -94.700; -311.000; -166.000
881.877;  -43.575;  112.000;  -13.000
882.122; -139.125; -684.000; -600.000
882.367;  -86.275; -136.000; -186.000
882.612;  -85.475;  -80.000; -176.000
882.858; -176.525; -877.000; -823.000
883.103; -108.300; -297.000; -267.000
883.348; -168.475; -759.000; -852.000
883.593; -154.525; -677.000; -602.000
883.838;  -55.675; -311.000;  -24.000
884.083;   21.175;  353.000;  288.000
884.328;  -93.225; -564.000; -545.000
884.573;  -50.625; -196.000; -143.000
884.818;  188.700; -694.000; -531.000
885.063;  224.575; -348.000; -315.000
885.308;  -96.925; -475.000; -398.000
885.553;  -23.625;  245.000;  325.000
885.797; -121.425; -545.000; -615.000
886.042;  -59.650;    8.000;   58.000
886.287;  -94.100; -253.000; -211.000
886.532;  -52.825;   26.000;  204.000
886.776; -109.700; -407.000; -525.000
887.021; -149.000; -621.000; -574.000
887.265; -154.275; -685.000; -689.000
887.510; -129.200; -557.000; -496.000
887.755;  -85.975; -194.000; -164.000
887.999; -148.325; -552.000; -575.000
888.244;  -59.350;  -58.000;  161.000
888.488;   -9.400;  371.000;  393.000
888.732; -123.950; -368.000; -520.000
888.977; -127.725; -622.000; -567.000
889.221; -140.275; -683.000; -659.000
889.465; -135.575; -422.000; -566.000
889.710;  -89.300;  -56.000; -299.000
889.954;  -12.675;  579.000;  467.000
890.198; -143.625; -584.000; -707.000
890.442; -157.325; -716.000; -712.000
890.687; -164.600; -800.000; -753.000
890.931;  -99.000; -273.000; -210.000
891.175; -138.700; -502.000; -500.000
891.419; -102.100; -105.000; -110.000
891.663;  -97.625; -239.000; -112.000
891.907; -161.925; -801.000; -545.000
892.151; -170.600; -920.000; -815.000
892.395; -122.825; -274.000; -387.000
892.638;  -25.450;  408.000;  291.000
892.882; -181.475; -780.000; -867.000
893.126;   10.125;  758.000;  558.000
893.370;  -79.075; -167.000; -168.000
893.614; -138.000; -714.000; -715.000
893.857; -104.250; -183.000; -197.000
894.101; -141.375; -527.000; -631.000
894.345;  -53.350;  300.000;  150.000
894.588;    9.625;  569.000;  380.000
894.832;  -95.950; -178.000;  -84.000
895.075;  -74.975;   15.000;  -92.000
895.319; -144.625; -552.000; -420.000
895.563; -122.550; -413.000; -353.000
895.806; -150.550; -628.000; -741.000
896.049;  -73.525; -576.000; -368.000
896.293;   90.600;  527.000;  405.000
896.536;  -58.925; -465.000; -468.000
896.779;  -69.075; -149.000;   -1.000
897.023; -140.375; -751.000; -714.000
897.266;  -28.500;  325.000;  269.000
897.509; -183.300; -900.000; -901.000
897.752;  -39.925;  149.000;  171.000
897.996; -193.175; -972.000; -864.000
898.239;  -44.400;  168.000;  102.000
898.482; -120.250; -431.000; -453.000
898.725;  -42.950;  101.000;   53.000
898.968; -153.925; -609.000; -744.000
899.211; -118.900; -513.000; -361.000
899.454; -119.150; -633.000; -539.000
899.697;  -81.575;   90.000;  -43.000
899.940; -159.875; -761.000; -757.000
900.182; -113.350; -335.000; -405.000
900.425; -117.325; -150.000; -298.000
900.668;  -35.975;  491.000;  350.000
900.911; -110.900; -292.000; -345.000
901.154;  -43.600;  141.000;   -3.000
901.396; -139.550; -407.000; -412.000
901.639; -151.425; -430.000; -496.000
901.882; -181.725; -790.000; -809.000
902.124;  -86.775;  -29.000; -143.000
902.367; -123.475; -315.000; -361.000
902.609; -148.250; -476.000; -453.000
902.852;  -94.425; -108.000; -260.000
903.094; -124.275; -458.000; -337.000
903.337;  -59.975;  -26.000;   53.000
903.579; -123.825; -228.000; -441.000
903.821; -154.125; -597.000; -744.000
904.064;  -56.550;   85.000;  127.000
904.306;  -77.575; -126.000; -166.000
904.548; -110.275; -152.000; -366.000
904.790; -101.250; -195.000; -340.000
905.033; -136.325; -625.000; -577.000
905.275; -132.075; -513.000; -524.000
905.517;   31.125;  468.000;  256.000
905.759;  -72.700; -667.000; -761.000
906.001; -113.975; -322.000; -369.000
906.243;  -63.550; -162.000; -224.000
906.485;  116.450; -265.000; -207.000
906.727;  117.325; -499.000; -542.000
906.969;  -30.200;  -30.000; -135.000
907.211;  132.075; -316.000; -382.000
907.453;  306.750; -188.000; -237.000
907.695;   24.400; -158.000; -385.000
907.936;   29.400;  818.000;  706.000
908.178;  -70.150;   92.000; -135.000
908.420;  -85.325; -111.000; -162.000
908.662; -132.425; -633.000; -682.000
908.903;  -89.325; -208.000; -123.000
909.145;  -71.400; -240.000; -305.000
909.386;   -1.750;  315.000;  280.000
909.628;   26.850;  363.000;  397.000
909.870;   -5.925;   29.000;  264.000
910.111;  -93.450; -809.000; -949.000
910.353;    4.375; -123.000; -161.000
910.594;    1.900; -574.000; -606.000
910.835;   71.300; -265.000; -326.000
911.077;  152.075; -503.000; -604.000
911.318;  279.675; -505.000; -471.000
911.559;  443.275; -577.000; -880.000
911.801; 1281.575; -284.000; -280.000
912.042; 9726.100;  -50.000; -159.000
912.283;27295.525;  404.000;  371.000
912.524; 4631.575; -396.000; -457.000
912.765;  511.250; -193.000;   79.000
913.006;  260.450; -307.000; -338.000
913.247;   58.700; -270.000; -290.000
913.488;    5.300;  -43.000;   30.000
913.729;  -87.150; -373.000; -373.000
913.970;  -66.525;  -96.000; -292.000
914.211;  -76.800; -160.000; -198.000
914.452;  -64.575; -118.000;  -11.000
914.693;   14.300;  510.000;  592.000
914.934;    2.425;  510.000;  440.000
915.175;  -65.400;   53.000;  -95.000
915.415;  -80.400; -137.000;   27.000
915.656;  -71.400;  -28.000;  192.000
915.897; -103.525; -252.000;  -82.000
916.137;  -75.975;   74.000;   -9.000
916.378; -155.350; -573.000; -517.000
916.619;  -84.200; -159.000;  -63.000
916.859;  -21.425;  303.000;  330.000
917.100;  120.075; 1655.000; 1070.000
917.340;   52.375;  930.000;  728.000
917.581;   50.325;  965.000;  789.000
917.821;  -29.050; -171.000;  143.000
918.061;   10.225; -199.000;  -72.000
918.302;  -59.725; -152.000; -211.000
918.542;  -28.550;  -22.000;    3.000
918.782;   44.750;  369.000;  377.000
919.023;  119.575;  360.000;  427.000
919.263; 1314.275; 8131.000;  202.000
919.503; 1187.425; -137.000;  -54.000
919.743;  666.775;  390.000;  266.000
919.983;  302.150; -134.000;  -26.000
920.223;   84.075;  135.000;   14.000
920.463;  144.400;  631.000;  554.000
920.703;  129.750;   84.000;   39.000
920.943;  164.600; -110.000;   90.000
921.183;  223.125; -414.000; -405.000
921.423;  485.850;  307.000;  546.000
921.663;  704.300; -174.000; -257.000
921.903; 1508.600;  237.000;  173.000
922.143; 8171.550;  372.000;  389.000
922.383;32858.550;  158.000;  115.000
922.622;12365.725; -120.000;  -15.000
922.862; 1277.475;  796.000;  785.000
923.102;  476.375;  -51.000;   33.000
923.341;  194.875;   59.000;   74.000
923.581;   91.400;  450.000;  360.000
923.821;   21.975;  301.000;  398.000
924.060;    7.175;  351.000;  193.000
924.300;  -62.125;  -16.000; -128.000
924.539;  -13.525;  584.000;  473.000
924.779;   -4.200;  812.000;  597.000
925.018;  -49.300;  247.000;  353.000
925.257;  -20.100;  595.000;  666.000
925.497;  -43.150;  447.000;  412.000
925.736;  -89.300;  -35.000;  102.000
925.975;   -7.250;  687.000;  669.000
926.214;   15.950;  907.000;  850.000
926.454;   16.275;  706.000;  757.000
926.693;  -36.175;  419.000;  543.000
926.932;   25.100; 1021.000;  825.000
927.171;   66.100; 1107.000; 1044.000
927.410;   64.550; 1144.000;  967.000
927.649;   21.825;  924.000;  742.000
927.888;  -11.825;  590.000;  564.000
928.127;  -16.900;  680.000;  678.000
928.366;   24.425;  842.000;  826.000
928.605;   31.475;  831.000;  737.000
928.844;  236.175; 1451.000; 1393.000
929.083;  599.375;  770.000;  613.000
929.321;  351.100; 1335.000; 1359.000
929.560;   97.950; 1158.000; 1122.000
929.799;  -22.750;  574.000;  475.000
930.038;   97.250; 1025.000; 1394.000
930.276;  -60.275;  334.000;  397.000
930.515;    1.350;  827.000;  681.000
930.753;   -5.100;  614.000;  589.000
930.992;  -16.625;  664.000;  717.000
931.230;   12.500;  847.000;  847.000
931.469;  165.825; 2162.000;  892.000
931.707;   71.575;  840.000;  751.000
931.946;   48.900; 1278.000; 1344.000
932.184;   55.600; 1437.000; 1175.000
932.423;   48.550; 1265.000;  963.000
932.661;  103.125; 1296.000; 1428.000
932.899;    1.650;  987.000;  821.000
933.137;    2.875;  754.000;  564.000
933.376;  151.825; 1664.000; 1335.000
933.614;  170.400; 1759.000; 1196.000
933.852;   54.975; 1357.000; 1171.000
934.090;  129.225; 1722.000; 1747.000
934.328;   96.175; 1252.000; 1457.000
934.566;   65.375; 1431.000; 1110.000
934.804;  107.450; 1263.000; 1309.000
935.042;  410.375; 1861.000; 1850.000
935.280; 1620.325; 2088.000; 2063.000
935.518; 1679.275; 2113.000; 2007.000
935.756;  379.775; 2481.000; 2316.000
935.994;  163.550; 1808.000; 1751.000
936.231;  353.725; 2890.000; 2950.000
936.469;  206.650; 2367.000; 2378.000
936.707;  156.450; 2220.000; 2167.000
936.945;  226.650; 2825.000; 2882.000
937.182;  202.675; 2679.000; 2741.000
937.420;  316.575; 3602.000; 3031.000
937.657;  428.600; 3365.000; 3478.000
937.895;  353.275; 3331.000; 3488.000
938.133;  323.425; 3540.000; 3528.000
938.370;  328.175; 3896.000; 4191.000
938.607;  376.175; 4488.000; 4205.000
938.845;  547.700; 5587.000; 5549.000
939.082;  492.875; 5387.000; 5177.000
939.320;  557.750; 5799.000; 5728.000
939.557;  629.300; 6549.000; 6491.000
939.794;  706.000; 7285.000; 7097.000
940.031;  903.700; 8421.000; 8368.000
940.269; 1128.400; 9552.000; 9107.000
940.506; 1128.575;10901.000;10507.000

