
Integration time [ms]: 100.000
Averaging Nr. [scans]: 40
Smoothing Nr. [pixels]: 0
Data measured with spectrometer [name]: 2101013U2
Wave   ;Sample   ;Dark     ;Reference
[nm]   ;[counts] ;[counts] ;[counts] 

394.013;   54.503; -450.257; -315.536
394.305;  182.900; -461.258; -419.536
394.596; 1121.272; -676.269; -527.514
394.887; 2789.413; -796.268; -654.518
395.178; 1056.094;  145.736;   11.476
395.470;   81.730; -210.263; -356.526
395.761;  189.003;  305.734;  394.479
396.052;  262.720; -545.284; -306.489
396.343;  234.291; -557.276; -454.503
396.634;   92.134; -200.279; -290.497
396.926;  109.936; -618.268; -565.517
397.217;  103.770;   11.725;  -17.504
397.508;   48.586; -366.273; -154.507
397.799;   29.209; -555.279; -571.497
398.090;  -11.146; -973.280; -902.495
398.381;   99.720;   11.708;  -11.473
398.672;  -16.479; -585.292; -742.473
398.963;   37.890; -348.279; -373.498
399.254;  114.155;   54.709; -209.475
399.545;  -41.600;-1017.266; -883.520
399.836;   48.030; -407.277; -343.501
400.127;   41.721; -205.295; -209.468
400.418;   57.006; -423.274; -392.506
400.709;   61.166; -359.281; -333.493
401.000;   55.184; -268.291; -309.476
401.290;  104.457;  225.698;  115.545
401.581;   44.328; -166.286; -228.485
401.872;   14.493; -542.298; -486.462
402.163;   59.313; -313.296; -252.467
402.454;   83.756; -123.291; -163.475
402.744;   66.455; -844.297; -813.465
403.035;  390.586; -226.293;  -86.471
403.326;  516.049; -366.292; -384.474
403.617;  374.362;  204.701;  165.539
403.907;  246.001; -593.283; -679.490
404.198; 2446.836; -545.307; -599.446
404.489; 6372.831; -618.283; -588.491
404.779; 2113.010; -618.302; -660.456
405.070;  217.589;  -67.304; -174.451
405.360;  340.863; -259.293; -238.472
405.651;  370.072;  125.699;   98.542
405.942;  183.548;  209.714;  127.516
406.232;  231.913; -432.285; -413.487
406.523;  428.431;  641.706;  758.530
406.813;   85.900; -579.286; -644.484
407.104;  322.119;  261.708;  144.527
407.394;  165.888; -604.299; -591.462
407.685;  166.862;  336.715;  222.513
407.975;   65.005; -400.283; -382.490
408.265;  115.295; -134.289; -190.478
408.556;   63.178; -472.291; -459.475
408.846;  171.207;  474.706;  429.530
409.137;   88.154;   -1.288; -216.480
409.427;   48.163; -193.285; -271.487
409.717;   43.190; -776.273; -692.508
410.007;  131.281;    4.715; -170.486
410.298;   85.674; -360.295; -342.469
410.588;   60.435; -495.285; -510.486
410.878;   35.540; -792.287; -873.482
411.168;  121.970; -481.298; -478.463
411.459;  131.074; -295.283; -242.489
411.749;   50.626; -609.292; -507.474
412.039;   55.402; -755.289; -386.480
412.329;  200.423;   40.722;  132.501
412.619;  188.851;  -62.286; -148.485
412.909;  352.373;  639.711;  594.521
413.199;  307.779; -130.280; -251.495
413.490;  391.089;  521.710;  352.523
413.780;  139.783;-1013.279; -913.496
414.070;  314.492;  -46.276;  235.497
414.360;  350.344; -729.278; -666.498
414.650;  413.411; -726.288; -688.482
414.940;  531.207; -538.280; -441.496
415.230;  941.883;   50.712;   74.519
415.520; 6207.421;  155.730;   66.486
415.809;24377.715; -305.281; -125.493
416.099;19079.307; -388.277; -229.501
416.389; 5311.904;  435.726;  236.494
416.679; 3173.184;   91.738;   85.473
416.969;  557.494; -527.287; -503.483
417.259;  602.210;  341.721;  171.503
417.549;  717.164;  522.718;  318.508
417.838; 1707.463; -205.268; -147.518
418.128; 5652.144;  650.710;  492.522
418.418; 4754.646; -491.272; -579.509
418.708; 3186.704;    9.726;  -48.506
418.997;11969.799; -474.275; -480.505
419.287;12522.936; -733.273; -790.507
419.577;11955.724; -160.283; -123.489
419.866;39319.055; -588.277; -498.501
420.156;40097.042; -242.270;  -55.513
420.446; 7229.176; -112.263;  -26.526
420.735;  835.111; -376.271; -446.512
421.025;  828.868; 1830.722;  315.502
421.314;  641.209; -203.271; -226.512
421.604; 1257.781;   89.732;  233.484
421.893;  727.705; -705.271; -602.511
422.183;  231.127; -487.263; -461.526
422.472;  371.732;  -36.271; -107.511
422.762;  435.006; -416.266; -379.521
423.051;  245.567; -916.276; -916.503
423.341;  304.937; -491.273; -439.507
423.630;  411.662; -121.265;   15.477
423.919;  390.849;   58.725;   49.495
424.209;  379.932;  -31.263;   56.473
424.498;  516.085;   68.732;  161.483
424.787; 1128.442; -535.267; -601.518
425.077; 3399.885;   34.735;   29.478
425.366; 4664.813; -734.262; -744.528
425.655;10213.163;  639.727;  259.493
425.945;22737.668; -313.247; -268.554
426.234;12784.461;  117.741;  300.467
426.523; 5120.641;  -86.259; -350.534
426.812; 7171.352;  107.734;  159.480
427.101;10480.727; -127.269; -323.515
427.390;13195.246;  -55.270;  -86.514
427.680; 2882.186; -624.257; -411.538
427.969;  488.122; -330.255; -301.540
428.258;  303.452; -385.257; -477.536
428.547;  510.225;  449.728;  397.490
428.836; 1147.138; -421.253; -398.543
429.125; 1656.543; -199.259;  -72.534
429.414;  787.086; -330.251; -294.548
429.703; 3188.936; -231.251; -213.548
429.992; 9531.239; -938.250; -828.549
430.281; 6283.869; -397.264; -331.524
430.570;  559.076;  -21.252;   32.454
430.859;  492.090;  279.741;  352.466
431.148;  417.639;  636.752;  631.446
431.437;  283.126;  391.748;  367.454
431.725;  152.554; -544.257; -481.536
432.014;  131.020; -845.253; -756.545
432.303;  379.565; -149.239; -105.569
432.592;  573.026; -460.263; -178.525
432.881; 1079.165; -601.248; -437.554
433.169; 6371.372; -343.255;  -61.540
433.458;12961.374;  445.765;  540.424
433.747; 5481.418; -397.261; -289.529
434.036;  836.016; -275.242; -280.564
434.324; 2144.902; -395.249; -379.551
434.613; 3731.009;   40.757;  159.437
434.902; 1238.980;  333.760;  439.433
435.190;  480.139;   75.761;  295.431
435.479;  280.266;  -52.245;   83.441
435.767;   99.824; -411.244; -427.561
436.056;  193.711; -340.242; -294.563
436.345;  365.807; -372.240; -223.568
436.633;  379.872;   60.750;  383.450
436.922;  247.835;  208.760;  414.432
437.210;  499.914; -194.236;    1.426
437.499; 1593.397; -583.235; -432.576
437.787; 1775.088; -339.236;  -10.574
438.075;  475.994;   56.761;  162.430
438.364;  630.047;  -44.238;  250.429
438.652;  385.777; -286.226; -138.592
438.941;  121.716;    3.770;  269.415
439.229;   -2.527; -665.252; -466.545
439.517;   23.755; -160.234;  -85.577
439.806;   -3.832; -501.225; -290.595
440.094;  166.038;  377.766;  650.421
440.382;  141.567; -653.233; -302.580
440.670;  167.697; -361.235; -285.576
440.959;   20.811; -347.223; -170.599
441.247;   57.553; -151.229; -109.587
441.535;   96.629; -266.235;   31.423
441.823;   13.485; -497.234; -305.578
442.111;  162.857;  173.771;  327.412
442.400;  461.065; -628.245; -335.559
442.688; 1197.088; -111.234; -620.579
442.976;  827.449; -786.213; -450.617
443.264;   98.825; -324.224; -364.597
443.552;   73.003; -258.226;   51.408
443.840;  169.727;  602.765;  876.423
444.128;  111.991;  265.767;  269.420
444.416;    3.484; -694.228; -312.588
444.704;   18.365; -465.219;  -92.605
444.992;   71.106;   -0.226;  240.407
445.280;   38.192; -517.230;  -94.585
445.568;   34.778; -694.212; -396.618
445.856;  314.824; -174.221;  357.398
446.143;  666.762;  -54.220;   -7.604
446.431;  550.763;  -25.228;  625.411
446.719;  232.585;  489.783;  675.391
447.007;  169.311;  481.769;  705.416
447.295;  175.508;  597.777;  871.402
447.583;   85.950; -464.229;  -34.587
447.870;  142.771; -434.221; -202.601
448.158;  368.365; -104.230;  129.415
448.446;  287.513; -800.219; -338.604
448.733;  167.726;   13.776;  269.403
449.021;  247.627;   60.788;  341.382
449.309;  171.567; -296.210;  208.379
449.596;  217.106;  128.783;   59.392
449.884;  139.365; -571.222; -325.600
450.172;  155.019; -756.227; -406.590
450.459;  464.932;  645.786;  780.387
450.747; 2499.630; -411.218; -147.608
451.034; 7996.614;  493.772;  889.411
451.322; 6591.960; -413.214; -170.614
451.609;  562.478;  292.777;  508.403
451.897;  618.056; -550.203; -183.634
452.184; 1836.333; -622.223; -400.598
452.472; 1743.139;   97.792;  269.375
452.759;  339.013;  512.781;  864.395
453.047;  125.400; -407.212; -125.617
453.334;   56.296; -732.219; -216.606
453.621;   72.363; -438.214; -161.615
453.909;  113.398;   13.796;  384.368
454.196;   96.868; -299.199; -123.641
454.483;  204.419;  317.798;  540.364
454.771;  119.842; -215.208;  196.374
455.058;   32.570; -316.207;  102.374
455.345;  109.649;   71.807;  344.347
455.632;   83.173; -128.207;  235.373
455.919;   53.941;  -82.196;  182.354
456.207;  -76.802; -774.198; -450.642
456.494;  -15.969; -475.200;  -66.639
456.781;   -6.461; -399.202; -198.635
457.068;   58.555; -253.206;  -29.628
457.355;  -15.644; -698.206; -401.629
457.642;    0.812; -552.205; -290.630
457.929;  -14.385; -778.194; -417.651
458.216;   70.100; -575.212; -354.617
458.503;  255.969; -173.193;  -19.652
458.790;  241.590; -864.208; -630.625
459.077;  264.794;  -77.202;  110.364
459.364;  822.308; -350.195; -210.649
459.651; 1733.903;  -46.206;  220.372
459.938;  826.355; -864.209; -665.623
460.225;  141.973;  132.799;  276.363
460.512;  -52.087; -836.197; -688.645
460.799;   97.403;  -32.218;  320.392
461.086;   65.460; -370.200; -251.640
461.372;   19.998; -509.198; -279.642
461.659;  108.867; -165.196;  108.354
461.946;   46.993; -445.193;  -54.651
462.233;  234.758;  842.800;  888.361
462.519;  351.755; -814.201; -464.639
462.806; 1024.264; -768.197; -497.645
463.093;  896.839; -445.191;  -66.656
463.380;  -17.520; -920.186; -824.664
463.666;   49.915; -259.197;  -18.646
463.953;  105.677; -406.195; -243.648
464.239;  203.102; -173.195;  -77.648
464.526;  378.688;  413.806;  743.350
464.813;  328.050; -565.190; -304.658
465.099;  337.544;  606.807;  607.348
465.386;  323.373;  903.807;  921.348
465.672;   15.514; -694.197; -522.645
465.959;   20.919; -598.188; -520.662
466.245;   12.323; -468.193; -359.652
466.532;   84.225; -109.195;   63.352
466.818;   58.880; -357.186; -216.664
467.104;   -6.654; -488.182; -415.672
467.391;  -19.948; -628.189; -459.658
467.677;   35.134; -289.186;    9.335
467.964;   -3.041; -682.189; -471.660
468.250;   61.461; -331.186; -160.665
468.536;   84.404;   90.811;  180.341
468.822;  -26.427; -821.184; -574.668
469.109;  145.127;  351.827;  471.311
469.395;  185.233;  729.808;  787.346
469.681;  189.182;   46.811;  156.341
469.967; 1283.011; -699.188; -382.660
470.254; 2741.319; -494.188; -306.662
470.540; 1781.041; -601.196; -476.646
470.826;  261.657; -488.181; -397.675
471.112;  299.727;  288.816;  113.331
471.398;   90.907; -253.183;  -58.670
471.684;   44.585; -626.177; -447.680
471.970;    6.285; -918.180; -981.675
472.256;   26.757; -521.192; -441.654
472.542;   17.638; -499.171; -434.691
472.828;   -9.134; -743.182; -607.672
473.114;   34.181; -380.166; -283.700
473.400;   13.602; -504.175; -293.684
473.686;   26.763; -452.166; -400.701
473.972;   52.091; -230.174; -131.687
474.258;  -34.098; -925.173; -843.689
474.544;  204.127; -183.178;   -2.679
474.830;  346.303;  -65.175;   45.316
475.116;  513.427; -123.190; -196.658
475.401;  710.313; -558.180; -467.676
475.687;  205.537; -725.180; -718.676
475.973;   -2.901; -673.181; -770.673
476.259;  233.656;  736.825;  764.315
476.544;  356.843; -539.176; -437.682
476.830;  862.984; -398.172; -322.690
477.116;  760.567; -430.177; -336.682
477.401;  137.812;  346.820;  358.324
477.687;   -1.848; -289.175; -405.684
477.973;   34.228;   21.819;   28.326
478.258;    4.183; -448.163; -348.706
478.544;   37.917;   21.815;   61.334
478.829;  -55.407; -818.171; -738.692
479.115;  -52.892; -749.172; -651.690
479.401;  -17.338; -444.174; -449.686
479.686;   44.536; -253.180;  -74.676
479.972;  -23.118; -886.178; -776.680
480.257;   33.433; -258.166;  -65.700
480.542;   -6.928; -614.170; -469.693
480.828;  240.800; 1288.824; 1392.317
481.113;  -32.127; -464.176; -426.683
481.399;  -10.318; -236.161; -202.711
481.684;  -59.268; -620.166; -462.700
481.969;    3.946; -158.159;  -73.713
482.255;    4.108; -439.169; -285.695
482.540;    5.407; -569.178; -441.680
482.825;    6.575; -395.187; -404.663
483.110;  107.886;  -85.169; -105.696
483.396;  197.943; -840.157; -652.718
483.681;  526.742;  543.826;  730.313
483.966;  166.840; -696.160; -700.712
484.251;    2.691; -404.174; -310.687
484.536;   -3.432; -356.165; -378.703
484.822;   -3.006; -205.173; -218.687
485.107;  -30.819; -599.152; -502.726
485.392;  121.074;  662.836;  541.296
485.677;   71.871;  354.832;  163.302
485.962;  108.415;  160.843;  270.283
486.247;   78.841;  -14.162;   -8.707
486.532;   38.409; -178.166; -325.701
486.817;  159.877;  381.839;  431.291
487.102;  108.314; -453.154; -514.722
487.387;  711.444; -637.156; -652.718
487.672; 1237.154; -154.164;  -38.705
487.957;  798.884; -394.160; -286.711
488.241;  212.973; -290.150; -314.729
488.526;  767.207; -280.152; -148.726
488.811; 1264.134; -881.177; -818.680
489.096;  952.067; -666.154; -702.723
489.381;  517.454;    3.847;  162.275
489.666;  407.382; -428.161; -510.710
489.950;  174.920;  558.846;  627.277
490.235;  -25.907; -480.151; -458.728
490.520;  -54.444; -756.161; -723.710
490.804;  -58.629; -827.156; -736.719
491.089;    8.139; -469.149; -299.732
491.374;   41.203; -132.164;  -75.704
491.658;  -15.675; -817.147; -717.735
491.943;  150.737; -657.152; -609.727
492.227;  244.885; -178.155;  -38.721
492.512;   39.515; -294.157; -341.717
492.797;  -68.018; -713.149; -716.731
493.081;  -47.297; -588.147; -598.735
493.366;  -51.742; -751.161; -635.711
493.650;  209.206;  831.859;  917.254
493.935;   33.574; -648.147; -447.734
494.219;  -37.782; -778.142; -687.743
494.503;  -48.873; -585.150; -487.730
494.788;   46.556;   46.842;   74.285
495.072;  109.149;  184.850;  434.271
495.356;  164.417; -463.148; -343.733
495.641;  456.534; -812.146; -736.736
495.925;  456.876; -976.156; -903.719
496.209;   26.413; -599.149; -451.732
496.494;  -65.431; -763.142; -544.744
496.778;    6.039; -364.154; -360.722
497.062;  -57.649; -819.156; -627.719
497.346;  -38.014; -869.160; -640.711
497.631;  164.720;  580.852;  560.266
497.915;   62.770;  -64.145;  175.261
498.199;   60.293; -341.157; -277.718
498.483;   35.031; -562.152; -508.725
498.767;  183.650;  301.850;  300.271
499.051;  179.486; -126.149; -100.732
499.335;   19.884; -693.149; -739.731
499.619;  -43.442; -381.129; -423.767
499.903;   22.633; -272.155;  -65.721
500.187;   16.346; -588.153; -316.724
500.471;    9.811; -796.152; -595.727
500.755;  105.456;   62.839;  -96.710
501.039;   18.609; -270.155; -357.721
501.323;   83.483;  -21.141;  264.254
501.607;   30.534; -447.163; -503.706
501.891;  -13.531; -607.156; -512.718
502.174;  -36.444; -726.144; -585.741
502.458;   66.090;   89.849;  370.273
502.742;   36.082; -180.138; -191.751
503.026;  114.474; -412.147; -254.734
503.310;  185.445; -437.159; -375.713
503.593;  126.151; -464.147; -325.735
503.877;  117.798; -232.133; -156.760
504.161;  164.749;    2.847;  -50.724
504.444;  139.583; -841.158; -710.716
504.728;  482.427; -487.164; -522.704
505.012;  736.047; -257.150;  -76.729
505.295;  560.482; -417.161; -212.711
505.579;  563.201; -256.156; -496.719
505.862;  812.866; -555.145; -333.738
506.146;  779.147; -681.159; -758.714
506.429;  406.523;  568.841;  461.286
506.713;   74.819; -732.151; -667.728
506.996;  344.738;   90.846;  295.278
507.280;  370.972; -633.165; -474.703
507.563;  230.682; -469.155; -261.721
507.847;   97.647; -423.153; -112.724
508.130;   92.683; -665.161; -456.711
508.413;  128.379; -758.167; -577.700
508.697;  258.054; -151.167;   12.300
508.980;  160.148; -422.153; -312.724
509.263;  -11.697; -466.155; -450.720
509.547;   47.997; -124.150;   82.271
509.830;   47.660; -172.160;  140.289
510.113;   85.326;  128.844;  298.281
510.396;   14.829; -530.152; -300.725
510.680;  148.993; -818.145; -812.738
510.963;  522.568;  184.846;  180.277
511.246;  438.705; -493.150; -357.730
511.529;  246.573; -482.145;  -83.739
511.812;  396.019; -250.134;   10.241
512.095;  280.866; -740.151; -396.728
512.378;   71.055; -317.147; -245.736
512.661;   21.515; -703.137; -623.753
512.944;   22.345; -750.142; -637.744
513.227;   63.762; -170.137; -171.752
513.510;   33.081; -479.144; -671.741
513.793;   29.137; -485.140; -435.747
514.076;  145.479;  -43.127;  -39.771
514.359;  116.689; -294.149; -135.732
514.642;   82.098; -442.142; -567.744
514.925;  795.011;  581.860;  561.253
515.208; 1051.165; -498.134; -443.758
515.491;  687.679; -276.133; -182.761
515.773;  409.785; -410.143; -337.742
516.056; 2210.296;  249.864;  409.246
516.339; 2953.825; -754.136; -652.755
516.622; 1886.552; -518.150; -488.730
516.904; 1122.792;  882.857;  975.257
517.187;  490.086; -730.138; -523.752
517.470;  401.291; -568.143; -510.743
517.752;  445.053; -624.136; -470.756
518.035;  380.598; -708.139; -725.749
518.318;  399.550; -799.136; -744.755
518.600; 2591.083; -300.132; -325.762
518.883; 3599.148;  310.858;   88.256
519.165; 1753.678; -585.138; -426.751
519.448;  390.233;  -61.132;  -19.762
519.730;  188.411; -573.126; -415.773
520.013;  286.125;  588.867;  664.240
520.295;  742.846;  -94.134;  -15.759
520.578; 1665.171; -335.131; -305.764
520.860; 1871.508; -254.132;   56.238
521.143; 1005.930; -763.135; -584.756
521.425;  489.749; -251.125; -279.775
521.707;  694.204; -622.127; -380.771
521.990; 1879.230; -199.127;  167.229
522.272; 2110.639; -116.140;   -4.748
522.554;  962.861; -237.143; -157.742
522.836;  351.969;  -24.134;   99.241
523.119;  223.548; -496.148; -189.734
523.401;  161.053; -448.130; -314.766
523.683;   99.865; -865.137; -693.753
523.965;  277.359;  408.862;  260.248
524.247;  289.646;   54.878;  170.220
524.529;  218.896; -451.134; -367.759
524.812;  374.554;   -3.130;  191.234
525.094;  915.133; -773.138; -631.751
525.376; 1443.859; -143.124;   78.223
525.658;  879.472; -441.136; -339.754
525.940;   38.717; -805.131; -671.764
526.222;   28.726; -188.136;  -88.755
526.504;  117.965; -190.131;   32.237
526.786;  145.648; -960.133; -647.760
527.068;  294.439; -124.123;  -67.778
527.349;  111.769; -865.137; -774.754
527.631;  139.457; -137.132;   22.238
527.913;  130.203; -664.127; -450.771
528.195;  178.817; -761.125; -639.774
528.477;  249.216;  -93.134;  -30.758
528.759;  157.254; -648.130; -522.766
529.040;   66.838; -569.123; -293.778
529.322;   56.470; -235.125;  -10.774
529.604;  129.457;  -47.130;   93.233
529.886;  136.811; -546.126; -302.773
530.167;  120.798;  232.870;  192.235
530.449;   46.679;    1.853;   63.265
530.731;   25.295; -572.122; -459.779
531.012;   76.566; -513.120; -216.784
531.294;   71.780; -118.116;  -43.792
531.575;  156.424;  290.875;  538.225
531.857;   64.110; -548.135; -266.757
532.138;  107.782; -113.141;   40.254
532.420;  165.107;  294.865;  403.244
532.701;  192.176; -722.133; -751.760
532.983;  330.254;  232.867;  182.239
533.264;  117.284; -243.126;  175.228
533.546;  -51.674; -491.136; -508.755
533.827;   59.172;  173.867;   -1.759
534.109;   18.985; -352.135;  -80.757
534.390;   83.036; -725.132; -582.762
534.671;  264.606; -270.135;  -82.756
534.953;  147.891; -751.123; -611.779
535.234;    8.590; -426.117; -255.789
535.515;  -69.176; -891.119; -735.785
535.796;  -22.551; -431.128; -193.770
536.078; -115.642;-1050.124; -904.777
536.359;   -2.584;  -22.123;    3.221
536.640;   -3.631; -480.125; -197.774
536.921;  148.937;  225.871;  143.232
537.202;  382.605;  -87.138;  -16.751
537.483;  468.595;  251.869;  377.236
537.764;  200.298;   17.870;   98.235
538.045;  -47.785; -543.134; -371.758
538.326;  -44.461; -596.129; -447.768
538.607;   16.530; -686.127; -476.771
538.888;  184.782;   98.879;    5.218
539.169;  207.101; -704.122; -535.781
539.450;  347.911;  236.871;   16.233
539.731;  219.586; -361.121; -182.783
540.012;  136.216;  199.880;  412.216
540.293;   90.303;   82.876;  158.224
540.574;   22.026; -895.113; -717.796
540.855;  435.959;  435.879;  377.218
541.136;  523.274;   47.878;  139.220
541.416;  283.605; -161.130; -220.766
541.697;  227.916; -274.131; -170.763
541.978; 1112.484; -270.135; -315.757
542.259; 1380.155; -211.127; -236.771
542.539;  642.274; -191.116; -186.790
542.820;  197.649;  461.875;  480.225
543.101;  129.669;  -52.145;  -77.738
543.381;   17.755; -638.127; -591.771
543.662;  276.377;  159.873; -254.771
543.942;  609.750; -751.127; -830.770
544.223; 1098.675;  193.878;  161.219
544.504;  736.783; -275.124; -182.777
544.784;  619.911; -592.126; -408.773
545.065; 1738.128;  104.884; -254.791
545.345; 2029.674;  227.881;   14.215
545.626; 1371.500;  -14.113; -108.796
545.906;  906.223;   77.869;   98.235
546.186;  397.491;   92.874;  -95.773
546.467;  204.936;   99.877;  -95.778
546.747;  339.549;  264.884;  327.210
547.027;  401.081;   91.876;  111.223
547.308;  348.125; -376.127; -530.770
547.588;  416.364;  299.871;  371.232
547.868;  223.899;  458.870;  588.235
548.149;  199.785;  609.885;  593.207
548.429;  143.453; -347.127; -299.771
548.709;  189.190; -645.120; -461.784
548.989;  497.134;   84.882;   88.213
549.269; 2246.281;   10.868;  139.239
549.550; 5143.940;  215.877;  117.222
549.830; 4612.343; -758.111; -556.799
550.110;  942.951; -468.110; -320.801
550.390;  879.320; -128.122;  -56.779
550.670; 1207.671; -868.114; -783.795
550.950;  842.609; -509.121; -471.782
551.230;  189.630;  549.879;  460.218
551.510;   -9.842; -381.121; -326.782
551.790;   35.409; -173.109; -127.803
552.070;  282.960;  940.877; 1181.223
552.350;  442.728; -492.119; -377.786
552.630;  626.278;   -2.121;   77.219
552.909;  398.478;  181.884;   73.209
553.189;  248.388;  -49.132;   33.237
553.469;  190.878; -703.119; -514.786
553.749;  211.581; -469.127; -357.772
554.029;  184.644;   33.883;  -24.790
554.308;  147.814; -154.115;  -37.794
554.588;   76.548; -196.128; -204.770
554.868;   72.760; -366.121;  -47.782
555.147;  157.561; -114.115;  -46.793
555.427;  640.030; -260.116; -250.792
555.707; 4142.209; -284.115; -200.793
555.986; 4950.346; -719.111; -538.800
556.266; 2646.997;   23.884;   72.210
556.546;  129.383; -888.121; -675.782
556.825;  266.844; -657.114; -556.794
557.105; 1888.746; -125.128;   17.230
557.384; 2229.727;  122.884;  187.209
557.664;  871.555; -717.116; -508.792
557.943;  135.434; -557.121; -411.782
558.222;  189.587; -345.118; -344.788
558.502;  300.088; -116.115;  -76.793
558.781;  512.983;  194.885;  499.208
559.061;  446.012; -232.118; -227.788
559.340;  323.467;  302.883;  353.211
559.619;  747.247;   93.884;  148.210
559.899; 1100.394; -239.117; -266.789
560.178; 1021.862; -778.115; -593.793
560.457; 3329.495; -623.117; -562.790
560.736; 4650.198; -472.111; -482.800
561.015; 3131.344; -500.128; -502.769
561.295;  413.953;  180.893;  215.193
561.574;  350.085;  119.885;  116.207
561.853;  534.938;  274.891;  303.197
562.132;  518.815;  -45.114;  182.206
562.411;  478.653;  396.879;  553.219
562.690;  152.183; -592.115; -458.792
562.969;  147.932;  472.888;  630.203
563.248;  531.351; 2966.878; 2487.219
563.527;  296.472; -290.111; -408.800
563.806;  404.228; -650.127; -521.771
564.085;  439.294; -297.105; -206.810
564.364;  260.472; -594.117; -405.790
564.643;  556.954; -276.121; -223.781
564.922; 2012.757;  221.890;  397.198
565.201; 2033.960; -640.109; -700.803
565.479;  894.907; -297.115; -219.792
565.758;  344.897; -810.128; -712.770
566.037;  514.636; -155.109; -100.803
566.316;  267.502; -286.116;  -28.791
566.595;   43.209;  -17.115;  -12.793
566.873;  111.374; -166.111;  -79.801
567.152;  -50.418; -490.113; -590.797
567.431;   21.898; -113.116;    6.210
567.709;   25.604; -344.107; -212.807
567.988;  257.418; -810.114; -769.794
568.266;  549.934; -160.115;  -68.793
568.545;  412.891; -644.100; -514.819
568.824;  624.406;  160.885;  356.208
569.102;  610.693; -351.114; -235.794
569.381;  253.805; -492.116; -407.792
569.659;  -36.247; -553.113; -553.796
569.938;   24.074; -743.122; -465.780
570.216;  115.889; -225.109; -225.804
570.494;  -32.079; -632.114; -572.795
570.773;   44.307;  202.879;  114.218
571.051;    6.488; -373.123; -357.778
571.330;   60.326; -221.113; -174.796
571.608;   49.559; -181.098; -173.823
571.886;  -61.734; -671.111; -581.799
572.164;  -58.915; -739.121; -621.782
572.443;  -51.878; -562.105; -512.811
572.721;  -29.355; -399.117; -289.790
572.999;  -24.036; -280.117; -168.788
573.277;   99.191;  379.894;  620.191
573.555;  318.768;   94.894;   37.190
573.834; 1439.938;  -86.117; -114.788
574.112; 1667.056;  880.893;  811.193
574.390;  518.173; -143.111;  -96.801
574.668;   11.783;  -91.112;  -61.797
574.946;  -14.957; -165.106; -187.810
575.224;   30.335;   71.891;  -16.803
575.502;  -18.150; -200.116; -204.791
575.780;  -89.166; -767.112; -829.798
576.058;  196.097; 1589.889; 1004.200
576.336;  -16.147; -210.110; -129.801
576.614;  -48.391; -511.112; -340.798
576.891;   57.964; -711.115; -823.794
577.169;  509.247; -158.108; -285.805
577.447;  601.505;  169.893;  202.193
577.725;  281.189;  629.888;  854.201
578.003;   14.787;  -71.112; -371.798
578.280;  106.381; -208.104; -242.812
578.558;   61.563; -450.115; -422.793
578.836;  128.846; -210.114; -145.795
579.114;   46.857; -630.112; -670.797
579.391;   55.765;   -6.117;  -18.789
579.669;  -91.535; -595.114; -704.794
579.947;  186.302; -326.107; -127.806
580.224;  340.527; -692.107; -524.806
580.502;  325.131;  127.893;   76.193
580.779;   25.421;  -42.117;   75.210
581.057;  -75.161; -584.109; -470.804
581.334; -109.204; -726.102; -695.815
581.612;   31.294;   54.895;  511.190
581.889;  -16.490;  -83.101; -129.818
582.167;  -40.776; -298.099; -190.821
582.444; -106.896; -845.102; -814.817
582.721;   94.855;  657.899;  715.183
582.999;   53.571; -326.100; -167.821
583.276;  566.468; -812.123; -713.779
583.553;  750.549; -364.102; -294.816
583.831;  243.053; -607.104; -631.812
584.108;   73.220;  349.892;  174.195
584.385;   11.321; -122.102;  -98.815
584.662;  -62.926; -651.111; -828.801
584.940;   30.224;  204.889;  204.199
585.217;  -24.547;  -73.113; -303.796
585.494;   19.333;   71.890;  118.198
585.771;  222.165; -250.109; -354.804
586.048;  512.427; -196.113;  -76.796
586.325;  329.752; -721.110; -773.801
586.602;  100.507;  230.896;  213.188
586.879;  -15.382; -499.100; -580.820
587.156;   53.820; -156.105; -331.810
587.433;  -34.123; -701.102; -667.817
587.710;   52.710;  152.888;  234.202
587.987;  305.225; -264.105; -236.811
588.264;  795.636;  315.888;  387.202
588.541; 1406.959;  -61.104;   26.187
588.818; 2777.117;   72.892;  171.196
589.095; 2398.280; -163.104; -174.812
589.371;  399.213; -459.109; -414.804
589.648;   21.456; -581.107; -437.807
589.925;   28.247; -517.114; -621.795
590.202;   15.784; -741.112; -607.798
590.478;   90.977; -166.105;  -73.811
590.755;  288.323; -241.108; -132.806
591.032; 2672.929; -741.110; -699.802
591.308; 3603.199; -732.094; -790.831
591.585; 1887.954; -573.110; -560.802
591.862;  168.679;-1056.102; -950.817
592.138;   61.546; -475.108; -474.805
592.415;  168.108; -486.104; -495.813
592.691; 1496.605;  460.896;  518.188
592.968; 1955.011; -208.098; -123.824
593.244;  928.473; -695.116; -595.790
593.521;   79.704; -105.102;  -42.817
593.797;  -23.404; -810.122; -720.780
594.074;  353.248; -611.096; -588.826
594.350;  658.785;  828.905;  729.172
594.626;  304.049; -303.111; -283.801
594.903;  113.704; -643.101; -645.817
595.179;  218.861;  243.896;  418.187
595.455;   10.282; -136.107; -150.807
595.731;    6.913;  -19.103;  -38.814
596.008;  -44.056; -464.111; -434.800
596.284;   42.020; -187.100; -242.820
596.560;   73.305; -501.093; -493.833
596.836;  219.847; -173.105;  -70.810
597.112;  349.597; -582.108; -437.805
597.388;  302.471;  -49.097;  -48.826
597.665;  120.430;  437.887;  530.203
597.941;  -57.715; -572.089; -658.839
598.217;   12.882; -323.110; -293.802
598.493;  281.492;   61.891; -204.804
598.769;  519.939; -175.100;  -50.819
599.045;  304.325; -490.108; -562.806
599.321;   59.619; -193.100; -261.820
599.597;  163.966; -355.109; -476.804
599.872;  500.859;  409.896;  429.187
600.148;  389.648;  -61.097; -172.826
600.424;  331.305;   91.893;  202.193
600.700;  267.607; -170.107; -280.807
600.976;  126.967; -442.097; -464.825
601.252;  254.738; -226.109; -272.803
601.527;  239.960; -833.104; -840.813
601.803;  159.152; -453.105; -404.812
602.079;  188.889; -124.100; -118.819
602.354;  610.765; -620.092; -531.835
602.630;  858.928; -140.113; -482.796
602.906; 2512.060; -910.101; -863.818
603.181; 7065.078; -627.119; -534.786
603.457; 6027.595;   98.903; -278.826
603.733;  886.362; -605.120; -626.783
604.008; 1023.494; -245.106; -164.810
604.284; 3172.906; -636.101; -580.817
604.559; 2788.438;   -3.112;  -42.799
604.835;  502.847; -163.105; -225.810
605.110;  443.249; -732.099; -892.821
605.385;  721.908;  224.907;  267.167
605.661;  686.312; -625.095; -729.829
605.936; 1230.025; -664.108; -737.806
606.211; 1046.695;  -17.103; -170.815
606.487;  210.542; -329.114; -376.794
606.762;   31.378; -791.119; -745.786
607.037;  -14.728; -501.105; -433.810
607.313;  -51.494; -589.096; -574.828
607.588;  -11.732; -375.106; -137.810
607.863;   41.659;  -28.101; -143.818
608.138;  189.831;  513.890;  516.198
608.413;   31.728; -576.099; -592.822
608.688;   49.771; -203.108; -267.805
608.964;  219.187; -509.106; -218.809
609.239;  259.744; -107.105; -212.810
609.514;  270.802;  281.895;  240.188
609.789;  670.831; -187.104; -716.812
610.064;  888.504; -435.096; -609.827
610.339;  952.413; -855.109; -799.804
610.614; 1252.519; -131.100; -315.820
610.889;  703.752;  215.895;  107.188
611.163;   64.903; -407.104; -591.812
611.438;   79.518;   81.886; -167.794
611.713;    5.781; -467.101; -499.817
611.988;   55.933; -144.101; -328.818
612.263;  -15.679; -771.102; -717.815
612.538;  214.877;  385.887;  251.204
612.812;  193.271; -832.100; -911.820
613.087;  136.958; -358.098; -338.823
613.362;  -45.093; -497.107; -557.807
613.637;   32.691;  261.897;  138.186
613.911;  -13.209; -256.092; -345.835
614.186;  137.330; -249.107; -292.807
614.460;  737.185; -842.081; -758.854
614.735;  823.983;  -55.087;  -17.843
615.010;  178.248;   43.912;  -82.841
615.284;  261.696;  360.892;  246.195
615.559;  371.540; -792.092; -955.835
615.833;  316.276;  -76.099;  -87.822
616.108;    5.077; -225.090; -390.837
616.382;  147.310;  274.913;  402.156
616.656;  181.402; -241.090; -232.837
616.931;  511.377; -785.099; -700.822
617.205; 1121.386; -973.104; -979.813
617.480; 1034.997;  -91.125;    6.225
617.754;  184.195; -396.125; -128.774
618.028;   10.390; -369.129; -382.768
618.302;   72.544;   73.892;  -25.805
618.577;  -53.433; -371.103; -518.815
618.851;  -51.190; -399.109; -600.803
619.125;  -47.504; -335.134; -378.759
619.399;  -32.939; -244.104; -374.813
619.673;  -50.944; -330.115; -515.792
619.947;  -45.929; -333.114; -448.795
620.222;  -21.425; -198.110; -204.801
620.496;    3.884;  -47.121;  -96.782
620.770;   19.301; -187.122;  -93.781
621.044;  215.570;  323.895;  346.190
621.318;  780.712; -653.120; -614.783
621.592;  711.335; -430.121; -409.783
621.866;  382.914; -476.112; -572.799
622.140;   29.200; -207.116; -356.791
622.413;   48.169;  138.889;  112.200
622.687;  -37.394; -746.101; -492.817
622.961;   19.694; -130.108; -143.805
623.235;  -60.556; -633.111; -661.800
623.509; -100.748; -816.105; -848.811
623.783;   13.703;  -12.107;   48.193
624.056;   -9.962; -254.120; -280.783
624.330;   50.758;   63.888;   -3.797
624.604;   65.672; -271.116; -355.790
624.877;   89.480;  180.890;   26.198
625.151;   37.341; -249.114; -238.794
625.425;  -30.112; -150.103; -283.814
625.698;  -59.827; -367.119; -374.785
625.972;  -96.518; -799.110; -765.802
626.245;   69.674;  685.884;  484.210
626.519;  -48.533; -426.120; -340.784
626.792;  -46.618; -192.107; -380.807
627.066;  -79.631; -485.122; -662.779
627.339;  -96.422; -736.110; -663.802
627.613;   54.316;  351.880;  148.216
627.886;  -58.091;  187.891; -612.803
628.160;  -15.813;  312.880; -161.783
628.433;  -84.725; -695.125; -703.775
628.706;  -73.908; -517.120; -615.784
628.979;   35.057;  296.876;  117.223
629.253;  -88.323; -785.119; -833.786
629.526;  393.384; -334.126; -253.772
629.799;  364.864; -641.123; -479.778
630.072;  174.117; -497.128; -516.769
630.346;  -60.501;-1115.116;-1080.790
630.619;  499.033; -467.107; -545.808
630.892;  645.820;  709.889;  593.200
631.165;  350.661;  790.896;  679.187
631.438;  -73.839;-1092.112;-1055.798
631.711;   42.367;  453.877;  257.221
631.984;  -53.631; -523.117; -624.789
632.257;  -76.010; -636.117; -681.789
632.530;  -48.302; -412.119; -433.785
632.803;   33.839; -109.115;    7.207
633.076;  -61.840; -360.123; -422.777
633.349;   19.821;  173.872;  121.231
633.622;  -29.703; -187.119; -240.785
633.895; -131.012; -903.120; -823.783
634.167;  -63.663; -496.126; -525.773
634.440;   -8.945;  -19.116; -137.792
634.713;    0.776;  -22.119; -120.786
634.986;   67.736;  593.871;  453.233
635.258;  -71.713; -507.115; -597.793
635.531;  101.536;  742.882; -343.788
635.804;  -30.932; -303.117; -318.789
636.077;  -87.974; -830.116; -852.791
636.349;    0.260; -586.115; -474.793
636.622;  398.334; 1695.874; 1392.228
636.894;  266.893; -474.120; -909.784
637.167;  173.303; -836.127; -789.771
637.439;   37.199; -278.128; -213.770
637.712;  -60.690; -312.126; -293.772
637.984;  -76.198; -635.116; -707.791
638.257;  382.261;  515.877;  488.222
638.529;  585.751; -881.125; -924.776
638.802;  256.441; -508.128; -449.769
639.074; -105.200; -927.122; -952.781
639.346; -125.463; -942.135; -930.757
639.619;    0.547;  -79.142; -319.744
639.891;  -15.756;  -83.122; -168.779
640.163;  -87.279; -689.122; -756.780
640.435;   28.123;  273.878;  103.220
640.708;    6.549;  -72.122; -132.780
640.980;  -33.874; -366.122; -362.781
641.252;  201.553;  -25.121;  -71.781
641.524; 1856.855;  580.879;  573.219
641.796; 1825.457;-1094.121; -907.782
642.068;  330.959; -191.121; -300.782
642.340;  -45.065; -486.121; -566.783
642.613;   28.712;  294.880;  323.217
642.885;  -97.111; -787.120; -878.783
643.157;  -45.184; -810.120; -658.784
643.428;   61.768;  170.880;  218.216
643.700;  -66.405; -498.120; -425.784
643.972;  -39.854;  -16.119; -133.785
644.244;  -78.702; -474.119; -559.785
644.516;  -52.675; -250.119; -114.786
644.788;   72.627;  662.881;  548.214
645.060;  -30.871;  -12.119; -124.786
645.332; -110.894; -525.118; -535.787
645.603;   38.282;  479.882;  342.213
645.875;  -80.616; -334.118; -369.787
646.147;  162.636; 1487.882; 1242.212
646.418;  -64.612; -931.117; -918.788
646.690;  148.615; -714.117; -715.789
646.962;   37.942; -413.117; -451.789
647.233;   -7.707;   15.883;   11.211
647.505; -106.005; -595.117; -475.790
647.776;   27.497;  328.884;  229.210
648.048;   -5.851; -248.116; -418.790
648.320;  -72.199; -752.116; -679.791
648.591; -151.197;-1055.116; -958.791
648.862;  -76.596; -505.116; -577.792
649.134;   -0.669;  115.885;  198.208
649.405;  -50.717; -661.115; -618.792
649.677;  -51.640; -475.115; -598.793
649.948;   -4.338; -181.115; -296.793
650.219;  -16.861;  -37.115; -147.793
650.491;  -72.935; -431.114; -520.794
650.762; -123.758; -705.114; -731.794
651.033;  -92.081; -437.114; -424.795
651.304;  -92.854; -743.114; -728.795
651.576;  -64.952; -680.114; -645.795
651.847;  -37.025; -250.113; -140.796
652.118;  -19.624;  -32.113; -189.796
652.389; -115.722; -639.113; -722.796
652.660;  -24.270; -147.113;  -89.797
652.931; -144.068; -897.112; -871.797
653.202;  -88.841; -382.112; -541.798
653.473;  -77.939; -633.112; -533.798
653.744;  162.412; -595.112; -590.798
654.015;  137.589; -356.112; -303.799
654.286;  -80.784; -642.111; -663.799
654.557;  -57.457; -586.111; -521.799
654.828; -157.930;-1114.111;-1088.800
655.099;  -88.628; -404.111; -291.800
655.370;  -78.052; -427.111; -543.801
655.641; -127.600; -656.110; -714.801
655.911; -103.748; -618.110; -638.801
656.182;   36.854;  437.890;  387.198
656.453;   85.881;  830.890;  746.198
656.724;  -73.417; -466.110; -426.802
656.994;  -84.491; -553.109; -568.803
657.265; -102.314; -862.109; -873.803
657.536;  -81.712; -500.109; -377.804
657.806; -106.585; -561.109; -593.804
658.077; -143.233; -866.109; -950.804
658.347;  -92.756; -523.108; -598.805
658.618; -108.804; -646.108; -694.805
658.888;  -21.478;  -41.108;  112.195
659.159;  -68.576; -432.108; -548.806
659.429;  -23.949; -292.108; -349.806
659.700;   16.578; -435.107; -390.807
659.970;  -13.845; -370.107; -359.807
660.241;   17.857; -754.107; -921.807
660.511;  511.558; -147.107; -174.808
660.781;   82.285; -793.106; -748.808
661.052;  -59.213; -222.106; -381.808
661.322;  -17.086;   21.894;   -9.809
661.592;    7.416;  257.894;  148.191
661.862;  -65.657; -369.106; -382.810
662.133;  -86.656; -551.105; -502.810
662.403; -115.554; -770.105; -676.810
662.673;  -71.177; -256.105; -213.811
662.943;  -96.225; -612.105; -551.811
663.213;  -10.748;  -85.105;  -81.811
663.483;  -73.221; -593.104; -568.812
663.753;  -59.895; -194.104; -152.812
664.023;  -20.893;   68.896;  -32.813
664.293;  -66.041; -319.104; -126.813
664.563; -109.939; -694.104; -648.813
664.833; -132.987; -743.103; -608.814
665.103; -143.485; -730.103; -793.814
665.373; -133.684; -766.103; -806.814
665.643;  -82.707; -863.103; -918.815
665.913;   43.145; -534.103; -714.815
666.182;  153.197; -685.102; -719.816
666.452;  257.599;  -22.102;  -89.816
666.722;  -25.824; -724.102; -784.816
666.992; -128.398; -948.102; -921.817
667.261; -106.646; -824.102; -808.817
667.531;  207.006;  134.899;   45.183
667.801;  535.458; -440.101; -412.818
668.070;  235.110;  714.899;  697.182
668.340; -104.713; -883.101; -840.819
668.609;   81.613;  588.900;  301.181
668.879;  -78.210; -490.100; -558.819
669.149;  -76.008; -539.100; -516.820
669.418; -113.931; -698.100; -726.820
669.688;  -27.829; -482.100; -666.820
669.957;   74.673; -423.099; -546.821
670.226;  -26.726; -268.099; -331.821
670.496;  -93.624; -431.099; -635.822
670.765;  -93.897; -418.099; -501.822
671.034; -138.870; -872.099; -828.822
671.304;  -13.593;   55.902; -111.823
671.573; -152.791;-1085.098; -957.823
671.842;   74.035; -380.098; -294.823
672.112;   46.762; -692.098; -586.824
672.381;    2.464; -239.098; -214.824
672.650; -128.634;-1005.097;-1021.825
672.919;  -95.982; -631.097; -507.825
673.188;  -95.805; -681.097; -878.825
673.457; -153.154;-1101.097;-1143.826
673.726;  -67.802; -579.096; -646.826
673.995;  -52.025; -533.096; -479.826
674.265;  -12.473; -263.096; -333.827
674.534;   -3.771; -183.096; -235.827
674.802;    8.481; -618.096; -703.828
675.071; 1085.082; -886.095; -801.828
675.340; 4079.559; -464.095; -339.828
675.609; 1358.561;  103.905;   82.171
675.878;   78.088; -949.095; -893.829
676.147;   41.740;  -26.095;   -8.829
676.416;  112.217; -210.094; -294.830
676.685;  761.368; 1000.906; -622.830
676.953;  120.370; -603.094; -452.831
677.222;  -18.978; -193.094; -273.831
677.491;  -23.426;  -24.094; -127.831
677.759;  -20.699;   11.907;  172.168
678.028;  -21.072; -279.093; -222.832
678.297;   -5.246;   71.907;  197.168
678.565; -141.894; -898.093; -944.833
678.834;  -64.092; -311.093; -268.833
679.102;  -77.790; -411.092; -391.834
679.371; -161.013; -898.092; -727.834
679.639; -130.986; -797.092; -786.834
679.908; -114.859; -794.092; -724.835
680.176; -152.233; -895.091; -941.835
680.445;  -81.856; -346.091; -352.835
680.713;   -6.054;  -58.091;  -23.836
680.982;  -87.677; -523.091; -525.836
681.250;  -93.275; -578.091; -507.837
681.518;  -98.348; -534.090; -751.837
681.787;  -14.947; -204.090; -167.837
682.055;  -53.395; -490.090; -422.838
682.323; -141.743; -993.090; -992.838
682.591;   21.209; -216.090; -538.838
682.859;   95.886;    9.911;  -35.839
683.128;   17.288;  232.911;  497.161
683.396; -174.486;-1102.089;-1122.840
683.664;  -43.834; -241.089;   21.160
683.932;    6.968;  144.911;  -76.840
684.200;  -91.580; -576.088; -320.841
684.468;  -26.628;  -73.088; -124.841
684.736;  -37.626; -214.088; -175.841
685.004; -113.075;-1024.088; -982.842
685.272;  -61.523; -880.088; -774.842
685.540;  -53.971; -499.087; -557.843
685.808;  -87.519; -651.087; -682.843
686.076; -100.742; -894.087; -969.843
686.343;  -59.715; -601.087; -815.844
686.611;   45.886; -195.087; -224.844
686.879;  492.363; -530.086; -553.844
687.147; 3470.615; -483.086; -480.845
687.414;  982.117;  -12.086; -169.845
687.682;   16.819; -658.086; -757.846
687.950;  332.746;  259.915;  263.154
688.217;   21.197; -792.085; -760.846
688.485;   -6.426; -632.085; -636.847
688.753;  555.176;  -11.085; -102.847
689.020;  173.353; -820.085; -851.847
689.288;  -83.945; -853.084; -787.848
689.555;  -31.793; -195.084; -148.848
689.823;  -51.917; -241.084; -345.849
690.090;  -93.515; -546.084; -651.849
690.358; -140.588; -877.084; -897.849
690.625;    2.989;  120.917;   45.150
690.892;  -81.684; -403.083; -369.850
691.160;  -15.257;   72.917;  -35.850
691.427;    6.519;  141.917;  130.149
691.694; -131.454; -855.083; -929.851
691.962; -155.802;-1177.082;-1060.852
692.229;   18.200;  127.918;   56.148
692.496;   93.677;  130.918;  -49.852
692.763;    8.404; -164.082; -201.853
693.031;  -63.045; -739.082; -716.853
693.298;  -38.318; -509.081; -368.853
693.565;  345.384; -155.081; -163.854
693.832; 1323.386;   -5.081;   -9.854
694.099;  161.463; -643.081; -642.855
694.366;  -53.935; -882.081; -896.855
694.633;  -53.084; -920.080; -633.855
694.900;  747.418; 4367.920; -114.856
695.167;  445.170; -214.080; -380.856
695.434;   99.497; -646.080; -623.856
695.701;  201.374;  121.921;  -61.857
695.968;  491.701; -365.079; -361.857
696.234; 1028.752; -415.079; -646.858
696.501;10251.329; -776.079; -614.858
696.768; 5102.931; -554.079; -617.858
697.035;  292.358; -632.078; -667.859
697.302;   30.435; -448.078; -552.859
697.568;   12.912; -458.078; -497.859
697.835;  -45.737; -683.078; -624.860
698.102;  -26.435; -498.078; -407.860
698.368;   71.442;  384.923;  396.139
698.635;  -35.456;  -47.077; -424.861
698.901;   -4.829; -240.077; -348.861
699.168;   65.048; -534.077; -456.862
699.435;   84.950;  -72.077;  -13.862
699.701; -106.624; -868.076; -764.862
699.968;   19.503;  144.924; -441.863
700.234; -100.070; -783.076; -822.863
700.500;  -63.143; -448.076; -539.864
700.767;   -1.691;   -1.075;   26.136
701.033; -122.414;-1015.075; -963.864
701.299;  -60.413; -450.075; -483.865
701.566;  121.089;  950.925;  763.135
701.832;   27.241;  -31.075;  -76.865
702.098; -103.357;-1054.074;-1034.866
702.365;  -84.630;-1098.074;-1030.866
702.631;  -11.278;-1038.074;-1063.867
702.897; 1444.973; -765.074; -676.867
703.163; 2275.050;  348.926;  254.133
703.429;  162.552; -256.073; -273.868
703.695;  -33.046; -796.073; -792.868
703.961;   13.756; -214.073; -210.868
704.227;  -54.867; -630.073; -725.869
704.493;  125.959;  613.927;  510.131
704.759;  -14.439; -565.072; -540.870
705.025;   24.138; -203.072; -194.870
705.291;  -19.285; -666.072; -562.870
705.557;  194.442;  719.928;   34.129
705.823;   28.969; -742.072; -694.871
706.089;  124.170; -307.071; -326.871
706.355;  378.447; -315.071; -244.872
706.620; 5407.449; -776.071; -729.872
706.886; 7513.426; -309.071; -362.873
707.152;  720.628; -818.070; -973.873
707.418;  -27.595;-1153.070;-1186.873
707.683;  -14.244; -550.070; -530.874
707.949;  -47.667; -547.070; -578.874
708.215;   -5.965; -129.070; -207.874
708.480;  -14.488; -520.069; -420.875
708.746;   92.339;   68.931;   28.125
709.011;  -63.334; -578.069; -612.876
709.277;  -76.458; -538.069; -543.876
709.542;  -55.981; -428.069; -387.876
709.808;   -3.679;  -59.068;   89.123
710.073;  -86.427; -577.068; -695.877
710.339;  -22.675; -242.068; -228.877
710.604;   75.402; -780.068; -845.878
710.869;  327.278; -277.068; -366.878
711.135;  -82.295; -715.067; -628.879
711.400;  -94.643; -507.067; -608.879
711.665;  -53.066; -404.067; -479.879
711.931;  -96.314; -661.067; -677.880
712.196; -113.037; -876.067; -954.880
712.461;  112.014; -402.066; -490.880
712.726;  164.066; -727.066; -771.881
712.991;  -91.132; -647.066; -664.881
713.256;  -49.930; -350.066; -332.882
713.521;  -63.728; -417.065; -381.882
713.787;  -71.276; -454.065; -472.882
714.052;  -24.175; -214.065; -400.883
714.317;  -93.573;-1045.065; -981.883
714.581; 1011.404; -374.065; -268.883
714.846; 1315.206; -822.064; -888.884
715.111;  121.483;  261.936;  257.116
715.376;  -22.340;  -86.064; -223.885
715.641;  -18.539; -365.064; -367.885
715.906;  304.913;   15.936; -551.885
716.171;  151.815;  221.937;  209.114
716.436;   32.667;  -78.063; -104.886
716.700; -105.581; -818.063; -692.886
716.965; -131.879; -794.063; -807.887
717.230;  -80.628; -339.063; -392.887
717.494;  -19.301;  -40.062; -134.888
717.759; -112.799; -784.062; -640.888
718.024;    9.653;  269.938;  250.112
718.288;   77.005;  685.938;  395.111
718.553; -139.418; -803.062; -977.889
718.817; -145.716; -883.061; -899.889
719.082;  -31.690; -115.061; -125.890
719.346; -148.863;-1000.061; -947.890
719.611;  -47.686; -300.061; -255.891
719.875; -103.759; -568.060; -537.891
720.140;  -62.782; -453.060; -603.891
720.404;   51.870; -136.060; -249.892
720.668;  898.996; -475.060; -411.892
720.933;  342.598;  146.940;  137.108
721.197; -109.425; -667.059; -600.893
721.461; -133.448; -851.059; -826.893
721.725;    9.554;  -21.059; -250.894
721.990;  -56.044; -284.059; -204.894
722.254;  -25.718;  -26.059; -108.894
722.518;  -87.941; -286.058; -442.895
722.782;  -95.364; -743.058; -594.895
723.046;  120.563;  614.942;  570.105
723.310;   18.165;  374.942;  210.104
723.574; -106.808; -654.058; -614.896
723.838; -106.332; -576.057; -642.897
724.102;  -57.680; -226.057; -239.897
724.366; -133.678;-1032.057; -978.897
724.630; -111.801; -749.057; -571.898
724.894;  -79.649; -722.057; -514.898
725.158;  -19.122;   38.944; -295.898
725.422;  -53.571; -394.056; -327.899
725.685;  -62.844; -441.056; -349.899
725.949;  -84.917; -566.056; -519.900
726.213;  -70.615; -732.056; -811.900
726.477;  183.512;-1020.055; -933.900
726.740;  145.814; -274.055; -104.901
727.004;  351.215; -384.055; -510.901
727.268; 3275.792; -442.055; -400.901
727.531;  870.619; -961.055; -775.902
727.795;  -64.729; -713.054; -673.902
728.059;  -56.302; -552.054; -557.903
728.322;  -84.100; -841.054; -669.903
728.586;   29.901; -692.054; -701.903
728.849;  -84.722; -695.053; -756.904
729.112; -121.270; -812.053; -912.904
729.376; -121.393; -959.053; -905.904
729.639;  -70.366; -536.053; -536.905
729.903; -117.939; -733.053; -699.905
730.166;  -48.038; -437.052; -399.906
730.429;  -35.311; -317.052; -468.906
730.693;  -60.034; -355.052; -894.906
730.956;  229.418;  810.948;  651.093
731.219;  728.920; -310.052; -103.907
731.482;  124.072;-1003.051; -894.907
731.745;  109.798; -794.051; -935.908
732.009;   17.225;  -30.051;   50.092
732.272;  -85.798; -904.051; -771.909
732.535;  -63.546; -300.051; -310.909
732.798; -147.769;-1083.050;-1166.909
733.061;  -55.842; -430.050; -456.910
733.324;   18.509;   31.950; -180.910
733.587;   71.386;  290.950;  365.090
733.850;  -72.087; -973.049;-1050.911
734.113;   20.515;   33.951;   32.089
734.376;    4.292; -328.049; -447.912
734.639;  232.319; 1188.951; 1011.088
734.901;   82.045; -180.049; -402.912
735.164;  530.197; -883.048; -837.913
735.427; 1338.724; -166.048; -355.913
735.690;  126.076; -205.048; -234.913
735.952;  -40.272; -923.048; -925.914
736.215;  -24.945;-1113.048;-1009.914
736.478;   27.831; -771.047; -774.915
736.740;  227.408;   33.953;  129.085
737.003;  772.210; -658.047; -672.915
737.266; 4233.412;  -94.047;   46.084
737.528;  454.114; -682.047; -660.916
737.791;  322.466; -316.046; -327.916
738.053;  830.268;  465.954;  649.083
738.316;10951.519; -162.046; -136.917
738.578; 7373.646; -770.046; -736.918
738.841;  433.373; -382.046; -446.918
739.103;  181.700; -875.045; -777.918
739.365;  514.727;   79.955;  -69.919
739.628;  -12.446; -884.045; -805.919
739.890;  -22.370; -758.045; -710.919
740.152;  -51.493; -692.044; -754.920
740.414;   -8.866; -408.044; -359.920
740.677;  -44.314; -785.044; -634.921
740.939;  -54.162; -587.044; -487.921
741.201;  295.315; -432.044; -572.921
741.463;   38.966; -689.043; -745.922
741.725;    9.393;  -21.043; -199.922
741.987;   51.570;  220.957;  116.078
742.249;    4.922; -751.043; -859.923
742.511;  225.124; -703.043; -794.923
742.773;   21.826; -546.042; -546.924
743.035;  140.377;  796.958;  533.076
743.297;  -30.021; -963.042;-1013.924
743.559;  773.456; -278.042; -262.925
743.821;   66.683; -735.042; -744.925
744.083;   22.010;  -44.041; -149.925
744.345;  -89.638; -869.041; -892.926
744.607;   44.113;   75.959;  122.074
744.868;  -49.585; -490.041; -554.927
745.130; -105.758; -994.041;-1008.927
745.392;   39.569;   -1.040;  -44.927
745.653;  -15.804; -411.040; -378.928
745.915;  147.173;  896.960;  631.072
746.177;   57.399;   35.960;  -43.928
746.438;   -8.499; -428.040; -543.929
746.700;  -41.797; -947.039; -988.929
746.961;    6.780; -659.039; -740.930
747.223;  117.607; -190.039;  -74.930
747.484;   87.359; -391.039; -471.930
747.746;  127.885;  -23.038; -106.931
748.007;  127.562; -647.038; -689.931
748.269;  296.914; -468.038; -440.931
748.530;  514.866; -852.038; -638.932
748.791;  255.743; -354.038; -420.932
749.053;  460.870;  286.963;  163.067
749.314;  460.971; -236.037; -169.933
749.575;  526.573; -945.037; -905.933
749.836;  883.375; -217.037;   86.066
750.098; 2626.127;  -60.037;  -21.934
750.359;37876.679;  414.964;  555.066
750.620; 9180.181; -121.036; -220.935
750.881; 1092.682; -585.036; -513.935
751.142; 1424.184; -950.036; -938.936
751.403;17294.486; -789.036; -705.936
751.664; 7188.563;-1034.035; -999.936
751.925;  485.540; -175.035; -262.937
752.186;  277.592; -298.035; -278.937
752.447;  125.943; -590.035; -445.937
752.708;   40.220; -532.035; -648.938
752.969;   14.522; -566.034; -576.938
753.230;   -0.101; -777.034; -672.939
753.491;   -6.724; -650.034; -631.939
753.751;   73.753;  109.966;   19.061
754.012;   96.679;  258.967;  181.060
754.273;   61.231; -174.033;  -71.940
754.534;    6.208; -487.033; -580.940
754.794;  -80.690; -926.033; -911.941
755.055;  138.887; 1051.967;  881.059
755.316;  -36.811; -700.032; -566.942
755.576;  -28.410; -606.032; -576.942
755.837;  -50.033; -527.032; -695.942
756.097;  -32.406; -530.032; -564.943
756.358;  -67.579; -725.032; -770.943
756.618;  -53.702; -705.031; -641.943
756.879;   13.675; -254.031; -349.944
757.139; -128.749;-1098.031;-1116.944
757.400;  -61.147; -538.031; -553.945
757.660;  -20.245; -365.031; -401.945
757.920;   23.832; -266.030; -228.945
758.181;  -20.316; -468.030; -351.946
758.441;  -97.789; -870.030; -809.946
758.701;  -29.812; -308.030; -215.946
758.961;  -13.661; -220.030; -278.947
759.222;  -51.984; -574.029; -502.947
759.482;  -77.782; -683.029; -723.948
759.742; -102.955; -706.029; -547.948
760.002;   11.697;  -83.029; -143.948
760.262;   24.224;   50.972;  182.051
760.522;  -39.225; -498.028; -574.949
760.782;  -59.523; -738.028; -612.949
761.042;  -29.771; -618.028; -573.950
761.302;   50.106;   55.972;  -18.950
761.562;   56.133; -164.027; -154.951
761.822;   94.135; -710.027; -551.951
762.082;  -36.914;-1104.027;-1093.951
762.342;   50.613; -328.027; -403.952
762.601;   82.840; -567.027; -506.952
762.861;  377.867; -281.026; -207.952
763.121;  429.719; -406.026; -411.953
763.381; 7656.471; -499.026; -485.953
763.640; 7932.947; -139.026; -307.954
763.900;  332.874; -242.026; -203.954
764.160;   75.076; -458.025; -491.954
764.419;  -23.597; -726.025; -782.955
764.679;  -74.870; -795.025; -726.955
764.939;  -20.543; -124.025; -210.955
765.198;  -70.342; -608.025; -563.956
765.458;  -83.340; -710.024; -612.956
765.717;  -80.338; -454.024; -590.957
765.976;  -51.686; -428.024; -411.957
766.236;  -80.834; -475.024; -610.957
766.495;   15.243;  260.977;   73.042
766.755;  -94.156;-1090.023; -987.958
767.014;    2.046; -594.023; -665.958
767.273;  -44.102; -373.023; -397.959
767.533;  -54.225; -228.023; -307.959
767.792;  -24.373; -151.022; -188.960
768.051;  -66.546; -228.022; -276.960
768.310;  -80.195; -546.022; -650.960
768.569;   -7.943; -161.022;    4.039
768.828;  -18.541; -285.022; -363.961
769.088; -116.439;-1050.021; -942.961
769.347;  -88.112; -755.021; -599.962
769.606;  -90.410; -876.021; -857.962
769.865; -118.534;-1016.021;-1033.963
770.124;   -1.757; -411.021; -336.963
770.383;  -49.480; -778.020; -910.963
770.641;   -1.228; -398.020; -400.964
770.900;  -76.076; -953.020; -846.964
771.159;  -51.124; -851.020; -951.964
771.418;  -18.623; -917.020; -779.965
771.677;  119.704; -224.019; -293.965
771.936;  131.231; -794.019; -865.966
772.194; 2273.983; -465.019; -437.966
772.453;10720.760; -213.019; -391.966
772.712;  738.287;  416.982;  329.033
772.970;  127.538;   32.982;   63.033
773.229;   83.290;  -22.018;  102.033
773.488;  -89.883; -814.018; -770.968
773.746;   45.069;  296.982;  335.032
774.005;   -0.379;  190.983;  -22.969
774.263;   10.548;  243.983;  177.031
774.522;  -74.951; -422.017; -548.969
774.780;  -73.074; -484.017; -417.970
775.039;  -96.172; -551.017; -531.970
775.297;  -30.345; -135.016; -351.970
775.555;  -96.943; -489.016; -612.971
775.814; -116.466; -618.016; -570.971
776.072; -116.915; -749.016; -740.971
776.330; -110.213; -630.016; -520.972
776.589; -131.261; -703.015; -721.972
776.847; -130.509; -645.015; -624.973
777.105; -170.632;-1016.015;-1032.973
777.363;  -80.630; -459.015; -454.973
777.621; -145.678; -660.015; -717.974
777.879;  -20.952;  -42.014;   32.026
778.138; -102.675; -554.014; -717.974
778.396; -104.898; -585.014; -526.975
778.654; -173.621;-1015.014; -970.975
778.912;  -60.219; -269.014; -371.976
779.170; -138.342; -880.013; -803.976
779.427; -148.566; -922.013; -897.976
779.685; -134.939; -880.013; -832.977
779.943;  -88.262; -654.013; -593.977
780.201; -166.685; -964.012; -883.978
780.459; -119.983; -651.012; -610.978
780.717;  -88.081; -440.012; -390.978
780.974; -104.980; -449.012; -490.979
781.232;  -71.578; -358.012; -338.979
781.490;  -85.726; -551.011; -472.979
781.747; -104.524; -555.011; -476.980
782.005;   12.203;  462.989;  254.020
782.263; -165.695; -542.011;-1004.981
782.520;  -67.869; -326.011; -501.981
782.778; -165.217;-1013.010;-1051.981
783.035; -174.190; -962.010; -938.982
783.293;  -48.863; -248.010; -206.982
783.550;  -61.336; -134.010; -198.982
783.808; -135.334; -764.010; -776.983
784.065; -169.933; -745.009; -874.983
784.322;  -53.256;   25.991;  -86.984
784.580; -139.354; -915.009; -771.984
784.837;  -99.177; -392.009; -466.984
785.094; -124.000; -783.009; -762.985
785.352;  -70.098; -304.008; -404.985
785.609; -116.622; -934.008; -839.985
785.866;  -56.795; -345.008; -401.986
786.123;  -76.593; -639.008; -583.986
786.380; -103.491; -665.008; -604.987
786.637;  -53.239; -225.007; -380.987
786.895;  -17.012; -456.007; -543.987
787.152;  -54.136; -135.007; -267.988
787.409;  -44.759; -123.007; -225.988
787.666;  -77.757; -299.006; -378.988
787.923; -115.080; -616.006; -695.989
788.179; -106.378; -551.006; -584.989
788.436; -117.776; -585.006; -585.990
788.693;  -37.275;  -92.006;  -87.990
788.950;  146.452; -125.005; -112.990
789.207;  212.154; -381.005; -372.991
789.464;  -53.944; -161.005; -301.991
789.720;    6.108;  150.995;  110.009
789.977; -175.715;-1003.005; -671.992
790.234;  -36.739;   44.996;  -66.992
790.490; -145.937; -884.004;-1031.993
790.747;  -23.310;  -85.004;   22.007
791.004;  -26.333; -426.004; -348.993
791.260;  -90.206; -430.004; -560.994
791.517;  -92.829; -843.003; -788.994
791.773;  -58.953; -379.003; -342.994
792.030; -112.401; -596.003; -660.995
792.286; -116.249; -686.003; -636.995
792.543;  -28.747;  -74.002; -159.995
792.799;  -58.745; -584.002; -382.996
793.055; -158.143;-1179.002;-1210.996
793.312; -104.392; -827.002; -816.997
793.568;  -47.315; -746.002; -599.997
793.824;   11.787; -226.001; -284.997
794.081;   24.364; -447.001; -508.998
794.337;   58.216; -664.001; -561.998
794.593; 1450.168; -319.001; -271.999
794.849; 6568.594; -746.001; -772.999
795.105;  312.021; -270.000; -261.999
795.361;   17.673; -490.000; -457.000
795.617;  -64.075; -875.000; -945.000
795.873;  -63.275; -360.000; -407.000
796.129;  -29.400; -368.000; -306.000
796.385;  -33.725; -124.000; -156.000
796.641;   69.400;  412.000;  550.000
796.897;  -90.000; -666.000; -635.000
797.153;   86.025;  453.000;  357.000
797.409; -106.000; -785.000; -868.000
797.665;  -72.800; -625.000; -732.000
797.921;  -81.250; -775.000; -762.000
798.176;  -53.900; -744.000; -747.000
798.432;  -51.075; -824.000; -596.000
798.688;  -82.600;-1174.000;-1078.000
798.943;   64.775; -165.000; -147.000
799.199;   -5.475;-1005.000; -959.000
799.455;  237.500;  369.000;  316.000
799.710;  129.500; -813.000; -380.000
799.966;  274.250; -162.000; -160.000
800.221;  489.375; -638.000; -721.000
800.477;10767.350; -743.000; -710.000
800.732; 8917.850; -773.000; -800.000
800.988;  610.375;  205.000;  -19.000
801.243; 1790.425; -454.000; -344.000
801.498; 7192.175; -814.000; -739.000
801.754;  415.225; -289.000; -163.000
802.009;   71.975; -257.000; -335.000
802.264;  -60.875; -967.000;-1033.000
802.520;   19.575;  222.000;   -3.000
802.775;  -44.950; -524.000; -359.000
803.030;   54.075;  395.000;  356.000
803.285; -123.600; -840.000; -903.000
803.540;  -78.800; -686.000; -699.000
803.795;  -59.150; -648.000; -583.000
804.051;  -41.050; -279.000; -346.000
804.306;   25.900;  168.000;  128.000
804.561;  138.600;  451.000;  362.000
804.816;  127.700;  714.000;  861.000
805.071;   10.325; -185.000; -280.000
805.325;  228.725; -257.000; -427.000
805.580; -113.950; -841.000; -877.000
805.835;  -15.575; -204.000; -297.000
806.090;  -78.125; -760.000; -676.000
806.345;  -22.000; -344.000; -264.000
806.600;  -29.925; -549.000; -632.000
806.854;  -23.975; -408.000; -538.000
807.109;  -21.050; -493.000; -577.000
807.364;   14.600; -407.000; -328.000
807.618;    2.225; -415.000; -381.000
807.873;   57.250; -470.000; -494.000
808.128;   86.925; -257.000; -518.000
808.382;  109.775; -224.000; -332.000
808.637;   61.725; -440.000; -511.000
808.891;  189.025; -257.000; -180.000
809.146;  100.375; -902.000; -794.000
809.400;  265.125; -848.000; -923.000
809.654;  336.075; -779.000; -551.000
809.909;  492.900; -841.000; -927.000
810.163; 7200.975; -813.000; -651.000
810.418;17523.700; -940.000; -861.000
810.672; 1017.800; -685.000; -690.000
810.926;  726.625; -993.000; -973.000
811.180; 1413.975; -439.000; -372.000
811.434;31886.850;  240.000;  135.000
811.689;11934.325; -231.000; -365.000
811.943;  610.050; -936.000; -953.000
812.197;  308.725; -893.000; -671.000
812.451;  110.200; -379.000; -514.000
812.705;  -34.725; -809.000; -619.000
812.959;   -7.975; -263.000; -388.000
813.213;   -8.575; -283.000; -209.000
813.467;   67.550;  470.000;  253.000
813.721; -112.650; -764.000; -792.000
813.975; -112.250; -826.000; -877.000
814.229;   47.350;  430.000;  353.000
814.482;  -71.250; -517.000; -566.000
814.736; -131.025; -766.000; -744.000
814.990; -119.500; -779.000; -872.000
815.244;  -49.675; -228.000; -285.000
815.497;  -92.925; -636.000; -601.000
815.751;   -8.025; -141.000;   82.000
816.005; -102.075; -470.000; -586.000
816.258;  -71.825; -510.000; -363.000
816.512; -106.350; -693.000; -610.000
816.766;   -0.200;  121.000;  157.000
817.019;   23.800;  148.000;  149.000
817.273; -125.175;-1000.000; -802.000
817.526;  -25.225; -206.000; -173.000
817.779;  -40.100;-1049.000; -960.000
818.033;  -76.475; -693.000; -807.000
818.286; -134.250; -725.000; -792.000
818.540;  -85.600; -403.000; -403.000
818.793;  -76.250; -402.000; -489.000
819.046;  -96.575; -582.000; -520.000
819.299;  -51.200; -157.000; -166.000
819.553; -106.425; -552.000; -592.000
819.806; -166.925;-1016.000; -838.000
820.059;  -62.250; -334.000; -354.000
820.312;   10.400;  152.000;  185.000
820.565;  -31.850;  110.000;  -27.000
820.818;  -46.550;  -59.000; -173.000
821.071; -155.250;-1041.000; -957.000
821.324; -115.350; -536.000; -540.000
821.577; -101.700; -457.000; -483.000
821.830;  -68.125; -270.000; -172.000
822.083; -132.225; -733.000; -288.000
822.336;  -46.600; -261.000; -167.000
822.589; -126.975; -805.000; -688.000
822.842; -151.350; -875.000; -770.000
823.094; -185.975;-1076.000;-1114.000
823.347; -123.775; -925.000; -729.000
823.600;   25.050;  402.000;  187.000
823.853;  -65.150; -311.000; -267.000
824.105;  -67.750; -331.000; -575.000
824.358; -117.650; -617.000; -716.000
824.611;   19.525;  234.000;   40.000
824.863;  -55.475; -612.000; -591.000
825.116;   52.525;  -33.000;   27.000
825.368;   86.125; -366.000; -372.000
825.621;  159.400; -186.000; -240.000
825.873;   69.850; -704.000; -737.000
826.126;  612.475; -669.000; -641.000
826.378;11907.125; -389.000; -505.000
826.630; 2671.000; -890.000; -898.000
826.883;   22.475; -754.000; -693.000
827.135;   51.000; -279.000; -270.000
827.387; -124.250; -893.000; -839.000
827.639;  -24.675;  -86.000;   32.000
827.892; -124.075; -742.000; -582.000
828.144; -130.450; -848.000; -804.000
828.396;  -44.300;  104.000;  -80.000
828.648;  -95.575; -440.000; -333.000
828.900; -147.175; -702.000; -795.000
829.152; -112.850; -684.000; -683.000
829.404;  -72.300; -215.000; -267.000
829.656;  -18.525;  321.000;  214.000
829.908;  -16.425;  393.000;  229.000
830.160; -163.925;-1064.000;-1047.000
830.412; -100.450; -481.000; -430.000
830.664; -121.025; -557.000; -665.000
830.916;  -80.125; -268.000; -206.000
831.167; -183.625;-1073.000; -951.000
831.419; -124.000; -623.000; -566.000
831.671; -139.550; -764.000; -809.000
831.923;  -92.800; -311.000; -447.000
832.174;  -73.550; -273.000; -331.000
832.426; -110.625; -493.000; -582.000
832.678; -183.925;-1043.000;-1091.000
832.929; -168.225; -947.000; -935.000
833.181;  -58.550; -575.000; -677.000
833.432;  -56.100;  -59.000; -186.000
833.684;  -34.950;  112.000;  -27.000
833.935; -113.550; -610.000; -566.000
834.187; -133.650; -829.000; -823.000
834.438;  -45.900;  -58.000;  -25.000
834.689;  -51.700; -255.000; -123.000
834.941;  -62.850; -343.000; -244.000
835.192; -104.200; -590.000; -533.000
835.443; -121.950; -419.000; -506.000
835.695;   -3.575;  138.000;  -16.000
835.946;  -99.800; -608.000; -378.000
836.197; -101.700; -599.000; -622.000
836.448;  -90.175; -528.000; -395.000
836.699;  -48.325; -253.000; -341.000
836.950;  -10.550;   72.000;    7.000
837.201; -141.875;-1003.000; -987.000
837.452;  -49.500; -356.000; -170.000
837.703; -106.100; -791.000; -737.000
837.954;  -44.400; -205.000; -365.000
838.205;  -85.725;-1029.000;-1008.000
838.456;  178.600; -196.000; -282.000
838.707;   -8.025; -423.000; -519.000
838.958;   14.600; -634.000; -647.000
839.209;  290.875;   18.000;   40.000
839.460;  119.325; -439.000; -201.000
839.710;  171.850; -135.000; -297.000
839.961;  435.425;  730.000;  612.000
840.212;  352.000; -382.000; -497.000
840.462; 1149.325; -328.000; -277.000
840.713;18591.950; -571.000; -536.000
840.964; 6886.675;  -62.000; -143.000
841.214;  491.425; -384.000; -624.000
841.465;  569.625; -214.000; -141.000
841.715;  530.300; -417.000; -380.000
841.966;  697.275; -746.000; -685.000
842.216;10026.025; -330.000; -431.000
842.466;35746.725; -169.000; -313.000
842.717; 1804.800; -964.000; -952.000
842.967;  327.950; -635.000; -641.000
843.217;  265.600;   20.000;   28.000
843.468;   68.700; -104.000; -132.000
843.718;  -39.225; -718.000; -726.000
843.968; -103.525; -837.000; -765.000
844.218;   22.025; -315.000; -262.000
844.469;  -54.650; -577.000; -561.000
844.719; -103.325; -537.000; -682.000
844.969;  -87.625; -550.000; -580.000
845.219; -144.900; -814.000; -862.000
845.469;  -70.775; -392.000; -342.000
845.719; -137.625; -792.000; -884.000
845.969;  -13.550;  119.000;  174.000
846.219; -119.325; -738.000; -720.000
846.469;   -2.500;  464.000;  432.000
846.718;  -47.550; -115.000;   31.000
846.968; -140.900; -827.000; -827.000
847.218;  -50.375; -224.000; -371.000
847.468;   -3.225; -586.000; -555.000
847.718; -137.750; -827.000; -798.000
847.967; -130.100; -826.000; -915.000
848.217;  -89.425; -449.000; -569.000
848.467;  -72.950; -405.000; -376.000
848.716; -108.025; -708.000; -725.000
848.966;    8.625; -372.000; -358.000
849.215;  -60.725; -428.000; -419.000
849.465; -100.350; -785.000; -615.000
849.714; -144.325;-1132.000;-1150.000
849.964;  -62.550; -551.000; -613.000
850.213;  -17.350; -393.000; -355.000
850.463;   77.825;  137.000;  340.000
850.712;   -1.500; -542.000; -567.000
850.961;   11.475; -739.000; -678.000
851.211;   98.700; -513.000; -504.000
851.460;  160.275; -635.000; -650.000
851.709;  581.100;  -25.000;   18.000
851.958;10826.050; -912.000; -750.000
852.208;12336.800; -859.000; -879.000
852.457;  432.350; -181.000;  -13.000
852.706;   62.125; -791.000; -823.000
852.955;   12.300; -507.000; -528.000
853.204;  -74.500; -521.000; -461.000
853.453;  -92.500; -418.000; -458.000
853.702; -119.000; -660.000; -750.000
853.951; -116.075; -532.000; -520.000
854.200; -117.825; -613.000; -562.000
854.449; -135.325; -695.000; -661.000
854.698; -109.925; -340.000; -279.000
854.946;  -77.000; -181.000; -284.000
855.195; -150.550; -843.000; -868.000
855.444; -106.450; -395.000; -420.000
855.693; -131.450; -345.000; -432.000
855.941; -114.125; -387.000; -516.000
856.190;  -59.050; -256.000; -382.000
856.439; -139.850; -652.000; -703.000
856.687;  -63.625;  -99.000;  -72.000
856.936; -120.050; -621.000; -323.000
857.184; -190.175;-1067.000;-1020.000
857.433; -116.625; -423.000; -512.000
857.681; -154.625; -989.000; -953.000
857.930;  -72.825; -282.000; -433.000
858.178; -171.225; -856.000; -929.000
858.427; -143.275; -802.000; -781.000
858.675; -117.500; -377.000; -544.000
858.923; -121.950; -527.000; -819.000
859.172; -187.050;-1094.000;-1070.000
859.420;  -98.400; -339.000; -239.000
859.668; -132.675; -624.000; -628.000
859.916;  -33.700;  109.000;  115.000
860.164; -115.600; -699.000; -603.000
860.413;  310.150; -878.000; -696.000
860.661;  212.525; -709.000; -577.000
860.909;  -93.750; -339.000; -325.000
861.157;  -82.200; -277.000; -444.000
861.405; -132.350; -534.000; -670.000
861.653;   18.050;  310.000;  310.000
861.901;  193.125; -543.000; -613.000
862.149;   -6.200; -801.000; -824.000
862.396;  -82.825; -297.000; -187.000
862.644;  -86.475; -368.000; -347.000
862.892;  -49.025;   98.000;  138.000
863.140; -122.225; -549.000; -530.000
863.388; -166.875; -815.000; -759.000
863.635; -126.700; -642.000; -601.000
863.883;   -9.575;  231.000;  190.000
864.131;  -94.875; -288.000; -357.000
864.378; -146.050; -675.000; -540.000
864.626; -102.325; -347.000; -415.000
864.873; -124.475; -556.000; -505.000
865.121; -152.325; -714.000; -799.000
865.368;  -52.025; -173.000;   75.000
865.616;  -35.500;  -33.000;  -40.000
865.863;  -87.900; -462.000; -506.000
866.111; -117.075; -795.000; -824.000
866.358;   36.275; -426.000; -420.000
866.605; 2210.750;  -64.000; -804.000
866.853; 2104.000; -621.000; -537.000
867.100;  -41.050; -728.000; -775.000
867.347; -105.000; -672.000; -611.000
867.594;  -98.400; -740.000; -714.000
867.841;   87.600;   97.000;   17.000
868.089; -150.550; -746.000; -698.000
868.336; -113.950; -477.000; -420.000
868.583; -141.350; -637.000; -741.000
868.830;  -58.525; -131.000; -170.000
869.077; -162.825; -859.000; -787.000
869.324; -137.475; -502.000; -458.000
869.571; -126.650; -398.000; -430.000
869.818; -135.975; -485.000; -439.000
870.065;  -99.650; -439.000; -513.000
870.311; -121.775; -456.000; -542.000
870.558; -103.975; -332.000; -311.000
870.805;  -92.225; -320.000; -384.000
871.052; -113.325; -494.000; -369.000
871.298;  -72.850; -204.000; -131.000
871.545;  -71.150; -151.000; -185.000
871.792;  -94.850; -173.000; -222.000
872.038;  -73.350;   43.000; -126.000
872.285; -133.550; -496.000; -387.000
872.532; -100.975; -357.000; -387.000
872.778;   10.625;  556.000;  403.000
873.025;  -91.450; -384.000; -359.000
873.271;    5.775;  501.000;  578.000
873.517;  -33.400; -133.000; -209.000
873.764;  -39.775; -193.000;  -80.000
874.010;  -73.800; -143.000; -230.000
874.257;  -56.550;  123.000;   90.000
874.503; -129.475; -579.000; -479.000
874.749;  -69.700;   31.000;  275.000
874.995;  -70.325;  -80.000;  -20.000
875.242; -129.825; -540.000; -478.000
875.488; -113.075; -414.000; -439.000
875.734;  -52.950; -106.000; -234.000
875.980;  204.000; -872.000;-1032.000
876.226;  366.200; -157.000; -255.000
876.472;  -13.150;  343.000;  237.000
876.718;  -56.800;  184.000;  158.000
876.964;  -37.825;   56.000;   55.000
877.210; -164.350; -547.000; -677.000
877.456; -144.550; -630.000; -557.000
877.702; -177.975; -821.000; -832.000
877.948; -110.625; -377.000; -497.000
878.193;    9.650;  361.000;  255.000
878.439;  -86.800; -487.000; -472.000
878.685;  -98.925; -272.000; -343.000
878.931; -143.975; -618.000; -676.000
879.176;  -93.750; -201.000; -201.000
879.422; -178.625; -933.000; -820.000
879.668;   61.825;   10.000;   79.000
879.913;  148.250;   53.000;  137.000
880.159;  -55.875; -112.000;  -17.000
880.404;  -67.475; -152.000; -162.000
880.650;  -50.125;   91.000;  141.000
880.895; -152.275; -670.000; -710.000
881.141; -122.950; -454.000; -428.000
881.386; -148.675; -503.000; -658.000
881.631;  -94.250; -311.000; -166.000
881.877;  -36.700;  112.000;  -13.000
882.122; -138.825; -684.000; -600.000
882.367;  -90.525; -136.000; -186.000
882.612;  -78.125;  -80.000; -176.000
882.858; -192.100; -877.000; -823.000
883.103; -101.825; -297.000; -267.000
883.348; -155.125; -759.000; -852.000
883.593; -153.825; -677.000; -602.000
883.838;  -63.075; -311.000;  -24.000
884.083;   16.925;  353.000;  288.000
884.328;  -97.825; -564.000; -545.000
884.573;  -63.025; -196.000; -143.000
884.818;  208.650; -694.000; -531.000
885.063;  169.725; -348.000; -315.000
885.308;  -93.400; -475.000; -398.000
885.553;  -11.475;  245.000;  325.000
885.797; -125.450; -545.000; -615.000
886.042;  -52.550;    8.000;   58.000
886.287;  -93.100; -253.000; -211.000
886.532;  -54.650;   26.000;  204.000
886.776;  -94.200; -407.000; -525.000
887.021; -150.650; -621.000; -574.000
887.265; -154.000; -685.000; -689.000
887.510; -139.975; -557.000; -496.000
887.755;  -85.525; -194.000; -164.000
887.999; -142.600; -552.000; -575.000
888.244;  -61.375;  -58.000;  161.000
888.488;   -1.625;  371.000;  393.000
888.732; -128.800; -368.000; -520.000
888.977; -142.550; -622.000; -567.000
889.221; -166.100; -683.000; -659.000
889.465; -122.025; -422.000; -566.000
889.710;  -81.800;  -56.000; -299.000
889.954;  -16.425;  579.000;  467.000
890.198; -141.675; -584.000; -707.000
890.442; -167.975; -716.000; -712.000
890.687; -172.325; -800.000; -753.000
890.931;  -86.450; -273.000; -210.000
891.175; -138.375; -502.000; -500.000
891.419;  -79.075; -105.000; -110.000
891.663;  -96.625; -239.000; -112.000
891.907; -172.925; -801.000; -545.000
892.151; -179.250; -920.000; -815.000
892.395; -119.025; -274.000; -387.000
892.638;  -28.500;  408.000;  291.000
892.882; -185.300; -780.000; -867.000
893.126;    3.175;  758.000;  558.000
893.370;  -92.025; -167.000; -168.000
893.614; -153.100; -714.000; -715.000
893.857; -108.325; -183.000; -197.000
894.101; -137.600; -527.000; -631.000
894.345;  -46.700;  300.000;  150.000
894.588;    1.625;  569.000;  380.000
894.832;  -90.450; -178.000;  -84.000
895.075;  -85.700;   15.000;  -92.000
895.319; -125.950; -552.000; -420.000
895.563; -121.750; -413.000; -353.000
895.806; -162.950; -628.000; -741.000
896.049;  -58.350; -576.000; -368.000
896.293;  103.600;  527.000;  405.000
896.536;  -77.400; -465.000; -468.000
896.779;  -66.375; -149.000;   -1.000
897.023; -136.175; -751.000; -714.000
897.266;  -37.625;  325.000;  269.000
897.509; -188.625; -900.000; -901.000
897.752;  -57.675;  149.000;  171.000
897.996; -185.225; -972.000; -864.000
898.239;  -53.825;  168.000;  102.000
898.482; -136.700; -431.000; -453.000
898.725;  -20.950;  101.000;   53.000
898.968; -157.700; -609.000; -744.000
899.211; -113.875; -513.000; -361.000
899.454; -124.325; -633.000; -539.000
899.697;  -74.025;   90.000;  -43.000
899.940; -169.750; -761.000; -757.000
900.182; -116.775; -335.000; -405.000
900.425; -102.600; -150.000; -298.000
900.668;  -37.400;  491.000;  350.000
900.911; -108.100; -292.000; -345.000
901.154;  -64.525;  141.000;   -3.000
901.396; -139.450; -407.000; -412.000
901.639; -149.375; -430.000; -496.000
901.882; -186.450; -790.000; -809.000
902.124; -100.650;  -29.000; -143.000
902.367; -122.075; -315.000; -361.000
902.609; -148.550; -476.000; -453.000
902.852;  -98.100; -108.000; -260.000
903.094; -140.225; -458.000; -337.000
903.337;  -54.800;  -26.000;   53.000
903.579; -117.375; -228.000; -441.000
903.821; -171.475; -597.000; -744.000
904.064;  -57.450;   85.000;  127.000
904.306;  -88.425; -126.000; -166.000
904.548; -110.050; -152.000; -366.000
904.790;  -93.775; -195.000; -340.000
905.033; -144.450; -625.000; -577.000
905.275; -120.225; -513.000; -524.000
905.517;   38.125;  468.000;  256.000
905.759;  -72.425; -667.000; -761.000
906.001; -110.975; -322.000; -369.000
906.243;  -47.675; -162.000; -224.000
906.485;  115.600; -265.000; -207.000
906.727;  111.700; -499.000; -542.000
906.969;  -42.600;  -30.000; -135.000
907.211;  142.775; -316.000; -382.000
907.453;  277.275; -188.000; -237.000
907.695;    8.900; -158.000; -385.000
907.936;   44.625;  818.000;  706.000
908.178;  -56.050;   92.000; -135.000
908.420;  -73.225; -111.000; -162.000
908.662; -142.450; -633.000; -682.000
908.903;  -91.050; -208.000; -123.000
909.145;  -75.500; -240.000; -305.000
909.386;    1.175;  315.000;  280.000
909.628;   43.950;  363.000;  397.000
909.870;  -14.850;   29.000;  264.000
910.111;  -97.975; -809.000; -949.000
910.353;    2.250; -123.000; -161.000
910.594;    3.025; -574.000; -606.000
910.835;   62.775; -265.000; -326.000
911.077;  133.325; -503.000; -604.000
911.318;  283.975; -505.000; -471.000
911.559;  456.950; -577.000; -880.000
911.801; 1371.000; -284.000; -280.000
912.042;10893.825;  -50.000; -159.000
912.283;26628.250;  404.000;  371.000
912.524; 3810.275; -396.000; -457.000
912.765;  470.550; -193.000;   79.000
913.006;  236.250; -307.000; -338.000
913.247;   42.575; -270.000; -290.000
913.488;    3.275;  -43.000;   30.000
913.729; -105.400; -373.000; -373.000
913.970;  -75.975;  -96.000; -292.000
914.211;  -90.625; -160.000; -198.000
914.452;  -65.175; -118.000;  -11.000
914.693;    9.500;  510.000;  592.000
914.934;   20.000;  510.000;  440.000
915.175;  -74.325;   53.000;  -95.000
915.415;  -85.950; -137.000;   27.000
915.656;  -75.275;  -28.000;  192.000
915.897;  -85.275; -252.000;  -82.000
916.137;  -73.975;   74.000;   -9.000
916.378; -143.575; -573.000; -517.000
916.619;  -90.525; -159.000;  -63.000
916.859;  -29.325;  303.000;  330.000
917.100;  135.150; 1655.000; 1070.000
917.340;   41.050;  930.000;  728.000
917.581;   31.025;  965.000;  789.000
917.821;  -28.575; -171.000;  143.000
918.061;   17.500; -199.000;  -72.000
918.302;  -50.650; -152.000; -211.000
918.542;  -23.175;  -22.000;    3.000
918.782;   43.325;  369.000;  377.000
919.023;  124.375;  360.000;  427.000
919.263; 1805.750; 8131.000;  202.000
919.503; 1098.875; -137.000;  -54.000
919.743;  646.925;  390.000;  266.000
919.983;  254.100; -134.000;  -26.000
920.223;   80.475;  135.000;   14.000
920.463;  133.925;  631.000;  554.000
920.703;  125.300;   84.000;   39.000
920.943;  161.750; -110.000;   90.000
921.183;  219.700; -414.000; -405.000
921.423;  500.150;  307.000;  546.000
921.663;  727.950; -174.000; -257.000
921.903; 1569.175;  237.000;  173.000
922.143; 8901.950;  372.000;  389.000
922.383;33368.600;  158.000;  115.000
922.622;10496.675; -120.000;  -15.000
922.862; 1153.225;  796.000;  785.000
923.102;  452.775;  -51.000;   33.000
923.341;  167.475;   59.000;   74.000
923.581;   91.775;  450.000;  360.000
923.821;   11.575;  301.000;  398.000
924.060;   11.525;  351.000;  193.000
924.300;  -59.250;  -16.000; -128.000
924.539;  -19.325;  584.000;  473.000
924.779;    7.875;  812.000;  597.000
925.018;  -50.350;  247.000;  353.000
925.257;  -13.175;  595.000;  666.000
925.497;  -39.000;  447.000;  412.000
925.736;  -98.625;  -35.000;  102.000
925.975;    1.650;  687.000;  669.000
926.214;   21.900;  907.000;  850.000
926.454;   23.225;  706.000;  757.000
926.693;  -47.675;  419.000;  543.000
926.932;   33.700; 1021.000;  825.000
927.171;   65.650; 1107.000; 1044.000
927.410;   63.150; 1144.000;  967.000
927.649;   22.125;  924.000;  742.000
927.888;  -15.450;  590.000;  564.000
928.127;    6.750;  680.000;  678.000
928.366;   21.525;  842.000;  826.000
928.605;   24.675;  831.000;  737.000
928.844;  253.150; 1451.000; 1393.000
929.083;  614.125;  770.000;  613.000
929.321;  320.250; 1335.000; 1359.000
929.560;   94.750; 1158.000; 1122.000
929.799;  -32.550;  574.000;  475.000
930.038;   97.125; 1025.000; 1394.000
930.276;  -62.350;  334.000;  397.000
930.515;  -11.175;  827.000;  681.000
930.753;  -23.475;  614.000;  589.000
930.992;  -28.300;  664.000;  717.000
931.230;    5.375;  847.000;  847.000
931.469;  165.425; 2162.000;  892.000
931.707;   84.500;  840.000;  751.000
931.946;   52.800; 1278.000; 1344.000
932.184;   60.950; 1437.000; 1175.000
932.423;   43.750; 1265.000;  963.000
932.661;   89.275; 1296.000; 1428.000
932.899;   14.300;  987.000;  821.000
933.137;   10.400;  754.000;  564.000
933.376;  127.075; 1664.000; 1335.000
933.614;  152.150; 1759.000; 1196.000
933.852;   47.000; 1357.000; 1171.000
934.090;  133.000; 1722.000; 1747.000
934.328;   92.425; 1252.000; 1457.000
934.566;   76.625; 1431.000; 1110.000
934.804;  127.025; 1263.000; 1309.000
935.042;  441.025; 1861.000; 1850.000
935.280; 1732.350; 2088.000; 2063.000
935.518; 1575.500; 2113.000; 2007.000
935.756;  340.700; 2481.000; 2316.000
935.994;  170.100; 1808.000; 1751.000
936.231;  340.525; 2890.000; 2950.000
936.469;  197.950; 2367.000; 2378.000
936.707;  148.975; 2220.000; 2167.000
936.945;  262.600; 2825.000; 2882.000
937.182;  200.450; 2679.000; 2741.000
937.420;  309.025; 3602.000; 3031.000
937.657;  422.225; 3365.000; 3478.000
937.895;  358.425; 3331.000; 3488.000
938.133;  314.325; 3540.000; 3528.000
938.370;  343.500; 3896.000; 4191.000
938.607;  390.125; 4488.000; 4205.000
938.845;  569.950; 5587.000; 5549.000
939.082;  496.025; 5387.000; 5177.000
939.320;  525.175; 5799.000; 5728.000
939.557;  625.550; 6549.000; 6491.000
939.794;  726.175; 7285.000; 7097.000
940.031;  901.050; 8421.000; 8368.000
940.269; 1099.500; 9552.000; 9107.000
940.506; 1126.050;10901.000;10507.000

