
Integration time [ms]: 200.000
Averaging Nr. [scans]: 10
Smoothing Nr. [pixels]: 0
Data measured with spectrometer [name]: 2101013U2
Wave   ;Sample   ;Dark     ;Reference
[nm]   ;[counts] ;[counts] ;[counts] 

394.013;  112.914; -450.257; -315.536
394.305;  498.611; -461.258; -419.536
394.596; 1690.870; -676.269; -527.514
394.887; 3757.593; -796.268; -654.518
395.178; 1548.735;  145.736;   11.476
395.470;  168.650; -210.263; -356.526
395.761;  490.313;  305.734;  394.479
396.052;  786.899; -545.284; -306.489
396.343;  774.294; -557.276; -454.503
396.634;  244.751; -200.279; -290.497
396.926;  229.889; -618.268; -565.517
397.217;  257.400;   11.725;  -17.504
397.508;  110.422; -366.273; -154.507
397.799;   91.551; -555.279; -571.497
398.090;   -3.956; -973.280; -902.495
398.381;  272.696;   11.708;  -11.473
398.672;  -12.102; -585.292; -742.473
398.963;  110.960; -348.279; -373.498
399.254;  248.010;   54.709; -209.475
399.545;  -39.791;-1017.266; -883.520
399.836;  121.679; -407.277; -343.501
400.127;  119.263; -205.295; -209.468
400.418;   97.915; -423.274; -392.506
400.709;  135.926; -359.281; -333.493
401.000;  138.315; -268.291; -309.476
401.290;  231.777;  225.698;  115.545
401.581;  126.875; -166.286; -228.485
401.872;   58.125; -542.298; -486.462
402.163;  131.053; -313.296; -252.467
402.454;  179.911; -123.291; -163.475
402.744;  114.141; -844.297; -813.465
403.035;  815.284; -226.293;  -86.471
403.326;  994.001; -366.292; -384.474
403.617;  729.918;  204.701;  165.539
403.907;  436.906; -593.283; -679.490
404.198; 3435.514; -545.307; -599.446
404.489; 8993.013; -618.283; -588.491
404.779; 3320.281; -618.302; -660.456
405.070;  419.552;  -67.304; -174.451
405.360;  557.787; -259.293; -238.472
405.651;  631.597;  125.699;   98.542
405.942;  396.768;  209.714;  127.516
406.232;  592.188; -432.285; -413.487
406.523; 1049.977;  641.706;  758.530
406.813;  173.071; -579.286; -644.484
407.104;  750.594;  261.708;  144.527
407.394;  467.119; -604.299; -591.462
407.685;  351.387;  336.715;  222.513
407.975;  148.911; -400.283; -382.490
408.265;  236.031; -134.289; -190.478
408.556;  154.607; -472.291; -459.475
408.846;  404.378;  474.706;  429.530
409.137;  167.042;   -1.288; -216.480
409.427;  122.588; -193.285; -271.487
409.717;   57.726; -776.273; -692.508
410.007;  279.779;    4.715; -170.486
410.298;  174.867; -360.295; -342.469
410.588;  165.084; -495.285; -510.486
410.878;   -5.243; -792.287; -873.482
411.168;  198.229; -481.298; -478.463
411.459;  220.904; -295.283; -242.489
411.749;   97.405; -609.292; -507.474
412.039;   88.540; -755.289; -386.480
412.329;  426.269;   40.722;  132.501
412.619;  333.172;  -62.286; -148.485
412.909;  667.634;  639.711;  594.521
413.199;  642.244; -130.280; -251.495
413.490;  771.421;  521.710;  352.523
413.780;  223.350;-1013.279; -913.496
414.070;  561.596;  -46.276;  235.497
414.360;  618.364; -729.278; -666.498
414.650;  695.152; -726.288; -688.482
414.940;  801.449; -538.280; -441.496
415.230; 1435.148;   50.712;   74.519
415.520; 9231.069;  155.730;   66.486
415.809;35156.525; -305.281; -125.493
416.099;27677.882; -388.277; -229.501
416.389; 7166.612;  435.726;  236.494
416.679; 4362.755;   91.738;   85.473
416.969;  776.063; -527.287; -503.483
417.259;  978.952;  341.721;  171.503
417.549; 1154.424;  522.718;  318.508
417.838; 2382.892; -205.268; -147.518
418.128; 7554.029;  650.710;  492.522
418.418; 6387.035; -491.272; -579.509
418.708; 4334.812;    9.726;  -48.506
418.997;15781.706; -474.275; -480.505
419.287;16752.221; -733.273; -790.507
419.577;14996.503; -160.283; -123.489
419.866;49665.580; -588.277; -498.501
420.156;53350.863; -242.270;  -55.513
420.446;10404.345; -112.263;  -26.526
420.735; 1533.055; -376.271; -446.512
421.025; 1546.563; 1830.722;  315.502
421.314; 1343.553; -203.271; -226.512
421.604; 3020.482;   89.732;  233.484
421.893; 1715.148; -705.271; -602.511
422.183;  384.145; -487.263; -461.526
422.472;  610.850;  -36.271; -107.511
422.762;  736.017; -416.266; -379.521
423.051;  426.396; -916.276; -916.503
423.341;  528.624; -491.273; -439.507
423.630;  723.725; -121.265;   15.477
423.919;  658.805;   58.725;   49.495
424.209;  615.752;  -31.263;   56.473
424.498;  837.589;   68.732;  161.483
424.787; 1564.197; -535.267; -601.518
425.077; 4834.423;   34.735;   29.478
425.366; 7221.060; -734.262; -744.528
425.655;13238.524;  639.727;  259.493
425.945;25685.337; -313.247; -268.554
426.234;15000.791;  117.741;  300.467
426.523; 7288.198;  -86.259; -350.534
426.812;10165.011;  107.734;  159.480
427.101;14240.677; -127.269; -323.515
427.390;18264.769;  -55.270;  -86.514
427.680; 4802.325; -624.257; -411.538
427.969;  921.340; -330.255; -301.540
428.258;  556.914; -385.257; -477.536
428.547;  998.441;  449.728;  397.490
428.836; 2263.462; -421.253; -398.543
429.125; 3289.101; -199.259;  -72.534
429.414; 1447.893; -330.251; -294.548
429.703; 4525.193; -231.251; -213.548
429.992;12932.798; -938.250; -828.549
430.281; 8648.035; -397.264; -331.524
430.570; 1099.080;  -21.252;   32.454
430.859; 1219.997;  279.741;  352.466
431.148;  985.031;  636.752;  631.446
431.437;  653.679;  391.748;  367.454
431.725;  279.216; -544.257; -481.536
432.014;  145.772; -845.253; -756.545
432.303;  686.734; -149.239; -105.569
432.592; 1066.944; -460.263; -178.525
432.881; 1454.032; -601.248; -437.554
433.169; 8252.441; -343.255;  -61.540
433.458;16709.081;  445.765;  540.424
433.747; 7449.168; -397.261; -289.529
434.036; 1585.801; -275.242; -280.564
434.324; 3067.715; -395.249; -379.551
434.613; 5177.992;   40.757;  159.437
434.902; 2018.221;  333.760;  439.433
435.190; 1299.933;   75.761;  295.431
435.479;  761.068;  -52.245;   83.441
435.767;  247.779; -411.244; -427.561
436.056;  450.396; -340.242; -294.563
436.345;  617.224; -372.240; -223.568
436.633;  684.708;   60.750;  383.450
436.922;  588.927;  208.760;  414.432
437.210; 1384.667; -194.236;    1.426
437.499; 4425.878; -583.235; -432.576
437.787; 4847.566; -339.236;  -10.574
438.075; 1192.040;   56.761;  162.430
438.364; 1549.744;  -44.238;  250.429
438.652;  986.487; -286.226; -138.592
438.941;  311.838;    3.770;  269.415
439.229;   70.876; -665.252; -466.545
439.517;  103.689; -160.234;  -85.577
439.806;   28.609; -501.225; -290.595
440.094;  426.900;  377.766;  650.421
440.382;  373.305; -653.233; -302.580
440.670;  466.177; -361.235; -285.576
440.959;   60.232; -347.223; -170.599
441.247;  181.653; -151.229; -109.587
441.535;  207.787; -266.235;   31.423
441.823;   91.096; -497.234; -305.578
442.111;  348.759;  173.771;  327.412
442.400; 1050.367; -628.245; -335.559
442.688; 2996.199; -111.234; -620.579
442.976; 2253.452; -786.213; -450.617
443.264;  251.518; -324.224; -364.597
443.552;  238.488; -258.226;   51.408
443.840;  384.085;  602.765;  876.423
444.128;  249.404;  265.767;  269.420
444.416;   -5.637; -694.228; -312.588
444.704;   51.273; -465.219;  -92.605
444.992;  158.792;   -0.226;  240.407
445.280;  112.139; -517.230;  -94.585
445.568;   85.057; -694.212; -396.618
445.856;  698.451; -174.221;  357.398
446.143; 1552.768;  -54.220;   -7.604
446.431; 1272.068;  -25.228;  625.411
446.719;  500.299;  489.783;  675.391
447.007;  383.331;  481.769;  705.416
447.295;  364.828;  597.777;  871.402
447.583;  156.750; -464.229;  -34.587
447.870;  266.847; -434.221; -202.601
448.158;  786.437; -104.230;  129.415
448.446;  594.769; -800.219; -338.604
448.733;  315.020;   13.776;  269.403
449.021;  450.857;   60.788;  341.382
449.309;  358.977; -296.210;  208.379
449.596;  397.594;  128.783;   59.392
449.884;  230.138; -571.222; -325.600
450.172;  134.875; -756.227; -406.590
450.459;  663.829;  645.786;  780.387
450.747; 2877.792; -411.218; -147.608
451.034; 9314.269;  493.772;  889.411
451.322; 7815.434; -413.214; -170.614
451.609;  767.522;  292.777;  508.403
451.897;  737.363; -550.203; -183.634
452.184; 2286.529; -622.223; -400.598
452.472; 2346.906;   97.792;  269.375
452.759;  615.770;  512.781;  864.395
453.047;  215.753; -407.212; -125.617
453.334;  174.681; -732.219; -216.606
453.621;  214.037; -438.214; -161.615
453.909;  291.552;   13.796;  384.368
454.196;  231.714; -299.199; -123.641
454.483;  444.681;  317.798;  540.364
454.771;  280.510; -215.208;  196.374
455.058;  116.115; -316.207;  102.374
455.345;  228.390;   71.807;  344.347
455.632;  167.019; -128.207;  235.373
455.919;  126.645;  -82.196;  182.354
456.207; -120.380; -774.198; -450.642
456.494;  -36.003; -475.200;  -66.639
456.781;    9.975; -399.202; -198.635
457.068;  144.828; -253.206;  -29.628
457.355;   49.530; -698.206; -401.629
457.642;   12.037; -552.205; -290.630
457.929;   18.477; -778.194; -417.651
458.216;   97.554; -575.212; -354.617
458.503;  320.884; -173.193;  -19.652
458.790;  251.807; -864.208; -630.625
459.077;  451.782;  -77.202;  110.364
459.364; 1064.268; -350.195; -210.649
459.651; 2220.225;  -46.206;  220.372
459.938; 1056.394; -864.209; -665.623
460.225;  315.286;  132.799;  276.363
460.512;  -86.059; -836.197; -688.645
460.799;  265.090;  -32.218;  320.392
461.086;  174.304; -370.200; -251.640
461.372;   97.121; -509.198; -279.642
461.659;  238.147; -165.196;  108.354
461.946;  154.382; -445.193;  -54.651
462.233;  511.500;  842.800;  888.361
462.519;  480.496; -814.201; -464.639
462.806; 1347.642; -768.197; -497.645
463.093; 1159.910; -445.191;  -66.656
463.380;  -75.634; -920.186; -824.664
463.666;  164.644; -259.197;  -18.646
463.953;  137.861; -406.195; -243.648
464.239;  270.161; -173.195;  -77.648
464.526;  672.875;  413.806;  743.350
464.813;  549.026; -565.190; -304.658
465.099;  629.883;  606.807;  607.348
465.386;  677.189;  903.807;  921.348
465.672;   82.542; -694.197; -522.645
465.959;  127.150; -598.188; -520.662
466.245;   73.889; -468.193; -359.652
466.532;  263.158; -109.195;   63.352
466.818;  157.066; -357.186; -216.664
467.104;   78.821; -488.182; -415.672
467.391;   28.229; -628.189; -459.658
467.677;  102.171; -289.186;    9.335
467.964;   62.037; -682.189; -471.660
468.250;  193.375; -331.186; -160.665
468.536;  202.430;   90.811;  180.341
468.822;  -30.609; -821.184; -574.668
469.109;  322.931;  351.827;  471.311
469.395;  418.402;  729.808;  787.346
469.681;  331.334;   46.811;  156.341
469.967; 1680.941; -699.188; -382.660
470.254; 3495.852; -494.188; -306.662
470.540; 2297.945; -601.196; -476.646
470.826;  318.336; -488.181; -397.675
471.112;  478.696;  288.816;  113.331
471.398;  200.602; -253.183;  -58.670
471.684;   95.375; -626.177; -447.680
471.970;  -63.659; -918.180; -981.675
472.256;   68.901; -521.192; -441.654
472.542;   42.746; -499.171; -434.691
472.828;   53.816; -743.182; -607.672
473.114;   68.806; -380.166; -283.700
473.400;   81.497; -504.175; -293.684
473.686;   98.314; -452.166; -400.701
473.972;  139.817; -230.174; -131.687
474.258; -106.069; -925.173; -843.689
474.544;  268.564; -183.178;   -2.679
474.830;  397.700;  -65.175;   45.316
475.116;  561.428; -123.190; -196.658
475.401;  723.145; -558.180; -467.676
475.687;  216.643; -725.180; -718.676
475.973;    4.726; -673.181; -770.673
476.259;  545.703;  736.825;  764.315
476.544;  539.186; -539.176; -437.682
476.830;  979.441; -398.172; -322.690
477.116;  865.484; -430.177; -336.682
477.401;  292.044;  346.820;  358.324
477.687;  -18.302; -289.175; -405.684
477.973;  103.831;   21.819;   28.326
478.258;    1.942; -448.163; -348.706
478.544;  117.982;   21.815;   61.334
478.829;  -85.046; -818.171; -738.692
479.115;  -46.160; -749.172; -651.690
479.401;  -30.389; -444.174; -449.686
479.686;   50.642; -253.180;  -74.676
479.972; -115.330; -886.178; -776.680
480.257;   88.108; -258.166;  -65.700
480.542;   25.059; -614.170; -469.693
480.828;  539.495; 1288.824; 1392.317
481.113;  -17.908; -464.176; -426.683
481.399;   37.775; -236.161; -202.711
481.684; -101.493; -620.166; -462.700
481.969;   89.093; -158.159;  -73.713
482.255;  -13.326; -439.169; -285.695
482.540;  -33.029; -569.178; -441.680
482.825;   10.560; -395.187; -404.663
483.110;  178.178;  -85.169; -105.696
483.396;  168.023; -840.157; -652.718
483.681;  672.018;  543.826;  730.313
483.966;  127.885; -696.160; -700.712
484.251;   69.516; -404.174; -310.687
484.536;   46.022; -356.165; -378.703
484.822;   46.320; -205.173; -218.687
485.107;  -51.125; -599.152; -502.726
485.392;  314.429;  662.836;  541.296
485.677;  167.792;  354.832;  163.302
485.962;  264.319;  160.843;  270.283
486.247;  196.053;  -14.162;   -8.707
486.532;   79.209; -178.166; -325.701
486.817;  300.667;  381.839;  431.291
487.102;  122.551; -453.154; -514.722
487.387;  726.525; -637.156; -652.718
487.672; 1352.636; -154.164;  -38.705
487.957;  886.477; -394.160; -286.711
488.241;  277.398; -290.150; -314.729
488.526;  910.277; -280.152; -148.726
488.811; 1320.273; -881.177; -818.680
489.096; 1061.055; -666.154; -702.723
489.381;  673.872;    3.847;  162.275
489.666;  410.174; -428.161; -510.710
489.950;  359.259;  558.846;  627.277
490.235;  -29.509; -480.151; -458.728
490.520;  -61.027; -756.161; -723.710
490.804; -136.072; -827.156; -736.719
491.089;   21.419; -469.149; -299.732
491.374;  106.035; -132.164;  -75.704
491.658;  -24.965; -817.147; -717.735
491.943;  284.282; -657.152; -609.727
492.227;  443.246; -178.155;  -38.721
492.512;  122.019; -294.157; -341.717
492.797; -124.589; -713.149; -716.731
493.081;  -84.262; -588.147; -598.735
493.366;  -53.725; -751.161; -635.711
493.650;  416.211;  831.859;  917.254
493.935;   -0.766; -648.147; -447.734
494.219;  -75.206; -778.142; -687.743
494.503;  -89.396; -585.150; -487.730
494.788;  124.507;   46.842;   74.285
495.072;  222.399;  184.850;  434.271
495.356;  225.623; -463.148; -343.733
495.641;  573.247; -812.146; -736.736
495.925;  544.735; -976.156; -903.719
496.209;   76.618; -599.149; -451.732
496.494;  -71.006; -763.142; -544.744
496.778;   22.352; -364.154; -360.722
497.062; -114.666; -819.156; -627.719
497.346; -102.221; -869.160; -640.711
497.631;  299.428;  580.852;  560.266
497.915;  168.062;  -64.145;  175.261
498.199;  121.923; -341.157; -277.718
498.483;   94.274; -562.152; -508.725
498.767;  280.201;  301.850;  300.271
499.051;  263.115; -126.149; -100.732
499.335;    9.713; -693.149; -739.731
499.619;  -41.651; -381.129; -423.767
499.903;   70.944; -272.155;  -65.721
500.187;   18.261; -588.153; -316.724
500.471;  -14.419; -796.152; -595.727
500.755;  224.973;   62.839;  -96.710
501.039;   77.445; -270.155; -357.721
501.323;  232.213;  -21.141;  264.254
501.607;   89.943; -447.163; -503.706
501.891;   18.125; -607.156; -512.718
502.174;  -60.823; -726.144; -585.741
502.458;  171.387;   89.849;  370.273
502.742;   67.746; -180.138; -191.751
503.026;  104.633; -412.147; -254.734
503.310;  147.392; -437.159; -375.713
503.593;  152.836; -464.147; -325.735
503.877;  211.701; -232.133; -156.760
504.161;  276.965;    2.847;  -50.724
504.444;  112.710; -841.158; -710.716
504.728;  486.733; -487.164; -522.704
505.012;  854.297; -257.150;  -76.729
505.295;  733.175; -417.161; -212.711
505.579;  669.834; -256.156; -496.719
505.862;  867.757; -555.145; -333.738
506.146;  746.295; -681.159; -758.714
506.429;  611.496;  568.841;  461.286
506.713;   74.793; -732.151; -667.728
506.996;  487.251;   90.846;  295.278
507.280;  352.327; -633.165; -474.703
507.563;  270.642; -469.155; -261.721
507.847;   74.662; -423.153; -112.724
508.130;   91.376; -665.161; -456.711
508.413;  125.102; -758.167; -577.700
508.697;  351.502; -151.167;   12.300
508.980;  167.464; -422.153; -312.724
509.263;  -16.163; -466.155; -450.720
509.547;   61.396; -124.150;   82.271
509.830;  106.279; -172.160;  140.289
510.113;  194.533;  128.844;  298.281
510.396;   55.672; -530.152; -300.725
510.680;  314.959; -818.145; -812.738
510.963; 1420.757;  184.846;  180.277
511.246; 1184.007; -493.150; -357.730
511.529;  432.765; -482.145;  -83.739
511.812;  449.496; -250.134;   10.241
512.095;  282.989; -740.151; -396.728
512.378;   87.841; -317.147; -245.736
512.661;    5.056; -703.137; -623.753
512.944;   11.696; -750.142; -637.744
513.227;  116.453; -170.137; -171.752
513.510;    2.077; -479.144; -671.741
513.793;   51.219; -485.140; -435.747
514.076;  248.177;  -43.127;  -39.771
514.359;  183.019; -294.149; -135.732
514.642;   88.400; -442.142; -567.744
514.925; 1007.717;  581.860;  561.253
515.208; 1103.691; -498.134; -443.758
515.491;  746.010; -276.133; -182.761
515.773;  437.482; -410.143; -337.742
516.056; 2459.265;  249.864;  409.246
516.339; 3202.770; -754.136; -652.755
516.622; 2888.704; -518.150; -488.730
516.904; 2462.292;  882.857;  975.257
517.187; 1038.551; -730.138; -523.752
517.470;  544.890; -568.143; -510.743
517.752;  489.174; -624.136; -470.756
518.035;  320.534; -708.139; -725.749
518.318;  354.571; -799.136; -744.755
518.600; 2604.615; -300.132; -325.762
518.883; 3547.900;  310.858;   88.256
519.165; 1770.441; -585.138; -426.751
519.448;  569.114;  -61.132;  -19.762
519.730;  261.288; -573.126; -415.773
520.013;  629.505;  588.867;  664.240
520.295; 1615.699;  -94.134;  -15.759
520.578; 3496.832; -335.131; -305.764
520.860; 3864.115; -254.132;   56.238
521.143; 1988.477; -763.135; -584.756
521.425;  649.705; -251.125; -279.775
521.707;  798.578; -622.127; -380.771
521.990; 2020.779; -199.127;  167.229
522.272; 2327.722; -116.140;   -4.748
522.554; 1233.983; -237.143; -157.742
522.836;  627.896;  -24.134;   99.241
523.119;  361.432; -496.148; -189.734
523.401;  217.242; -448.130; -314.766
523.683;   42.357; -865.137; -693.753
523.965;  384.548;  408.862;  260.248
524.247;  346.234;   54.878;  170.220
524.529;  244.198; -451.134; -367.759
524.812;  482.944;   -3.130;  191.234
525.094;  889.347; -773.138; -631.751
525.376; 1521.718; -143.124;   78.223
525.658;  871.467; -441.136; -339.754
525.940;  -46.072; -805.131; -671.764
526.222;  100.772; -188.136;  -88.755
526.504;  204.925; -190.131;   32.237
526.786;  331.402; -960.133; -647.760
527.068;  584.025; -124.123;  -67.778
527.349;  213.962; -865.137; -774.754
527.631;  208.114; -137.132;   22.238
527.913;  104.277; -664.127; -450.771
528.195;  102.996; -761.125; -639.774
528.477;  292.992;  -93.134;  -30.758
528.759;   89.344; -648.130; -522.766
529.040;   29.124; -569.123; -293.778
529.322;   39.399; -235.125;  -10.774
529.604;  235.747;  -47.130;   93.233
529.886;  215.487; -546.126; -302.773
530.167;  239.636;  232.870;  192.235
530.449;  125.040;    1.853;   63.265
530.731;  -19.467; -572.122; -459.779
531.012;   29.361; -513.120; -216.784
531.294;   93.915; -118.116;  -43.792
531.575;  202.405;  290.875;  538.225
531.857;   17.385; -548.135; -266.757
532.138;  171.511; -113.141;   40.254
532.420;  381.779;  294.865;  403.244
532.701;  325.105; -722.133; -751.760
532.983;  626.309;  232.867;  182.239
533.264;  253.685; -243.126;  175.228
533.546;    3.471; -491.136; -508.755
533.827;  138.600;  173.867;   -1.759
534.109;   64.684; -352.135;  -80.757
534.390;   98.620; -725.132; -582.762
534.671;  353.679; -270.135;  -82.756
534.953;  150.727; -751.123; -611.779
535.234;   22.494; -426.117; -255.789
535.515; -156.427; -891.119; -735.785
535.796;   -8.929; -431.128; -193.770
536.078; -226.183;-1050.124; -904.777
536.359;   30.428;  -22.123;    3.221
536.640;  -21.102; -480.125; -197.774
536.921;  309.054;  225.871;  143.232
537.202;  437.443;  -87.138;  -16.751
537.483;  596.332;  251.869;  377.236
537.764;  230.836;   17.870;   98.235
538.045;  -53.610; -543.134; -371.758
538.326;  -66.743; -596.129; -447.768
538.607;  -29.421; -686.127; -476.771
538.888;  221.749;   98.879;    5.218
539.169;  164.042; -704.122; -535.781
539.450;  460.553;  236.871;   16.233
539.731;  274.555; -361.121; -182.783
540.012;  199.761;  199.880;  412.216
540.293;  157.010;   82.876;  158.224
540.574;  -15.557; -895.113; -717.796
540.855;  701.253;  435.879;  377.218
541.136;  735.338;   47.878;  139.220
541.416;  363.345; -161.130; -220.766
541.697;  223.626; -274.131; -170.763
541.978; 1162.182; -270.135; -315.757
542.259; 1496.179; -211.127; -236.771
542.539;  739.506; -191.116; -186.790
542.820;  314.005;  461.875;  480.225
543.101;  224.161;  -52.145;  -77.738
543.381;    0.779; -638.127; -591.771
543.662;  392.775;  159.873; -254.771
543.942;  549.373; -751.127; -830.770
544.223; 1202.840;  193.878;  161.219
544.504;  748.117; -275.124; -182.777
544.784;  697.587; -592.126; -408.773
545.065; 1960.711;  104.884; -254.791
545.345; 2348.473;  227.881;   14.215
545.626; 1499.142;  -14.113; -108.796
545.906; 1012.435;   77.869;   98.235
546.186;  385.493;   92.874;  -95.773
546.467;  263.120;   99.877;  -95.778
546.747;  407.306;  264.884;  327.210
547.027;  519.015;   91.876;  111.223
547.308;  308.872; -376.127; -530.770
547.588;  507.758;  299.871;  371.232
547.868;  281.037;  458.870;  588.235
548.149;  338.622;  609.885;  593.207
548.429;  131.776; -347.127; -299.771
548.709;  139.661; -645.120; -461.784
548.989;  550.786;   84.882;   88.213
549.269; 2326.612;   10.868;  139.239
549.550; 5256.426;  215.877;  117.222
549.830; 4668.666; -758.111; -556.799
550.110;  899.377; -468.110; -320.801
550.390;  959.333; -128.122;  -56.779
550.670; 1110.036; -868.114; -783.795
550.950;  888.552; -509.121; -471.782
551.230;  292.047;  549.879;  460.218
551.510;  -13.550; -381.121; -326.782
551.790;   40.787; -173.109; -127.803
552.070;  455.020;  940.877; 1181.223
552.350;  406.978; -492.119; -377.786
552.630;  654.644;   -2.121;   77.219
552.909;  430.612;  181.884;   73.209
553.189;  283.121;  -49.132;   33.237
553.469;  120.078; -703.119; -514.786
553.749;  169.281; -469.127; -357.772
554.029;  209.600;   33.883;  -24.790
554.308;  198.227; -154.115;  -37.794
554.588;   56.370; -196.128; -204.770
554.868;   42.253; -366.121;  -47.782
555.147;  179.923; -114.115;  -46.793
555.427;  656.115; -260.116; -250.792
555.707; 4199.321; -284.115; -200.793
555.986; 4873.671; -719.111; -538.800
556.266; 2687.604;   23.884;   72.210
556.546;   46.651; -888.121; -675.782
556.825;  216.333; -657.114; -556.794
557.105; 1984.567; -125.128;   17.230
557.384; 2282.611;  122.884;  187.209
557.664;  802.914; -717.116; -508.792
557.943;  130.552; -557.121; -411.782
558.222;  189.790; -345.118; -344.788
558.502;  307.225; -116.115;  -76.793
558.781;  622.419;  194.885;  499.208
559.061;  389.790; -232.118; -227.788
559.340;  383.097;  302.883;  353.211
559.619;  761.304;   93.884;  148.210
559.899; 1050.999; -239.117; -266.789
560.178;  903.625; -778.115; -593.793
560.457; 3320.301; -623.117; -562.790
560.736; 4448.873; -472.111; -482.800
561.015; 3103.764; -500.128; -502.769
561.295;  445.514;  180.893;  215.193
561.574;  447.621;  119.885;  116.207
561.853;  627.993;  274.891;  303.197
562.132;  576.728;  -45.114;  182.206
562.411;  538.744;  396.879;  553.219
562.690;  126.619; -592.115; -458.792
562.969;  274.452;  472.888;  630.203
563.248;  965.641; 2966.878; 2487.219
563.527;  247.872; -290.111; -408.800
563.806;  376.876; -650.127; -521.771
564.085;  430.935; -297.105; -206.810
564.364;  217.003; -594.117; -405.790
564.643;  533.745; -276.121; -223.781
564.922; 2037.485;  221.890;  397.198
565.201; 1847.390; -640.109; -700.803
565.479;  847.517; -297.115; -219.792
565.758;  248.868; -810.128; -712.770
566.037;  562.091; -155.109; -100.803
566.316;  260.211; -286.116;  -28.791
566.595;   71.821;  -17.115;  -12.793
566.873;  230.574; -166.111;  -79.801
567.152; -102.449; -490.113; -590.797
567.431;  -32.194; -113.116;    6.210
567.709;   17.115; -344.107; -212.807
567.988;  232.733; -810.114; -769.794
568.266;  584.521; -160.115;  -68.793
568.545;  406.099; -644.100; -514.819
568.824;  652.916;  160.885;  356.208
569.102;  476.632; -351.114; -235.794
569.381;  223.315; -492.116; -407.792
569.659; -114.054; -553.113; -553.796
569.938;   -0.461; -743.122; -465.780
570.216;  123.895; -225.109; -225.804
570.494;  -67.763; -632.114; -572.795
570.773;  101.050;  202.879;  114.218
571.051;  -17.276; -373.123; -357.778
571.330;   49.643; -221.113; -174.796
571.608;   54.124; -181.098; -173.823
571.886; -128.836; -671.111; -581.799
572.164; -141.947; -739.121; -621.782
572.443; -126.060; -562.105; -512.811
572.721;  -13.998; -399.117; -289.790
572.999;  -41.007; -280.117; -168.788
573.277;  217.431;  379.894;  620.191
573.555;  323.234;   94.894;   37.190
573.834; 1395.892;  -86.117; -114.788
574.112; 1731.818;  880.893;  811.193
574.390;  501.773; -143.111;  -96.801
574.668;    5.253;  -91.112;  -61.797
574.946;   -5.665; -165.106; -187.810
575.224;   22.690;   71.891;  -16.803
575.502;  -11.392; -200.116; -204.791
575.780; -173.246; -767.112; -829.798
576.058;  536.872; 1589.889; 1004.200
576.336;  -10.320; -210.110; -129.801
576.614;  -84.246; -511.112; -340.798
576.891;  -11.573; -711.115; -823.794
577.169;  512.106; -158.108; -285.805
577.447;  645.217;  169.893;  202.193
577.725;  384.260;  629.888;  854.201
578.003;   38.058;  -71.112; -371.798
578.280;  130.252; -208.104; -242.812
578.558;   57.225; -450.115; -422.793
578.836;  231.537; -210.114; -145.795
579.114;   14.252; -630.112; -670.797
579.391;  134.695;   -6.117;  -18.789
579.669; -139.572; -595.114; -704.794
579.947;  185.813; -326.107; -127.806
580.224;  257.813; -692.107; -524.806
580.502;  358.518;  127.893;   76.193
580.779;   61.203;  -42.117;   75.210
581.057; -124.405; -584.109; -470.804
581.334; -186.227; -726.102; -695.815
581.612;   82.936;   54.895;  511.190
581.889;  -32.009;  -83.101; -129.818
582.167;  -35.190; -298.099; -190.821
582.444; -170.517; -845.102; -814.817
582.721;  267.984;  657.899;  715.183
582.999;   61.907; -326.100; -167.821
583.276;  475.330; -812.123; -713.779
583.553;  725.677; -364.102; -294.816
583.831;  141.948; -607.104; -631.812
584.108;  125.003;  349.892;  174.195
584.385;   12.372; -122.102;  -98.815
584.662; -143.825; -651.111; -828.801
584.940;   85.574;  204.889;  204.199
585.217;  -55.354;  -73.113; -303.796
585.494;   96.386;   71.890;  118.198
585.771;  214.496; -250.109; -354.804
586.048;  532.345; -196.113;  -76.796
586.325;  294.178; -721.110; -773.801
586.602;  167.553;  230.896;  213.188
586.879;  -85.398; -499.100; -580.820
587.156;   81.537; -156.105; -331.810
587.433; -103.919; -701.102; -667.817
587.710;   90.655;  152.888;  234.202
587.987;  323.744; -264.105; -236.811
588.264;  985.257;  315.888;  387.202
588.541; 1591.956;  -61.104;   26.187
588.818; 3001.899;   72.892;  171.196
589.095; 2629.950; -163.104; -174.812
589.371;  441.594; -459.109; -414.804
589.648;  -16.082; -581.107; -437.807
589.925;  -16.462; -517.114; -621.795
590.202;  -23.745; -741.112; -607.798
590.478;   84.846; -166.105;  -73.811
590.755;  300.508; -241.108; -132.806
591.032; 2674.881; -741.110; -699.802
591.308; 3406.378; -732.094; -790.831
591.585; 1817.681; -573.110; -560.802
591.862;   14.383;-1056.102; -950.817
592.138;   44.005; -475.108; -474.805
592.415;  105.454; -486.104; -495.813
592.691; 1785.151;  460.896;  518.188
592.968; 2032.426; -208.098; -123.824
593.244;  987.306; -695.116; -595.790
593.521;  104.383; -105.102;  -42.817
593.797;  -86.665; -810.122; -720.780
594.074;  323.143; -611.096; -588.826
594.350;  897.959;  828.905;  729.172
594.626;  327.375; -303.111; -283.801
594.903;   22.984; -643.101; -645.817
595.179;  284.859;  243.896;  418.187
595.455;   22.420; -136.107; -150.807
595.731;   55.061;  -19.103;  -38.814
596.008;  -60.233; -464.111; -434.800
596.284;   22.405; -187.100; -242.820
596.560;   34.587; -501.093; -493.833
596.836;  220.539; -173.105;  -70.810
597.112;  329.506; -582.108; -437.805
597.388;  314.941;  -49.097;  -48.826
597.665;  198.049;  437.887;  530.203
597.941; -131.773; -572.089; -658.839
598.217;   27.486; -323.110; -293.802
598.493;  304.099;   61.891; -204.804
598.769;  568.397; -175.100;  -50.819
599.045;  244.309; -490.108; -562.806
599.321;   59.604; -193.100; -261.820
599.597;  123.598; -355.109; -476.804
599.872;  608.156;  409.896;  429.187
600.148;  395.943;  -61.097; -172.826
600.424;  394.816;   91.893;  202.193
600.700;  225.719; -170.107; -280.807
600.976;   80.135; -442.097; -464.825
601.252;  254.593; -226.109; -272.803
601.527;  132.357; -833.104; -840.813
601.803;  115.347; -453.105; -404.812
602.079;  246.997; -124.100; -118.819
602.354;  581.900; -620.092; -531.835
602.630;  880.646; -140.113; -482.796
602.906; 2606.391; -910.101; -863.818
603.181; 7070.778; -627.119; -534.786
603.457; 6070.539;   98.903; -278.826
603.733;  860.756; -605.120; -626.783
604.008; 1123.135; -245.106; -164.810
604.284; 3203.086; -636.101; -580.817
604.559; 2970.560;   -3.112;  -42.799
604.835;  517.639; -163.105; -225.810
605.110;  384.311; -732.099; -892.821
605.385;  811.891;  224.907;  267.167
605.661;  649.862; -625.095; -729.829
605.936; 1115.710; -664.108; -737.806
606.211; 1067.170;  -17.103; -170.815
606.487;  166.831; -329.114; -376.794
606.762;  -55.121; -791.119; -745.786
607.037;  -54.061; -501.105; -433.810
607.313;  -87.247; -589.096; -574.828
607.588;   -5.865; -375.106; -137.810
607.863;   46.790;  -28.101; -143.818
608.138;  316.184;  513.890;  516.198
608.413;  -14.084; -576.099; -592.822
608.688;   29.905; -203.108; -267.805
608.964;  151.027; -509.106; -218.809
609.239;  238.536; -107.105; -212.810
609.514;  313.947;  281.895;  240.188
609.789;  653.352; -187.104; -716.812
610.064;  881.951; -435.096; -609.827
610.339;  893.494; -855.109; -799.804
610.614; 1191.804; -131.100; -315.820
610.889;  767.047;  215.895;  107.188
611.163;    4.448; -407.104; -591.812
611.438;   96.532;   81.886; -167.794
611.713;  -59.814; -467.101; -499.817
611.988;   71.889; -144.101; -328.818
612.263; -114.527; -771.102; -717.815
612.538;  280.245;  385.887;  251.204
612.812;   42.806; -832.100; -911.820
613.087;   88.823; -358.098; -338.823
613.362; -112.281; -497.107; -557.807
613.637;  103.465;  261.897;  138.186
613.911;  -34.599; -256.092; -345.835
614.186;  113.717; -249.107; -292.807
614.460;  547.029; -842.081; -758.854
614.735;  793.759;  -55.087;  -17.843
615.010;  196.445;   43.912;  -82.841
615.284;  349.604;  360.892;  246.195
615.559;  298.400; -792.092; -955.835
615.833;  334.714;  -76.099;  -87.822
616.108;  -16.484; -225.090; -390.837
616.382;  256.961;  274.913;  402.156
616.656;  145.816; -241.090; -232.837
616.931;  499.614; -785.099; -700.822
617.205; 1061.158; -973.104; -979.813
617.480; 1043.402;  -91.125;    6.225
617.754;  144.299; -396.125; -128.774
618.028;  -35.941; -369.129; -382.768
618.302;  107.202;   73.892;  -25.805
618.577;  -90.033; -371.103; -518.815
618.851; -108.311; -399.109; -600.803
619.125; -102.102; -335.134; -378.759
619.399;  -62.741; -244.104; -374.813
619.673;  -61.083; -330.115; -515.792
619.947;  -83.364; -333.114; -448.795
620.222;  -11.524; -198.110; -204.801
620.496;   37.553;  -47.121;  -96.782
620.770;   30.041; -187.122;  -93.781
621.044;  308.937;  323.895;  346.190
621.318;  739.457; -653.120; -614.783
621.592;  706.554; -430.121; -409.783
621.866;  315.462; -476.112; -572.799
622.140;   -0.992; -207.116; -356.791
622.413;  146.767;  138.889;  112.200
622.687; -111.714; -746.101; -492.817
622.961;   22.302; -130.108; -143.805
623.235; -131.432; -633.111; -661.800
623.509; -199.854; -816.105; -848.811
623.783;   12.014;  -12.107;   48.193
624.056;  -25.642; -254.120; -280.783
624.330;   80.353;   63.888;   -3.797
624.604;   54.403; -271.116; -355.790
624.877;   77.182;  180.890;   26.198
625.151;   38.229; -249.114; -238.794
625.425;  -43.439; -150.103; -283.814
625.698;  -91.529; -367.119; -374.785
625.972; -190.914; -799.110; -765.802
626.245;  186.706;  685.884;  484.210
626.519;  -76.436; -426.120; -340.784
626.792;  -52.781; -192.107; -380.807
627.066; -188.968; -485.122; -662.779
627.339; -197.020; -736.110; -663.802
627.613;  106.162;  351.880;  148.216
627.886;  111.888;  187.891; -612.803
628.160;  -43.044;  312.880; -161.783
628.433; -168.594; -695.125; -703.775
628.706; -130.836; -517.120; -615.784
628.979;   84.915;  296.876;  117.223
629.253; -197.123; -785.119; -833.786
629.526;  333.985; -334.126; -253.772
629.799;  238.525; -641.123; -479.778
630.072;  132.561; -497.128; -516.769
630.346; -216.394;-1115.116;-1080.790
630.619;  439.820; -467.107; -545.808
630.892;  771.869;  709.889;  593.200
631.165;  479.858;  790.896;  679.187
631.438; -217.043;-1092.112;-1055.798
631.711;  140.729;  453.877;  257.221
631.984; -101.300; -523.117; -624.789
632.257; -135.305; -636.117; -681.789
632.530;  -79.829; -412.119; -433.785
632.803;   89.926; -109.115;    7.207
633.076; -117.580; -360.123; -422.777
633.349;   61.966;  173.872;  121.231
633.622;  -55.431; -187.119; -240.785
633.895; -209.942; -903.120; -823.783
634.167; -135.112; -496.126; -525.773
634.440;   17.515;  -19.116; -137.792
634.713;   15.076;  -22.119; -120.786
634.986;  201.653;  593.871;  453.233
635.258; -143.276; -507.115; -597.793
635.531;  218.689;  742.882; -343.788
635.804;  -19.902; -303.117; -318.789
636.077; -166.191; -830.116; -852.791
636.349;  -56.778; -586.115; -474.793
636.622;  690.384; 1695.874; 1392.228
636.894;  214.164; -474.120; -909.784
637.167;   76.376; -836.127; -789.771
637.439;   28.371; -278.128; -213.770
637.712;  -74.914; -312.126; -293.772
637.984; -117.890; -635.116; -707.791
638.257;  612.321;  515.877;  488.222
638.529;  567.807; -881.125; -924.776
638.802;  234.661; -508.128; -449.769
639.074; -216.960; -927.122; -952.781
639.346; -218.913; -942.135; -930.757
639.619;   -1.502;  -79.142; -319.744
639.891;   46.332;  -83.122; -168.779
640.163; -121.866; -689.122; -756.780
640.435;   87.237;  273.878;  103.220
640.708;   46.039;  -72.122; -132.780
640.980;  -33.258; -366.122; -362.781
641.252;  265.044;  -25.121;  -71.781
641.524; 2280.147;  580.879;  573.219
641.796; 2094.149;-1094.121; -907.782
642.068;  445.852; -191.121; -300.782
642.340; -106.846; -486.121; -566.783
642.613;  160.357;  294.880;  323.217
642.885; -203.741; -787.120; -878.783
643.157; -124.538; -810.120; -658.784
643.428;  147.064;  170.880;  218.216
643.700;  -93.033; -498.120; -425.784
643.972;  -29.331;  -16.119; -133.785
644.244; -132.128; -474.119; -559.785
644.516;  -60.426; -250.119; -114.786
644.788;  175.477;  662.881;  548.214
645.060;   20.179;  -12.119; -124.786
645.332; -146.818; -525.118; -535.787
645.603;  113.084;  479.882;  342.213
645.875; -121.913; -334.118; -369.787
646.147;  376.989; 1487.882; 1242.212
646.418; -160.508; -931.117; -918.788
646.690;   52.994; -714.117; -715.789
646.962;   30.797; -413.117; -451.789
647.233;   13.499;   15.883;   11.211
647.505; -164.098; -595.117; -475.790
647.776;  102.704;  328.884;  229.210
648.048;  -18.793; -248.116; -418.790
648.320; -149.291; -752.116; -679.791
648.591; -258.388;-1055.116; -958.791
648.862; -125.286; -505.116; -577.792
649.134;   43.717;  115.885;  198.208
649.405; -116.981; -661.115; -618.792
649.677; -114.079; -475.115; -598.793
649.948;  -19.676; -181.115; -296.793
650.219;   37.826;  -37.115; -147.793
650.491; -137.271; -431.114; -520.794
650.762; -198.369; -705.114; -731.794
651.033; -132.766; -437.114; -424.795
651.304; -218.364; -743.114; -728.795
651.576; -125.461; -680.114; -645.795
651.847;  -41.659; -250.113; -140.796
652.118;   -2.656;  -32.113; -189.796
652.389; -154.554; -639.113; -722.796
652.660;  -21.351; -147.113;  -89.797
652.931; -249.949; -897.112; -871.797
653.202; -146.246; -382.112; -541.798
653.473;  -93.444; -633.112; -533.798
653.744;  121.459; -595.112; -590.798
654.015;  135.161; -356.112; -303.799
654.286; -130.236; -642.111; -663.799
654.557; -112.434; -586.111; -521.799
654.828; -283.531;-1114.111;-1088.800
655.099; -109.929; -404.111; -291.800
655.370; -125.226; -427.111; -543.801
655.641; -191.924; -656.110; -714.801
655.911; -164.221; -618.110; -638.801
656.182;  189.481;  437.890;  387.198
656.453;  302.984;  830.890;  746.198
656.724;  -95.414; -466.110; -426.802
656.994; -144.011; -553.109; -568.803
657.265; -178.209; -862.109; -873.803
657.536; -117.906; -500.109; -377.804
657.806; -151.604; -561.109; -593.804
658.077; -225.901; -866.109; -950.804
658.347; -145.799; -523.108; -598.805
658.618; -204.296; -646.108; -694.805
658.888;  -21.194;  -41.108;  112.195
659.159; -118.291; -432.108; -548.806
659.429;  -57.189; -292.108; -349.806
659.700;  -31.986; -435.107; -390.807
659.970;  -21.684; -370.107; -359.807
660.241;  -78.981; -754.107; -921.807
660.511;  532.821; -147.107; -174.808
660.781;   52.924; -793.106; -748.808
661.052;  -34.374; -222.106; -381.808
661.322;   -0.771;   21.894;   -9.809
661.592;   80.731;  257.894;  148.191
661.862; -110.466; -369.106; -382.810
662.133; -141.564; -551.105; -502.810
662.403; -197.261; -770.105; -676.810
662.673;  -55.459; -256.105; -213.811
662.943; -165.056; -612.105; -551.811
663.213;   13.946;  -85.105;  -81.811
663.483; -139.251; -593.104; -568.812
663.753;  -60.049; -194.104; -152.812
664.023;    6.754;   68.896;  -32.813
664.293;  -67.744; -319.104; -126.813
664.563; -166.441; -694.104; -648.813
664.833; -202.339; -743.103; -608.814
665.103; -217.236; -730.103; -793.814
665.373; -202.734; -766.103; -806.814
665.643; -181.331; -863.103; -918.815
665.913;    5.371; -534.103; -714.815
666.182;  107.874; -685.102; -719.816
666.452;  305.576;  -22.102;  -89.816
666.722; -115.121; -724.102; -784.816
666.992; -201.419; -948.102; -921.817
667.261; -172.516; -824.102; -808.817
667.531;  329.586;  134.899;   45.183
667.801;  707.989; -440.101; -412.818
668.070;  443.191;  714.899;  697.182
668.340; -198.907; -883.101; -840.819
668.609;  205.196;  588.900;  301.181
668.879; -133.202; -490.100; -558.819
669.149;  -91.799; -539.100; -516.820
669.418; -184.897; -698.100; -726.820
669.688;  -71.394; -482.100; -666.820
669.957;   37.508; -423.099; -546.821
670.226;   -8.089; -268.099; -331.821
670.496; -150.887; -431.099; -635.822
670.765; -130.084; -418.099; -501.822
671.034; -241.182; -872.099; -828.822
671.304;   29.121;   55.902; -111.823
671.573; -283.477;-1085.098; -957.823
671.842;   61.026; -380.098; -294.823
672.112;  -21.272; -692.098; -586.824
672.381;   20.531; -239.098; -214.824
672.650; -299.367;-1005.097;-1021.825
672.919; -137.864; -631.097; -507.825
673.188; -166.362; -681.097; -878.825
673.457; -263.659;-1101.097;-1143.826
673.726; -170.057; -579.096; -646.826
673.995;  -86.254; -533.096; -479.826
674.265;  -26.952; -263.096; -333.827
674.534;   -4.749; -183.096; -235.827
674.802;  -32.047; -618.096; -703.828
675.071; 1129.956; -886.095; -801.828
675.340; 4020.858; -464.095; -339.828
675.609; 1436.661;  103.905;   82.171
675.878;  -43.737; -949.095; -893.829
676.147;   65.266;  -26.095;   -8.829
676.416;   90.268; -210.094; -294.830
676.685;  935.671; 1000.906; -622.830
676.953;   66.073; -603.094; -452.831
677.222;    2.876; -193.094; -273.831
677.491;  -10.422;  -24.094; -127.831
677.759;   35.481;   11.907;  172.168
678.028;  -28.017; -279.093; -222.832
678.297;    1.086;   71.907;  197.168
678.565; -241.612; -898.093; -944.833
678.834;  -65.509; -311.093; -268.833
679.102;  -87.507; -411.092; -391.834
679.371; -235.404; -898.092; -727.834
679.639; -243.402; -797.092; -786.834
679.908; -178.999; -794.092; -724.835
680.176; -256.297; -895.091; -941.835
680.445;  -87.594; -346.091; -352.835
680.713;  -10.992;  -58.091;  -23.836
680.982; -134.389; -523.091; -525.836
681.250; -165.787; -578.091; -507.837
681.518; -154.384; -534.090; -751.837
681.787;  -32.882; -204.090; -167.837
682.055;  -77.479; -490.090; -422.838
682.323; -266.977; -993.090; -992.838
682.591;   -1.874; -216.090; -538.838
682.859;   89.628;    9.911;  -35.839
683.128;   65.931;  232.911;  497.161
683.396; -300.267;-1102.089;-1122.840
683.664;   -7.464; -241.089;   21.160
683.932;   23.938;  144.911;  -76.840
684.200; -117.359; -576.088; -320.841
684.468;   -8.257;  -73.088; -124.841
684.736;  -15.354; -214.088; -175.841
685.004; -243.952;-1024.088; -982.842
685.272; -112.849; -880.088; -774.842
685.540; -128.247; -499.087; -557.843
685.808; -127.744; -651.087; -682.843
686.076; -208.042; -894.087; -969.843
686.343;  -95.239; -601.087; -815.844
686.611;   55.663; -195.087; -224.844
686.879;  504.865; -530.086; -553.844
687.147; 3369.268; -483.086; -480.845
687.414;  970.370;  -12.086; -169.845
687.682;  -62.627; -658.086; -757.846
687.950;  424.675;  259.915;  263.154
688.217;  -91.122; -792.085; -760.846
688.485;  -55.620; -632.085; -636.847
688.753;  546.583;  -11.085; -102.847
689.020;   63.085; -820.085; -851.847
689.288; -182.712; -853.084; -787.848
689.555;  -40.710; -195.084; -148.848
689.823;  -52.107; -241.084; -345.849
690.090; -134.305; -546.084; -651.849
690.358; -261.302; -877.084; -897.849
690.625;   53.900;  120.917;   45.150
690.892; -123.497; -403.083; -369.850
691.160;   28.805;   72.917;  -35.850
691.427;   79.408;  141.917;  130.149
691.694; -236.590; -855.083; -929.851
691.962; -238.487;-1177.082;-1060.852
692.229;   84.015;  127.918;   56.148
692.496;  142.718;  130.918;  -49.852
692.763;   15.720; -164.082; -201.853
693.031; -117.177; -739.082; -716.853
693.298;  -77.075; -509.081; -368.853
693.565;  368.828; -155.081; -163.854
693.832; 1296.030;   -5.081;   -9.854
694.099;  107.233; -643.081; -642.855
694.366; -117.765; -882.081; -896.855
694.633; -140.762; -920.080; -633.855
694.900; 1545.440; 4367.920; -114.856
695.167;  486.643; -214.080; -380.856
695.434;   82.745; -646.080; -623.856
695.701;  321.148;  121.921;  -61.857
695.968;  567.850; -365.079; -361.857
696.234; 1563.353; -415.079; -646.858
696.501;15164.455; -776.079; -614.858
696.768; 7221.158; -554.079; -617.858
697.035;  441.960; -632.078; -667.859
697.302;   67.063; -448.078; -552.859
697.568;    2.565; -458.078; -497.859
697.835;  -55.332; -683.078; -624.860
698.102;  -16.930; -498.078; -407.860
698.368;  182.673;  384.923;  396.139
698.635;  -29.925;  -47.077; -424.861
698.901;   -2.622; -240.077; -348.861
699.168;   61.880; -534.077; -456.862
699.435;   98.083;  -72.077;  -13.862
699.701; -233.915; -868.076; -764.862
699.968;  -55.112;  144.924; -441.863
700.234; -165.510; -783.076; -822.863
700.500;  -89.607; -448.076; -539.864
700.767;   47.695;   -1.075;   26.136
701.033; -221.802;-1015.075; -963.864
701.299;  -62.200; -450.075; -483.865
701.566;  320.903;  950.925;  763.135
701.832;  116.905;  -31.075;  -76.865
702.098; -192.992;-1054.074;-1034.866
702.365; -184.190;-1098.074;-1030.866
702.631; -100.487;-1038.074;-1063.867
702.897; 1719.315; -765.074; -676.867
703.163; 2587.618;  348.926;  254.133
703.429;  204.120; -256.073; -273.868
703.695;  -97.677; -796.073; -792.868
703.961;   69.525; -214.073; -210.868
704.227;  -72.272; -630.073; -725.869
704.493;  299.930;  613.927;  510.131
704.759;  -33.067; -565.072; -540.870
705.025;  102.935; -203.072; -194.870
705.291;  -12.563; -666.072; -562.870
705.557;  416.240;  719.928;   34.129
705.823;   51.442; -742.072; -694.871
706.089;  231.345; -307.071; -326.871
706.355;  670.747; -315.071; -244.872
706.620; 9382.150; -776.071; -729.872
706.886;11174.552; -309.071; -362.873
707.152;  918.555; -818.070; -973.873
707.418;  -78.943;-1153.070;-1186.873
707.683;   -5.340; -550.070; -530.874
707.949;  -69.938; -547.070; -578.874
708.215;   39.265; -129.070; -207.874
708.480;  -30.533; -520.069; -420.875
708.746;  151.670;   68.931;   28.125
709.011; -115.128; -578.069; -612.876
709.277; -102.425; -538.069; -543.876
709.542;  -36.523; -428.069; -387.876
709.808;   42.680;  -59.068;   89.123
710.073; -148.318; -577.068; -695.877
710.339;  -21.615; -242.068; -228.877
710.604;   37.287; -780.068; -845.878
710.869;  348.190; -277.068; -366.878
711.135; -128.208; -715.067; -628.879
711.400; -123.705; -507.067; -608.879
711.665;  -70.003; -404.067; -479.879
711.931; -130.700; -661.067; -677.880
712.196; -212.198; -876.067; -954.880
712.461;  105.905; -402.066; -490.880
712.726;   61.907; -727.066; -771.881
712.991; -114.790; -647.066; -664.881
713.256;  -36.388; -350.066; -332.882
713.521;  -72.085; -417.065; -381.882
713.787;  -86.383; -454.065; -472.882
714.052;  -10.380; -214.065; -400.883
714.317; -207.078;-1045.065; -981.883
714.581; 1665.825; -374.065; -268.883
714.846; 1969.927; -822.064; -888.884
715.111;  248.730;  261.936;  257.116
715.376;  -28.268;  -86.064; -223.885
715.641;   -8.765; -365.064; -367.885
715.906;  337.237;   15.936; -551.885
716.171;  221.140;  221.937;  209.114
716.436;   33.942;  -78.063; -104.886
716.700; -178.855; -818.063; -692.886
716.965; -205.853; -794.063; -807.887
717.230;  -88.750; -339.063; -392.887
717.494;    6.552;  -40.062; -134.888
717.759; -170.245; -784.062; -640.888
718.024;   31.257;  269.938;  250.112
718.288;  204.960;  685.938;  395.111
718.553; -214.038; -803.062; -977.889
718.817; -234.335; -883.061; -899.889
719.082;  -54.533; -115.061; -125.890
719.346; -213.130;-1000.061; -947.890
719.611;  -51.028; -300.061; -255.891
719.875; -159.725; -568.060; -537.891
720.140;  -87.223; -453.060; -603.891
720.404;   65.480; -136.060; -249.892
720.668;  901.282; -475.060; -411.892
720.933;  377.285;  146.940;  137.108
721.197; -151.113; -667.059; -600.893
721.461; -206.410; -851.059; -826.893
721.725;   33.492;  -21.059; -250.894
721.990;  -44.305; -284.059; -204.894
722.254;   12.097;  -26.059; -108.894
722.518; -107.800; -286.058; -442.895
722.782; -153.798; -743.058; -594.895
723.046;  266.205;  614.942;  570.105
723.310;   92.807;  374.942;  210.104
723.574; -130.491; -654.058; -614.896
723.838; -133.588; -576.057; -642.897
724.102;  -52.286; -226.057; -239.897
724.366; -248.983;-1032.057; -978.897
724.630; -139.281; -749.057; -571.898
724.894; -113.278; -722.057; -514.898
725.158;   44.624;   38.944; -295.898
725.422;  -71.273; -394.056; -327.899
725.685;  -76.471; -441.056; -349.899
725.949; -100.268; -566.056; -519.900
726.213; -149.766; -732.056; -811.900
726.477;   74.037;-1020.055; -933.900
726.740;  192.839; -274.055; -104.901
727.004;  521.042; -384.055; -510.901
727.268; 4797.844; -442.055; -400.901
727.531; 1179.647; -961.055; -775.902
727.795;  -76.451; -713.054; -673.902
728.059; -110.048; -552.054; -557.903
728.322; -140.146; -841.054; -669.903
728.586;   -0.443; -692.054; -701.903
728.849; -132.941; -695.053; -756.904
729.112; -189.938; -812.053; -912.904
729.376; -224.736; -959.053; -905.904
729.639; -106.333; -536.053; -536.905
729.903; -187.131; -733.053; -699.905
730.166;  -76.628; -437.052; -399.906
730.429;  -11.326; -317.052; -468.906
730.693; -105.523; -355.052; -894.906
730.956;  385.179;  810.948;  651.093
731.219;  791.082; -310.052; -103.907
731.482;   28.984;-1003.051; -894.907
731.745;    6.587; -794.051; -935.908
732.009;   59.089;  -30.051;   50.092
732.272; -160.408; -904.051; -771.909
732.535;  -60.106; -300.051; -310.909
732.798; -278.903;-1083.050;-1166.909
733.061;  -70.001; -430.050; -456.910
733.324;   55.902;   31.950; -180.910
733.587;  159.304;  290.950;  365.090
733.850; -118.393; -973.049;-1050.911
734.113;   56.009;   33.951;   32.089
734.376;   10.912; -328.049; -447.912
734.639;  426.914; 1188.951; 1011.088
734.901;   80.117; -180.049; -402.912
735.164;  607.719; -883.048; -837.913
735.427; 1406.522; -166.048; -355.913
735.690;  161.024; -205.048; -234.913
735.952; -128.973; -923.048; -925.914
736.215;  -96.171;-1113.048;-1009.914
736.478;   11.332; -771.047; -774.915
736.740;  294.634;   33.953;  129.085
737.003;  910.937; -658.047; -672.915
737.266; 4573.739;  -94.047;   46.084
737.528;  430.142; -682.047; -660.916
737.791;  401.044; -316.046; -327.916
738.053; 1291.347;  465.954;  649.083
738.316;15564.749; -162.046; -136.917
738.578; 9546.352; -770.046; -736.918
738.841;  610.654; -382.046; -446.918
739.103;  221.957; -875.045; -777.918
739.365;  631.859;   79.955;  -69.919
739.628;  -20.238; -884.045; -805.919
739.890;  -69.836; -758.045; -710.919
740.152;  -40.233; -692.044; -754.920
740.414;   11.769; -408.044; -359.920
740.677;  -99.528; -785.044; -634.921
740.939;  -92.126; -587.044; -487.921
741.201;  279.377; -432.044; -572.921
741.463;   -8.621; -689.043; -745.922
741.725;   57.482;  -21.043; -199.922
741.987;  125.184;  220.957;  116.078
742.249;  -51.314; -751.043; -859.923
742.511;  167.689; -703.043; -794.923
742.773;  -23.709; -546.042; -546.924
743.035;  254.094;  796.958;  533.076
743.297;  -99.104; -963.042;-1013.924
743.559;  906.199; -278.042; -262.925
743.821;  -13.399; -735.042; -744.925
744.083;   63.104;  -44.041; -149.925
744.345; -178.294; -869.041; -892.926
744.607;  130.809;   75.959;  122.074
744.868; -121.189; -490.041; -554.927
745.130; -200.786; -994.041;-1008.927
745.392;   91.716;   -1.040;  -44.927
745.653;    4.119; -411.040; -378.928
745.915;  341.121;  896.960;  631.072
746.177;  126.524;   35.960;  -43.928
746.438;   -8.674; -428.040; -543.929
746.700; -128.971; -947.039; -988.929
746.961;  -20.969; -659.039; -740.930
747.223;  217.834; -190.039;  -74.930
747.484;   94.636; -391.039; -471.930
747.746;  218.739;  -23.038; -106.931
748.007;  103.941; -647.038; -689.931
748.269;  421.344; -468.038; -440.931
748.530;  503.746; -852.038; -638.932
748.791;  354.349; -354.038; -420.932
749.053;  647.851;  286.963;  163.067
749.314;  583.254; -236.037; -169.933
749.575;  597.956; -945.037; -905.933
749.836; 1110.559; -217.037;   86.066
750.098; 3647.561;  -60.037;  -21.934
750.359;45245.764;  414.964;  555.066
750.620;10220.566; -121.036; -220.935
750.881; 1312.869; -585.036; -513.935
751.142; 1783.571; -950.036; -938.936
751.403;23601.674; -789.036; -705.936
751.664; 8837.776;-1034.035; -999.936
751.925;  677.579; -175.035; -262.937
752.186;  417.881; -298.035; -278.937
752.447;  177.284; -590.035; -445.937
752.708;   48.586; -532.035; -648.938
752.969;    7.289; -566.034; -576.938
753.230;  -11.309; -777.034; -672.939
753.491;  -13.306; -650.034; -631.939
753.751;  117.796;  109.966;   19.061
754.012;  239.699;  258.967;  181.060
754.273;   90.301; -174.033;  -71.940
754.534;   54.404; -487.033; -580.940
754.794; -179.594; -926.033; -911.941
755.055;  356.509; 1051.967;  881.059
755.316;  -57.089; -700.032; -566.942
755.576;  -53.086; -606.032; -576.942
755.837;  -48.184; -527.032; -695.942
756.097;  -56.581; -530.032; -564.943
756.358; -126.479; -725.032; -770.943
756.618;  -73.876; -705.031; -641.943
756.879;    8.726; -254.031; -349.944
757.139; -187.071;-1098.031;-1116.944
757.400;  -88.969; -538.031; -553.945
757.660;   27.434; -365.031; -401.945
757.920;   24.736; -266.030; -228.945
758.181;   23.739; -468.030; -351.946
758.441; -192.059; -870.030; -809.946
758.701;   16.644; -308.030; -215.946
758.961;    3.346; -220.030; -278.947
759.222;  -40.251; -574.029; -502.947
759.482; -101.149; -683.029; -723.948
759.742; -140.946; -706.029; -547.948
760.002;   48.756;  -83.029; -143.948
760.262;  104.058;   50.972;  182.051
760.522;  -47.539; -498.028; -574.949
760.782;  -91.937; -738.028; -612.949
761.042;  -52.934; -618.028; -573.950
761.302;  136.168;   55.972;  -18.950
761.562;  154.471; -164.027; -154.951
761.822;  133.373; -710.027; -551.951
762.082; -106.424;-1104.027;-1093.951
762.342;  150.378; -328.027; -403.952
762.601;  118.481; -567.027; -506.952
762.861;  521.083; -281.026; -207.952
763.121;  671.886; -406.026; -411.953
763.381;12442.388; -499.026; -485.953
763.640;11367.191; -139.026; -307.954
763.900;  613.793; -242.026; -203.954
764.160;  156.696; -458.025; -491.954
764.419;   -9.602; -726.025; -782.955
764.679;  -92.599; -795.025; -726.955
764.939;   31.503; -124.025; -210.955
765.198; -110.194; -608.025; -563.956
765.458; -105.992; -710.024; -612.956
765.717; -122.389; -454.024; -590.957
765.976;  -65.287; -428.024; -411.957
766.236; -154.384; -475.024; -610.957
766.495;  126.218;  260.977;   73.042
766.755; -174.379;-1090.023; -987.958
767.014;  -26.577; -594.023; -665.958
767.273;  -57.974; -373.023; -397.959
767.533;   -5.572; -228.023; -307.959
767.792;   -8.169; -151.022; -188.960
768.051;  -33.567; -228.022; -276.960
768.310; -113.864; -546.022; -650.960
768.569;   74.838; -161.022;    4.039
768.828;  -31.859; -285.022; -363.961
769.088; -217.557;-1050.021; -942.961
769.347; -106.254; -755.021; -599.962
769.606; -133.552; -876.021; -857.962
769.865; -217.249;-1016.021;-1033.963
770.124;   43.153; -411.021; -336.963
770.383; -107.344; -778.020; -910.963
770.641;   17.958; -398.020; -400.964
770.900; -136.739; -953.020; -846.964
771.159;  -49.637; -851.020; -951.964
771.418;  -33.634; -917.020; -779.965
771.677;  257.068; -224.019; -293.965
771.936;  235.471; -794.019; -865.966
772.194; 4357.573; -465.019; -437.966
772.453;16362.976; -213.019; -391.966
772.712; 1219.578;  416.982;  329.033
772.970;  235.481;   32.982;   63.033
773.229;  201.783;  -22.018;  102.033
773.488; -144.514; -814.018; -770.968
773.746;  157.388;  296.982;  335.032
774.005;   77.591;  190.983;  -22.969
774.263;   90.193;  243.983;  177.031
774.522; -164.604; -422.017; -548.969
774.780;  -89.902; -484.017; -417.970
775.039; -140.999; -551.017; -531.970
775.297;   48.703; -135.016; -351.970
775.555; -171.594; -489.016; -612.971
775.814; -178.792; -618.016; -570.971
776.072; -194.689; -749.016; -740.971
776.330; -151.387; -630.016; -520.972
776.589; -200.184; -703.015; -721.972
776.847; -190.482; -645.015; -624.973
777.105; -269.479;-1016.015;-1032.973
777.363;  -84.977; -459.015; -454.973
777.621; -185.974; -660.015; -717.974
777.879;   53.628;  -42.014;   32.026
778.138; -132.170; -554.014; -717.974
778.396; -129.067; -585.014; -526.975
778.654; -291.565;-1015.014; -970.975
778.912;  -72.162; -269.014; -371.976
779.170; -226.360; -880.013; -803.976
779.427; -242.857; -922.013; -897.976
779.685; -219.655; -880.013; -832.977
779.943; -136.452; -654.013; -593.977
780.201; -249.850; -964.012; -883.978
780.459; -149.447; -651.012; -610.978
780.717; -118.645; -440.012; -390.978
780.974; -113.042; -449.012; -490.979
781.232;  -75.740; -358.012; -338.979
781.490; -118.337; -551.011; -472.979
781.747; -152.435; -555.011; -476.980
782.005;  137.268;  462.989;  254.020
782.263; -294.230; -542.011;-1004.981
782.520; -128.927; -326.011; -501.981
782.778; -274.125;-1013.010;-1051.981
783.035; -274.122; -962.010; -938.982
783.293;  -24.520; -248.010; -206.982
783.550;  -60.417; -134.010; -198.982
783.808; -218.815; -764.010; -776.983
784.065; -268.012; -745.009; -874.983
784.322;  -55.810;   25.991;  -86.984
784.580; -186.507; -915.009; -771.984
784.837; -133.105; -392.009; -466.984
785.094; -204.802; -783.009; -762.985
785.352; -119.700; -304.008; -404.985
785.609; -191.997; -934.008; -839.985
785.866; -115.195; -345.008; -401.986
786.123; -114.692; -639.008; -583.986
786.380; -156.990; -665.008; -604.987
786.637;  -33.887; -225.007; -380.987
786.895;  -48.685; -456.007; -543.987
787.152;  -29.782; -135.007; -267.988
787.409;  -44.580; -123.007; -225.988
787.666; -111.877; -299.006; -378.988
787.923; -159.875; -616.006; -695.989
788.179; -128.172; -551.006; -584.989
788.436; -184.370; -585.006; -585.990
788.693;   26.233;  -92.006;  -87.990
788.950;  191.435; -125.005; -112.990
789.207;  202.438; -381.005; -372.991
789.464;  -62.860; -161.005; -301.991
789.720;   44.843;  150.995;  110.009
789.977; -292.955;-1003.005; -671.992
790.234;   30.848;   44.996;  -66.992
790.490; -249.850; -884.004;-1031.993
790.747;   15.953;  -85.004;   22.007
791.004;  -51.345; -426.004; -348.993
791.260; -103.542; -430.004; -560.994
791.517; -162.340; -843.003; -788.994
791.773;  -20.237; -379.003; -342.994
792.030; -156.935; -596.003; -660.995
792.286; -178.132; -686.003; -636.995
792.543;   16.670;  -74.002; -159.995
792.799;  -63.627; -584.002; -382.996
793.055; -286.625;-1179.002;-1210.996
793.312; -161.622; -827.002; -816.997
793.568;  -94.220; -746.002; -599.997
793.824;   64.383; -226.001; -284.997
794.081;   47.985; -447.001; -508.998
794.337;  110.488; -664.001; -561.998
794.593; 2426.490; -319.001; -271.999
794.849; 9012.593; -746.001; -772.999
795.105;  411.595; -270.000; -261.999
795.361;   11.798; -490.000; -457.000
795.617; -117.900; -875.000; -945.000
795.873;  -40.900; -360.000; -407.000
796.129;  -22.800; -368.000; -306.000
796.385;  -10.300; -124.000; -156.000
796.641;  205.300;  412.000;  550.000
796.897; -101.100; -666.000; -635.000
797.153;  183.800;  453.000;  357.000
797.409; -159.500; -785.000; -868.000
797.665;  -86.700; -625.000; -732.000
797.921; -126.600; -775.000; -762.000
798.176;  -74.400; -744.000; -747.000
798.432;  -79.100; -824.000; -596.000
798.688; -181.200;-1174.000;-1078.000
798.943;  198.500; -165.000; -147.000
799.199;  -58.700;-1005.000; -959.000
799.455;  438.000;  369.000;  316.000
799.710;  188.100; -813.000; -380.000
799.966;  470.100; -162.000; -160.000
800.221;  691.600; -638.000; -721.000
800.477;16622.200; -743.000; -710.000
800.732;11503.600; -773.000; -800.000
800.988; 1038.300;  205.000;  -19.000
801.243; 4067.600; -454.000; -344.000
801.498;13620.700; -814.000; -739.000
801.754;  766.100; -289.000; -163.000
802.009;  237.600; -257.000; -335.000
802.264;  -87.700; -967.000;-1033.000
802.520;   99.900;  222.000;   -3.000
802.775;  -45.600; -524.000; -359.000
803.030;  182.400;  395.000;  356.000
803.285; -173.500; -840.000; -903.000
803.540;  -83.400; -686.000; -699.000
803.795;  -69.000; -648.000; -583.000
804.051;   -5.400; -279.000; -346.000
804.306;  109.300;  168.000;  128.000
804.561;  269.100;  451.000;  362.000
804.816;  295.100;  714.000;  861.000
805.071;   77.000; -185.000; -280.000
805.325;  211.100; -257.000; -427.000
805.580; -170.200; -841.000; -877.000
805.835;    7.300; -204.000; -297.000
806.090;  -80.700; -760.000; -676.000
806.345;   -7.000; -344.000; -264.000
806.600;  -20.100; -549.000; -632.000
806.854;  -15.700; -408.000; -538.000
807.109;   17.500; -493.000; -577.000
807.364;   51.300; -407.000; -328.000
807.618;   41.000; -415.000; -381.000
807.873;   48.900; -470.000; -494.000
808.128;  170.800; -257.000; -518.000
808.382;  186.900; -224.000; -332.000
808.637;  121.700; -440.000; -511.000
808.891;  288.700; -257.000; -180.000
809.146;   94.600; -902.000; -794.000
809.400;  325.300; -848.000; -923.000
809.654;  422.700; -779.000; -551.000
809.909;  678.600; -841.000; -927.000
810.163;10316.700; -813.000; -651.000
810.418;20715.600; -940.000; -861.000
810.672; 1339.700; -685.000; -690.000
810.926; 1050.100; -993.000; -973.000
811.180; 2414.500; -439.000; -372.000
811.434;51783.200;  240.000;  135.000
811.689;15759.000; -231.000; -365.000
811.943;  834.100; -936.000; -953.000
812.197;  528.000; -893.000; -671.000
812.451;  211.300; -379.000; -514.000
812.705;   -9.700; -809.000; -619.000
812.959;  -71.100; -263.000; -388.000
813.213;   58.100; -283.000; -209.000
813.467;  194.900;  470.000;  253.000
813.721; -168.700; -764.000; -792.000
813.975; -207.400; -826.000; -877.000
814.229;  136.400;  430.000;  353.000
814.482;  -63.800; -517.000; -566.000
814.736; -167.700; -766.000; -744.000
814.990; -212.900; -779.000; -872.000
815.244;   -1.200; -228.000; -285.000
815.497; -142.700; -636.000; -601.000
815.751;   28.600; -141.000;   82.000
816.005; -131.200; -470.000; -586.000
816.258;  -84.500; -510.000; -363.000
816.512; -147.900; -693.000; -610.000
816.766;   82.500;  121.000;  157.000
817.019;  105.600;  148.000;  149.000
817.273; -216.700;-1000.000; -802.000
817.526;   15.700; -206.000; -173.000
817.779; -117.600;-1049.000; -960.000
818.033; -170.400; -693.000; -807.000
818.286; -167.000; -725.000; -792.000
818.540; -148.800; -403.000; -403.000
818.793;  -69.600; -402.000; -489.000
819.046; -180.100; -582.000; -520.000
819.299;   -4.000; -157.000; -166.000
819.553; -147.000; -552.000; -592.000
819.806; -251.700;-1016.000; -838.000
820.059;  -61.400; -334.000; -354.000
820.312;   62.700;  152.000;  185.000
820.565;   28.400;  110.000;  -27.000
820.818;  -29.600;  -59.000; -173.000
821.071; -281.700;-1041.000; -957.000
821.324; -179.300; -536.000; -540.000
821.577; -119.100; -457.000; -483.000
821.830;  -54.600; -270.000; -172.000
822.083; -165.800; -733.000; -288.000
822.336;  -28.300; -261.000; -167.000
822.589; -218.800; -805.000; -688.000
822.842; -238.600; -875.000; -770.000
823.094; -303.700;-1076.000;-1114.000
823.347; -212.000; -925.000; -729.000
823.600;  104.200;  402.000;  187.000
823.853;  -50.500; -311.000; -267.000
824.105; -101.700; -331.000; -575.000
824.358; -149.200; -617.000; -716.000
824.611;  106.800;  234.000;   40.000
824.863;  -80.600; -612.000; -591.000
825.116;  110.300;  -33.000;   27.000
825.368;   86.000; -366.000; -372.000
825.621;  197.300; -186.000; -240.000
825.873;  104.100; -704.000; -737.000
826.126; 1008.200; -669.000; -641.000
826.378;16944.600; -389.000; -505.000
826.630; 2977.700; -890.000; -898.000
826.883;    7.900; -754.000; -693.000
827.135;  102.400; -279.000; -270.000
827.387; -190.500; -893.000; -839.000
827.639;  -37.800;  -86.000;   32.000
827.892; -189.200; -742.000; -582.000
828.144; -229.900; -848.000; -804.000
828.396;   20.400;  104.000;  -80.000
828.648; -135.900; -440.000; -333.000
828.900; -241.400; -702.000; -795.000
829.152; -187.300; -684.000; -683.000
829.404;  -46.200; -215.000; -267.000
829.656;  -22.400;  321.000;  214.000
829.908;   34.400;  393.000;  229.000
830.160; -303.000;-1064.000;-1047.000
830.412; -113.300; -481.000; -430.000
830.664; -179.400; -557.000; -665.000
830.916;  -75.200; -268.000; -206.000
831.167; -310.000;-1073.000; -951.000
831.419; -149.800; -623.000; -566.000
831.671; -239.900; -764.000; -809.000
831.923; -108.300; -311.000; -447.000
832.174; -114.300; -273.000; -331.000
832.426; -166.700; -493.000; -582.000
832.678; -333.300;-1043.000;-1091.000
832.929; -264.800; -947.000; -935.000
833.181; -128.000; -575.000; -677.000
833.432;  -17.800;  -59.000; -186.000
833.684;   -8.900;  112.000;  -27.000
833.935; -163.800; -610.000; -566.000
834.187; -201.600; -829.000; -823.000
834.438;  -21.500;  -58.000;  -25.000
834.689;  -71.600; -255.000; -123.000
834.941;  -15.500; -343.000; -244.000
835.192; -154.500; -590.000; -533.000
835.443; -114.300; -419.000; -506.000
835.695;   56.100;  138.000;  -16.000
835.946; -140.300; -608.000; -378.000
836.197; -167.100; -599.000; -622.000
836.448; -102.400; -528.000; -395.000
836.699;  -69.400; -253.000; -341.000
836.950;   58.200;   72.000;    7.000
837.201; -276.600;-1003.000; -987.000
837.452;  -90.100; -356.000; -170.000
837.703; -217.800; -791.000; -737.000
837.954;  -22.400; -205.000; -365.000
838.205; -171.100;-1029.000;-1008.000
838.456;  235.300; -196.000; -282.000
838.707;   12.400; -423.000; -519.000
838.958;  -12.300; -634.000; -647.000
839.209;  384.200;   18.000;   40.000
839.460;  206.000; -439.000; -201.000
839.710;  242.500; -135.000; -297.000
839.961;  693.200;  730.000;  612.000
840.212;  503.500; -382.000; -497.000
840.462; 1879.500; -328.000; -277.000
840.713;28195.500; -571.000; -536.000
840.964; 8369.700;  -62.000; -143.000
841.214;  621.500; -384.000; -624.000
841.465;  803.200; -214.000; -141.000
841.715;  656.300; -417.000; -380.000
841.966;  894.100; -746.000; -685.000
842.216;14179.800; -330.000; -431.000
842.466;41497.100; -169.000; -313.000
842.717; 1638.100; -964.000; -952.000
842.967;  432.100; -635.000; -641.000
843.217;  421.900;   20.000;   28.000
843.468;  152.000; -104.000; -132.000
843.718;  -89.300; -718.000; -726.000
843.968; -162.900; -837.000; -765.000
844.218;   34.100; -315.000; -262.000
844.469;  -74.600; -577.000; -561.000
844.719; -167.200; -537.000; -682.000
844.969; -125.600; -550.000; -580.000
845.219; -259.900; -814.000; -862.000
845.469;  -79.200; -392.000; -342.000
845.719; -227.200; -792.000; -884.000
845.969;   33.200;  119.000;  174.000
846.219; -192.200; -738.000; -720.000
846.469;  110.400;  464.000;  432.000
846.718;  -36.700; -115.000;   31.000
846.968; -209.700; -827.000; -827.000
847.218;   -3.100; -224.000; -371.000
847.468; -197.200; -586.000; -555.000
847.718; -242.700; -827.000; -798.000
847.967; -206.400; -826.000; -915.000
848.217; -137.300; -449.000; -569.000
848.467;  -51.100; -405.000; -376.000
848.716; -180.700; -708.000; -725.000
848.966;   12.100; -372.000; -358.000
849.215;  -81.500; -428.000; -419.000
849.465; -133.400; -785.000; -615.000
849.714; -261.400;-1132.000;-1150.000
849.964;  -90.100; -551.000; -613.000
850.213;  -16.800; -393.000; -355.000
850.463;  189.100;  137.000;  340.000
850.712;    8.400; -542.000; -567.000
850.961;   29.800; -739.000; -678.000
851.211;  130.700; -513.000; -504.000
851.460;  248.300; -635.000; -650.000
851.709;  909.500;  -25.000;   18.000
851.958;16812.600; -912.000; -750.000
852.208;15622.400; -859.000; -879.000
852.457;  628.900; -181.000;  -13.000
852.706;   85.200; -791.000; -823.000
852.955;   29.700; -507.000; -528.000
853.204; -102.700; -521.000; -461.000
853.453; -108.900; -418.000; -458.000
853.702; -206.000; -660.000; -750.000
853.951; -135.600; -532.000; -520.000
854.200; -197.000; -613.000; -562.000
854.449; -186.000; -695.000; -661.000
854.698; -115.900; -340.000; -279.000
854.946;  -67.900; -181.000; -284.000
855.195; -238.000; -843.000; -868.000
855.444; -118.800; -395.000; -420.000
855.693; -175.500; -345.000; -432.000
855.941; -168.900; -387.000; -516.000
856.190;  -56.800; -256.000; -382.000
856.439; -160.400; -652.000; -703.000
856.687;  -74.900;  -99.000;  -72.000
856.936; -159.900; -621.000; -323.000
857.184; -312.000;-1067.000;-1020.000
857.433; -135.900; -423.000; -512.000
857.681; -282.400; -989.000; -953.000
857.930;  -96.600; -282.000; -433.000
858.178; -280.500; -856.000; -929.000
858.427; -227.900; -802.000; -781.000
858.675; -191.100; -377.000; -544.000
858.923; -119.300; -527.000; -819.000
859.172; -294.800;-1094.000;-1070.000
859.420; -116.500; -339.000; -239.000
859.668; -202.600; -624.000; -628.000
859.916;   52.000;  109.000;  115.000
860.164; -191.600; -699.000; -603.000
860.413;  282.500; -878.000; -696.000
860.661;   94.100; -709.000; -577.000
860.909; -128.900; -339.000; -325.000
861.157; -104.500; -277.000; -444.000
861.405; -195.500; -534.000; -670.000
861.653;   55.100;  310.000;  310.000
861.901;  167.900; -543.000; -613.000
862.149; -104.900; -801.000; -824.000
862.396;  -62.900; -297.000; -187.000
862.644; -115.100; -368.000; -347.000
862.892;   17.800;   98.000;  138.000
863.140; -147.400; -549.000; -530.000
863.388; -249.800; -815.000; -759.000
863.635; -194.500; -642.000; -601.000
863.883;   55.700;  231.000;  190.000
864.131; -143.000; -288.000; -357.000
864.378; -181.000; -675.000; -540.000
864.626; -127.000; -347.000; -415.000
864.873; -164.400; -556.000; -505.000
865.121; -227.600; -714.000; -799.000
865.368;   -0.800; -173.000;   75.000
865.616;   -5.400;  -33.000;  -40.000
865.863;  -83.500; -462.000; -506.000
866.111; -149.200; -795.000; -824.000
866.358;  110.100; -426.000; -420.000
866.605; 4908.100;  -64.000; -804.000
866.853; 3609.000; -621.000; -537.000
867.100;  -55.300; -728.000; -775.000
867.347;  -99.000; -672.000; -611.000
867.594; -146.100; -740.000; -714.000
867.841;  136.600;   97.000;   17.000
868.089; -254.100; -746.000; -698.000
868.336; -148.900; -477.000; -420.000
868.583; -223.200; -637.000; -741.000
868.830;  -30.900; -131.000; -170.000
869.077; -296.200; -859.000; -787.000
869.324; -163.300; -502.000; -458.000
869.571; -186.700; -398.000; -430.000
869.818; -123.500; -485.000; -439.000
870.065; -156.200; -439.000; -513.000
870.311; -130.200; -456.000; -542.000
870.558; -143.500; -332.000; -311.000
870.805; -101.800; -320.000; -384.000
871.052; -146.900; -494.000; -369.000
871.298;  -62.300; -204.000; -131.000
871.545;  -59.900; -151.000; -185.000
871.792; -107.900; -173.000; -222.000
872.038;  -36.900;   43.000; -126.000
872.285; -157.200; -496.000; -387.000
872.532; -122.300; -357.000; -387.000
872.778;   88.500;  556.000;  403.000
873.025; -112.800; -384.000; -359.000
873.271;  133.300;  501.000;  578.000
873.517;    3.600; -133.000; -209.000
873.764;  -26.400; -193.000;  -80.000
874.010;  -63.500; -143.000; -230.000
874.257;   -7.200;  123.000;   90.000
874.503; -211.400; -579.000; -479.000
874.749;  -59.900;   31.000;  275.000
874.995;  -41.100;  -80.000;  -20.000
875.242; -150.500; -540.000; -478.000
875.488; -153.600; -414.000; -439.000
875.734;  -39.500; -106.000; -234.000
875.980;  159.300; -872.000;-1032.000
876.226;  372.600; -157.000; -255.000
876.472;   52.200;  343.000;  237.000
876.718;   -5.400;  184.000;  158.000
876.964;  -29.200;   56.000;   55.000
877.210; -234.600; -547.000; -677.000
877.456; -191.900; -630.000; -557.000
877.702; -308.100; -821.000; -832.000
877.948; -156.700; -377.000; -497.000
878.193;  144.800;  361.000;  255.000
878.439; -156.300; -487.000; -472.000
878.685; -114.200; -272.000; -343.000
878.931; -209.400; -618.000; -676.000
879.176;  -94.600; -201.000; -201.000
879.422; -299.100; -933.000; -820.000
879.668;  141.200;   10.000;   79.000
879.913;  184.500;   53.000;  137.000
880.159;  -48.800; -112.000;  -17.000
880.404;  -52.400; -152.000; -162.000
880.650;    9.900;   91.000;  141.000
880.895; -273.200; -670.000; -710.000
881.141; -178.200; -454.000; -428.000
881.386; -232.100; -503.000; -658.000
881.631;  -94.200; -311.000; -166.000
881.877;   -0.200;  112.000;  -13.000
882.122; -185.900; -684.000; -600.000
882.367; -106.700; -136.000; -186.000
882.612;  -67.200;  -80.000; -176.000
882.858; -277.400; -877.000; -823.000
883.103; -124.700; -297.000; -267.000
883.348; -220.600; -759.000; -852.000
883.593; -211.500; -677.000; -602.000
883.838;  -59.300; -311.000;  -24.000
884.083;  115.500;  353.000;  288.000
884.328; -120.900; -564.000; -545.000
884.573;  -44.500; -196.000; -143.000
884.818;  199.600; -694.000; -531.000
885.063;  139.400; -348.000; -315.000
885.308; -159.400; -475.000; -398.000
885.553;   83.900;  245.000;  325.000
885.797; -158.300; -545.000; -615.000
886.042;  -11.400;    8.000;   58.000
886.287; -120.500; -253.000; -211.000
886.532;   10.800;   26.000;  204.000
886.776; -104.900; -407.000; -525.000
887.021; -208.800; -621.000; -574.000
887.265; -235.100; -685.000; -689.000
887.510; -176.000; -557.000; -496.000
887.755; -106.600; -194.000; -164.000
887.999; -203.000; -552.000; -575.000
888.244;    0.800;  -58.000;  161.000
888.488;   66.600;  371.000;  393.000
888.732; -184.500; -368.000; -520.000
888.977; -193.700; -622.000; -567.000
889.221; -242.300; -683.000; -659.000
889.465; -135.500; -422.000; -566.000
889.710;  -70.300;  -56.000; -299.000
889.954;  104.400;  579.000;  467.000
890.198; -224.600; -584.000; -707.000
890.442; -249.100; -716.000; -712.000
890.687; -279.400; -800.000; -753.000
890.931;  -94.300; -273.000; -210.000
891.175; -187.600; -502.000; -500.000
891.419;  -43.400; -105.000; -110.000
891.663;  -96.300; -239.000; -112.000
891.907; -232.500; -801.000; -545.000
892.151; -280.400; -920.000; -815.000
892.395; -156.500; -274.000; -387.000
892.638;   54.600;  408.000;  291.000
892.882; -287.100; -780.000; -867.000
893.126;  156.100;  758.000;  558.000
893.370;  -79.300; -167.000; -168.000
893.614; -202.100; -714.000; -715.000
893.857; -106.600; -183.000; -197.000
894.101; -184.000; -527.000; -631.000
894.345;  -35.900;  300.000;  150.000
894.588;  141.000;  569.000;  380.000
894.832;  -67.200; -178.000;  -84.000
895.075;  -91.500;   15.000;  -92.000
895.319; -169.300; -552.000; -420.000
895.563; -165.600; -413.000; -353.000
895.806; -239.200; -628.000; -741.000
896.049;  -84.900; -576.000; -368.000
896.293;  192.100;  527.000;  405.000
896.536; -129.800; -465.000; -468.000
896.779;  -42.000; -149.000;   -1.000
897.023; -218.700; -751.000; -714.000
897.266;   49.700;  325.000;  269.000
897.509; -302.300; -900.000; -901.000
897.752;    8.600;  149.000;  171.000
897.996; -299.000; -972.000; -864.000
898.239;  -10.500;  168.000;  102.000
898.482; -168.700; -431.000; -453.000
898.725;   12.100;  101.000;   53.000
898.968; -280.100; -609.000; -744.000
899.211; -142.100; -513.000; -361.000
899.454; -171.400; -633.000; -539.000
899.697;  -86.600;   90.000;  -43.000
899.940; -271.100; -761.000; -757.000
900.182; -101.600; -335.000; -405.000
900.425; -111.700; -150.000; -298.000
900.668;   45.300;  491.000;  350.000
900.911; -145.300; -292.000; -345.000
901.154;  -18.300;  141.000;   -3.000
901.396; -185.900; -407.000; -412.000
901.639; -167.500; -430.000; -496.000
901.882; -303.100; -790.000; -809.000
902.124;  -86.500;  -29.000; -143.000
902.367; -166.700; -315.000; -361.000
902.609; -197.300; -476.000; -453.000
902.852;  -86.800; -108.000; -260.000
903.094; -187.700; -458.000; -337.000
903.337;  -21.800;  -26.000;   53.000
903.579; -147.600; -228.000; -441.000
903.821; -228.600; -597.000; -744.000
904.064;   -8.700;   85.000;  127.000
904.306; -116.300; -126.000; -166.000
904.548;  -94.800; -152.000; -366.000
904.790; -129.200; -195.000; -340.000
905.033; -222.500; -625.000; -577.000
905.275; -190.500; -513.000; -524.000
905.517;  160.400;  468.000;  256.000
905.759; -168.800; -667.000; -761.000
906.001; -148.000; -322.000; -369.000
906.243;  -91.200; -162.000; -224.000
906.485;  163.200; -265.000; -207.000
906.727;   36.700; -499.000; -542.000
906.969;  -20.000;  -30.000; -135.000
907.211;  115.500; -316.000; -382.000
907.453;  303.200; -188.000; -237.000
907.695;  -47.300; -158.000; -385.000
907.936;  162.600;  818.000;  706.000
908.178;  -43.200;   92.000; -135.000
908.420;  -60.200; -111.000; -162.000
908.662; -206.400; -633.000; -682.000
908.903;  -81.800; -208.000; -123.000
909.145;  -59.800; -240.000; -305.000
909.386;   72.700;  315.000;  280.000
909.628;  120.600;  363.000;  397.000
909.870;   82.600;   29.000;  264.000
910.111; -175.600; -809.000; -949.000
910.353;   69.600; -123.000; -161.000
910.594;   30.200; -574.000; -606.000
910.835;  161.400; -265.000; -326.000
911.077;  277.400; -503.000; -604.000
911.318;  493.100; -505.000; -471.000
911.559;  696.300; -577.000; -880.000
911.801; 2471.800; -284.000; -280.000
912.042;21087.400;  -50.000; -159.000
912.283;43626.800;  404.000;  371.000
912.524; 5147.200; -396.000; -457.000
912.765;  849.500; -193.000;   79.000
913.006;  429.200; -307.000; -338.000
913.247;   95.500; -270.000; -290.000
913.488;   51.300;  -43.000;   30.000
913.729; -104.900; -373.000; -373.000
913.970;  -55.900;  -96.000; -292.000
914.211;  -51.200; -160.000; -198.000
914.452;  -62.100; -118.000;  -11.000
914.693;  130.900;  510.000;  592.000
914.934;  110.500;  510.000;  440.000
915.175;  -52.000;   53.000;  -95.000
915.415;  -79.600; -137.000;   27.000
915.656;  -40.000;  -28.000;  192.000
915.897; -103.500; -252.000;  -82.000
916.137;  -63.400;   74.000;   -9.000
916.378; -220.700; -573.000; -517.000
916.619;  -79.100; -159.000;  -63.000
916.859;   31.600;  303.000;  330.000
917.100;  362.000; 1655.000; 1070.000
917.340;  174.000;  930.000;  728.000
917.581;  186.700;  965.000;  789.000
917.821;  -44.700; -171.000;  143.000
918.061;    9.900; -199.000;  -72.000
918.302;  -72.300; -152.000; -211.000
918.542;   16.100;  -22.000;    3.000
918.782;  157.100;  369.000;  377.000
919.023;  264.300;  360.000;  427.000
919.263; 3398.300; 8131.000;  202.000
919.503; 1396.700; -137.000;  -54.000
919.743;  833.100;  390.000;  266.000
919.983;  293.400; -134.000;  -26.000
920.223;  148.800;  135.000;   14.000
920.463;  309.100;  631.000;  554.000
920.703;  246.800;   84.000;   39.000
920.943;  352.300; -110.000;   90.000
921.183;  381.600; -414.000; -405.000
921.423;  910.000;  307.000;  546.000
921.663; 1217.800; -174.000; -257.000
921.903; 2735.000;  237.000;  173.000
922.143;16676.900;  372.000;  389.000
922.383;56230.100;  158.000;  115.000
922.622;14380.600; -120.000;  -15.000
922.862; 1797.900;  796.000;  785.000
923.102;  714.800;  -51.000;   33.000
923.341;  335.500;   59.000;   74.000
923.581;  163.500;  450.000;  360.000
923.821;  120.400;  301.000;  398.000
924.060;   65.100;  351.000;  193.000
924.300;  -43.200;  -16.000; -128.000
924.539;   41.100;  584.000;  473.000
924.779;  100.800;  812.000;  597.000
925.018;  -22.300;  247.000;  353.000
925.257;  125.500;  595.000;  666.000
925.497;   37.600;  447.000;  412.000
925.736;  -67.600;  -35.000;  102.000
925.975;  107.100;  687.000;  669.000
926.214;  166.500;  907.000;  850.000
926.454;  118.400;  706.000;  757.000
926.693;   26.600;  419.000;  543.000
926.932;  159.200; 1021.000;  825.000
927.171;  221.800; 1107.000; 1044.000
927.410;  170.200; 1144.000;  967.000
927.649;  136.300;  924.000;  742.000
927.888;   48.900;  590.000;  564.000
928.127;   45.800;  680.000;  678.000
928.366;  171.400;  842.000;  826.000
928.605;  164.300;  831.000;  737.000
928.844;  525.500; 1451.000; 1393.000
929.083; 1013.000;  770.000;  613.000
929.321;  491.700; 1335.000; 1359.000
929.560;  296.900; 1158.000; 1122.000
929.799;   13.600;  574.000;  475.000
930.038;  262.300; 1025.000; 1394.000
930.276;  -30.200;  334.000;  397.000
930.515;   84.200;  827.000;  681.000
930.753;   31.300;  614.000;  589.000
930.992;   45.700;  664.000;  717.000
931.230;  110.300;  847.000;  847.000
931.469;  469.500; 2162.000;  892.000
931.707;  194.900;  840.000;  751.000
931.946;  236.100; 1278.000; 1344.000
932.184;  229.400; 1437.000; 1175.000
932.423;  191.400; 1265.000;  963.000
932.661;  253.900; 1296.000; 1428.000
932.899;  119.700;  987.000;  821.000
933.137;   59.400;  754.000;  564.000
933.376;  343.600; 1664.000; 1335.000
933.614;  349.800; 1759.000; 1196.000
933.852;  198.800; 1357.000; 1171.000
934.090;  375.800; 1722.000; 1747.000
934.328;  321.800; 1252.000; 1457.000
934.566;  285.500; 1431.000; 1110.000
934.804;  358.200; 1263.000; 1309.000
935.042; 1100.900; 1861.000; 1850.000
935.280; 4153.600; 2088.000; 2063.000
935.518; 3094.600; 2113.000; 2007.000
935.756;  776.800; 2481.000; 2316.000
935.994;  404.700; 1808.000; 1751.000
936.231;  707.700; 2890.000; 2950.000
936.469;  458.200; 2367.000; 2378.000
936.707;  453.600; 2220.000; 2167.000
936.945;  539.100; 2825.000; 2882.000
937.182;  526.800; 2679.000; 2741.000
937.420;  699.200; 3602.000; 3031.000
937.657;  891.900; 3365.000; 3478.000
937.895;  698.700; 3331.000; 3488.000
938.133;  719.500; 3540.000; 3528.000
938.370;  742.700; 3896.000; 4191.000
938.607;  919.900; 4488.000; 4205.000
938.845; 1251.200; 5587.000; 5549.000
939.082; 1100.600; 5387.000; 5177.000
939.320; 1170.900; 5799.000; 5728.000
939.557; 1410.800; 6549.000; 6491.000
939.794; 1578.200; 7285.000; 7097.000
940.031; 1870.400; 8421.000; 8368.000
940.269; 2199.000; 9552.000; 9107.000
940.506; 2353.500;10901.000;10507.000

