
Integration time [ms]: 100.000
Averaging Nr. [scans]: 40
Smoothing Nr. [pixels]: 0
Data measured with spectrometer [name]: 2101013U2
Wave   ;Sample   ;Dark     ;Reference
[nm]   ;[counts] ;[counts] ;[counts] 

394.013;   79.062; -450.257; -315.536
394.305;  281.635; -461.258; -419.536
394.596; 1125.005; -676.269; -527.514
394.887; 2600.872; -796.268; -654.518
395.178;  987.128;  145.736;   11.476
395.470;  118.014; -210.263; -356.526
395.761;  251.987;  305.734;  394.479
396.052;  467.103; -545.284; -306.489
396.343;  460.974; -557.276; -454.503
396.634;  154.517; -200.279; -290.497
396.926;  182.069; -618.268; -565.517
397.217;  148.328;   11.725;  -17.504
397.508;   84.269; -366.273; -154.507
397.799;   73.542; -555.279; -571.497
398.090;   22.411; -973.280; -902.495
398.381;  163.502;   11.708;  -11.473
398.672;   18.753; -585.292; -742.473
398.963;   80.573; -348.279; -373.498
399.254;  125.287;   54.709; -209.475
399.545;   -7.191;-1017.266; -883.520
399.836;   92.363; -407.277; -343.501
400.127;   84.928; -205.295; -209.468
400.418;   94.439; -423.274; -392.506
400.709;  102.148; -359.281; -333.493
401.000;   71.591; -268.291; -309.476
401.290;  128.113;  225.698;  115.545
401.581;   82.485; -166.286; -228.485
401.872;   32.149; -542.298; -486.462
402.163;   60.595; -313.296; -252.467
402.454;  112.213; -123.291; -163.475
402.744;  117.011; -844.297; -813.465
403.035;  550.293; -226.293;  -86.471
403.326;  715.356; -366.292; -384.474
403.617;  435.394;  204.701;  165.539
403.907;  264.209; -593.283; -679.490
404.198; 2307.592; -545.307; -599.446
404.489; 6069.339; -618.283; -588.491
404.779; 2129.017; -618.302; -660.456
405.070;  257.345;  -67.304; -174.451
405.360;  340.895; -259.293; -238.472
405.651;  369.378;  125.699;   98.542
405.942;  197.081;  209.714;  127.516
406.232;  380.970; -432.285; -413.487
406.523;  600.513;  641.706;  758.530
406.813;  135.683; -579.286; -644.484
407.104;  434.276;  261.708;  144.527
407.394;  272.745; -604.299; -591.462
407.685;  182.644;  336.715;  222.513
407.975;   95.437; -400.283; -382.490
408.265;  141.902; -134.289; -190.478
408.556;   84.910; -472.291; -459.475
408.846;  176.563;  474.706;  429.530
409.137;  103.011;   -1.288; -216.480
409.427;   58.645; -193.285; -271.487
409.717;   47.948; -776.273; -692.508
410.007;  159.713;    4.715; -170.486
410.298;  112.980; -360.295; -342.469
410.588;   89.992; -495.285; -510.486
410.878;   55.422; -792.287; -873.482
411.168;  137.977; -481.298; -478.463
411.459;  130.932; -295.283; -242.489
411.749;   78.108; -609.292; -507.474
412.039;   67.559; -755.289; -386.480
412.329;  227.955;   40.722;  132.501
412.619;  211.733;  -62.286; -148.485
412.909;  389.905;  639.711;  594.521
413.199;  392.087; -130.280; -251.495
413.490;  453.546;  521.710;  352.523
413.780;  167.516;-1013.279; -913.496
414.070;  347.650;  -46.276;  235.497
414.360;  418.327; -729.278; -666.498
414.650;  433.068; -726.288; -688.482
414.940;  547.515; -538.280; -441.496
415.230;  943.615;   50.712;   74.519
415.520; 5908.429;  155.730;   66.486
415.809;23536.573; -305.281; -125.493
416.099;17692.765; -388.277; -229.501
416.389; 4848.537;  435.726;  236.494
416.679; 2817.018;   91.738;   85.473
416.969;  518.302; -527.287; -503.483
417.259;  487.767;  341.721;  171.503
417.549;  719.972;  522.718;  318.508
417.838; 1590.321; -205.268; -147.518
418.128; 5179.901;  650.710;  492.522
418.418; 4244.654; -491.272; -579.509
418.708; 2944.387;    9.726;  -48.506
418.997;10947.507; -474.275; -480.505
419.287;11105.219; -733.273; -790.507
419.577;10374.156; -160.283; -123.489
419.866;35140.438; -588.277; -498.501
420.156;36307.200; -242.270;  -55.513
420.446; 6492.535; -112.263;  -26.526
420.735;  963.194; -376.271; -446.512
421.025;  834.851; 1830.722;  315.502
421.314;  829.667; -203.271; -226.512
421.604; 1859.289;   89.732;  233.484
421.893; 1087.913; -705.271; -602.511
422.183;  263.385; -487.263; -461.526
422.472;  421.365;  -36.271; -107.511
422.762;  501.840; -416.266; -379.521
423.051;  295.450; -916.276; -916.503
423.341;  353.946; -491.273; -439.507
423.630;  454.896; -121.265;   15.477
423.919;  403.632;   58.725;   49.495
424.209;  390.391;  -31.263;   56.473
424.498;  501.994;   68.732;  161.483
424.787; 1071.000; -535.267; -601.518
425.077; 3361.419;   34.735;   29.478
425.366; 5058.122; -734.262; -744.528
425.655; 9310.996;  639.727;  259.493
425.945;19149.678; -313.247; -268.554
426.234;10498.045;  117.741;  300.467
426.523; 4933.725;  -86.259; -350.534
426.812; 6686.785;  107.734;  159.480
427.101; 9777.985; -127.269; -323.515
427.390;12506.979;  -55.270;  -86.514
427.680; 3172.745; -624.257; -411.538
427.969;  541.106; -330.255; -301.540
428.258;  370.386; -385.257; -477.536
428.547;  606.733;  449.728;  397.490
428.836; 1529.722; -421.253; -398.543
429.125; 2188.977; -199.259;  -72.534
429.414;  917.770; -330.251; -294.548
429.703; 3030.120; -231.251; -213.548
429.992; 8975.649; -938.250; -828.549
430.281; 5712.828; -397.264; -331.524
430.570;  635.536;  -21.252;   32.454
430.859;  699.274;  279.741;  352.466
431.148;  517.423;  636.752;  631.446
431.437;  352.060;  391.748;  367.454
431.725;  188.013; -544.257; -481.536
432.014;  161.105; -845.253; -756.545
432.303;  430.900; -149.239; -105.569
432.592;  720.460; -460.263; -178.525
432.881; 1049.974; -601.248; -437.554
433.169; 5740.657; -343.255;  -61.540
433.458;11732.959;  445.765;  540.424
433.747; 4939.327; -397.261; -289.529
434.036; 1022.851; -275.242; -280.564
434.324; 2069.587; -395.249; -379.551
434.613; 3539.619;   40.757;  159.437
434.902; 1225.290;  333.760;  439.433
435.190;  800.349;   75.761;  295.431
435.479;  441.626;  -52.245;   83.441
435.767;  150.609; -411.244; -427.561
436.056;  266.821; -340.242; -294.563
436.345;  393.792; -372.240; -223.568
436.633;  402.057;   60.750;  383.450
436.922;  354.220;  208.760;  414.432
437.210;  849.049; -194.236;    1.426
437.499; 2740.432; -583.235; -432.576
437.787; 2984.824; -339.236;  -10.574
438.075;  739.630;   56.761;  162.430
438.364;  987.207;  -44.238;  250.429
438.652;  616.638; -286.226; -138.592
438.941;  173.202;    3.770;  269.415
439.229;   49.708; -665.252; -466.545
439.517;   53.016; -160.234;  -85.577
439.806;   15.779; -501.225; -290.595
440.094;  215.149;  377.766;  650.421
440.382;  269.528; -653.233; -302.580
440.670;  286.807; -361.235; -285.576
440.959;   63.822; -347.223; -170.599
441.247;   95.538; -151.229; -109.587
441.535;  145.664; -266.235;   31.423
441.823;   77.546; -497.234; -305.578
442.111;  216.093;  173.771;  327.412
442.400;  687.725; -628.245; -335.559
442.688; 1917.523; -111.234; -620.579
442.976; 1434.411; -786.213; -450.617
443.264;  157.211; -324.224; -364.597
443.552;  134.164; -258.226;   51.408
443.840;  185.088;  602.765;  876.423
444.128;  130.152;  265.767;  269.420
444.416;   31.195; -694.228; -312.588
444.704;   41.852; -465.219;  -92.605
444.992;  102.542;   -0.226;  240.407
445.280;   79.853; -517.230;  -94.585
445.568;   81.764; -694.212; -396.618
445.856;  440.086; -174.221;  357.398
446.143; 1036.348;  -54.220;   -7.604
446.431;  798.799;  -25.228;  625.411
446.719;  300.046;  489.783;  675.391
447.007;  202.822;  481.769;  705.416
447.295;  197.719;  597.777;  871.402
447.583;  108.286; -464.229;  -34.587
447.870;  185.608; -434.221; -202.601
448.158;  506.926; -104.230;  129.415
448.446;  399.924; -800.219; -338.604
448.733;  186.912;   13.776;  269.403
449.021;  306.664;   60.788;  341.382
449.309;  200.254; -296.210;  208.379
449.596;  236.643;  128.783;   59.392
449.884;  183.201; -571.222; -325.600
450.172;  155.879; -756.227; -406.590
450.459;  398.019;  645.786;  780.387
450.747; 2135.341; -411.218; -147.608
451.034; 6985.900;  493.772;  889.411
451.322; 5616.647; -413.214; -170.614
451.609;  490.239;  292.777;  508.403
451.897;  572.418; -550.203; -183.634
452.184; 1719.469; -622.223; -400.598
452.472; 1608.476;   97.792;  269.375
452.759;  371.775;  512.781;  864.395
453.047;  164.212; -407.212; -125.617
453.334;  123.583; -732.219; -216.606
453.621;  135.549; -438.214; -161.615
453.909;  155.585;   13.796;  384.368
454.196;  132.356; -299.199; -123.641
454.483;  232.181;  317.798;  540.364
454.771;  161.629; -215.208;  196.374
455.058;   61.432; -316.207;  102.374
455.345;  103.687;   71.807;  344.347
455.632;   74.761; -128.207;  235.373
455.919;   52.604;  -82.196;  182.354
456.207;  -54.489; -774.198; -450.642
456.494;   -9.832; -475.200;  -66.639
456.781;   18.852; -399.202; -198.635
457.068;   84.142; -253.206;  -29.628
457.355;   22.643; -698.206; -401.629
457.642;  -10.376; -552.205; -290.630
457.929;   22.478; -778.194; -417.651
458.216;   84.637; -575.212; -354.617
458.503;  216.533; -173.193;  -19.652
458.790;  212.877; -864.208; -630.625
459.077;  278.407;  -77.202;  110.364
459.364;  749.496; -350.195; -210.649
459.651; 1602.015;  -46.206;  220.372
459.938;  733.542; -864.209; -665.623
460.225;  173.310;  132.799;  276.363
460.512;  -25.224; -836.197; -688.645
460.799;  122.840;  -32.218;  320.392
461.086;   99.623; -370.200; -251.640
461.372;   83.186; -509.198; -279.642
461.659;  152.405; -165.196;  108.354
461.946;   97.756; -445.193;  -54.651
462.233;  262.121;  842.800;  888.361
462.519;  352.993; -814.201; -464.639
462.806;  997.926; -768.197; -497.645
463.093;  839.152; -445.191;  -66.656
463.380;   -2.031; -920.186; -824.664
463.666;   62.728; -259.197;  -18.646
463.953;  111.040; -406.195; -243.648
464.239;  187.940; -173.195;  -77.648
464.526;  414.551;  413.806;  743.350
464.813;  392.614; -565.190; -304.658
465.099;  395.632;  606.807;  607.348
465.386;  386.211;  903.807;  921.348
465.672;   79.102; -694.197; -522.645
465.959;   48.357; -598.188; -520.662
466.245;   25.611; -468.193; -359.652
466.532;  125.838; -109.195;   63.352
466.818;  113.994; -357.186; -216.664
467.104;   23.559; -488.182; -415.672
467.391;    4.991; -628.189; -459.658
467.677;   50.822; -289.186;    9.335
467.964;   33.222; -682.189; -471.660
468.250;   90.475; -331.186; -160.665
468.536;  103.942;   90.811;  180.341
468.822;  -11.713; -821.184; -574.668
469.109;  154.391;  351.827;  471.311
469.395;  183.546;  729.808;  787.346
469.681;  190.345;   46.811;  156.341
469.967; 1158.975; -699.188; -382.660
470.254; 2554.933; -494.188; -306.662
470.540; 1576.004; -601.196; -476.646
470.826;  239.571; -488.181; -397.675
471.112;  291.941;  288.816;  113.331
471.398;  120.870; -253.183;  -58.670
471.684;   46.524; -626.177; -447.680
471.970;    8.224; -918.180; -981.675
472.256;   40.070; -521.192; -441.654
472.542;   40.252; -499.171; -434.691
472.828;   37.255; -743.182; -607.672
473.114;   73.871; -380.166; -283.700
473.400;   45.691; -504.175; -293.684
473.686;   65.053; -452.166; -400.701
473.972;   72.081; -230.174; -131.687
474.258;  -38.634; -925.173; -843.689
474.544;  162.116; -183.178;   -2.679
474.830;  271.068;  -65.175;   45.316
475.116;  414.990; -123.190; -196.658
475.401;  577.127; -558.180; -467.676
475.687;  197.876; -725.180; -718.676
475.973;   31.763; -673.181; -770.673
476.259;  264.420;  736.825;  764.315
476.544;  364.957; -539.176; -437.682
476.830;  732.398; -398.172; -322.690
477.116;  604.681; -430.177; -336.682
477.401;  136.226;  346.820;  358.324
477.687;   -6.634; -289.175; -405.684
477.973;   37.317;   21.819;   28.326
478.258;   10.423; -448.163; -348.706
478.544;   60.130;   21.815;   61.334
478.829;  -52.717; -818.171; -738.692
479.115;  -28.327; -749.172; -651.690
479.401;  -10.299; -444.174; -449.686
479.686;   36.925; -253.180;  -74.676
479.972;  -25.304; -886.178; -776.680
480.257;   34.198; -258.166;  -65.700
480.542;   11.162; -614.170; -469.693
480.828;  239.014; 1288.824; 1392.317
481.113;   -6.238; -464.176; -426.683
481.399;   -0.403; -236.161; -202.711
481.684;  -36.528; -620.166; -462.700
481.969;   39.486; -158.159;  -73.713
482.255;   11.522; -439.169; -285.695
482.540;   17.871; -569.178; -441.680
482.825;   20.364; -395.187; -404.663
483.110;   79.201;  -85.169; -105.696
483.396;  163.008; -840.157; -652.718
483.681;  428.906;  543.826;  730.313
483.966;  130.805; -696.160; -700.712
484.251;   10.080; -404.174; -310.687
484.536;   25.108; -356.165; -378.703
484.822;   18.808; -205.173; -218.687
485.107;  -15.254; -599.152; -502.726
485.392;  125.664;  662.836;  541.296
485.677;   83.561;  354.832;  163.302
485.962;  124.280;  160.843;  270.283
486.247;  101.956;  -14.162;   -8.707
486.532;   37.599; -178.166; -325.701
486.817;  169.892;  381.839;  431.291
487.102;  128.729; -453.154; -514.722
487.387;  591.035; -637.156; -652.718
487.672; 1011.894; -154.164;  -38.705
487.957;  636.824; -394.160; -286.711
488.241;  177.238; -290.150; -314.729
488.526;  635.523; -280.152; -148.726
488.811; 1056.523; -881.177; -818.680
489.096;  811.182; -666.154; -702.723
489.381;  447.869;    3.847;  162.275
489.666;  328.147; -428.161; -510.710
489.950;  171.910;  558.846;  627.277
490.235;  -23.042; -480.151; -458.728
490.520;  -26.904; -756.161; -723.710
490.804;  -39.338; -827.156; -736.719
491.089;    0.154; -469.149; -299.732
491.374;   44.843; -132.164;  -75.704
491.658;   13.241; -817.147; -717.735
491.943;  211.677; -657.152; -609.727
492.227;  303.200; -178.155;  -38.721
492.512;   83.805; -294.157; -341.717
492.797;  -48.952; -713.149; -716.731
493.081;  -42.231; -588.147; -598.735
493.366;  -28.977; -751.161; -635.711
493.650;  217.523;  831.859;  917.254
493.935;   33.765; -648.147; -447.734
494.219;  -24.240; -778.142; -687.743
494.503;  -47.632; -585.150; -487.730
494.788;   51.346;   46.842;   74.285
495.072;  119.865;  184.850;  434.271
495.356;  163.883; -463.148; -343.733
495.641;  486.900; -812.146; -736.736
495.925;  467.517; -976.156; -903.719
496.209;   60.554; -599.149; -451.732
496.494;  -28.365; -763.142; -544.744
496.778;   17.429; -364.154; -360.722
497.062;  -49.884; -819.156; -627.719
497.346;  -28.549; -869.160; -640.711
497.631;  125.136;  580.852;  560.266
497.915;   83.711;  -64.145;  175.261
498.199;   72.133; -341.157; -277.718
498.483;   61.971; -562.152; -508.725
498.767;  171.741;  301.850;  300.271
499.051;  176.876; -126.149; -100.732
499.335;   40.000; -693.149; -739.731
499.619;  -23.900; -381.129; -423.767
499.903;   36.649; -272.155;  -65.721
500.187;   35.287; -588.153; -316.724
500.471;   32.351; -796.152; -595.727
500.755;  123.346;   62.839;  -96.710
501.039;   40.874; -270.155; -357.721
501.323;   99.974;  -21.141;  264.254
501.607;   63.674; -447.163; -503.706
501.891;   15.209; -607.156; -512.718
502.174;   -1.653; -726.144; -585.741
502.458;   88.480;   89.849;  370.273
502.742;   49.649; -180.138; -191.751
503.026;   90.290; -412.147; -254.734
503.310;  154.835; -437.159; -375.713
503.593;   94.867; -464.147; -325.735
503.877;  140.539; -232.133; -156.760
504.161;  206.439;    2.847;  -50.724
504.444;  142.224; -841.158; -710.716
504.728;  411.867; -487.164; -522.704
505.012;  652.813; -257.150;  -76.729
505.295;  488.547; -417.161; -212.711
505.579;  480.241; -256.156; -496.719
505.862;  658.532; -555.145; -333.738
506.146;  652.887; -681.159; -758.714
506.429;  370.413;  568.841;  461.286
506.713;   57.735; -732.151; -667.728
506.996;  300.579;   90.846;  295.278
507.280;  311.412; -633.165; -474.703
507.563;  221.047; -469.155; -261.721
507.847;   92.112; -423.153; -112.724
508.130;   81.773; -665.161; -456.711
508.413;   99.093; -758.167; -577.700
508.697;  227.018; -151.167;   12.300
508.980;  131.889; -422.153; -312.724
509.263;   -7.406; -466.155; -450.720
509.547;   33.662; -124.150;   82.271
509.830;   37.625; -172.160;  140.289
510.113;   90.066;  128.844;  298.281
510.396;   37.445; -530.152; -300.725
510.680;  255.884; -818.145; -812.738
510.963;  890.483;  184.846;  180.277
511.246;  797.895; -493.150; -357.730
511.529;  293.464; -482.145;  -83.739
511.812;  334.736; -250.134;   10.241
512.095;  216.832; -740.151; -396.728
512.378;   75.746; -317.147; -245.736
512.661;   29.281; -703.137; -623.753
512.944;   18.312; -750.142; -637.744
513.227;   59.228; -170.137; -171.752
513.510;   21.697; -479.144; -671.741
513.793;   44.254; -485.140; -435.747
514.076;  141.321;  -43.127;  -39.771
514.359;  104.305; -294.149; -135.732
514.642;   75.815; -442.142; -567.744
514.925;  686.527;  581.860;  561.253
515.208;  867.782; -498.134; -443.758
515.491;  564.671; -276.133; -182.761
515.773;  345.551; -410.143; -337.742
516.056; 1801.338;  249.864;  409.246
516.339; 2587.342; -754.136; -652.755
516.622; 2039.418; -518.150; -488.730
516.904; 1607.883;  882.857;  975.257
517.187;  776.827; -730.138; -523.752
517.470;  436.082; -568.143; -510.743
517.752;  406.320; -624.136; -470.756
518.035;  293.914; -708.139; -725.749
518.318;  297.392; -799.136; -744.755
518.600; 2051.400; -300.132; -325.762
518.883; 2851.614;  310.858;   88.256
519.165; 1384.845; -585.138; -426.751
519.448;  412.474;  -61.132;  -19.762
519.730;  243.329; -573.126; -415.773
520.013;  341.992;  588.867;  664.240
520.295; 1117.138;  -94.134;  -15.759
520.578; 2485.788; -335.131; -305.764
520.860; 2753.175; -254.132;   56.238
521.143; 1362.322; -763.135; -584.756
521.425;  481.617; -251.125; -279.775
521.707;  630.196; -622.127; -380.771
521.990; 1564.747; -199.127;  167.229
522.272; 1776.030; -116.140;   -4.748
522.554;  892.152; -237.143; -157.742
522.836;  457.535;  -24.134;   99.241
523.119;  265.014; -496.148; -189.734
523.401;  174.645; -448.130; -314.766
523.683;   89.357; -865.137; -693.753
523.965;  273.850;  408.862;  260.248
524.247;  239.538;   54.878;  170.220
524.529;  163.112; -451.134; -367.759
524.812;  338.971;   -3.130;  191.234
525.094;  757.299; -773.138; -631.751
525.376; 1194.851; -143.124;   78.223
525.658;  696.764; -441.136; -339.754
525.940;   15.184; -805.131; -671.764
526.222;   60.593; -188.136;  -88.755
526.504;  154.182; -190.131;   32.237
526.786;  262.765; -960.133; -647.760
527.068;  404.956; -124.123;  -67.778
527.349;  202.535; -865.137; -774.754
527.631;  147.224; -137.132;   22.238
527.913;  121.096; -664.127; -450.771
528.195;  141.510; -761.125; -639.774
528.477;  221.957;  -93.134;  -30.758
528.759;  111.671; -648.130; -522.766
529.040;   54.255; -569.123; -293.778
529.322;   64.712; -235.125;  -10.774
529.604;  166.124;  -47.130;   93.233
529.886;  167.453; -546.126; -302.773
530.167;  129.040;  232.870;  192.235
530.449;   61.445;    1.853;   63.265
530.731;   16.087; -572.122; -459.779
531.012;   57.908; -513.120; -216.784
531.294;   62.023; -118.116;  -43.792
531.575;  121.067;  290.875;  538.225
531.857;   47.702; -548.135; -266.757
532.138;  109.598; -113.141;   40.254
532.420;  200.998;  294.865;  403.244
532.701;  270.117; -722.133; -751.760
532.983;  394.170;  232.867;  182.239
533.264;  146.651; -243.126;  175.228
533.546;   -7.108; -491.136; -508.755
533.827;   58.739;  173.867;   -1.759
534.109;   61.977; -352.135;  -80.757
534.390;   96.178; -725.132; -582.762
534.671;  266.948; -270.135;  -82.756
534.953;  157.883; -751.123; -611.779
535.234;   27.083; -426.117; -255.789
535.515;  -69.758; -891.119; -735.785
535.796;   -5.333; -431.128; -193.770
536.078; -108.849;-1050.124; -904.777
536.359;   14.434;  -22.123;    3.221
536.640;   -0.264; -480.125; -197.774
536.921;  171.454;  225.871;  143.232
537.202;  343.771;  -87.138;  -16.751
537.483;  414.237;  251.869;  377.236
537.764;  148.015;   17.870;   98.235
538.045;  -47.319; -543.134; -371.758
538.326;  -30.119; -596.129; -447.768
538.607;   19.597; -686.127; -476.771
538.888;  166.699;   98.879;    5.218
539.169;  170.969; -704.122; -535.781
539.450;  330.753;  236.871;   16.233
539.731;  226.428; -361.121; -182.783
540.012;  141.133;  199.880;  412.216
540.293;   93.395;   82.876;  158.224
540.574;   38.919; -895.113; -717.796
540.855;  460.902;  435.879;  377.218
541.136;  535.441;   47.878;  139.220
541.416;  257.772; -161.130; -220.766
541.697;  186.058; -274.131; -170.763
541.978;  906.975; -270.135; -315.757
542.259; 1173.072; -211.127; -236.771
542.539;  554.842; -191.116; -186.790
542.820;  185.666;  461.875;  480.225
543.101;  123.510;  -52.145;  -77.738
543.381;   50.472; -638.127; -591.771
543.662;  241.069;  159.873; -254.771
543.942;  532.818; -751.127; -830.770
544.223;  919.993;  193.878;  161.219
544.504;  608.600; -275.124; -182.777
544.784;  509.378; -592.126; -408.773
545.065; 1492.645;  104.884; -254.791
545.345; 1761.867;  227.881;   14.215
545.626; 1140.143;  -14.113; -108.796
545.906;  776.565;   77.869;   98.235
546.186;  325.608;   92.874;  -95.773
546.467;  181.503;   99.877;  -95.778
546.747;  294.466;  264.884;  327.210
547.027;  330.424;   91.876;  111.223
547.308;  293.167; -376.127; -530.770
547.588;  345.156;  299.871;  371.232
547.868;  186.666;  458.870;  588.235
548.149;  184.028;  609.885;  593.207
548.429;  109.170; -347.127; -299.771
548.709;  167.133; -645.120; -461.784
548.989;  410.477;   84.882;   88.213
549.269; 1818.023;   10.868;  139.239
549.550; 4195.507;  215.877;  117.222
549.830; 3755.486; -758.111; -556.799
550.110;  723.194; -468.110; -320.801
550.390;  726.288; -128.122;  -56.779
550.670; 1019.664; -868.114; -783.795
550.950;  701.076; -509.121; -471.782
551.230;  181.398;  549.879;  460.218
551.510;   -5.950; -381.121; -326.782
551.790;   34.652; -173.109; -127.803
552.070;  219.203;  940.877; 1181.223
552.350;  345.821; -492.119; -377.786
552.630;  492.970;   -2.121;   77.219
552.909;  315.921;  181.884;   73.209
553.189;  204.979;  -49.132;   33.237
553.469;  165.071; -703.119; -514.786
553.749;  156.424; -469.127; -357.772
554.029;  147.837;   33.883;  -24.790
554.308;  136.482; -154.115;  -37.794
554.588;   55.341; -196.128; -204.770
554.868;   52.902; -366.121;  -47.782
555.147;  138.729; -114.115;  -46.793
555.427;  504.323; -260.116; -250.792
555.707; 3350.952; -284.115; -200.793
555.986; 4090.615; -719.111; -538.800
556.266; 2099.865;   23.884;   72.210
556.546;   85.200; -888.121; -675.782
556.825;  206.262; -657.114; -556.794
557.105; 1540.388; -125.128;   17.230
557.384; 1826.245;  122.884;  187.209
557.664;  677.623; -717.116; -508.792
557.943;   97.926; -557.121; -411.782
558.222;  156.930; -345.118; -344.788
558.502;  256.906; -116.115;  -76.793
558.781;  434.401;  194.885;  499.208
559.061;  359.779; -232.118; -227.788
559.340;  257.534;  302.883;  353.211
559.619;  598.965;   93.884;  148.210
559.899;  872.811; -239.117; -266.789
560.178;  776.480; -778.115; -593.793
560.457; 2667.538; -623.117; -562.790
560.736; 3782.216; -472.111; -482.800
561.015; 2483.211; -500.128; -502.769
561.295;  334.122;  180.893;  215.193
561.574;  334.103;  119.885;  116.207
561.853;  476.356;  274.891;  303.197
562.132;  441.483;  -45.114;  182.206
562.411;  377.346;  396.879;  553.219
562.690;  121.876; -592.115; -458.792
562.969;  127.950;  472.888;  630.203
563.248;  476.893; 2966.878; 2487.219
563.527;  223.840; -290.111; -408.800
563.806;  307.645; -650.127; -521.771
564.085;  366.612; -297.105; -206.810
564.364;  187.264; -594.117; -405.790
564.643;  427.521; -276.121; -223.781
564.922; 1584.750;  221.890;  397.198
565.201; 1578.004; -640.109; -700.803
565.479;  657.025; -297.115; -219.792
565.758;  276.314; -810.128; -712.770
566.037;  434.805; -155.109; -100.803
566.316;  207.120; -286.116;  -28.791
566.595;   40.252;  -17.115;  -12.793
566.873;  101.942; -166.111;  -79.801
567.152;  -59.600; -490.113; -590.797
567.431;   12.091; -113.116;    6.210
567.709;   18.072; -344.107; -212.807
567.988;  224.236; -810.114; -769.794
568.266;  478.852; -160.115;  -68.793
568.545;  316.435; -644.100; -514.819
568.824;  493.949;  160.885;  356.208
569.102;  467.511; -351.114; -235.794
569.381;  173.023; -492.116; -407.792
569.659;  -35.704; -553.113; -553.796
569.938;   19.642; -743.122; -465.780
570.216;   88.382; -225.109; -225.804
570.494;  -32.786; -632.114; -572.795
570.773;   36.375;  202.879;  114.218
571.051;   11.381; -373.123; -357.778
571.330;   52.994; -221.113; -174.796
571.608;   23.228; -181.098; -173.823
571.886;  -63.291; -671.111; -581.799
572.164;  -67.423; -739.121; -621.782
572.443;  -39.809; -562.105; -512.811
572.721;  -34.312; -399.117; -289.790
572.999;  -21.218; -280.117; -168.788
573.277;   74.659;  379.894;  620.191
573.555;  236.186;   94.894;   37.190
573.834; 1152.806;  -86.117; -114.788
574.112; 1357.024;  880.893;  811.193
574.390;  394.366; -143.111;  -96.801
574.668;    0.576;  -91.112;  -61.797
574.946;   -9.413; -165.106; -187.810
575.224;   12.903;   71.891;  -16.803
575.502;  -13.607; -200.116; -204.791
575.780;  -92.248; -767.112; -829.798
576.058;  217.565; 1589.889; 1004.200
576.336;  -24.304; -210.110; -129.801
576.614;  -56.823; -511.112; -340.798
576.891;   44.732; -711.115; -823.794
577.169;  403.765; -158.108; -285.805
577.447;  511.599;  169.893;  202.193
577.725;  231.107;  629.888;  854.201
578.003;   16.605;  -71.112; -371.798
578.280;   82.675; -208.104; -242.812
578.558;   83.781; -450.115; -422.793
578.836;  133.764; -210.114; -145.795
579.114;   54.450; -630.112; -670.797
579.391;   62.983;   -6.117;  -18.789
579.669;  -34.192; -595.114; -704.794
579.947;  145.671; -326.107; -127.806
580.224;  272.345; -692.107; -524.806
580.502;  257.375;  127.893;   76.193
580.779;   16.414;  -42.117;   75.210
581.057;  -67.667; -584.109; -470.804
581.334;  -87.210; -726.102; -695.815
581.612;   24.612;   54.895;  511.190
581.889;  -30.247;  -83.101; -129.818
582.167;  -26.957; -298.099; -190.821
582.444;  -94.277; -845.102; -814.817
582.721;   91.774;  657.899;  715.183
582.999;   40.740; -326.100; -167.821
583.276;  419.860; -812.123; -713.779
583.553;  593.243; -364.102; -294.816
583.831;  180.922; -607.104; -631.812
584.108;   45.338;  349.892;  174.195
584.385;    4.439; -122.102;  -98.815
584.662;  -70.157; -651.111; -828.801
584.940;   25.992;  204.889;  204.199
585.217;   -9.729;  -73.113; -303.796
585.494;   27.351;   71.890;  118.198
585.771;  174.908; -250.109; -354.804
586.048;  460.220; -196.113;  -76.796
586.325;  268.620; -721.110; -773.801
586.602;   88.325;  230.896;  213.188
586.879;  -20.688; -499.100; -580.820
587.156;   45.163; -156.105; -331.810
587.433;  -44.204; -701.102; -667.817
587.710;   74.853;  152.888;  234.202
587.987;  250.244; -264.105; -236.811
588.264;  711.629;  315.888;  387.202
588.541; 1213.728;  -61.104;   26.187
588.818; 2430.611;   72.892;  171.196
589.095; 2107.248; -163.104; -174.812
589.371;  337.806; -459.109; -414.804
589.648;   10.649; -581.107; -437.807
589.925;   33.015; -517.114; -621.795
590.202;    6.177; -741.112; -607.798
590.478;   81.470; -166.105;  -73.811
590.755;  212.642; -241.108; -132.806
591.032; 2093.097; -741.110; -699.802
591.308; 2971.368; -732.094; -790.831
591.585; 1492.122; -573.110; -560.802
591.862;  113.172;-1056.102; -950.817
592.138;   50.089; -475.108; -474.805
592.415;  126.476; -486.104; -495.813
592.691; 1299.099;  460.896;  518.188
592.968; 1671.180; -208.098; -123.824
593.244;  799.466; -695.116; -595.790
593.521;   54.523; -105.102;  -42.817
593.797;  -31.786; -810.122; -720.780
594.074;  283.592; -611.096; -588.826
594.350;  599.129;  828.905;  729.172
594.626;  262.193; -303.111; -283.801
594.903;   82.348; -643.101; -645.817
595.179;  172.405;  243.896;  418.187
595.455;    4.776; -136.107; -150.807
595.731;    4.831;  -19.103;  -38.814
596.008;  -43.088; -464.111; -434.800
596.284;   20.139; -187.100; -242.820
596.560;   40.025; -501.093; -493.833
596.836;  169.465; -173.105;  -70.810
597.112;  287.590; -582.108; -437.805
597.388;  250.715;  -49.097;  -48.826
597.665;   96.148;  437.887;  530.203
597.941;  -50.971; -572.089; -658.839
598.217;   13.325; -323.110; -293.802
598.493;  226.660;   61.891; -204.804
598.769;  447.408; -175.100;  -50.819
599.045;  259.618; -490.108; -562.806
599.321;   44.163; -193.100; -261.820
599.597;  107.709; -355.109; -476.804
599.872;  425.528;  409.896;  429.187
600.148;  311.967;  -61.097; -172.826
600.424;  253.498;   91.893;  202.193
600.700;  183.650; -170.107; -280.807
600.976;   94.136; -442.097; -464.825
601.252;  213.406; -226.109; -272.803
601.527;  173.229; -833.104; -840.813
601.803;  121.696; -453.105; -404.812
602.079;  151.633; -124.100; -118.819
602.354;  487.710; -620.092; -531.835
602.630;  716.646; -140.113; -482.796
602.906; 1909.828; -910.101; -863.818
603.181; 5831.921; -627.119; -534.786
603.457; 4991.289;   98.903; -278.826
603.733;  711.429; -605.120; -626.783
604.008;  828.312; -245.106; -164.810
604.284; 2714.175; -636.101; -580.817
604.559; 2333.757;   -3.112;  -42.799
604.835;  420.890; -163.105; -225.810
605.110;  363.918; -732.099; -892.821
605.385;  631.152;  224.907;  267.167
605.661;  536.656; -625.095; -729.829
605.936;  998.818; -664.108; -737.806
606.211;  859.338;  -17.103; -170.815
606.487;  159.560; -329.114; -376.794
606.762;    1.571; -791.119; -745.786
607.037;  -12.110; -501.105; -433.810
607.313;  -49.950; -589.096; -574.828
607.588;  -12.438; -375.106; -137.810
607.863;   45.253;  -28.101; -143.818
608.138;  150.324;  513.890;  516.198
608.413;   20.722; -576.099; -592.822
608.688;   17.965; -203.108; -267.805
608.964;  151.531; -509.106; -218.809
609.239;  199.113; -107.105; -212.810
609.514;  216.346;  281.895;  240.188
609.789;  574.700; -187.104; -716.812
610.064;  777.548; -435.096; -609.827
610.339;  726.806; -855.109; -799.804
610.614; 1002.088; -131.100; -315.820
610.889;  537.196;  215.895;  107.188
611.163;   29.122; -407.104; -591.812
611.438;   65.261;   81.886; -167.794
611.713;  -10.700; -467.101; -499.817
611.988;   46.877; -144.101; -328.818
612.263;  -24.160; -771.102; -717.815
612.538;  182.070;  385.887;  251.204
612.812;  139.540; -832.100; -911.820
613.087;  115.752; -358.098; -338.823
613.362;  -45.500; -497.107; -557.807
613.637;   26.409;  261.897;  138.186
613.911;  -23.715; -256.092; -345.835
614.186;   90.699; -249.107; -292.807
614.460;  536.255; -842.081; -758.854
614.735;  671.903;  -55.087;  -17.843
615.010;  128.368;   43.912;  -82.841
615.284;  230.589;  360.892;  246.195
615.559;  321.909; -792.092; -955.835
615.833;  245.970;  -76.099;  -87.822
616.108;    5.271; -225.090; -390.837
616.382;  105.480;  274.913;  402.156
616.656;  131.271; -241.090; -232.837
616.931;  436.146; -785.099; -700.822
617.205;  923.479; -973.104; -979.813
617.480;  848.790;  -91.125;    6.225
617.754;  135.737; -396.125; -128.774
618.028;    8.582; -369.129; -382.768
618.302;   47.138;   73.892;  -25.805
618.577;  -46.539; -371.103; -518.815
618.851;  -56.397; -399.109; -600.803
619.125;  -52.963; -335.134; -378.759
619.399;  -43.471; -244.104; -374.813
619.673;  -55.076; -330.115; -515.792
619.947;  -49.711; -333.114; -448.795
620.222;  -20.431; -198.110; -204.801
620.496;    3.352;  -47.121;  -96.782
620.770;   18.193; -187.122;  -93.781
621.044;  176.538;  323.895;  346.190
621.318;  635.555; -653.120; -614.783
621.592;  566.203; -430.121; -409.783
621.866;  297.158; -476.112; -572.799
622.140;   15.818; -207.116; -356.791
622.413;   45.537;  138.889;  112.200
622.687;  -46.550; -746.101; -492.817
622.961;   12.388; -130.108; -143.805
623.235;  -57.112; -633.111; -661.800
623.509; -106.905; -816.105; -848.811
623.783;    1.396;  -12.107;   48.193
624.056;  -21.094; -254.120; -280.783
624.330;   32.876;   63.888;   -3.797
624.604;   27.389; -271.116; -355.790
624.877;   63.348;  180.890;   26.198
625.151;   17.209; -249.114; -238.794
625.425;  -34.219; -150.103; -283.814
625.698;  -73.785; -367.119; -374.785
625.972;  -97.225; -799.110; -765.802
626.245;   69.116;  685.884;  484.210
626.519;  -42.415; -426.120; -340.784
626.792;  -26.975; -192.107; -380.807
627.066;  -86.339; -485.122; -662.779
627.339;  -99.079; -736.110; -663.802
627.613;   43.258;  351.880;  148.216
627.886;   39.352;  187.891; -612.803
628.160;  -34.721;  312.880; -161.783
628.433; -102.658; -695.125; -703.775
628.706;  -64.490; -517.120; -615.784
628.979;   13.099;  296.876;  117.223
629.253;  -90.230; -785.119; -833.786
629.526;  291.202; -334.126; -253.772
629.799;  275.631; -641.123; -479.778
630.072;  129.709; -497.128; -516.769
630.346;  -70.709;-1115.116;-1080.790
630.619;  372.076; -467.107; -545.808
630.892;  543.988;  709.889;  593.200
631.165;  280.379;  790.896;  679.187
631.438;  -83.895;-1092.112;-1055.798
631.711;   30.509;  453.877;  257.221
631.984;  -60.038; -523.117; -624.789
632.257;  -80.092; -636.117; -681.789
632.530;  -65.060; -412.119; -433.785
632.803;    5.907; -109.115;    7.207
633.076;  -75.722; -360.123; -422.777
633.349;   -1.137;  173.872;  121.231
633.622;  -38.536; -187.119; -240.785
633.895; -125.594; -903.120; -823.783
634.167;  -69.596; -496.126; -525.773
634.440;  -17.202;  -19.116; -137.792
634.713;   -9.181;  -22.119; -120.786
634.986;   78.753;  593.871;  453.233
635.258;  -90.970; -507.115; -597.793
635.531;   70.804;  742.882; -343.788
635.804;  -29.240; -303.117; -318.789
636.077;  -92.856; -830.116; -852.791
636.349;   -9.097; -586.115; -474.793
636.622;  333.576; 1695.874; 1392.228
636.894;  190.585; -474.120; -909.784
637.167;  126.095; -836.127; -789.771
637.439;   22.416; -278.128; -213.770
637.712;  -47.297; -312.126; -293.772
637.984;  -81.255; -635.116; -707.791
638.257;  334.653;  515.877;  488.222
638.529;  518.268; -881.125; -924.776
638.802;  219.634; -508.128; -449.769
639.074; -109.182; -927.122; -952.781
639.346; -131.546; -942.135; -930.757
639.619;   -8.687;  -79.142; -319.744
639.891;   -0.189;  -83.122; -168.779
640.163;  -78.437; -689.122; -756.780
640.435;   37.265;  273.878;  103.220
640.708;   10.542;  -72.122; -132.780
640.980;  -27.306; -366.122; -362.781
641.252;  154.871;  -25.121;  -71.781
641.524; 1661.497;  580.879;  573.219
641.796; 1702.049;-1094.121; -907.782
642.068;  310.601; -191.121; -300.782
642.340;  -42.822; -486.121; -566.783
642.613;   41.380;  294.880;  323.217
642.885;  -98.918; -787.120; -878.783
643.157;  -42.417; -810.120; -658.784
643.428;   46.160;  170.880;  218.216
643.700;  -77.788; -498.120; -425.784
643.972;  -41.186;  -16.119; -133.785
644.244;  -74.259; -474.119; -559.785
644.516;  -52.382; -250.119; -114.786
644.788;   41.345;  662.881;  548.214
645.060;  -22.779;  -12.119; -124.786
645.332;  -99.077; -525.118; -535.787
645.603;   40.325;  479.882;  342.213
645.875;  -72.998; -334.118; -369.787
646.147;  156.679; 1487.882; 1242.212
646.418;  -84.219; -931.117; -918.788
646.690;  103.607; -714.117; -715.789
646.962;   11.484; -413.117; -451.789
647.233;   -6.214;   15.883;   11.211
647.505; -112.187; -595.117; -475.790
647.776;   19.740;  328.884;  229.210
648.048;  -12.208; -248.116; -418.790
648.320;  -87.131; -752.116; -679.791
648.591; -139.605;-1055.116; -958.791
648.862;  -89.928; -505.116; -577.792
649.134;    3.724;  115.885;  198.208
649.405;  -52.374; -661.115; -618.792
649.677;  -56.447; -475.115; -598.793
649.948;   -6.070; -181.115; -296.793
650.219;   -5.393;  -37.115; -147.793
650.491;  -82.392; -431.114; -520.794
650.762; -107.440; -705.114; -731.794
651.033;  -77.563; -437.114; -424.795
651.304;  -91.911; -743.114; -728.795
651.576;  -61.609; -680.114; -645.795
651.847;  -36.032; -250.113; -140.796
652.118;  -14.781;  -32.113; -189.796
652.389; -108.604; -639.113; -722.796
652.660;  -35.627; -147.113;  -89.797
652.931; -134.650; -897.112; -871.797
653.202;  -74.723; -382.112; -541.798
653.473;  -75.146; -633.112; -533.798
653.744;  144.531; -595.112; -590.798
654.015;  128.107; -356.112; -303.799
654.286;  -77.866; -642.111; -663.799
654.557;  -52.789; -586.111; -521.799
654.828; -158.637;-1114.111;-1088.800
655.099;  -72.135; -404.111; -291.800
655.370;  -97.783; -427.111; -543.801
655.641; -122.257; -656.110; -714.801
655.911; -109.455; -618.110; -638.801
656.182;   42.147;  437.890;  387.198
656.453;  102.799;  830.890;  746.198
656.724;  -62.449; -466.110; -426.802
656.994;  -75.222; -553.109; -568.803
657.265; -115.995; -862.109; -873.803
657.536;  -89.969; -500.109; -377.804
657.806; -100.342; -561.109; -593.804
658.077; -127.315; -866.109; -950.804
658.347;  -83.863; -523.108; -598.805
658.618; -113.086; -646.108; -694.805
658.888;  -30.234;  -41.108;  112.195
659.159;  -75.507; -432.108; -548.806
659.429;  -21.481; -292.108; -349.806
659.700;    7.996; -435.107; -390.807
659.970;  -21.077; -370.107; -359.807
660.241;    2.400; -754.107; -921.807
660.511;  438.727; -147.107; -174.808
660.781;   86.579; -793.106; -748.808
661.052;  -44.970; -222.106; -381.808
661.322;   -5.568;   21.894;   -9.809
661.592;   14.434;  257.894;  148.191
661.862;  -82.639; -369.106; -382.810
662.133; -102.312; -551.105; -502.810
662.403; -106.760; -770.105; -676.810
662.673;  -58.733; -256.105; -213.811
662.943;  -91.932; -612.105; -551.811
663.213;  -17.730;  -85.105;  -81.811
663.483;  -73.328; -593.104; -568.812
663.753;  -48.701; -194.104; -152.812
664.023;   -8.724;   68.896;  -32.813
664.293;  -77.172; -319.104; -126.813
664.563; -109.996; -694.104; -648.813
664.833; -113.494; -743.103; -608.814
665.103; -114.542; -730.103; -793.814
665.373; -122.415; -766.103; -806.814
665.643;  -84.763; -863.103; -918.815
665.913;   33.364; -534.103; -714.815
666.182;  125.141; -685.102; -719.816
666.452;  246.067;  -22.102;  -89.816
666.722;  -52.881; -724.102; -784.816
666.992; -121.879; -948.102; -921.817
667.261;  -98.177; -824.102; -808.817
667.531;  185.350;  134.899;   45.183
667.801;  552.252; -440.101; -412.818
668.070;  225.854;  714.899;  697.182
668.340; -102.970; -883.101; -840.819
668.609;   86.257;  588.900;  301.181
668.879;  -79.991; -490.100; -558.819
669.149;  -79.064; -539.100; -516.820
669.418; -102.012; -698.100; -726.820
669.688;  -38.860; -482.100; -666.820
669.957;   55.091; -423.099; -546.821
670.226;  -42.282; -268.099; -331.821
670.496;  -88.155; -431.099; -635.822
670.765;  -85.403; -418.099; -501.822
671.034; -133.826; -872.099; -828.822
671.304;  -27.299;   55.902; -111.823
671.573; -148.422;-1085.098; -957.823
671.842;   64.479; -380.098; -294.823
672.112;   12.656; -692.098; -586.824
672.381;  -15.492; -239.098; -214.824
672.650; -132.240;-1005.097;-1021.825
672.919;  -92.138; -631.097; -507.825
673.188;  -92.286; -681.097; -878.825
673.457; -154.285;-1101.097;-1143.826
673.726;  -80.658; -579.096; -646.826
673.995;  -40.881; -533.096; -479.826
674.265;  -31.304; -263.096; -333.827
674.534;   -3.702; -183.096; -235.827
674.802;   -4.325; -618.096; -703.828
675.071;  780.602; -886.095; -801.828
675.340; 3440.353; -464.095; -339.828
675.609; 1133.780;  103.905;   82.171
675.878;   61.032; -949.095; -893.829
676.147;   36.384;  -26.095;   -8.829
676.416;   72.386; -210.094; -294.830
676.685;  630.463; 1000.906; -622.830
676.953;   88.440; -603.094; -452.831
677.222;  -32.784; -193.094; -273.831
677.491;  -26.232;  -24.094; -127.831
677.759;  -28.330;   11.907;  172.168
678.028;  -23.953; -279.093; -222.832
678.297;   -3.051;   71.907;  197.168
678.565; -134.774; -898.093; -944.833
678.834;  -62.973; -311.093; -268.833
679.102;  -58.546; -411.092; -391.834
679.371; -139.119; -898.092; -727.834
679.639; -125.017; -797.092; -786.834
679.908; -122.115; -794.092; -724.835
680.176; -144.713; -895.091; -941.835
680.445;  -66.861; -346.091; -352.835
680.713;  -22.835;  -58.091;  -23.836
680.982; -100.708; -523.091; -525.836
681.250;  -88.181; -578.091; -507.837
681.518;  -99.904; -534.090; -751.837
681.787;  -31.852; -204.090; -167.837
682.055;  -73.825; -490.090; -422.838
682.323; -149.174; -993.090; -992.838
682.591;    8.378; -216.090; -538.838
682.859;   66.180;    9.911;  -35.839
683.128;   10.382;  232.911;  497.161
683.396; -170.266;-1102.089;-1122.840
683.664;  -31.464; -241.089;   21.160
683.932;   -5.237;  144.911;  -76.840
684.200;  -88.461; -576.088; -320.841
684.468;  -24.809;  -73.088; -124.841
684.736;  -34.257; -214.088; -175.841
685.004; -113.705;-1024.088; -982.842
685.272;  -51.378; -880.088; -774.842
685.540;  -78.051; -499.087; -557.843
685.808;  -95.199; -651.087; -682.843
686.076; -106.848; -894.087; -969.843
686.343;  -73.371; -601.087; -815.844
686.611;   25.981; -195.087; -224.844
686.879;  351.583; -530.086; -553.844
687.147; 2880.885; -483.086; -480.845
687.414;  828.912;  -12.086; -169.845
687.682;  -17.737; -658.086; -757.846
687.950;  264.590;  259.915;  263.154
688.217;    9.942; -792.085; -760.846
688.485;  -30.681; -632.085; -636.847
688.753;  433.971;  -11.085; -102.847
689.020;  125.898; -820.085; -851.847
689.288; -104.475; -853.084; -787.848
689.555;  -26.249; -195.084; -148.848
689.823;  -41.397; -241.084; -345.849
690.090;  -72.745; -546.084; -651.849
690.358; -147.318; -877.084; -897.849
690.625;    8.384;  120.917;   45.150
690.892;  -70.964; -403.083; -369.850
691.160;  -29.113;   72.917;  -35.850
691.427;    1.839;  141.917;  130.149
691.694; -128.384; -855.083; -929.851
691.962; -132.432;-1177.082;-1060.852
692.229;    5.745;  127.918;   56.148
692.496;   69.522;  130.918;  -49.852
692.763;    7.799; -164.082; -201.853
693.031;  -77.350; -739.082; -716.853
693.298;  -41.198; -509.081; -368.853
693.565;  228.629; -155.081; -163.854
693.832; 1105.781;   -5.081;   -9.854
694.099;  133.833; -643.081; -642.855
694.366;  -53.665; -882.081; -896.855
694.633;  -48.863; -920.080; -633.855
694.900;  678.888; 4367.920; -114.856
695.167;  409.115; -214.080; -380.856
695.434;   78.417; -646.080; -623.856
695.701;  188.319;  121.921;  -61.857
695.968;  402.721; -365.079; -361.857
696.234;  914.898; -415.079; -646.858
696.501;10450.774; -776.079; -614.858
696.768; 5646.351; -554.079; -617.858
697.035;  314.903; -632.078; -667.859
697.302;   50.280; -448.078; -552.859
697.568;   11.182; -458.078; -497.859
697.835;  -49.991; -683.078; -624.860
698.102;   -5.289; -498.078; -407.860
698.368;   67.087;  384.923;  396.139
698.635;  -29.261;  -47.077; -424.861
698.901;  -28.709; -240.077; -348.861
699.168;   60.593; -534.077; -456.862
699.435;   67.570;  -72.077;  -13.862
699.701; -108.903; -868.076; -764.862
699.968;   -3.327;  144.924; -441.863
700.234; -100.375; -783.076; -822.863
700.500;  -53.348; -448.076; -539.864
700.767;   -5.321;   -1.075;   26.136
701.033; -125.269;-1015.075; -963.864
701.299;  -53.042; -450.075; -483.865
701.566;  115.235;  950.925;  763.135
701.832;   13.736;  -31.075;  -76.865
702.098; -104.512;-1054.074;-1034.866
702.365;  -82.360;-1098.074;-1030.866
702.631;  -38.158;-1038.074;-1063.867
702.897; 1190.244; -765.074; -676.867
703.163; 2195.721;  348.926;  254.133
703.429;  161.573; -256.073; -273.868
703.695;  -31.326; -796.073; -792.868
703.961;   23.726; -214.073; -210.868
704.227;  -62.322; -630.073; -725.869
704.493;  122.130;  613.927;  510.131
704.759;  -15.443; -565.072; -540.870
705.025;   37.809; -203.072; -194.870
705.291;   -3.640; -666.072; -562.870
705.557;  195.812;  719.928;   34.129
705.823;   38.114; -742.072; -694.871
706.089;  155.316; -307.071; -326.871
706.355;  379.393; -315.071; -244.872
706.620; 5784.970; -776.071; -729.872
706.886; 8524.797; -309.071; -362.873
707.152;  803.073; -818.070; -973.873
707.418;    4.550;-1153.070;-1186.873
707.683;    5.527; -550.070; -530.874
707.949;  -36.121; -547.070; -578.874
708.215;    1.331; -129.070; -207.874
708.480;   -8.192; -520.069; -420.875
708.746;   81.334;   68.931;   28.125
709.011;  -47.864; -578.069; -612.876
709.277;  -68.987; -538.069; -543.876
709.542;  -41.110; -428.069; -387.876
709.808;   -6.358;  -59.068;   89.123
710.073;  -74.231; -577.068; -695.877
710.339;  -42.854; -242.068; -228.877
710.604;   55.547; -780.068; -845.878
710.869;  316.124; -277.068; -366.878
711.135;  -56.399; -715.067; -628.879
711.400;  -89.897; -507.067; -608.879
711.665;  -53.370; -404.067; -479.879
711.931;  -92.343; -661.067; -677.880
712.196; -128.241; -876.067; -954.880
712.461;   66.360; -402.066; -490.880
712.726;  121.162; -727.066; -771.881
712.991;  -84.811; -647.066; -664.881
713.256;  -40.384; -350.066; -332.882
713.521;  -58.207; -417.065; -381.882
713.787;  -43.205; -454.065; -472.882
714.052;  -16.054; -214.065; -400.883
714.317;  -83.327;-1045.065; -981.883
714.581; 1039.475; -374.065; -268.883
714.846; 1605.452; -822.064; -888.884
715.111;  136.879;  261.936;  257.116
715.376;  -29.044;  -86.064; -223.885
715.641;  -17.817; -365.064; -367.885
715.906;  274.959;   15.936; -551.885
716.171;  127.936;  221.937;  209.114
716.436;   24.863;  -78.063; -104.886
716.700; -105.660; -818.063; -692.886
716.965; -112.183; -794.063; -807.887
717.230;  -63.456; -339.063; -392.887
717.494;  -20.030;  -40.062; -134.888
717.759;  -90.403; -784.062; -640.888
718.024;    5.324;  269.938;  250.112
718.288;   55.276;  685.938;  395.111
718.553; -130.572; -803.062; -977.889
718.817; -140.320; -883.061; -899.889
719.082;  -25.418; -115.061; -125.890
719.346; -143.467;-1000.061; -947.890
719.611;  -45.065; -300.061; -255.891
719.875; -101.813; -568.060; -537.891
720.140;  -70.286; -453.060; -603.891
720.404;    6.391; -136.060; -249.892
720.668;  719.443; -475.060; -411.892
720.933;  298.820;  146.940;  137.108
721.197;  -92.129; -667.059; -600.893
721.461; -122.052; -851.059; -826.893
721.725;  -13.875;  -21.059; -250.894
721.990;  -63.548; -284.059; -204.894
722.254;  -30.271;  -26.059; -108.894
722.518;  -54.344; -286.058; -442.895
722.782; -100.918; -743.058; -594.895
723.046;  109.459;  614.942;  570.105
723.310;   23.086;  374.942;  210.104
723.574;  -99.187; -654.058; -614.896
723.838;  -97.110; -576.057; -642.897
724.102;  -45.608; -226.057; -239.897
724.366; -138.256;-1032.057; -978.897
724.630;  -82.705; -749.057; -571.898
724.894;  -75.528; -722.057; -514.898
725.158;   -8.401;   38.944; -295.898
725.422;  -50.674; -394.056; -327.899
725.685;  -66.647; -441.056; -349.899
725.949;  -84.245; -566.056; -519.900
726.213;  -63.594; -732.056; -811.900
726.477;  141.233;-1020.055; -933.900
726.740;  134.760; -274.055; -104.901
727.004;  307.262; -384.055; -510.901
727.268; 3446.364; -442.055; -400.901
727.531; 1051.291; -961.055; -775.902
727.795;  -49.307; -713.054; -673.902
728.059;  -54.281; -552.054; -557.903
728.322;  -81.104; -841.054; -669.903
728.586;   21.873; -692.054; -701.903
728.849;  -88.050; -695.053; -756.904
729.112; -114.773; -812.053; -912.904
729.376; -112.446; -959.053; -905.904
729.639;  -61.119; -536.053; -536.905
729.903; -103.118; -733.053; -699.905
730.166;  -37.416; -437.052; -399.906
730.429;  -38.514; -317.052; -468.906
730.693;  -70.962; -355.052; -894.906
730.956;  172.040;  810.948;  651.093
731.219;  645.742; -310.052; -103.907
731.482;  101.268;-1003.051; -894.907
731.745;   83.970; -794.051; -935.908
732.009;   12.872;  -30.051;   50.092
732.272;  -88.601; -904.051; -771.909
732.535;  -37.399; -300.051; -310.909
732.798; -142.772;-1083.050;-1166.909
733.061;  -62.770; -430.050; -456.910
733.324;    8.056;   31.950; -180.910
733.587;   52.233;  290.950;  365.090
733.850;  -52.765; -973.049;-1050.911
734.113;   25.462;   33.951;   32.089
734.376;    2.814; -328.049; -447.912
734.639;  203.741; 1188.951; 1011.088
734.901;   61.917; -180.049; -402.912
735.164;  417.794; -883.048; -837.913
735.427; 1217.821; -166.048; -355.913
735.690;  114.923; -205.048; -234.913
735.952;  -25.625; -923.048; -925.914
736.215;  -24.923;-1113.048;-1009.914
736.478;   56.604; -771.047; -774.915
736.740;  191.730;   33.953;  129.085
737.003;  535.657; -658.047; -672.915
737.266; 3663.559;  -94.047;   46.084
737.528;  424.586; -682.047; -660.916
737.791;  307.413; -316.046; -327.916
738.053;  762.740;  465.954;  649.083
738.316;10376.767; -162.046; -136.917
738.578; 8267.118; -770.046; -736.918
738.841;  462.420; -382.046; -446.918
739.103;  175.872; -875.045; -777.918
739.365;  482.549;   79.955;  -69.919
739.628;   11.576; -884.045; -805.919
739.890;  -23.847; -758.045; -710.919
740.152;  -52.296; -692.044; -754.920
740.414;   -7.644; -408.044; -359.920
740.677;  -38.317; -785.044; -634.921
740.939;  -53.165; -587.044; -487.921
741.201;  223.762; -432.044; -572.921
741.463;   45.514; -689.043; -745.922
741.725;   21.966;  -21.043; -199.922
741.987;   44.617;  220.957;  116.078
742.249;  -10.031; -751.043; -859.923
742.511;  165.721; -703.043; -794.923
742.773;   22.923; -546.042; -546.924
743.035;  111.775;  796.958;  533.076
743.297;  -53.598; -963.042;-1013.924
743.559;  682.728; -278.042; -262.925
743.821;   56.580; -735.042; -744.925
744.083;   15.157;  -44.041; -149.925
744.345;  -88.641; -869.041; -892.926
744.607;   18.661;   75.959;  122.074
744.868;  -50.837; -490.041; -554.927
745.130;  -92.285; -994.041;-1008.927
745.392;   48.766;   -1.040;  -44.927
745.653;  -10.382; -411.040; -378.928
745.915;  149.220;  896.960;  631.072
746.177;   56.522;   35.960;  -43.928
746.438;   -7.001; -428.040; -543.929
746.700;  -38.774; -947.039; -988.929
746.961;    4.677; -659.039; -740.930
747.223;  133.029; -190.039;  -74.930
747.484;   81.806; -391.039; -471.930
747.746;  136.308;  -23.038; -106.931
748.007;  117.735; -647.038; -689.931
748.269;  257.762; -468.038; -440.931
748.530;  450.589; -852.038; -638.932
748.791;  240.165; -354.038; -420.932
749.053;  418.317;  286.963;  163.067
749.314;  437.069; -236.037; -169.933
749.575;  505.446; -945.037; -905.933
749.836;  798.473; -217.037;   86.066
750.098; 2114.425;  -60.037;  -21.934
750.359;33686.202;  414.964;  555.066
750.620; 9857.353; -121.036; -220.935
750.881;  989.180; -585.036; -513.935
751.142; 1238.157; -950.036; -938.936
751.403;15733.934; -789.036; -705.936
751.664; 8028.811;-1034.035; -999.936
751.925;  511.888; -175.035; -262.937
752.186;  285.589; -298.035; -278.937
752.447;  125.041; -590.035; -445.937
752.708;   32.968; -532.035; -648.938
752.969;   16.020; -566.034; -576.938
753.230;   -4.503; -777.034; -672.939
753.491;   -0.676; -650.034; -631.939
753.751;   56.026;  109.966;   19.061
754.012;   86.352;  258.967;  181.060
754.273;   57.554; -174.033;  -71.940
754.534;   12.131; -487.033; -580.940
754.794;  -86.517; -926.033; -911.941
755.055;  134.485; 1051.967;  881.059
755.316;  -53.088; -700.032; -566.942
755.576;  -22.837; -606.032; -576.942
755.837;  -47.760; -527.032; -695.942
756.097;  -40.733; -530.032; -564.943
756.358;  -79.031; -725.032; -770.943
756.618;  -51.279; -705.031; -641.943
756.879;   -8.002; -254.031; -349.944
757.139; -109.100;-1098.031;-1116.944
757.400;  -38.674; -538.031; -553.945
757.660;  -28.197; -365.031; -401.945
757.920;    5.355; -266.030; -228.945
758.181;  -28.493; -468.030; -351.946
758.441;  -88.866; -870.030; -809.946
758.701;  -24.539; -308.030; -215.946
758.961;   -7.587; -220.030; -278.947
759.222;  -32.911; -574.029; -502.947
759.482;  -62.784; -683.029; -723.948
759.742;  -72.957; -706.029; -547.948
760.002;    7.195;  -83.029; -143.948
760.262;   17.447;   50.972;  182.051
760.522;  -50.301; -498.028; -574.949
760.782;  -50.325; -738.028; -612.949
761.042;  -25.448; -618.028; -573.950
761.302;   36.979;   55.972;  -18.950
761.562;   51.481; -164.027; -154.951
761.822;   67.158; -710.027; -551.951
762.082;  -34.765;-1104.027;-1093.951
762.342;   79.487; -328.027; -403.952
762.601;   79.063; -567.027; -506.952
762.861;  320.090; -281.026; -207.952
763.121;  377.642; -406.026; -411.953
763.381; 6940.319; -499.026; -485.953
763.640; 8948.196; -139.026; -307.954
763.900;  385.048; -242.026; -203.954
764.160;   85.574; -458.025; -491.954
764.419;   -6.074; -726.025; -782.955
764.679;  -72.747; -795.025; -726.955
764.939;  -13.770; -124.025; -210.955
765.198;  -78.593; -608.025; -563.956
765.458;  -83.791; -710.024; -612.956
765.717;  -76.439; -454.024; -590.957
765.976;  -64.638; -428.024; -411.957
766.236;  -65.486; -475.024; -610.957
766.495;   18.166;  260.977;   73.042
766.755;  -86.032;-1090.023; -987.958
767.014;   -8.030; -594.023; -665.958
767.273;  -44.728; -373.023; -397.959
767.533;  -33.251; -228.023; -307.959
767.792;  -34.575; -151.022; -188.960
768.051;  -52.198; -228.022; -276.960
768.310;  -74.471; -546.022; -650.960
768.569;   -1.294; -161.022;    4.039
768.828;  -35.617; -285.022; -363.961
769.088; -100.390;-1050.021; -942.961
769.347;  -65.964; -755.021; -599.962
769.606;  -88.887; -876.021; -857.962
769.865; -114.910;-1016.021;-1033.963
770.124;   -2.258; -411.021; -336.963
770.383;  -34.956; -778.020; -910.963
770.641;   -3.679; -398.020; -400.964
770.900;  -45.027; -953.020; -846.964
771.159;  -19.076; -851.020; -951.964
771.418;   -2.874; -917.020; -779.965
771.677;  136.428; -224.019; -293.965
771.936;  167.305; -794.019; -865.966
772.194; 2057.732; -465.019; -437.966
772.453;12148.809; -213.019; -391.966
772.712;  893.635;  416.982;  329.033
772.970;  135.512;   32.982;   63.033
773.229;   81.064;  -22.018;  102.033
773.488;  -61.934; -814.018; -770.968
773.746;   49.168;  296.982;  335.032
774.005;   11.445;  190.983;  -22.969
774.263;    5.822;  243.983;  177.031
774.522;  -18.752; -422.017; -548.969
774.780;  -65.825; -484.017; -417.970
775.039;  -83.698; -551.017; -531.970
775.297;  -22.871; -135.016; -351.970
775.555;  -85.094; -489.016; -612.971
775.814; -112.042; -618.016; -570.971
776.072; -123.590; -749.016; -740.971
776.330;  -88.014; -630.016; -520.972
776.589; -113.637; -703.015; -721.972
776.847; -111.960; -645.015; -624.973
777.105; -144.608;-1016.015;-1032.973
777.363;  -79.331; -459.015; -454.973
777.621; -133.879; -660.015; -717.974
777.879;  -35.128;  -42.014;   32.026
778.138;  -95.776; -554.014; -717.974
778.396; -104.849; -585.014; -526.975
778.654; -165.172;-1015.014; -970.975
778.912;  -58.220; -269.014; -371.976
779.170; -117.218; -880.013; -803.976
779.427; -152.766; -922.013; -897.976
779.685; -139.265; -880.013; -832.977
779.943;  -82.613; -654.013; -593.977
780.201; -153.711; -964.012; -883.978
780.459; -103.434; -651.012; -610.978
780.717;  -85.357; -440.012; -390.978
780.974;  -87.830; -449.012; -490.979
781.232;  -76.254; -358.012; -338.979
781.490;  -94.302; -551.011; -472.979
781.747;  -91.850; -555.011; -476.980
782.005;   18.777;  462.989;  254.020
782.263; -164.321; -542.011;-1004.981
782.520;  -83.619; -326.011; -501.981
782.778; -157.067;-1013.010;-1051.981
783.035; -153.191; -962.010; -938.982
783.293;  -59.139; -248.010; -206.982
783.550;  -66.312; -134.010; -198.982
783.808; -128.210; -764.010; -776.983
784.065; -147.658; -745.009; -874.983
784.322;  -44.056;   25.991;  -86.984
784.580; -129.479; -915.009; -771.984
784.837;  -90.078; -392.009; -466.984
785.094; -134.676; -783.009; -762.985
785.352;  -77.099; -304.008; -404.985
785.609; -112.522; -934.008; -839.985
785.866;  -91.845; -345.008; -401.986
786.123;  -77.393; -639.008; -583.986
786.380;  -99.142; -665.008; -604.987
786.637;  -42.690; -225.007; -380.987
786.895;  -17.913; -456.007; -543.987
787.152;  -40.161; -135.007; -267.988
787.409;  -47.909; -123.007; -225.988
787.666;  -95.932; -299.006; -378.988
787.923; -100.355; -616.006; -695.989
788.179; -100.729; -551.006; -584.989
788.436;  -94.127; -585.006; -585.990
788.693;  -26.125;  -92.006;  -87.990
788.950;   85.252; -125.005; -112.990
789.207;  200.754; -381.005; -372.991
789.464;  -45.244; -161.005; -301.991
789.720;  -25.018;  150.995;  110.009
789.977; -169.066;-1003.005; -671.992
790.234;  -29.214;   44.996;  -66.992
790.490; -135.937; -884.004;-1031.993
790.747;  -21.710;  -85.004;   22.007
791.004;  -37.033; -426.004; -348.993
791.260;  -83.981; -430.004; -560.994
791.517; -106.080; -843.003; -788.994
791.773;  -49.728; -379.003; -342.994
792.030; -108.526; -596.003; -660.995
792.286; -104.774; -686.003; -636.995
792.543;  -31.422;  -74.002; -159.995
792.799;  -62.495; -584.002; -382.996
793.055; -155.968;-1179.002;-1210.996
793.312;  -93.142; -827.002; -816.997
793.568;  -38.840; -746.002; -599.997
793.824;    2.012; -226.001; -284.997
794.081;   28.664; -447.001; -508.998
794.337;   53.966; -664.001; -561.998
794.593; 1080.243; -319.001; -271.999
794.849; 6718.469; -746.001; -772.999
795.105;  382.796; -270.000; -261.999
795.361;   24.723; -490.000; -457.000
795.617;  -60.300; -875.000; -945.000
795.873;  -32.875; -360.000; -407.000
796.129;  -25.150; -368.000; -306.000
796.385;  -23.400; -124.000; -156.000
796.641;   75.850;  412.000;  550.000
796.897;  -70.200; -666.000; -635.000
797.153;   75.150;  453.000;  357.000
797.409;  -91.200; -785.000; -868.000
797.665;  -71.825; -625.000; -732.000
797.921;  -59.650; -775.000; -762.000
798.176;  -51.875; -744.000; -747.000
798.432;  -46.625; -824.000; -596.000
798.688;  -57.875;-1174.000;-1078.000
798.943;   81.375; -165.000; -147.000
799.199;   16.275;-1005.000; -959.000
799.455;  237.675;  369.000;  316.000
799.710;  155.125; -813.000; -380.000
799.966;  310.350; -162.000; -160.000
800.221;  482.000; -638.000; -721.000
800.477; 9651.500; -743.000; -710.000
800.732;10500.550; -773.000; -800.000
800.988;  686.675;  205.000;  -19.000
801.243; 1749.600; -454.000; -344.000
801.498; 9341.675; -814.000; -739.000
801.754;  615.450; -289.000; -163.000
802.009;  102.100; -257.000; -335.000
802.264;  -20.100; -967.000;-1033.000
802.520;   30.250;  222.000;   -3.000
802.775;  -41.725; -524.000; -359.000
803.030;   48.450;  395.000;  356.000
803.285; -104.050; -840.000; -903.000
803.540;  -57.300; -686.000; -699.000
803.795;  -31.300; -648.000; -583.000
804.051;  -51.500; -279.000; -346.000
804.306;   25.250;  168.000;  128.000
804.561;  121.150;  451.000;  362.000
804.816;  145.475;  714.000;  861.000
805.071;   -1.150; -185.000; -280.000
805.325;  199.825; -257.000; -427.000
805.580; -104.925; -841.000; -877.000
805.835;  -30.150; -204.000; -297.000
806.090;  -85.525; -760.000; -676.000
806.345;  -20.625; -344.000; -264.000
806.600;  -30.325; -549.000; -632.000
806.854;  -22.125; -408.000; -538.000
807.109;   -9.425; -493.000; -577.000
807.364;   22.000; -407.000; -328.000
807.618;    8.450; -415.000; -381.000
807.873;   52.050; -470.000; -494.000
808.128;   93.600; -257.000; -518.000
808.382;  103.800; -224.000; -332.000
808.637;   67.850; -440.000; -511.000
808.891;  168.025; -257.000; -180.000
809.146;  112.925; -902.000; -794.000
809.400;  251.025; -848.000; -923.000
809.654;  330.750; -779.000; -551.000
809.909;  476.375; -841.000; -927.000
810.163; 5335.000; -813.000; -651.000
810.418;17055.350; -940.000; -861.000
810.672; 1130.200; -685.000; -690.000
810.926;  727.950; -993.000; -973.000
811.180; 1381.900; -439.000; -372.000
811.434;31196.075;  240.000;  135.000
811.689;15742.650; -231.000; -365.000
811.943;  706.925; -936.000; -953.000
812.197;  363.025; -893.000; -671.000
812.451;  152.025; -379.000; -514.000
812.705;  -11.350; -809.000; -619.000
812.959;   11.000; -263.000; -388.000
813.213;    7.825; -283.000; -209.000
813.467;   67.150;  470.000;  253.000
813.721;  -78.350; -764.000; -792.000
813.975; -112.725; -826.000; -877.000
814.229;   42.750;  430.000;  353.000
814.482;  -74.450; -517.000; -566.000
814.736; -111.025; -766.000; -744.000
814.990; -125.400; -779.000; -872.000
815.244;  -44.825; -228.000; -285.000
815.497;  -71.875; -636.000; -601.000
815.751;  -19.275; -141.000;   82.000
816.005;  -83.875; -470.000; -586.000
816.258;  -66.475; -510.000; -363.000
816.512;  -94.725; -693.000; -610.000
816.766;   -7.250;  121.000;  157.000
817.019;   22.250;  148.000;  149.000
817.273; -115.500;-1000.000; -802.000
817.526;  -40.150; -206.000; -173.000
817.779;  -61.800;-1049.000; -960.000
818.033;  -67.500; -693.000; -807.000
818.286; -123.775; -725.000; -792.000
818.540;  -74.450; -403.000; -403.000
818.793;  -77.400; -402.000; -489.000
819.046; -100.725; -582.000; -520.000
819.299;  -36.750; -157.000; -166.000
819.553;  -97.025; -552.000; -592.000
819.806; -158.100;-1016.000; -838.000
820.059;  -74.525; -334.000; -354.000
820.312;    8.250;  152.000;  185.000
820.565;  -16.875;  110.000;  -27.000
820.818;  -50.625;  -59.000; -173.000
821.071; -167.775;-1041.000; -957.000
821.324; -102.075; -536.000; -540.000
821.577; -110.675; -457.000; -483.000
821.830;  -53.900; -270.000; -172.000
822.083; -125.875; -733.000; -288.000
822.336;  -45.225; -261.000; -167.000
822.589; -134.650; -805.000; -688.000
822.842; -136.175; -875.000; -770.000
823.094; -162.675;-1076.000;-1114.000
823.347; -129.650; -925.000; -729.000
823.600;    7.675;  402.000;  187.000
823.853;  -55.675; -311.000; -267.000
824.105;  -72.225; -331.000; -575.000
824.358; -102.350; -617.000; -716.000
824.611;   28.025;  234.000;   40.000
824.863;  -51.600; -612.000; -591.000
825.116;   56.300;  -33.000;   27.000
825.368;   67.475; -366.000; -372.000
825.621;  150.850; -186.000; -240.000
825.873;   75.475; -704.000; -737.000
826.126;  521.650; -669.000; -641.000
826.378;11032.400; -389.000; -505.000
826.630; 3512.550; -890.000; -898.000
826.883;   48.600; -754.000; -693.000
827.135;   42.175; -279.000; -270.000
827.387; -105.225; -893.000; -839.000
827.639;  -28.525;  -86.000;   32.000
827.892; -121.750; -742.000; -582.000
828.144; -137.925; -848.000; -804.000
828.396;  -29.150;  104.000;  -80.000
828.648;  -75.725; -440.000; -333.000
828.900; -142.850; -702.000; -795.000
829.152; -111.375; -684.000; -683.000
829.404;  -68.400; -215.000; -267.000
829.656;  -16.600;  321.000;  214.000
829.908;  -25.125;  393.000;  229.000
830.160; -159.575;-1064.000;-1047.000
830.412;  -99.125; -481.000; -430.000
830.664; -115.575; -557.000; -665.000
830.916;  -84.300; -268.000; -206.000
831.167; -165.225;-1073.000; -951.000
831.419; -103.875; -623.000; -566.000
831.671; -151.650; -764.000; -809.000
831.923;  -84.300; -311.000; -447.000
832.174;  -66.250; -273.000; -331.000
832.426; -119.600; -493.000; -582.000
832.678; -185.050;-1043.000;-1091.000
832.929; -164.025; -947.000; -935.000
833.181;  -69.000; -575.000; -677.000
833.432;  -42.725;  -59.000; -186.000
833.684;  -26.175;  112.000;  -27.000
833.935; -118.575; -610.000; -566.000
834.187; -130.300; -829.000; -823.000
834.438;  -59.725;  -58.000;  -25.000
834.689;  -62.200; -255.000; -123.000
834.941;  -48.875; -343.000; -244.000
835.192; -101.825; -590.000; -533.000
835.443; -110.100; -419.000; -506.000
835.695;  -29.600;  138.000;  -16.000
835.946;  -94.225; -608.000; -378.000
836.197; -115.475; -599.000; -622.000
836.448;  -94.175; -528.000; -395.000
836.699;  -67.525; -253.000; -341.000
836.950;  -12.750;   72.000;    7.000
837.201; -142.625;-1003.000; -987.000
837.452;  -63.525; -356.000; -170.000
837.703; -110.950; -791.000; -737.000
837.954;  -42.950; -205.000; -365.000
838.205;  -93.825;-1029.000;-1008.000
838.456;  146.625; -196.000; -282.000
838.707;   16.075; -423.000; -519.000
838.958;   -1.675; -634.000; -647.000
839.209;  247.125;   18.000;   40.000
839.460;  124.725; -439.000; -201.000
839.710;  155.700; -135.000; -297.000
839.961;  396.800;  730.000;  612.000
840.212;  350.400; -382.000; -497.000
840.462; 1001.175; -328.000; -277.000
840.713;16792.475; -571.000; -536.000
840.964; 8509.200;  -62.000; -143.000
841.214;  529.500; -384.000; -624.000
841.465;  524.500; -214.000; -141.000
841.715;  479.350; -417.000; -380.000
841.966;  582.275; -746.000; -685.000
842.216; 6947.225; -330.000; -431.000
842.466;32790.875; -169.000; -313.000
842.717; 2345.925; -964.000; -952.000
842.967;  274.700; -635.000; -641.000
843.217;  252.975;   20.000;   28.000
843.468;   47.175; -104.000; -132.000
843.718;  -37.375; -718.000; -726.000
843.968;  -90.475; -837.000; -765.000
844.218;   -2.700; -315.000; -262.000
844.469;  -44.500; -577.000; -561.000
844.719; -110.325; -537.000; -682.000
844.969; -103.350; -550.000; -580.000
845.219; -143.600; -814.000; -862.000
845.469;  -72.275; -392.000; -342.000
845.719; -142.650; -792.000; -884.000
845.969;  -24.725;  119.000;  174.000
846.219; -117.500; -738.000; -720.000
846.469;    7.950;  464.000;  432.000
846.718;  -51.150; -115.000;   31.000
846.968; -131.325; -827.000; -827.000
847.218;  -34.825; -224.000; -371.000
847.468;  -49.025; -586.000; -555.000
847.718; -146.050; -827.000; -798.000
847.967; -141.425; -826.000; -915.000
848.217;  -83.625; -449.000; -569.000
848.467;  -65.975; -405.000; -376.000
848.716;  -92.975; -708.000; -725.000
848.966;   -4.300; -372.000; -358.000
849.215;  -45.600; -428.000; -419.000
849.465;  -94.750; -785.000; -615.000
849.714; -134.700;-1132.000;-1150.000
849.964;  -62.425; -551.000; -613.000
850.213;  -10.375; -393.000; -355.000
850.463;   63.400;  137.000;  340.000
850.712;    3.125; -542.000; -567.000
850.961;   22.400; -739.000; -678.000
851.211;  107.475; -513.000; -504.000
851.460;  179.825; -635.000; -650.000
851.709;  521.500;  -25.000;   18.000
851.958; 9256.450; -912.000; -750.000
852.208;14361.850; -859.000; -879.000
852.457;  573.975; -181.000;  -13.000
852.706;   86.500; -791.000; -823.000
852.955;   48.825; -507.000; -528.000
853.204;  -61.200; -521.000; -461.000
853.453;  -78.700; -418.000; -458.000
853.702; -123.275; -660.000; -750.000
853.951;  -92.075; -532.000; -520.000
854.200; -113.375; -613.000; -562.000
854.449; -147.075; -695.000; -661.000
854.698;  -97.500; -340.000; -279.000
854.946;  -77.225; -181.000; -284.000
855.195; -152.075; -843.000; -868.000
855.444;  -94.125; -395.000; -420.000
855.693; -107.550; -345.000; -432.000
855.941; -106.750; -387.000; -516.000
856.190;  -61.125; -256.000; -382.000
856.439; -127.575; -652.000; -703.000
856.687;  -71.650;  -99.000;  -72.000
856.936; -125.550; -621.000; -323.000
857.184; -180.775;-1067.000;-1020.000
857.433; -101.625; -423.000; -512.000
857.681; -164.150; -989.000; -953.000
857.930;  -70.775; -282.000; -433.000
858.178; -152.475; -856.000; -929.000
858.427; -160.925; -802.000; -781.000
858.675; -114.100; -377.000; -544.000
858.923; -117.000; -527.000; -819.000
859.172; -179.575;-1094.000;-1070.000
859.420;  -92.075; -339.000; -239.000
859.668; -127.600; -624.000; -628.000
859.916;  -36.250;  109.000;  115.000
860.164; -126.650; -699.000; -603.000
860.413;  184.500; -878.000; -696.000
860.661;  211.525; -709.000; -577.000
860.909;  -88.775; -339.000; -325.000
861.157;  -82.400; -277.000; -444.000
861.405; -119.975; -534.000; -670.000
861.653;   -0.775;  310.000;  310.000
861.901;  127.125; -543.000; -613.000
862.149;   16.175; -801.000; -824.000
862.396;  -84.975; -297.000; -187.000
862.644; -102.525; -368.000; -347.000
862.892;  -41.925;   98.000;  138.000
863.140; -111.575; -549.000; -530.000
863.388; -153.650; -815.000; -759.000
863.635; -131.475; -642.000; -601.000
863.883;  -15.675;  231.000;  190.000
864.131;  -91.000; -288.000; -357.000
864.378; -141.675; -675.000; -540.000
864.626;  -94.975; -347.000; -415.000
864.873; -114.625; -556.000; -505.000
865.121; -141.225; -714.000; -799.000
865.368;  -43.475; -173.000;   75.000
865.616;  -42.700;  -33.000;  -40.000
865.863;  -76.150; -462.000; -506.000
866.111;  -99.850; -795.000; -824.000
866.358;   33.875; -426.000; -420.000
866.605; 2334.475;  -64.000; -804.000
866.853; 3053.350; -621.000; -537.000
867.100;    1.125; -728.000; -775.000
867.347;  -93.575; -672.000; -611.000
867.594;  -82.525; -740.000; -714.000
867.841;   73.050;   97.000;   17.000
868.089; -131.425; -746.000; -698.000
868.336; -107.400; -477.000; -420.000
868.583; -141.925; -637.000; -741.000
868.830;  -59.775; -131.000; -170.000
869.077; -159.425; -859.000; -787.000
869.324; -115.450; -502.000; -458.000
869.571; -122.275; -398.000; -430.000
869.818; -126.050; -485.000; -439.000
870.065; -105.975; -439.000; -513.000
870.311; -103.925; -456.000; -542.000
870.558; -102.025; -332.000; -311.000
870.805;  -88.050; -320.000; -384.000
871.052; -104.650; -494.000; -369.000
871.298;  -77.025; -204.000; -131.000
871.545;  -72.900; -151.000; -185.000
871.792;  -76.925; -173.000; -222.000
872.038;  -62.600;   43.000; -126.000
872.285; -121.200; -496.000; -387.000
872.532; -103.825; -357.000; -387.000
872.778;   -1.800;  556.000;  403.000
873.025;  -96.450; -384.000; -359.000
873.271;   21.075;  501.000;  578.000
873.517;  -50.675; -133.000; -209.000
873.764;  -40.625; -193.000;  -80.000
874.010;  -62.000; -143.000; -230.000
874.257;  -48.250;  123.000;   90.000
874.503; -140.800; -579.000; -479.000
874.749;  -53.975;   31.000;  275.000
874.995;  -74.625;  -80.000;  -20.000
875.242; -125.975; -540.000; -478.000
875.488; -104.850; -414.000; -439.000
875.734;  -60.350; -106.000; -234.000
875.980;   98.200; -872.000;-1032.000
876.226;  343.675; -157.000; -255.000
876.472;  -17.450;  343.000;  237.000
876.718;  -44.950;  184.000;  158.000
876.964;  -38.875;   56.000;   55.000
877.210; -134.425; -547.000; -677.000
877.456; -122.750; -630.000; -557.000
877.702; -177.800; -821.000; -832.000
877.948; -117.575; -377.000; -497.000
878.193;  -13.600;  361.000;  255.000
878.439;  -81.875; -487.000; -472.000
878.685; -104.500; -272.000; -343.000
878.931; -125.700; -618.000; -676.000
879.176;  -89.775; -201.000; -201.000
879.422; -179.750; -933.000; -820.000
879.668;   38.525;   10.000;   79.000
879.913;  119.550;   53.000;  137.000
880.159;  -65.025; -112.000;  -17.000
880.404;  -54.450; -152.000; -162.000
880.650;  -46.775;   91.000;  141.000
880.895; -158.050; -670.000; -710.000
881.141; -122.075; -454.000; -428.000
881.386; -146.150; -503.000; -658.000
881.631;  -91.675; -311.000; -166.000
881.877;  -43.575;  112.000;  -13.000
882.122; -142.600; -684.000; -600.000
882.367;  -91.825; -136.000; -186.000
882.612;  -85.375;  -80.000; -176.000
882.858; -163.275; -877.000; -823.000
883.103; -101.175; -297.000; -267.000
883.348; -153.925; -759.000; -852.000
883.593; -150.700; -677.000; -602.000
883.838;  -60.850; -311.000;  -24.000
884.083;   12.775;  353.000;  288.000
884.328;  -91.675; -564.000; -545.000
884.573;  -52.650; -196.000; -143.000
884.818;  122.975; -694.000; -531.000
885.063;  190.025; -348.000; -315.000
885.308; -110.000; -475.000; -398.000
885.553;  -24.975;  245.000;  325.000
885.797; -135.200; -545.000; -615.000
886.042;  -58.925;    8.000;   58.000
886.287;  -84.050; -253.000; -211.000
886.532;  -58.575;   26.000;  204.000
886.776;  -98.150; -407.000; -525.000
887.021; -133.875; -621.000; -574.000
887.265; -148.825; -685.000; -689.000
887.510; -135.050; -557.000; -496.000
887.755;  -99.475; -194.000; -164.000
887.999; -145.750; -552.000; -575.000
888.244;  -56.700;  -58.000;  161.000
888.488;   -3.000;  371.000;  393.000
888.732; -120.125; -368.000; -520.000
888.977; -127.275; -622.000; -567.000
889.221; -155.050; -683.000; -659.000
889.465; -124.950; -422.000; -566.000
889.710;  -91.450;  -56.000; -299.000
889.954;   -7.950;  579.000;  467.000
890.198; -146.175; -584.000; -707.000
890.442; -150.700; -716.000; -712.000
890.687; -160.025; -800.000; -753.000
890.931; -101.800; -273.000; -210.000
891.175; -125.500; -502.000; -500.000
891.419;  -83.925; -105.000; -110.000
891.663;  -84.150; -239.000; -112.000
891.907; -161.075; -801.000; -545.000
892.151; -156.800; -920.000; -815.000
892.395; -121.025; -274.000; -387.000
892.638;  -25.075;  408.000;  291.000
892.882; -174.500; -780.000; -867.000
893.126;   12.625;  758.000;  558.000
893.370;  -99.025; -167.000; -168.000
893.614; -154.225; -714.000; -715.000
893.857;  -97.375; -183.000; -197.000
894.101; -139.800; -527.000; -631.000
894.345;  -71.975;  300.000;  150.000
894.588;   14.925;  569.000;  380.000
894.832;  -93.775; -178.000;  -84.000
895.075;  -72.050;   15.000;  -92.000
895.319; -135.750; -552.000; -420.000
895.563; -115.800; -413.000; -353.000
895.806; -141.150; -628.000; -741.000
896.049;  -56.050; -576.000; -368.000
896.293;   72.025;  527.000;  405.000
896.536;  -87.225; -465.000; -468.000
896.779;  -69.650; -149.000;   -1.000
897.023; -129.325; -751.000; -714.000
897.266;  -38.525;  325.000;  269.000
897.509; -165.550; -900.000; -901.000
897.752;  -54.475;  149.000;  171.000
897.996; -184.625; -972.000; -864.000
898.239;  -48.150;  168.000;  102.000
898.482; -124.525; -431.000; -453.000
898.725;  -35.950;  101.000;   53.000
898.968; -150.000; -609.000; -744.000
899.211; -114.450; -513.000; -361.000
899.454; -106.650; -633.000; -539.000
899.697;  -86.800;   90.000;  -43.000
899.940; -158.975; -761.000; -757.000
900.182;  -99.475; -335.000; -405.000
900.425; -100.050; -150.000; -298.000
900.668;  -17.425;  491.000;  350.000
900.911; -108.350; -292.000; -345.000
901.154;  -62.300;  141.000;   -3.000
901.396; -141.975; -407.000; -412.000
901.639; -134.125; -430.000; -496.000
901.882; -173.550; -790.000; -809.000
902.124;  -78.050;  -29.000; -143.000
902.367; -108.125; -315.000; -361.000
902.609; -122.850; -476.000; -453.000
902.852;  -84.425; -108.000; -260.000
903.094; -122.900; -458.000; -337.000
903.337;  -57.175;  -26.000;   53.000
903.579; -118.750; -228.000; -441.000
903.821; -152.725; -597.000; -744.000
904.064;  -64.925;   85.000;  127.000
904.306;  -97.475; -126.000; -166.000
904.548; -122.025; -152.000; -366.000
904.790; -111.475; -195.000; -340.000
905.033; -139.400; -625.000; -577.000
905.275; -122.500; -513.000; -524.000
905.517;   31.725;  468.000;  256.000
905.759;  -80.625; -667.000; -761.000
906.001; -101.750; -322.000; -369.000
906.243;  -57.950; -162.000; -224.000
906.485;   70.550; -265.000; -207.000
906.727;   91.075; -499.000; -542.000
906.969;  -42.425;  -30.000; -135.000
907.211;   88.175; -316.000; -382.000
907.453;  224.925; -188.000; -237.000
907.695;   -0.725; -158.000; -385.000
907.936;   39.650;  818.000;  706.000
908.178;  -55.700;   92.000; -135.000
908.420;  -75.725; -111.000; -162.000
908.662; -127.200; -633.000; -682.000
908.903;  -77.725; -208.000; -123.000
909.145;  -49.500; -240.000; -305.000
909.386;  -13.550;  315.000;  280.000
909.628;   28.650;  363.000;  397.000
909.870;    3.100;   29.000;  264.000
910.111;  -97.925; -809.000; -949.000
910.353;   18.925; -123.000; -161.000
910.594;   16.150; -574.000; -606.000
910.835;   79.050; -265.000; -326.000
911.077;  165.450; -503.000; -604.000
911.318;  280.650; -505.000; -471.000
911.559;  470.900; -577.000; -880.000
911.801; 1265.625; -284.000; -280.000
912.042; 9432.000;  -50.000; -159.000
912.283;28320.925;  404.000;  371.000
912.524; 5375.350; -396.000; -457.000
912.765;  574.150; -193.000;   79.000
913.006;  251.325; -307.000; -338.000
913.247;   60.025; -270.000; -290.000
913.488;   -3.700;  -43.000;   30.000
913.729;  -72.200; -373.000; -373.000
913.970;  -63.425;  -96.000; -292.000
914.211;  -74.275; -160.000; -198.000
914.452;  -56.050; -118.000;  -11.000
914.693;    9.550;  510.000;  592.000
914.934;    4.350;  510.000;  440.000
915.175;  -55.350;   53.000;  -95.000
915.415;  -76.300; -137.000;   27.000
915.656;  -67.775;  -28.000;  192.000
915.897;  -83.025; -252.000;  -82.000
916.137;  -72.875;   74.000;   -9.000
916.378; -120.550; -573.000; -517.000
916.619;  -91.100; -159.000;  -63.000
916.859;  -44.125;  303.000;  330.000
917.100;  123.275; 1655.000; 1070.000
917.340;   50.075;  930.000;  728.000
917.581;   42.275;  965.000;  789.000
917.821;  -43.650; -171.000;  143.000
918.061;   -8.450; -199.000;  -72.000
918.302;  -47.525; -152.000; -211.000
918.542;  -23.625;  -22.000;    3.000
918.782;   44.675;  369.000;  377.000
919.023;  113.825;  360.000;  427.000
919.263; 1208.325; 8131.000;  202.000
919.503; 1085.325; -137.000;  -54.000
919.743;  591.625;  390.000;  266.000
919.983;  265.725; -134.000;  -26.000
920.223;   79.150;  135.000;   14.000
920.463;  144.900;  631.000;  554.000
920.703;  148.425;   84.000;   39.000
920.943;  176.225; -110.000;   90.000
921.183;  261.650; -414.000; -405.000
921.423;  511.175;  307.000;  546.000
921.663;  756.350; -174.000; -257.000
921.903; 1562.775;  237.000;  173.000
922.143; 8436.175;  372.000;  389.000
922.383;34719.125;  158.000;  115.000
922.622;14462.700; -120.000;  -15.000
922.862; 1474.600;  796.000;  785.000
923.102;  539.550;  -51.000;   33.000
923.341;  226.375;   59.000;   74.000
923.581;  104.075;  450.000;  360.000
923.821;   35.275;  301.000;  398.000
924.060;    2.950;  351.000;  193.000
924.300;  -49.050;  -16.000; -128.000
924.539;   -7.625;  584.000;  473.000
924.779;   18.450;  812.000;  597.000
925.018;  -48.025;  247.000;  353.000
925.257;    0.800;  595.000;  666.000
925.497;  -38.800;  447.000;  412.000
925.736;  -72.675;  -35.000;  102.000
925.975;  -13.325;  687.000;  669.000
926.214;   30.025;  907.000;  850.000
926.454;   27.775;  706.000;  757.000
926.693;  -41.950;  419.000;  543.000
926.932;   39.750; 1021.000;  825.000
927.171;   73.275; 1107.000; 1044.000
927.410;   60.475; 1144.000;  967.000
927.649;   30.525;  924.000;  742.000
927.888;   -8.250;  590.000;  564.000
928.127;   -8.975;  680.000;  678.000
928.366;   27.400;  842.000;  826.000
928.605;   14.375;  831.000;  737.000
928.844;  201.750; 1451.000; 1393.000
929.083;  583.575;  770.000;  613.000
929.321;  349.000; 1335.000; 1359.000
929.560;   89.775; 1158.000; 1122.000
929.799;  -18.325;  574.000;  475.000
930.038;   74.650; 1025.000; 1394.000
930.276;  -47.150;  334.000;  397.000
930.515;   -0.575;  827.000;  681.000
930.753;  -20.875;  614.000;  589.000
930.992;  -10.650;  664.000;  717.000
931.230;   -1.900;  847.000;  847.000
931.469;  170.825; 2162.000;  892.000
931.707;   61.975;  840.000;  751.000
931.946;   62.875; 1278.000; 1344.000
932.184;   65.100; 1437.000; 1175.000
932.423;   30.250; 1265.000;  963.000
932.661;   87.150; 1296.000; 1428.000
932.899;   22.675;  987.000;  821.000
933.137;   17.400;  754.000;  564.000
933.376;  121.250; 1664.000; 1335.000
933.614;  153.250; 1759.000; 1196.000
933.852;   65.475; 1357.000; 1171.000
934.090;  130.750; 1722.000; 1747.000
934.328;  103.875; 1252.000; 1457.000
934.566;   92.200; 1431.000; 1110.000
934.804;  160.775; 1263.000; 1309.000
935.042;  498.675; 1861.000; 1850.000
935.280; 1985.150; 2088.000; 2063.000
935.518; 2181.150; 2113.000; 2007.000
935.756;  451.250; 2481.000; 2316.000
935.994;  180.200; 1808.000; 1751.000
936.231;  326.150; 2890.000; 2950.000
936.469;  190.400; 2367.000; 2378.000
936.707;  164.250; 2220.000; 2167.000
936.945;  231.400; 2825.000; 2882.000
937.182;  202.575; 2679.000; 2741.000
937.420;  294.000; 3602.000; 3031.000
937.657;  391.175; 3365.000; 3478.000
937.895;  365.900; 3331.000; 3488.000
938.133;  312.425; 3540.000; 3528.000
938.370;  336.725; 3896.000; 4191.000
938.607;  383.400; 4488.000; 4205.000
938.845;  556.550; 5587.000; 5549.000
939.082;  483.575; 5387.000; 5177.000
939.320;  511.675; 5799.000; 5728.000
939.557;  615.175; 6549.000; 6491.000
939.794;  705.500; 7285.000; 7097.000
940.031;  885.825; 8421.000; 8368.000
940.269; 1075.975; 9552.000; 9107.000
940.506; 1109.300;10901.000;10507.000

