
Integration time [ms]: 100.000
Averaging Nr. [scans]: 40
Smoothing Nr. [pixels]: 0
Data measured with spectrometer [name]: 2101013U2
Wave   ;Sample   ;Dark     ;Reference
[nm]   ;[counts] ;[counts] ;[counts] 

394.013;   40.171; -450.257; -315.536
394.305;  212.569; -461.258; -419.536
394.596; 1054.540; -676.269; -527.514
394.887; 2676.432; -796.268; -654.518
395.178; 1045.938;  145.736;   11.476
395.470;   87.124; -210.263; -356.526
395.761;  196.797;  305.734;  394.479
396.052;  309.063; -545.284; -306.489
396.343;  286.609; -557.276; -454.503
396.634;  129.377; -200.279; -290.497
396.926;  138.129; -618.268; -565.517
397.217;  135.164;   11.725;  -17.504
397.508;   65.530; -366.273; -154.507
397.799;   65.752; -555.279; -571.497
398.090;    6.322; -973.280; -902.495
398.381;  146.913;   11.708;  -11.473
398.672;   18.639; -585.292; -742.473
398.963;   68.084; -348.279; -373.498
399.254;  108.248;   54.709; -209.475
399.545;  -11.432;-1017.266; -883.520
399.836;   70.173; -407.277; -343.501
400.127;   65.989; -205.295; -209.468
400.418;   66.874; -423.274; -392.506
400.709;   68.759; -359.281; -333.493
401.000;   48.977; -268.291; -309.476
401.290;  123.124;  225.698;  115.545
401.581;   66.221; -166.286; -228.485
401.872;   34.085; -542.298; -486.462
402.163;   76.556; -313.296; -252.467
402.454;  103.724; -123.291; -163.475
402.744;   93.947; -844.297; -813.465
403.035;  491.354; -226.293;  -86.471
403.326;  657.517; -366.292; -384.474
403.617;  428.205;  204.701;  165.539
403.907;  256.619; -593.283; -679.490
404.198; 2380.853; -545.307; -599.446
404.489; 6161.424; -618.283; -588.491
404.779; 2161.828; -618.302; -660.456
405.070;  226.181;  -67.304; -174.451
405.360;  333.256; -259.293; -238.472
405.651;  371.289;  125.699;   98.542
405.942;  199.666;  209.714;  127.516
406.232;  319.331; -432.285; -413.487
406.523;  546.823;  641.706;  758.530
406.813;  114.818; -579.286; -644.484
407.104;  380.836;  261.708;  144.527
407.394;  210.581; -604.299; -591.462
407.685;  180.880;  336.715;  222.513
407.975;   78.873; -400.283; -382.490
408.265;  139.913; -134.289; -190.478
408.556;   66.670; -472.291; -459.475
408.846;  186.449;  474.706;  429.530
409.137;   83.672;   -1.288; -216.480
409.427;   48.856; -193.285; -271.487
409.717;   36.308; -776.273; -692.508
410.007;  151.249;    4.715; -170.486
410.298;   80.991; -360.295; -342.469
410.588;   68.953; -495.285; -510.486
410.878;   31.258; -792.287; -873.482
411.168;  125.638; -481.298; -478.463
411.459;  120.517; -295.283; -242.489
411.749;   69.944; -609.292; -507.474
412.039;   63.870; -755.289; -386.480
412.329;  219.816;   40.722;  132.501
412.619;  219.994;  -62.286; -148.485
412.909;  393.016;  639.711;  594.521
413.199;  329.947; -130.280; -251.495
413.490;  430.606;  521.710;  352.523
413.780;  152.551;-1013.279; -913.496
414.070;  353.860;  -46.276;  235.497
414.360;  379.062; -729.278; -666.498
414.650;  428.154; -726.288; -688.482
414.940;  532.500; -538.280; -441.496
415.230;  921.026;   50.712;   74.519
415.520; 6041.039;  155.730;   66.486
415.809;23719.833; -305.281; -125.493
416.099;18534.150; -388.277; -229.501
416.389; 5085.022;  435.726;  236.494
416.679; 3006.428;   91.738;   85.473
416.969;  531.762; -527.287; -503.483
417.259;  603.328;  341.721;  171.503
417.549;  706.082;  522.718;  318.508
417.838; 1637.156; -205.268; -147.518
418.128; 5361.062;  650.710;  492.522
418.418; 4520.564; -491.272; -579.509
418.708; 3090.672;    9.726;  -48.506
418.997;11349.893; -474.275; -480.505
419.287;11899.579; -733.273; -790.507
419.577;11132.367; -160.283; -123.489
419.866;36827.348; -588.277; -498.501
420.156;38144.735; -242.270;  -55.513
420.446; 7021.445; -112.263;  -26.526
420.735;  927.579; -376.271; -446.512
421.025;  873.261; 1830.722;  315.502
421.314;  760.152; -203.271; -226.512
421.604; 1644.874;   89.732;  233.484
421.893;  980.048; -705.271; -602.511
422.183;  237.220; -487.263; -461.526
422.472;  387.150;  -36.271; -107.511
422.762;  461.574; -416.266; -379.521
423.051;  258.910; -916.276; -916.503
423.341;  343.981; -491.273; -439.507
423.630;  430.380; -121.265;   15.477
423.919;  405.992;   58.725;   49.495
424.209;  388.176;  -31.263;   56.473
424.498;  513.354;   68.732;  161.483
424.787; 1076.210; -535.267; -601.518
425.077; 3373.829;   34.735;   29.478
425.366; 4977.706; -734.262; -744.528
425.655; 9828.906;  639.727;  259.493
425.945;20674.512; -313.247; -268.554
426.234;11691.329;  117.741;  300.467
426.523; 5023.910;  -86.259; -350.534
426.812; 6924.045;  107.734;  159.480
427.101;10060.070; -127.269; -323.515
427.390;12875.114;  -55.270;  -86.514
427.680; 3157.429; -624.257; -411.538
427.969;  516.115; -330.255; -301.540
428.258;  335.621; -385.257; -477.536
428.547;  567.443;  449.728;  397.490
428.836; 1373.182; -421.253; -398.543
429.125; 2011.386; -199.259;  -72.534
429.414;  855.755; -330.251; -294.548
429.703; 3089.280; -231.251; -213.548
429.992; 9201.608; -938.250; -828.549
430.281; 6110.338; -397.264; -331.524
430.570;  596.245;  -21.252;   32.454
430.859;  617.109;  279.741;  352.466
431.148;  475.033;  636.752;  631.446
431.437;  307.844;  391.748;  367.454
431.725;  151.097; -544.257; -481.536
432.014;  130.564; -845.253; -756.545
432.303;  390.534; -149.239; -105.569
432.592;  665.270; -460.263; -178.525
432.881; 1066.559; -601.248; -437.554
433.169; 6032.541; -343.255;  -61.540
433.458;12291.968;  445.765;  540.424
433.747; 5273.987; -397.261; -289.529
434.036;  959.385; -275.242; -280.564
434.324; 2107.821; -395.249; -379.551
434.613; 3587.178;   40.757;  159.437
434.902; 1249.724;  333.760;  439.433
435.190;  642.358;   75.761;  295.431
435.479;  386.360;  -52.245;   83.441
435.767;  126.293; -411.244; -427.561
436.056;  243.680; -340.242; -294.563
436.345;  379.901; -372.240; -223.568
436.633;  397.691;   60.750;  383.450
436.922;  300.429;  208.760;  414.432
437.210;  695.183; -194.236;    1.426
437.499; 2309.241; -583.235; -432.576
437.787; 2565.458; -339.236;  -10.574
438.075;  626.488;   56.761;  162.430
438.364;  829.766;  -44.238;  250.429
438.652;  521.297; -286.226; -138.592
438.941;  164.635;    3.770;  269.415
439.229;   14.342; -665.252; -466.545
439.517;   58.975; -160.234;  -85.577
439.806;    2.488; -501.225; -290.595
440.094;  197.832;  377.766;  650.421
440.382;  232.436; -653.233; -302.580
440.670;  243.791; -361.235; -285.576
440.959;   36.630; -347.223; -170.599
441.247;   86.697; -151.229; -109.587
441.535;  116.148; -266.235;   31.423
441.823;   54.280; -497.234; -305.578
442.111;  199.301;  173.771;  327.412
442.400;  597.184; -628.245; -335.559
442.688; 1633.857; -111.234; -620.579
442.976; 1234.169; -786.213; -450.617
443.264;  122.669; -324.224; -364.597
443.552;  105.648; -258.226;   51.408
443.840;  173.722;  602.765;  876.423
444.128;  120.235;  265.767;  269.420
444.416;    8.979; -694.228; -312.588
444.704;   39.660; -465.219;  -92.605
444.992;   75.426;   -0.226;  240.407
445.280;   64.186; -517.230;  -94.585
445.568;   47.647; -694.212; -396.618
445.856;  396.644; -174.221;  357.398
446.143;  877.131;  -54.220;   -7.604
446.431;  746.607;  -25.228;  625.411
446.719;  260.354;  489.783;  675.391
447.007;  205.205;  481.769;  705.416
447.295;  183.952;  597.777;  871.402
447.583;   99.045; -464.229;  -34.587
447.870;  161.516; -434.221; -202.601
448.158;  468.610; -104.230;  129.415
448.446;  365.832; -800.219; -338.604
448.733;  187.546;   13.776;  269.403
449.021;  269.472;   60.788;  341.382
449.309;  216.262; -296.210;  208.379
449.596;  233.501;  128.783;   59.392
449.884;  168.359; -571.222; -325.600
450.172;  145.513; -756.227; -406.590
450.459;  446.502;  645.786;  780.387
450.747; 2287.649; -411.218; -147.608
451.034; 7363.884;  493.772;  889.411
451.322; 6125.555; -413.214; -170.614
451.609;  547.797;  292.777;  508.403
451.897;  590.751; -550.203; -183.634
452.184; 1741.802; -622.223; -400.598
452.472; 1684.084;   97.792;  269.375
452.759;  375.758;  512.781;  864.395
453.047;  123.119; -407.212; -125.617
453.334;   70.091; -732.219; -216.606
453.621;   83.532; -438.214; -161.615
453.909;  140.042;   13.796;  384.368
454.196;  116.088; -299.199; -123.641
454.483;  212.489;  317.798;  540.364
454.771;  152.437; -215.208;  196.374
455.058;   51.515; -316.207;  102.374
455.345;  108.969;   71.807;  344.347
455.632;   94.418; -128.207;  235.373
455.919;   43.786;  -82.196;  182.354
456.207;  -61.482; -774.198; -450.642
456.494;   -0.399; -475.200;  -66.639
456.781;   10.984; -399.202; -198.635
457.068;   59.900; -253.206;  -29.628
457.355;   -0.149; -698.206; -401.629
457.642;    0.257; -552.205; -290.630
457.929;   14.485; -778.194; -417.651
458.216;   63.895; -575.212; -354.617
458.503;  227.065; -173.193;  -19.652
458.790;  210.134; -864.208; -630.625
459.077;  269.064;  -77.202;  110.364
459.364;  793.728; -350.195; -210.649
459.651; 1641.923;  -46.206;  220.372
459.938;  770.450; -864.209; -665.623
460.225;  170.368;  132.799;  276.363
460.512;  -48.092; -836.197; -688.645
460.799;  106.473;  -32.218;  320.392
461.086;   72.430; -370.200; -251.640
461.372;   57.943; -509.198; -279.642
461.659;  113.837; -165.196;  108.354
461.946;   78.563; -445.193;  -54.651
462.233;  255.478;  842.800;  888.361
462.519;  347.225; -814.201; -464.639
462.806; 1001.259; -768.197; -497.645
463.093;  855.059; -445.191;  -66.656
463.380;  -28.274; -920.186; -824.664
463.666;   59.310; -259.197;  -18.646
463.953;   91.448; -406.195; -243.648
464.239;  207.648; -173.195;  -77.648
464.526;  415.108;  413.806;  743.350
464.813;  355.721; -565.190; -304.658
465.099;  380.339;  606.807;  607.348
465.386;  376.068;  903.807;  921.348
465.672;   24.309; -694.197; -522.645
465.959;   24.664; -598.188; -520.662
466.245;   17.468; -468.193; -359.652
466.532;  100.320; -109.195;   63.352
466.818;   81.875; -357.186; -216.664
467.104;    9.141; -488.182; -415.672
467.391;  -15.252; -628.189; -459.658
467.677;   37.554; -289.186;    9.335
467.964;    9.179; -682.189; -471.660
468.250;   73.682; -331.186; -160.665
468.536;   83.149;   90.811;  180.341
468.822;  -23.906; -821.184; -574.668
469.109;  155.822;  351.827;  471.311
469.395;  215.753;  729.808;  787.346
469.681;  199.127;   46.811;  156.341
469.967; 1245.632; -699.188; -382.660
470.254; 2642.290; -494.188; -306.662
470.540; 1732.011; -601.196; -476.646
470.826;  250.752; -488.181; -397.675
471.112;  306.697;  288.816;  113.331
471.398;  104.877; -253.183;  -58.670
471.684;   52.631; -626.177; -447.680
471.970;  -12.469; -918.180; -981.675
472.256;   27.027; -521.192; -441.654
472.542;   20.158; -499.171; -434.691
472.828;    7.937; -743.182; -607.672
473.114;   32.252; -380.166; -283.700
473.400;   15.072; -504.175; -293.684
473.686;   42.484; -452.166; -400.701
473.972;   73.687; -230.174; -131.687
474.258;  -40.853; -925.173; -843.689
474.544;  203.572; -183.178;   -2.679
474.830;  297.999;  -65.175;   45.316
475.116;  460.547; -123.190; -196.658
475.401;  631.608; -558.180; -467.676
475.687;  199.782; -725.180; -718.676
475.973;   19.595; -673.181; -770.673
476.259;  261.101;  736.825;  764.315
476.544;  364.114; -539.176; -437.682
476.830;  798.929; -398.172; -322.690
477.116;  673.862; -430.177; -336.682
477.401;  144.433;  346.820;  358.324
477.687;  -11.427; -289.175; -405.684
477.973;   47.748;   21.819;   28.326
478.258;    9.079; -448.163; -348.706
478.544;   57.437;   21.815;   61.334
478.829;  -42.861; -818.171; -738.692
479.115;  -31.796; -749.172; -651.690
479.401;  -10.667; -444.174; -449.686
479.686;   33.907; -253.180;  -74.676
479.972;  -36.547; -886.178; -776.680
480.257;   29.529; -258.166;  -65.700
480.542;   -9.482; -614.170; -469.693
480.828;  243.646; 1288.824; 1392.317
481.113;  -25.206; -464.176; -426.683
481.399;    3.328; -236.161; -202.711
481.684;  -50.447; -620.166; -462.700
481.969;   26.267; -158.159;  -73.713
482.255;    4.804; -439.169; -285.695
482.540;    9.678; -569.178; -441.680
482.825;    2.221; -395.187; -404.663
483.110;   92.557;  -85.169; -105.696
483.396;  168.914; -840.157; -652.718
483.681;  491.162;  543.826;  730.313
483.966;  150.986; -696.160; -700.712
484.251;   -0.814; -404.174; -310.687
484.536;  -10.836; -356.165; -378.703
484.822;   32.914; -205.173; -218.687
485.107;  -26.873; -599.152; -502.726
485.392;  138.295;  662.836;  541.296
485.677;   79.642;  354.832;  163.302
485.962;   99.261;  160.843;  270.283
486.247;   92.037;  -14.162;   -8.707
486.532;   50.705; -178.166; -325.701
486.817;  169.673;  381.839;  431.291
487.102;  127.460; -453.154; -514.722
487.387;  615.091; -637.156; -652.718
487.672; 1125.575; -154.164;  -38.705
487.957;  705.580; -394.160; -286.711
488.241;  204.144; -290.150; -314.729
488.526;  698.629; -280.152; -148.726
488.811; 1120.355; -881.177; -818.680
489.096;  873.563; -666.154; -702.723
489.381;  493.350;    3.847;  162.275
489.666;  364.853; -428.161; -510.710
489.950;  186.266;  558.846;  627.277
490.235;  -45.111; -480.151; -458.728
490.520;  -41.598; -756.161; -723.710
490.804;  -68.632; -827.156; -736.719
491.089;   10.735; -469.149; -299.732
491.374;   31.974; -132.164;  -75.704
491.658;   -3.879; -817.147; -717.735
491.943;  189.258; -657.152; -609.727
492.227;  283.106; -178.155;  -38.721
492.512;   47.361; -294.157; -341.717
492.797;  -53.171; -713.149; -716.731
493.081;  -60.276; -588.147; -598.735
493.366;  -40.271; -751.161; -635.711
493.650;  218.378;  831.859;  917.254
493.935;   31.121; -648.147; -447.734
494.219;  -33.310; -778.142; -687.743
494.503;  -52.776; -585.150; -487.730
494.788;   37.627;   46.842;   74.285
495.072;  105.495;  184.850;  434.271
495.356;  177.513; -463.148; -343.733
495.641;  498.581; -812.146; -736.736
495.925;  458.948; -976.156; -903.719
496.209;   54.884; -599.149; -451.732
496.494;  -54.109; -763.142; -544.744
496.778;    7.385; -364.154; -360.722
497.062;  -71.678; -819.156; -627.719
497.346;  -32.893; -869.160; -640.711
497.631;  145.067;  580.852;  560.266
497.915;   77.841;  -64.145;  175.261
498.199;   60.589; -341.157; -277.718
498.483;   42.352; -562.152; -508.725
498.767;  180.771;  301.850;  300.271
499.051;  181.282; -126.149; -100.732
499.335;   27.655; -693.149; -739.731
499.619;  -19.445; -381.129; -423.767
499.903;   25.379; -272.155;  -65.721
500.187;   37.192; -588.153; -316.724
500.471;   15.232; -796.152; -595.727
500.755;  125.452;   62.839;  -96.710
501.039;   27.705; -270.155; -357.721
501.323;   95.580;  -21.141;  264.254
501.607;   26.305; -447.163; -503.706
501.891;    6.865; -607.156; -512.718
502.174;  -26.547; -726.144; -585.741
502.458;   83.836;   89.849;  370.273
502.742;   20.529; -180.138; -191.751
503.026;   96.920; -412.147; -254.734
503.310;  169.166; -437.159; -375.713
503.593;  123.522; -464.147; -325.735
503.877;  127.419; -232.133; -156.760
504.161;  187.970;    2.847;  -50.724
504.444;  129.680; -841.158; -710.716
504.728;  444.823; -487.164; -522.704
505.012;  673.668; -257.150;  -76.729
505.295;  538.203; -417.161; -212.711
505.579;  517.072; -256.156; -496.719
505.862;  722.663; -555.145; -333.738
506.146;  692.318; -681.159; -758.714
506.429;  394.969;  568.841;  461.286
506.713;   63.815; -732.151; -667.728
506.996;  325.760;   90.846;  295.278
507.280;  317.843; -633.165; -474.703
507.563;  241.328; -469.155; -261.721
507.847;  104.143; -423.153; -112.724
508.130;   79.004; -665.161; -456.711
508.413;  129.349; -758.167; -577.700
508.697;  237.000; -151.167;   12.300
508.980;  152.470; -422.153; -312.724
509.263;   -7.476; -466.155; -450.720
509.547;   22.943; -124.150;   82.271
509.830;   55.156; -172.160;  140.289
510.113;   77.172;  128.844;  298.281
510.396;   34.400; -530.152; -300.725
510.680;  190.039; -818.145; -812.738
510.963;  734.064;  184.846;  180.277
511.246;  662.176; -493.150; -357.730
511.529;  272.869; -482.145;  -83.739
511.812;  368.016; -250.134;   10.241
512.095;  266.813; -740.151; -396.728
512.378;   64.726; -317.147; -245.736
512.661;   33.361; -703.137; -623.753
512.944;   21.217; -750.142; -637.744
513.227;   66.584; -170.137; -171.752
513.510;   37.428; -479.144; -671.741
513.793;   41.709; -485.140; -435.747
514.076;  143.126;  -43.127;  -39.771
514.359;  108.410; -294.149; -135.732
514.642;   77.895; -442.142; -567.744
514.925;  726.432;  581.860;  561.253
515.208;  932.637; -498.134; -443.758
515.491;  634.101; -276.133; -182.761
515.773;  350.106; -410.143; -337.742
516.056; 2007.393;  249.864;  409.246
516.339; 2725.122; -754.136; -652.755
516.622; 2022.098; -518.150; -488.730
516.904; 1454.863;  882.857;  975.257
517.187;  682.007; -730.138; -523.752
517.470;  417.412; -568.143; -510.743
517.752;  429.725; -624.136; -470.756
518.035;  344.670; -708.139; -725.749
518.318;  360.047; -799.136; -744.755
518.600; 2296.580; -300.132; -325.762
518.883; 3191.319;  310.858;   88.256
519.165; 1525.675; -585.138; -426.751
519.448;  413.154;  -61.132;  -19.762
519.730;  216.133; -573.126; -415.773
520.013;  337.997;  588.867;  664.240
520.295;  986.342;  -94.134;  -15.759
520.578; 2175.517; -335.131; -305.764
520.860; 2455.854; -254.132;   56.238
521.143; 1246.477; -763.135; -584.756
521.425;  486.271; -251.125; -279.775
521.707;  677.751; -622.127; -380.771
521.990; 1687.402; -199.127;  167.229
522.272; 1942.686; -116.140;   -4.748
522.554;  964.957; -237.143; -157.742
522.836;  417.865;  -24.134;   99.241
523.119;  243.644; -496.148; -189.734
523.401;  166.049; -448.130; -314.766
523.683;   71.862; -865.137; -693.753
523.965;  269.630;  408.862;  260.248
524.247;  253.818;   54.878;  170.220
524.529;  214.942; -451.134; -367.759
524.812;  358.301;   -3.130;  191.234
525.094;  829.054; -773.138; -631.751
525.376; 1297.130; -143.124;   78.223
525.658;  780.719; -441.136; -339.754
525.940;   41.289; -805.131; -671.764
526.222;   47.923; -188.136;  -88.755
526.504;  133.412; -190.131;   32.237
526.786;  233.345; -960.133; -647.760
527.068;  366.686; -124.123;  -67.778
527.349;  171.491; -865.137; -774.754
527.631;  141.454; -137.132;   22.238
527.913;  126.775; -664.127; -450.771
528.195;  164.614; -761.125; -639.774
528.477;  253.812;  -93.134;  -30.758
528.759;  130.176; -648.130; -522.766
529.040;   53.585; -569.123; -293.778
529.322;   46.942; -235.125;  -10.774
529.604;  152.928;  -47.130;   93.233
529.886;  145.483; -546.126; -302.773
530.167;  151.245;  232.870;  192.235
530.449;   58.076;    1.853;   63.265
530.731;   36.967; -572.122; -459.779
531.012;   71.313; -513.120; -216.784
531.294;   79.102; -118.116;  -43.792
531.575;  141.521;  290.875;  538.225
531.857;   59.432; -548.135; -266.757
532.138;  100.103; -113.141;   40.254
532.420;  200.703;  294.865;  403.244
532.701;  247.997; -722.133; -751.760
532.983;  395.500;  232.867;  182.239
533.264;  136.906; -243.126;  175.228
533.546;  -21.828; -491.136; -508.755
533.827;   56.444;  173.867;   -1.759
534.109;   43.932; -352.135;  -80.757
534.390;  107.483; -725.132; -582.762
534.671;  273.728; -270.135;  -82.756
534.953;  144.413; -751.123; -611.779
535.234;   39.162; -426.117; -255.789
535.515;  -76.129; -891.119; -735.785
535.796;  -16.529; -431.128; -193.770
536.078; -119.145;-1050.124; -904.777
536.359;   18.313;  -22.123;    3.221
536.640;  -13.434; -480.125; -197.774
536.921;  171.859;  225.871;  143.232
537.202;  356.076;  -87.138;  -16.751
537.483;  454.992;  251.869;  377.236
537.764;  161.945;   17.870;   98.235
538.045;  -27.839; -543.134; -371.758
538.326;  -35.240; -596.129; -447.768
538.607;    6.802; -686.127; -476.771
538.888;  178.654;   98.879;    5.218
539.169;  185.148; -704.122; -535.781
539.450;  325.508;  236.871;   16.233
539.731;  222.133; -361.121; -182.783
540.012;  146.363;  199.880;  412.216
540.293;   98.800;   82.876;  158.224
540.574;   22.298; -895.113; -717.796
540.855;  474.581;  435.879;  377.218
541.136;  551.721;   47.878;  139.220
541.416;  295.702; -161.130; -220.766
541.697;  188.562; -274.131; -170.763
541.978; 1018.105; -270.135; -315.757
542.259; 1250.302; -211.127; -236.771
542.539;  610.346; -191.116; -186.790
542.820;  191.496;  461.875;  480.225
543.101;  145.666;  -52.145;  -77.738
543.381;   39.302; -638.127; -591.771
543.662;  261.649;  159.873; -254.771
543.942;  552.597; -751.127; -830.770
544.223; 1040.172;  193.878;  161.219
544.504;  659.980; -275.124; -182.777
544.784;  565.008; -592.126; -408.773
545.065; 1603.325;  104.884; -254.791
545.345; 1899.621;  227.881;   14.215
545.626; 1241.247;  -14.113; -108.796
545.906;  848.520;   77.869;   98.235
546.186;  362.863;   92.874;  -95.773
546.467;  195.157;   99.877;  -95.778
546.747;  310.446;  264.884;  327.210
547.027;  359.878;   91.876;  111.223
547.308;  319.597; -376.127; -530.770
547.588;  386.011;  299.871;  371.232
547.868;  195.896;  458.870;  588.235
548.149;  195.982;  609.885;  593.207
548.429;  118.925; -347.127; -299.771
548.709;  185.187; -645.120; -461.784
548.989;  454.881;   84.882;   88.213
549.269; 2034.353;   10.868;  139.239
549.550; 4568.687;  215.877;  117.222
549.830; 4138.240; -758.111; -556.799
550.110;  851.573; -468.110; -320.801
550.390;  800.592; -128.122;  -56.779
550.670; 1100.118; -868.114; -783.795
550.950;  773.381; -509.121; -471.782
551.230;  194.002;  549.879;  460.218
551.510;    3.080; -381.121; -326.782
551.790;   23.031; -173.109; -127.803
552.070;  267.282;  940.877; 1181.223
552.350;  394.425; -492.119; -377.786
552.630;  573.375;   -2.121;   77.219
552.909;  352.750;  181.884;   73.209
553.189;  232.234;  -49.132;   33.237
553.469;  183.300; -703.119; -514.786
553.749;  178.603; -469.127; -357.772
554.029;  158.716;   33.883;  -24.790
554.308;  141.911; -154.115;  -37.794
554.588;   54.745; -196.128; -204.770
554.868;   61.082; -366.121;  -47.782
555.147;  144.484; -114.115;  -46.793
555.427;  574.103; -260.116; -250.792
555.707; 3714.981; -284.115; -200.793
555.986; 4472.869; -719.111; -538.800
556.266; 2352.519;   23.884;   72.210
556.546;  103.430; -888.121; -675.782
556.825;  228.966; -657.114; -556.794
557.105; 1723.968; -125.128;   17.230
557.384; 1991.049;  122.884;  187.209
557.664;  757.652; -717.116; -508.792
557.943;   96.006; -557.121; -411.782
558.222;  171.009; -345.118; -344.788
558.502;  265.585; -116.115;  -76.793
558.781;  482.630;  194.885;  499.208
559.061;  383.284; -232.118; -227.788
559.340;  296.089;  302.883;  353.211
559.619;  659.744;   93.884;  148.210
559.899;  980.016; -239.117; -266.789
560.178;  892.909; -778.115; -593.793
560.457; 3017.542; -623.117; -562.790
560.736; 4144.945; -472.111; -482.800
561.015; 2809.766; -500.128; -502.769
561.295;  386.201;  180.893;  215.193
561.574;  362.232;  119.885;  116.207
561.853;  503.610;  274.891;  303.197
562.132;  478.237;  -45.114;  182.206
562.411;  423.825;  396.879;  553.219
562.690;  126.430; -592.115; -458.792
562.969;  141.454;  472.888;  630.203
563.248;  530.573; 2966.878; 2487.219
563.527;  273.319; -290.111; -408.800
563.806;  347.325; -650.127; -521.771
564.085;  396.066; -297.105; -206.810
564.364;  224.544; -594.117; -405.790
564.643;  479.926; -276.121; -223.781
564.922; 1799.004;  221.890;  397.198
565.201; 1812.583; -640.109; -700.803
565.479;  791.904; -297.115; -219.792
565.758;  314.368; -810.128; -712.770
566.037;  463.759; -155.109; -100.803
566.316;  223.699; -286.116;  -28.791
566.595;   49.482;  -17.115;  -12.793
566.873;   89.321; -166.111;  -79.801
567.152;  -56.121; -490.113; -590.797
567.431;   -1.630; -113.116;    6.210
567.709;   22.076; -344.107; -212.807
567.988;  242.341; -810.114; -769.794
568.266;  497.132; -160.115;  -68.793
568.545;  371.238; -644.100; -514.819
568.824;  552.953;  160.885;  356.208
569.102;  505.865; -351.114; -235.794
569.381;  225.477; -492.116; -407.792
569.659;  -36.275; -553.113; -553.796
569.938;   34.671; -743.122; -465.780
570.216;   95.511; -225.109; -225.804
570.494;  -22.531; -632.114; -572.795
570.773;   36.354;  202.879;  114.218
571.051;   -0.565; -373.123; -357.778
571.330;   55.998; -221.113; -174.796
571.608;   48.156; -181.098; -173.823
571.886;  -82.687; -671.111; -581.799
572.164;  -65.793; -739.121; -621.782
572.443;  -52.005; -562.105; -512.811
572.721;  -30.233; -399.117; -289.790
572.999;  -17.889; -280.117; -168.788
573.277;   91.063;  379.894;  620.191
573.555;  272.090;   94.894;   37.190
573.834; 1269.036;  -86.117; -114.788
574.112; 1503.603;  880.893;  811.193
574.390;  448.320; -143.111;  -96.801
574.668;    2.480;  -91.112;  -61.797
574.946;    1.141; -165.106; -187.810
575.224;    8.032;   71.891;  -16.803
575.502;  -18.253; -200.116; -204.791
575.780;  -81.769; -767.112; -829.798
576.058;  206.594; 1589.889; 1004.200
576.336;  -23.425; -210.110; -129.801
576.614;  -49.494; -511.112; -340.798
576.891;   44.086; -711.115; -823.794
577.169;  446.794; -158.108; -285.805
577.447;  538.753;  169.893;  202.193
577.725;  273.761;  629.888;  854.201
578.003;   19.959;  -71.112; -371.798
578.280;  103.804; -208.104; -242.812
578.558;   58.010; -450.115; -422.793
578.836;  147.743; -210.114; -145.795
579.114;   36.255; -630.112; -670.797
579.391;   80.937;   -6.117;  -18.789
579.669;  -68.863; -595.114; -704.794
579.947;  167.675; -326.107; -127.806
580.224;  309.074; -692.107; -524.806
580.502;  308.229;  127.893;   76.193
580.779;   11.993;  -42.117;   75.210
581.057;  -74.988; -584.109; -470.804
581.334; -103.331; -726.102; -695.815
581.612;   49.866;   54.895;  511.190
581.889;  -21.568;  -83.101; -129.818
582.167;  -21.854; -298.099; -190.821
582.444; -106.448; -845.102; -814.817
582.721;  111.677;  657.899;  715.183
582.999;   52.719; -326.100; -167.821
583.276;  484.265; -812.123; -713.779
583.553;  672.072; -364.102; -294.816
583.831;  226.525; -607.104; -631.812
584.108;   59.317;  349.892;  174.195
584.385;   13.518; -122.102;  -98.815
584.662;  -64.328; -651.111; -828.801
584.940;   40.921;  204.889;  204.199
585.217;  -17.300;  -73.113; -303.796
585.494;   38.580;   71.890;  118.198
585.771;  212.512; -250.109; -354.804
586.048;  480.025; -196.113;  -76.796
586.325;  302.299; -721.110; -773.801
586.602;   82.904;  230.896;  213.188
586.879;  -22.960; -499.100; -580.820
587.156;   57.667; -156.105; -331.810
587.433;  -36.125; -701.102; -667.817
587.710;   79.432;  152.888;  234.202
587.987;  289.997; -264.105; -236.811
588.264;  778.009;  315.888;  387.202
588.541; 1339.857;  -61.104;   26.187
588.818; 2561.640;   72.892;  171.196
589.095; 2211.627; -163.104; -174.812
589.371;  383.635; -459.109; -414.804
589.648;   13.528; -581.107; -437.807
589.925;   36.944; -517.114; -621.795
590.202;    6.407; -741.112; -607.798
590.478;   93.724; -166.105;  -73.811
590.755;  251.271; -241.108; -132.806
591.032; 2379.201; -741.110; -699.802
591.308; 3224.422; -732.094; -790.831
591.585; 1714.526; -573.110; -560.802
591.862;  125.801;-1056.102; -950.817
592.138;   60.768; -475.108; -474.805
592.415;  132.230; -486.104; -495.813
592.691; 1440.278;  460.896;  518.188
592.968; 1805.508; -208.098; -123.824
593.244;  869.546; -695.116; -595.790
593.521;   74.176; -105.102;  -42.817
593.797;  -16.282; -810.122; -720.780
594.074;  310.746; -611.096; -588.826
594.350;  657.532;  828.905;  729.172
594.626;  296.297; -303.111; -283.801
594.903;  104.827; -643.101; -645.817
595.179;  197.409;  243.896;  418.187
595.455;    6.230; -136.107; -150.807
595.731;    3.385;  -19.103;  -38.814
596.008;  -32.084; -464.111; -434.800
596.284;   23.793; -187.100; -242.820
596.560;   55.353; -501.093; -493.833
596.836;  194.319; -173.105;  -70.810
597.112;  327.519; -582.108; -437.805
597.388;  286.419;  -49.097;  -48.826
597.665;  116.577;  437.887;  530.203
597.941;  -60.342; -572.089; -658.839
598.217;   22.754; -323.110; -293.802
598.493;  259.664;   61.891; -204.804
598.769;  491.312; -175.100;  -50.819
599.045;  274.722; -490.108; -562.806
599.321;   48.892; -193.100; -261.820
599.597;  121.638; -355.109; -476.804
599.872;  465.607;  409.896;  429.187
600.148;  356.345;  -61.097; -172.826
600.424;  276.102;   91.893;  202.193
600.700;  229.004; -170.107; -280.807
600.976;  121.165; -442.097; -464.825
601.252;  226.560; -226.109; -272.803
601.527;  194.583; -833.104; -840.813
601.803;  131.675; -453.105; -404.812
602.079;  178.337; -124.100; -118.819
602.354;  522.013; -620.092; -531.835
602.630;  782.625; -140.113; -482.796
602.906; 2208.432; -910.101; -863.818
603.181; 6336.350; -627.119; -534.786
603.457; 5440.218;   98.903; -278.826
603.733;  806.859; -605.120; -626.783
604.008;  952.116; -245.106; -164.810
604.284; 2947.003; -636.101; -580.817
604.559; 2491.586;   -3.112;  -42.799
604.835;  470.569; -163.105; -225.810
605.110;  352.847; -732.099; -892.821
605.385;  664.281;  224.907;  267.167
605.661;  604.635; -625.095; -729.829
605.936; 1093.247; -664.108; -737.806
606.211;  952.042;  -17.103; -170.815
606.487;  207.189; -329.114; -376.794
606.762;    5.600; -791.119; -745.786
607.037;  -11.006; -501.105; -433.810
607.313;  -41.247; -589.096; -574.828
607.588;   -4.934; -375.106; -137.810
607.863;   39.257;  -28.101; -143.818
608.138;  184.178;  513.890;  516.198
608.413;   35.976; -576.099; -592.822
608.688;   58.269; -203.108; -267.805
608.964;  172.885; -509.106; -218.809
609.239;  230.041; -107.105; -212.810
609.514;  256.999;  281.895;  240.188
609.789;  632.129; -187.104; -716.812
610.064;  824.377; -435.096; -609.827
610.339;  856.210; -855.109; -799.804
610.614; 1099.742; -131.100; -315.820
610.889;  622.025;  215.895;  107.188
611.163;   48.675; -407.104; -591.812
611.438;   84.565;   81.886; -167.794
611.713;    7.003; -467.101; -499.817
611.988;   54.031; -144.101; -328.818
612.263;  -24.931; -771.102; -717.815
612.538;  213.474;  385.887;  251.204
612.812;  141.843; -832.100; -911.820
613.087;  129.856; -358.098; -338.823
613.362;  -67.371; -497.107; -557.807
613.637;   52.488;  261.897;  138.186
613.911;  -19.061; -256.092; -345.835
614.186;  120.703; -249.107; -292.807
614.460;  635.708; -842.081; -758.854
614.735;  720.506;  -55.087;  -17.843
615.010;  164.571;   43.912;  -82.841
615.284;  252.268;  360.892;  246.195
615.559;  339.312; -792.092; -955.835
615.833;  282.449;  -76.099;  -87.822
616.108;    1.074; -225.090; -390.837
616.382;  137.533;  274.913;  402.156
616.656;  139.350; -241.090; -232.837
616.931;  486.449; -785.099; -700.822
617.205; 1022.033; -973.104; -979.813
617.480;  943.494;  -91.125;    6.225
617.754;  163.567; -396.125; -128.774
618.028;   10.937; -369.129; -382.768
618.302;   57.817;   73.892;  -25.805
618.577;  -34.936; -371.103; -518.815
618.851;  -71.993; -399.109; -600.803
619.125;  -43.183; -335.134; -378.759
619.399;  -34.842; -244.104; -374.813
619.673;  -38.797; -330.115; -515.792
619.947;  -36.757; -333.114; -448.795
620.222;   -5.302; -198.110; -204.801
620.496;   -1.319;  -47.121;  -96.782
620.770;    8.198; -187.122;  -93.781
621.044;  191.442;  323.895;  346.190
621.318;  719.184; -653.120; -614.783
621.592;  628.307; -430.121; -409.783
621.866;  322.337; -476.112; -572.799
622.140;   14.647; -207.116; -356.791
622.413;   72.541;  138.889;  112.200
622.687;  -37.346; -746.101; -492.817
622.961;   25.142; -130.108; -143.805
623.235;  -56.158; -633.111; -661.800
623.509; -112.776; -816.105; -848.811
623.783;   -3.275;  -12.107;   48.193
624.056;  -20.390; -254.120; -280.783
624.330;   43.955;   63.888;   -3.797
624.604;   49.769; -271.116; -355.790
624.877;   70.802;  180.890;   26.198
625.151;   32.063; -249.114; -238.794
625.425;  -25.740; -150.103; -283.814
625.698;  -63.355; -367.119; -374.785
625.972;  -92.095; -799.110; -765.802
626.245;   74.421;  685.884;  484.210
626.519;  -54.011; -426.120; -340.784
626.792;  -26.271; -192.107; -380.807
627.066;  -87.459; -485.122; -662.779
627.339; -118.675; -736.110; -663.802
627.613;   34.813;  351.880;  148.216
627.886;  -46.169;  187.891; -612.803
628.160;  -18.266;  312.880; -161.783
628.433;  -84.303; -695.125; -703.775
628.706;  -79.011; -517.120; -615.784
628.979;   32.028;  296.876;  117.223
629.253;  -85.476; -785.119; -833.786
629.526;  344.381; -334.126; -253.772
629.799;  326.511; -641.123; -479.778
630.072;  155.013; -497.128; -516.769
630.346;  -60.204;-1115.116;-1080.790
630.619;  436.180; -467.107; -545.808
630.892;  585.142;  709.889;  593.200
631.165;  353.708;  790.896;  679.187
631.438;  -84.541;-1092.112;-1055.798
631.711;   58.589;  453.877;  257.221
631.984;  -64.959; -523.117; -624.789
632.257;  -69.413; -636.117; -681.789
632.530;  -51.130; -412.119; -433.785
632.803;   29.136; -109.115;    7.207
633.076;  -73.893; -360.123; -422.777
633.349;   26.918;  173.872;  121.231
633.622;  -20.431; -187.119; -240.785
633.895; -128.690; -903.120; -823.783
634.167;  -89.942; -496.126; -525.773
634.440;   -7.198;  -19.116; -137.792
634.713;    5.323;  -22.119; -120.786
634.986;   98.382;  593.871;  453.233
635.258;  -76.666; -507.115; -597.793
635.531;   88.808;  742.882; -343.788
635.804;  -33.635; -303.117; -318.789
636.077;  -88.252; -830.116; -852.791
636.349;  -30.168; -586.115; -474.793
636.622;  409.606; 1695.874; 1392.228
636.894;  226.690; -474.120; -909.784
637.167;  140.325; -836.127; -789.771
637.439;   37.321; -278.128; -213.770
637.712;  -35.468; -312.126; -293.772
637.984;  -76.501; -635.116; -707.791
638.257;  369.533;  515.877;  488.222
638.529;  540.023; -881.125; -924.776
638.802;  228.538; -508.128; -449.769
639.074; -117.678; -927.122; -952.781
639.346; -116.716; -942.135; -930.757
639.619;   -2.107;  -79.142; -319.744
639.891;   -8.709;  -83.122; -168.779
640.163;  -75.782; -689.122; -756.780
640.435;   32.570;  273.878;  103.220
640.708;   -4.104;  -72.122; -132.780
640.980;  -37.227; -366.122; -362.781
641.252;  189.575;  -25.121;  -71.781
641.524; 1770.902;  580.879;  573.219
641.796; 1764.029;-1094.121; -907.782
642.068;  328.006; -191.121; -300.782
642.340;  -67.543; -486.121; -566.783
642.613;   52.659;  294.880;  323.217
642.885;  -99.864; -787.120; -878.783
643.157;  -48.362; -810.120; -658.784
643.428;   51.090;  170.880;  218.216
643.700;  -79.558; -498.120; -425.784
643.972;  -38.957;  -16.119; -133.785
644.244;  -92.080; -474.119; -559.785
644.516;  -49.253; -250.119; -114.786
644.788;   61.499;  662.881;  548.214
645.060;  -26.049;  -12.119; -124.786
645.332; -103.797; -525.118; -535.787
645.603;   40.204;  479.882;  342.213
645.875;  -76.219; -334.118; -369.787
646.147;  174.608; 1487.882; 1242.212
646.418;  -80.240; -931.117; -918.788
646.690;  114.637; -714.117; -715.789
646.962;   48.014; -413.117; -451.789
647.233;   -4.409;   15.883;   11.211
647.505; -104.683; -595.117; -475.790
647.776;   23.444;  328.884;  229.210
648.048;   11.396; -248.116; -418.790
648.320;  -83.852; -752.116; -679.791
648.591; -154.600;-1055.116; -958.791
648.862;  -79.473; -505.116; -577.792
649.134;   21.903;  115.885;  198.208
649.405;  -50.370; -661.115; -618.792
649.677;  -48.768; -475.115; -598.793
649.948;  -11.691; -181.115; -296.793
650.219;   -2.039;  -37.115; -147.793
650.491;  -83.837; -431.114; -520.794
650.762; -128.361; -705.114; -731.794
651.033;  -91.809; -437.114; -424.795
651.304;  -86.857; -743.114; -728.795
651.576;  -62.430; -680.114; -645.795
651.847;  -46.828; -250.113; -140.796
652.118;  -24.276;  -32.113; -189.796
652.389; -106.200; -639.113; -722.796
652.660;  -39.123; -147.113;  -89.797
652.931; -144.846; -897.112; -871.797
653.202;  -77.544; -382.112; -541.798
653.473;  -67.417; -633.112; -533.798
653.744;  147.010; -595.112; -590.798
654.015;  130.912; -356.112; -303.799
654.286;  -81.137; -642.111; -663.799
654.557;  -57.485; -586.111; -521.799
654.828; -161.183;-1114.111;-1088.800
655.099;  -72.531; -404.111; -291.800
655.370;  -81.629; -427.111; -543.801
655.641; -108.227; -656.110; -714.801
655.911; -109.351; -618.110; -638.801
656.182;   50.401;  437.890;  387.198
656.453;   95.978;  830.890;  746.198
656.724;  -70.345; -466.110; -426.802
656.994;  -82.418; -553.109; -568.803
657.265;  -98.641; -862.109; -873.803
657.536;  -91.165; -500.109; -377.804
657.806; -107.638; -561.109; -593.804
658.077; -135.161; -866.109; -950.804
658.347;  -73.984; -523.108; -598.805
658.618; -120.082; -646.108; -694.805
658.888;  -23.330;  -41.108;  112.195
659.159;  -84.278; -432.108; -548.806
659.429;    8.798; -292.108; -349.806
659.700;   12.225; -435.107; -390.807
659.970;   -6.998; -370.107; -359.807
660.241;   13.304; -754.107; -921.807
660.511;  487.156; -147.107; -174.808
660.781;   84.583; -793.106; -748.808
661.052;  -44.441; -222.106; -381.808
661.322;    0.636;   21.894;   -9.809
661.592;   22.913;  257.894;  148.191
661.862;  -76.985; -369.106; -382.810
662.133;  -86.658; -551.105; -502.810
662.403; -111.106; -770.105; -676.810
662.673;  -48.080; -256.105; -213.811
662.943;  -78.378; -612.105; -551.811
663.213;   -3.051;  -85.105;  -81.811
663.483;  -89.524; -593.104; -568.812
663.753;  -48.897; -194.104; -152.812
664.023;   -3.970;   68.896;  -32.813
664.293;  -43.494; -319.104; -126.813
664.563; -116.092; -694.104; -648.813
664.833; -124.490; -743.103; -608.814
665.103; -131.938; -730.103; -793.814
665.373; -108.736; -766.103; -806.814
665.643;  -92.134; -863.103; -918.815
665.913;   37.768; -534.103; -714.815
666.182;  126.769; -685.102; -719.816
666.452;  261.971;  -22.102;  -89.816
666.722;  -28.902; -724.102; -784.816
666.992; -137.250; -948.102; -921.817
667.261;  -86.198; -824.102; -808.817
667.531;  224.179;  134.899;   45.183
667.801;  537.230; -440.101; -412.818
668.070;  240.707;  714.899;  697.182
668.340; -112.091; -883.101; -840.819
668.609;   92.111;  588.900;  301.181
668.879;  -80.587; -490.100; -558.819
669.149;  -74.985; -539.100; -516.820
669.418;  -93.159; -698.100; -726.820
669.688;  -32.057; -482.100; -666.820
669.957;   67.320; -423.099; -546.821
670.226;  -22.003; -268.099; -331.821
670.496;  -89.401; -431.099; -635.822
670.765;  -76.399; -418.099; -501.822
671.034; -124.597; -872.099; -828.822
671.304;   -8.771;   55.902; -111.823
671.573; -149.944;-1085.098; -957.823
671.842;   66.933; -380.098; -294.823
672.112;   23.310; -692.098; -586.824
672.381;   -0.513; -239.098; -214.824
672.650; -135.711;-1005.097;-1021.825
672.919;  -83.385; -631.097; -507.825
673.188; -104.808; -681.097; -878.825
673.457; -150.281;-1101.097;-1143.826
673.726;  -73.454; -579.096; -646.826
673.995;  -41.702; -533.096; -479.826
674.265;   -7.550; -263.096; -333.827
674.534;   14.476; -183.096; -235.827
674.802;    4.978; -618.096; -703.828
675.071;  992.605; -886.095; -801.828
675.340; 3740.957; -464.095; -339.828
675.609; 1250.784;  103.905;   82.171
675.878;   54.236; -949.095; -893.829
676.147;   28.212;  -26.095;   -8.829
676.416;   78.939; -210.094; -294.830
676.685;  700.141; 1000.906; -622.830
676.953;  104.443; -603.094; -452.831
677.222;  -38.755; -193.094; -273.831
677.491;  -32.953;  -24.094; -127.831
677.759;   11.549;   11.907;  172.168
678.028;  -22.525; -279.093; -222.832
678.297;    6.852;   71.907;  197.168
678.565; -141.696; -898.093; -944.833
678.834;  -57.219; -311.093; -268.833
679.102;  -76.892; -411.092; -391.834
679.371; -144.840; -898.092; -727.834
679.639; -132.464; -797.092; -786.834
679.908; -112.112; -794.092; -724.835
680.176; -161.010; -895.091; -941.835
680.445;  -62.483; -346.091; -352.835
680.713;  -21.506;  -58.091;  -23.836
680.982;  -92.304; -523.091; -525.836
681.250; -113.153; -578.091; -507.837
681.518;  -98.301; -534.090; -751.837
681.787;  -20.499; -204.090; -167.837
682.055;  -52.547; -490.090; -422.838
682.323; -151.270; -993.090; -992.838
682.591;   25.607; -216.090; -538.838
682.859;   81.858;    9.911;  -35.839
683.128;   33.460;  232.911;  497.161
683.396; -166.413;-1102.089;-1122.840
683.664;  -33.536; -241.089;   21.160
683.932;   -2.534;  144.911;  -76.840
684.200;  -86.482; -576.088; -320.841
684.468;  -15.455;  -73.088; -124.841
684.736;  -23.929; -214.088; -175.841
685.004; -117.202;-1024.088; -982.842
685.272;  -49.875; -880.088; -774.842
685.540;  -55.598; -499.087; -557.843
685.808;  -73.496; -651.087; -682.843
686.076; -123.669; -894.087; -969.843
686.343;  -55.243; -601.087; -815.844
686.611;   46.259; -195.087; -224.844
686.879;  480.736; -530.086; -553.844
687.147; 3157.038; -483.086; -480.845
687.414;  896.490;  -12.086; -169.845
687.682;    3.667; -658.086; -757.846
687.950;  305.743;  259.915;  263.154
688.217;   12.645; -792.085; -760.846
688.485;  -11.453; -632.085; -636.847
688.753;  497.524;  -11.085; -102.847
689.020;  148.526; -820.085; -851.847
689.288; -104.797; -853.084; -787.848
689.555;  -19.295; -195.084; -148.848
689.823;  -36.919; -241.084; -345.849
690.090;  -83.367; -546.084; -651.849
690.358; -156.690; -877.084; -897.849
690.625;    7.512;  120.917;   45.150
690.892;  -82.786; -403.083; -369.850
691.160;   -8.709;   72.917;  -35.850
691.427;    5.017;  141.917;  130.149
691.694; -131.031; -855.083; -929.851
691.962; -153.854;-1177.082;-1060.852
692.229;   17.723;  127.918;   56.148
692.496;   74.250;  130.918;  -49.852
692.763;   14.277; -164.082; -201.853
693.031;  -69.322; -739.082; -716.853
693.298;  -43.945; -509.081; -368.853
693.565;  320.432; -155.081; -163.854
693.832; 1191.084;   -5.081;   -9.854
694.099;  135.911; -643.081; -642.855
694.366;  -50.087; -882.081; -896.855
694.633;  -32.811; -920.080; -633.855
694.900;  763.366; 4367.920; -114.856
695.167;  418.818; -214.080; -380.856
695.434;  102.970; -646.080; -623.856
695.701;  208.622;  121.921;  -61.857
695.968;  464.324; -365.079; -361.857
696.234; 1047.076; -415.079; -646.858
696.501;10529.577; -776.079; -614.858
696.768; 5210.554; -554.079; -617.858
697.035;  328.281; -632.078; -667.859
697.302;   27.183; -448.078; -552.859
697.568;    3.260; -458.078; -497.859
697.835;  -45.763; -683.078; -624.860
698.102;  -17.437; -498.078; -407.860
698.368;   67.765;  384.923;  396.139
698.635;  -26.958;  -47.077; -424.861
698.901;  -27.356; -240.077; -348.861
699.168;   78.871; -534.077; -456.862
699.435;   78.248;  -72.077;  -13.862
699.701; -113.526; -868.076; -764.862
699.968;  -45.349;  144.924; -441.863
700.234; -106.247; -783.076; -822.863
700.500;  -43.945; -448.076; -539.864
700.767;    4.632;   -1.075;   26.136
701.033; -124.141;-1015.075; -963.864
701.299;  -60.189; -450.075; -483.865
701.566;  133.212;  950.925;  763.135
701.832;   30.589;  -31.075;  -76.865
702.098; -107.034;-1054.074;-1034.866
702.365;  -91.257;-1098.074;-1030.866
702.631;  -21.555;-1038.074;-1063.867
702.897; 1366.497; -765.074; -676.867
703.163; 2194.223;  348.926;  254.133
703.429;  163.200; -256.073; -273.868
703.695;  -34.623; -796.073; -792.868
703.961;   15.829; -214.073; -210.868
704.227;  -50.469; -630.073; -725.869
704.493;  125.408;  613.927;  510.131
704.759;  -18.541; -565.072; -540.870
705.025;   37.161; -203.072; -194.870
705.291;   -7.662; -666.072; -562.870
705.557;  203.190;  719.928;   34.129
705.823;   35.467; -742.072; -694.871
706.089;  145.019; -307.071; -326.871
706.355;  375.870; -315.071; -244.872
706.620; 5891.247; -776.071; -729.872
706.886; 7875.949; -309.071; -362.873
707.152;  723.426; -818.070; -973.873
707.418;  -19.972;-1153.070;-1186.873
707.683;    9.655; -550.070; -530.874
707.949;  -40.843; -547.070; -578.874
708.215;    2.758; -129.070; -207.874
708.480;  -11.490; -520.069; -420.875
708.746;  107.212;   68.931;   28.125
709.011;  -61.861; -578.069; -612.876
709.277;  -65.009; -538.069; -543.876
709.542;  -36.007; -428.069; -387.876
709.808;   -8.456;  -59.068;   89.123
710.073;  -79.354; -577.068; -695.877
710.339;  -24.727; -242.068; -228.877
710.604;   79.100; -780.068; -845.878
710.869;  321.727; -277.068; -366.878
711.135;  -64.446; -715.067; -628.879
711.400;  -79.570; -507.067; -608.879
711.665;  -61.418; -404.067; -479.879
711.931; -105.216; -661.067; -677.880
712.196; -131.289; -876.067; -954.880
712.461;   98.938; -402.066; -490.880
712.726;  129.265; -727.066; -771.881
712.991;  -77.384; -647.066; -664.881
713.256;  -53.182; -350.066; -332.882
713.521;  -58.780; -417.065; -381.882
713.787;  -51.728; -454.065; -472.882
714.052;  -15.751; -214.065; -400.883
714.317;  -84.799;-1045.065; -981.883
714.581; 1090.378; -374.065; -268.883
714.846; 1405.479; -822.064; -888.884
715.111;  141.406;  261.936;  257.116
715.376;  -40.617;  -86.064; -223.885
715.641;  -10.915; -365.064; -367.885
715.906;  291.662;   15.936; -551.885
716.171;  143.714;  221.937;  209.114
716.436;   25.415;  -78.063; -104.886
716.700; -100.733; -818.063; -692.886
716.965; -115.706; -794.063; -807.887
717.230;  -89.829; -339.063; -392.887
717.494;   -8.627;  -40.062; -134.888
717.759; -102.325; -784.062; -640.888
718.024;    7.051;  269.938;  250.112
718.288;   78.053;  685.938;  395.111
718.553; -140.345; -803.062; -977.889
718.817; -144.293; -883.061; -899.889
719.082;  -38.691; -115.061; -125.890
719.346; -140.339;-1000.061; -947.890
719.611;  -37.612; -300.061; -255.891
719.875;  -96.711; -568.060; -537.891
720.140;  -62.634; -453.060; -603.891
720.404;   49.268; -136.060; -249.892
720.668;  830.070; -475.060; -411.892
720.933;  318.372;  146.940;  137.108
721.197; -101.151; -667.059; -600.893
721.461; -129.125; -851.059; -826.893
721.725;  -15.048;  -21.059; -250.894
721.990;  -51.246; -284.059; -204.894
722.254;  -33.169;  -26.059; -108.894
722.518;  -66.517; -286.058; -442.895
722.782;  -94.865; -743.058; -594.895
723.046;  142.486;  614.942;  570.105
723.310;   31.863;  374.942;  210.104
723.574; -100.885; -654.058; -614.896
723.838; -110.508; -576.057; -642.897
724.102;  -42.331; -226.057; -239.897
724.366; -142.204;-1032.057; -978.897
724.630; -103.303; -749.057; -571.898
724.894;  -88.226; -722.057; -514.898
725.158;   -5.699;   38.944; -295.898
725.422;  -47.897; -394.056; -327.899
725.685;  -64.020; -441.056; -349.899
725.949;  -85.718; -566.056; -519.900
726.213;  -82.816; -732.056; -811.900
726.477;  175.560;-1020.055; -933.900
726.740;  148.162; -274.055; -104.901
727.004;  351.314; -384.055; -510.901
727.268; 3413.516; -442.055; -400.901
727.531;  896.268; -961.055; -775.902
727.795;  -30.630; -713.054; -673.902
728.059;  -68.504; -552.054; -557.903
728.322;  -68.902; -841.054; -669.903
728.586;   25.525; -692.054; -701.903
728.849;  -78.573; -695.053; -756.904
729.112; -119.321; -812.053; -912.904
729.376; -133.994; -959.053; -905.904
729.639;  -78.993; -536.053; -536.905
729.903; -117.516; -733.053; -699.905
730.166;  -62.914; -437.052; -399.906
730.429;  -20.262; -317.052; -468.906
730.693;  -67.885; -355.052; -894.906
730.956;  234.092;  810.948;  651.093
731.219;  694.069; -310.052; -103.907
731.482;  124.395;-1003.051; -894.907
731.745;   70.497; -794.051; -935.908
732.009;   36.274;  -30.051;   50.092
732.272;  -88.849; -904.051; -771.909
732.535;  -45.372; -300.051; -310.909
732.798; -156.345;-1083.050;-1166.909
733.061;  -58.294; -430.050; -456.910
733.324;   -3.017;   31.950; -180.910
733.587;   71.710;  290.950;  365.090
733.850;  -73.738; -973.049;-1050.911
734.113;   17.489;   33.951;   32.089
734.376;    3.391; -328.049; -447.912
734.639;  219.392; 1188.951; 1011.088
734.901;   76.769; -180.049; -402.912
735.164;  522.396; -883.048; -837.913
735.427; 1255.573; -166.048; -355.913
735.690;  122.725; -205.048; -234.913
735.952;  -37.323; -923.048; -925.914
736.215;  -16.997;-1113.048;-1009.914
736.478;   46.930; -771.047; -774.915
736.740;  214.582;   33.953;  129.085
737.003;  703.334; -658.047; -672.915
737.266; 3932.361;  -94.047;   46.084
737.528;  421.263; -682.047; -660.916
737.791;  313.840; -316.046; -327.916
738.053;  841.966;  465.954;  649.083
738.316;11300.168; -162.046; -136.917
738.578; 7493.945; -770.046; -736.918
738.841;  447.647; -382.046; -446.918
739.103;  185.824; -875.045; -777.918
739.365;  490.351;   79.955;  -69.919
739.628;   -2.073; -884.045; -805.919
739.890;  -23.646; -758.045; -710.919
740.152;  -32.744; -692.044; -754.920
740.414;    0.083; -408.044; -359.920
740.677;  -66.790; -785.044; -634.921
740.939;  -41.538; -587.044; -487.921
741.201;  235.313; -432.044; -572.921
741.463;   34.415; -689.043; -745.922
741.725;   24.117;  -21.043; -199.922
741.987;   43.994;  220.957;  116.078
742.249;   -0.204; -751.043; -859.923
742.511;  214.373; -703.043; -794.923
742.773;    6.424; -546.042; -546.924
743.035;  129.951;  796.958;  533.076
743.297;  -40.522; -963.042;-1013.924
743.559;  735.030; -278.042; -262.925
743.821;   53.057; -735.042; -744.925
744.083;   17.434;  -44.041; -149.925
744.345;  -96.139; -869.041; -892.926
744.607;   59.312;   75.959;  122.074
744.868;  -48.586; -490.041; -554.927
745.130; -108.359; -994.041;-1008.927
745.392;   32.543;   -1.040;  -44.927
745.653;  -11.830; -411.040; -378.928
745.915;  156.272;  896.960;  631.072
746.177;   62.548;   35.960;  -43.928
746.438;   -7.275; -428.040; -543.929
746.700;  -42.548; -947.039; -988.929
746.961;    4.054; -659.039; -740.930
747.223;  131.106; -190.039;  -74.930
747.484;   88.533; -391.039; -471.930
747.746;  160.184;  -23.038; -106.931
748.007;   90.961; -647.038; -689.931
748.269;  310.713; -468.038; -440.931
748.530;  460.365; -852.038; -638.932
748.791;  272.517; -354.038; -420.932
749.053;  433.544;  286.963;  163.067
749.314;  439.921; -236.037; -169.933
749.575;  506.647; -945.037; -905.933
749.836;  845.574; -217.037;   86.066
750.098; 2557.426;  -60.037;  -21.934
750.359;36572.678;  414.964;  555.066
750.620; 8776.530; -121.036; -220.935
750.881; 1048.507; -585.036; -513.935
751.142; 1390.233; -950.036; -938.936
751.403;17226.035; -789.036; -705.936
751.664; 7143.537;-1034.035; -999.936
751.925;  480.889; -175.035; -262.937
752.186;  284.666; -298.035; -278.937
752.447;  127.418; -590.035; -445.937
752.708;   41.569; -532.035; -648.938
752.969;   16.821; -566.034; -576.938
753.230;   -9.802; -777.034; -672.939
753.491;   -5.675; -650.034; -631.939
753.751;   62.077;  109.966;   19.061
754.012;   92.529;  258.967;  181.060
754.273;   61.705; -174.033;  -71.940
754.534;   18.357; -487.033; -580.940
754.794;  -91.641; -926.033; -911.941
755.055;  154.561; 1051.967;  881.059
755.316;  -50.837; -700.032; -566.942
755.576;  -20.610; -606.032; -576.942
755.837;  -56.558; -527.032; -695.942
756.097;  -48.857; -530.032; -564.943
756.358;  -80.205; -725.032; -770.943
756.618;  -58.853; -705.031; -641.943
756.879;  -11.901; -254.031; -349.944
757.139; -111.474;-1098.031;-1116.944
757.400;  -53.422; -538.031; -553.945
757.660;   -5.221; -365.031; -401.945
757.920;    3.231; -266.030; -228.945
758.181;  -10.292; -468.030; -351.946
758.441;  -93.915; -870.030; -809.946
758.701;  -30.913; -308.030; -215.946
758.961;  -17.511; -220.030; -278.947
759.222;  -35.310; -574.029; -502.947
759.482;  -78.833; -683.029; -723.948
759.742;  -86.781; -706.029; -547.948
760.002;   17.946;  -83.029; -143.948
760.262;   37.523;   50.972;  182.051
760.522;  -40.150; -498.028; -574.949
760.782;  -51.448; -738.028; -612.949
761.042;  -24.722; -618.028; -573.950
761.302;   63.430;   55.972;  -18.950
761.562;   58.957; -164.027; -154.951
761.822;   94.934; -710.027; -551.951
762.082;  -41.514;-1104.027;-1093.951
762.342;   65.713; -328.027; -403.952
762.601;   85.039; -567.027; -506.952
762.861;  361.641; -281.026; -207.952
763.121;  418.618; -406.026; -411.953
763.381; 7742.945; -499.026; -485.953
763.640; 7925.897; -139.026; -307.954
763.900;  363.199; -242.026; -203.954
764.160;   94.850; -458.025; -491.954
764.419;   -5.673; -726.025; -782.955
764.679;  -72.971; -795.025; -726.955
764.939;   -8.469; -124.025; -210.955
765.198;  -78.017; -608.025; -563.956
765.458;  -89.040; -710.024; -612.956
765.717;  -78.789; -454.024; -590.957
765.976;  -51.062; -428.024; -411.957
766.236;  -71.110; -475.024; -610.957
766.495;   23.292;  260.977;   73.042
766.755; -102.081;-1090.023; -987.958
767.014;    7.621; -594.023; -665.958
767.273;  -50.227; -373.023; -397.959
767.533;  -36.001; -228.023; -307.959
767.792;  -17.474; -151.022; -188.960
768.051;  -47.497; -228.022; -276.960
768.310;  -92.120; -546.022; -650.960
768.569;    7.757; -161.022;    4.039
768.828;  -22.216; -285.022; -363.961
769.088; -109.390;-1050.021; -942.961
769.347;  -78.563; -755.021; -599.962
769.606;  -96.261; -876.021; -857.962
769.865; -133.359;-1016.021;-1033.963
770.124;   12.893; -411.021; -336.963
770.383;  -50.730; -778.020; -910.963
770.641;    0.446; -398.020; -400.964
770.900;  -74.102; -953.020; -846.964
771.159;  -43.650; -851.020; -951.964
771.418;  -10.123; -917.020; -779.965
771.677;  143.829; -224.019; -293.965
771.936;  160.681; -794.019; -865.966
772.194; 2497.157; -465.019; -437.966
772.453;11141.984; -213.019; -391.966
772.712;  768.911;  416.982;  329.033
772.970;  113.788;   32.982;   63.033
773.229;  109.165;  -22.018;  102.033
773.488;  -87.133; -814.018; -770.968
773.746;   67.269;  296.982;  335.032
774.005;    0.395;  190.983;  -22.969
774.263;   10.622;  243.983;  177.031
774.522;  -95.701; -422.017; -548.969
774.780;  -72.074; -484.017; -417.970
775.039;  -81.597; -551.017; -531.970
775.297;  -32.895; -135.016; -351.970
775.555; -114.444; -489.016; -612.971
775.814; -120.392; -618.016; -570.971
776.072; -121.690; -749.016; -740.971
776.330;  -84.788; -630.016; -520.972
776.589; -126.211; -703.015; -721.972
776.847; -125.009; -645.015; -624.973
777.105; -161.033;-1016.015;-1032.973
777.363;  -79.606; -459.015; -454.973
777.621; -148.779; -660.015; -717.974
777.879;   -4.652;  -42.014;   32.026
778.138;  -99.150; -554.014; -717.974
778.396;  -96.648; -585.014; -526.975
778.654; -176.671;-1015.014; -970.975
778.912;  -68.745; -269.014; -371.976
779.170; -143.193; -880.013; -803.976
779.427; -140.991; -922.013; -897.976
779.685; -130.264; -880.013; -832.977
779.943;  -77.462; -654.013; -593.977
780.201; -162.110; -964.012; -883.978
780.459; -105.584; -651.012; -610.978
780.717;  -83.657; -440.012; -390.978
780.974; -103.405; -449.012; -490.979
781.232;  -73.403; -358.012; -338.979
781.490;  -85.301; -551.011; -472.979
781.747; -106.374; -555.011; -476.980
782.005;   24.252;  462.989;  254.020
782.263; -168.296; -542.011;-1004.981
782.520;  -81.969; -326.011; -501.981
782.778; -161.417;-1013.010;-1051.981
783.035; -150.990; -962.010; -938.982
783.293;  -64.138; -248.010; -206.982
783.550;  -44.712; -134.010; -198.982
783.808; -132.560; -764.010; -776.983
784.065; -165.008; -745.009; -874.983
784.322;  -53.831;   25.991;  -86.984
784.580; -127.179; -915.009; -771.984
784.837;  -91.652; -392.009; -466.984
785.094; -122.750; -783.009; -762.985
785.352;  -67.874; -304.008; -404.985
785.609; -113.947; -934.008; -839.985
785.866;  -82.320; -345.008; -401.986
786.123;  -70.843; -639.008; -583.986
786.380; -108.441; -665.008; -604.987
786.637;  -36.664; -225.007; -380.987
786.895;  -27.563; -456.007; -543.987
787.152;  -36.061; -135.007; -267.988
787.409;  -46.159; -123.007; -225.988
787.666; -102.357; -299.006; -378.988
787.923;  -96.980; -616.006; -695.989
788.179;  -93.553; -551.006; -584.989
788.436; -123.302; -585.006; -585.990
788.693;  -35.450;  -92.006;  -87.990
788.950;  134.552; -125.005; -112.990
789.207;  210.804; -381.005; -372.991
789.464;  -61.244; -161.005; -301.991
789.720;   -9.017;  150.995;  110.009
789.977; -173.440;-1003.005; -671.992
790.234;  -19.314;   44.996;  -66.992
790.490; -166.212; -884.004;-1031.993
790.747;  -18.260;  -85.004;   22.007
791.004;  -40.108; -426.004; -348.993
791.260;  -82.631; -430.004; -560.994
791.517;  -86.329; -843.003; -788.994
791.773;  -37.453; -379.003; -342.994
792.030; -118.201; -596.003; -660.995
792.286; -107.874; -686.003; -636.995
792.543;   -7.272;  -74.002; -159.995
792.799;  -47.245; -584.002; -382.996
793.055; -162.693;-1179.002;-1210.996
793.312; -104.517; -827.002; -816.997
793.568;  -53.815; -746.002; -599.997
793.824;   -1.463; -226.001; -284.997
794.081;   33.164; -447.001; -508.998
794.337;   62.966; -664.001; -561.998
794.593; 1441.768; -319.001; -271.999
794.849; 6443.744; -746.001; -772.999
795.105;  298.521; -270.000; -261.999
795.361;   18.023; -490.000; -457.000
795.617;  -71.825; -875.000; -945.000
795.873;  -49.425; -360.000; -407.000
796.129;  -40.675; -368.000; -306.000
796.385;   -6.675; -124.000; -156.000
796.641;   62.675;  412.000;  550.000
796.897;  -72.725; -666.000; -635.000
797.153;   70.600;  453.000;  357.000
797.409;  -92.600; -785.000; -868.000
797.665;  -83.650; -625.000; -732.000
797.921;  -70.550; -775.000; -762.000
798.176;  -56.050; -744.000; -747.000
798.432;  -48.450; -824.000; -596.000
798.688;  -70.700;-1174.000;-1078.000
798.943;  107.200; -165.000; -147.000
799.199;   -1.700;-1005.000; -959.000
799.455;  239.675;  369.000;  316.000
799.710;  128.750; -813.000; -380.000
799.966;  314.275; -162.000; -160.000
800.221;  492.550; -638.000; -721.000
800.477;11148.575; -743.000; -710.000
800.732; 9084.925; -773.000; -800.000
800.988;  643.100;  205.000;  -19.000
801.243; 2027.150; -454.000; -344.000
801.498; 7959.500; -814.000; -739.000
801.754;  439.775; -289.000; -163.000
802.009;   90.650; -257.000; -335.000
802.264;  -54.625; -967.000;-1033.000
802.520;   29.750;  222.000;   -3.000
802.775;  -50.300; -524.000; -359.000
803.030;   52.625;  395.000;  356.000
803.285; -121.250; -840.000; -903.000
803.540;  -65.400; -686.000; -699.000
803.795;  -42.825; -648.000; -583.000
804.051;  -50.100; -279.000; -346.000
804.306;   13.425;  168.000;  128.000
804.561;  144.300;  451.000;  362.000
804.816;  133.125;  714.000;  861.000
805.071;   14.325; -185.000; -280.000
805.325;  205.775; -257.000; -427.000
805.580; -114.125; -841.000; -877.000
805.835;  -17.900; -204.000; -297.000
806.090;  -78.475; -760.000; -676.000
806.345;  -22.275; -344.000; -264.000
806.600;  -24.300; -549.000; -632.000
806.854;  -22.100; -408.000; -538.000
807.109;  -18.575; -493.000; -577.000
807.364;   -1.250; -407.000; -328.000
807.618;    1.600; -415.000; -381.000
807.873;   46.450; -470.000; -494.000
808.128;  108.925; -257.000; -518.000
808.382;   95.325; -224.000; -332.000
808.637;   80.750; -440.000; -511.000
808.891;  173.375; -257.000; -180.000
809.146;  108.050; -902.000; -794.000
809.400;  263.625; -848.000; -923.000
809.654;  344.700; -779.000; -551.000
809.909;  489.350; -841.000; -927.000
810.163; 6968.425; -813.000; -651.000
810.418;16453.750; -940.000; -861.000
810.672; 1007.550; -685.000; -690.000
810.926;  743.750; -993.000; -973.000
811.180; 1490.800; -439.000; -372.000
811.434;33196.850;  240.000;  135.000
811.689;12157.250; -231.000; -365.000
811.943;  599.075; -936.000; -953.000
812.197;  343.800; -893.000; -671.000
812.451;  121.450; -379.000; -514.000
812.705;  -10.600; -809.000; -619.000
812.959;    8.625; -263.000; -388.000
813.213;   13.300; -283.000; -209.000
813.467;   67.250;  470.000;  253.000
813.721; -108.225; -764.000; -792.000
813.975; -122.250; -826.000; -877.000
814.229;   41.200;  430.000;  353.000
814.482;  -69.775; -517.000; -566.000
814.736; -116.025; -766.000; -744.000
814.990; -133.050; -779.000; -872.000
815.244;  -37.525; -228.000; -285.000
815.497;  -90.275; -636.000; -601.000
815.751;  -15.150; -141.000;   82.000
816.005;  -82.975; -470.000; -586.000
816.258;  -74.150; -510.000; -363.000
816.512; -107.050; -693.000; -610.000
816.766;   15.900;  121.000;  157.000
817.019;   17.875;  148.000;  149.000
817.273; -115.200;-1000.000; -802.000
817.526;  -24.450; -206.000; -173.000
817.779;  -48.300;-1049.000; -960.000
818.033;  -83.225; -693.000; -807.000
818.286; -113.125; -725.000; -792.000
818.540;  -79.200; -403.000; -403.000
818.793;  -84.400; -402.000; -489.000
819.046; -111.325; -582.000; -520.000
819.299;  -18.300; -157.000; -166.000
819.553; -102.425; -552.000; -592.000
819.806; -160.300;-1016.000; -838.000
820.059;  -70.325; -334.000; -354.000
820.312;   20.525;  152.000;  185.000
820.565;  -23.525;  110.000;  -27.000
820.818;  -49.600;  -59.000; -173.000
821.071; -184.125;-1041.000; -957.000
821.324; -109.200; -536.000; -540.000
821.577; -101.525; -457.000; -483.000
821.830;  -60.025; -270.000; -172.000
822.083; -132.225; -733.000; -288.000
822.336;  -59.075; -261.000; -167.000
822.589; -123.500; -805.000; -688.000
822.842; -132.900; -875.000; -770.000
823.094; -182.575;-1076.000;-1114.000
823.347; -135.225; -925.000; -729.000
823.600;   -1.850;  402.000;  187.000
823.853;  -46.025; -311.000; -267.000
824.105;  -64.075; -331.000; -575.000
824.358; -102.925; -617.000; -716.000
824.611;   32.375;  234.000;   40.000
824.863;  -47.700; -612.000; -591.000
825.116;   41.850;  -33.000;   27.000
825.368;   91.925; -366.000; -372.000
825.621;  155.350; -186.000; -240.000
825.873;   88.700; -704.000; -737.000
826.126;  632.000; -669.000; -641.000
826.378;11918.125; -389.000; -505.000
826.630; 2597.025; -890.000; -898.000
826.883;   48.225; -754.000; -693.000
827.135;   53.700; -279.000; -270.000
827.387; -107.450; -893.000; -839.000
827.639;  -28.350;  -86.000;   32.000
827.892; -114.850; -742.000; -582.000
828.144; -148.550; -848.000; -804.000
828.396;  -42.075;  104.000;  -80.000
828.648; -102.375; -440.000; -333.000
828.900; -141.325; -702.000; -795.000
829.152; -120.175; -684.000; -683.000
829.404;  -73.750; -215.000; -267.000
829.656;  -47.075;  321.000;  214.000
829.908;  -21.775;  393.000;  229.000
830.160; -170.675;-1064.000;-1047.000
830.412;  -92.925; -481.000; -430.000
830.664; -125.900; -557.000; -665.000
830.916;  -72.900; -268.000; -206.000
831.167; -188.225;-1073.000; -951.000
831.419; -114.600; -623.000; -566.000
831.671; -157.500; -764.000; -809.000
831.923;  -89.475; -311.000; -447.000
832.174;  -73.950; -273.000; -331.000
832.426; -114.825; -493.000; -582.000
832.678; -190.400;-1043.000;-1091.000
832.929; -158.675; -947.000; -935.000
833.181;  -67.750; -575.000; -677.000
833.432;  -59.550;  -59.000; -186.000
833.684;   -4.075;  112.000;  -27.000
833.935; -101.625; -610.000; -566.000
834.187; -132.200; -829.000; -823.000
834.438;  -47.275;  -58.000;  -25.000
834.689;  -57.675; -255.000; -123.000
834.941;  -46.875; -343.000; -244.000
835.192;  -92.425; -590.000; -533.000
835.443; -104.550; -419.000; -506.000
835.695;  -12.050;  138.000;  -16.000
835.946;  -68.400; -608.000; -378.000
836.197; -105.200; -599.000; -622.000
836.448;  -82.175; -528.000; -395.000
836.699;  -50.325; -253.000; -341.000
836.950;  -13.200;   72.000;    7.000
837.201; -161.125;-1003.000; -987.000
837.452;  -43.200; -356.000; -170.000
837.703; -132.725; -791.000; -737.000
837.954;  -31.175; -205.000; -365.000
838.205;  -91.400;-1029.000;-1008.000
838.456;  153.175; -196.000; -282.000
838.707;    3.250; -423.000; -519.000
838.958;   13.100; -634.000; -647.000
839.209;  267.825;   18.000;   40.000
839.460;  125.275; -439.000; -201.000
839.710;  163.125; -135.000; -297.000
839.961;  432.300;  730.000;  612.000
840.212;  343.875; -382.000; -497.000
840.462; 1189.325; -328.000; -277.000
840.713;18644.725; -571.000; -536.000
840.964; 6821.375;  -62.000; -143.000
841.214;  468.050; -384.000; -624.000
841.465;  562.425; -214.000; -141.000
841.715;  491.725; -417.000; -380.000
841.966;  646.125; -746.000; -685.000
842.216; 9536.750; -330.000; -431.000
842.466;33062.550; -169.000; -313.000
842.717; 1629.075; -964.000; -952.000
842.967;  324.475; -635.000; -641.000
843.217;  250.300;   20.000;   28.000
843.468;   77.950; -104.000; -132.000
843.718;  -32.775; -718.000; -726.000
843.968;  -82.900; -837.000; -765.000
844.218;   35.050; -315.000; -262.000
844.469;  -61.450; -577.000; -561.000
844.719; -102.825; -537.000; -682.000
844.969;  -91.225; -550.000; -580.000
845.219; -150.600; -814.000; -862.000
845.469;  -77.275; -392.000; -342.000
845.719; -141.175; -792.000; -884.000
845.969;  -10.450;  119.000;  174.000
846.219; -119.700; -738.000; -720.000
846.469;   22.900;  464.000;  432.000
846.718;  -47.400; -115.000;   31.000
846.968; -128.050; -827.000; -827.000
847.218;  -61.375; -224.000; -371.000
847.468;    3.575; -586.000; -555.000
847.718; -149.400; -827.000; -798.000
847.967; -130.475; -826.000; -915.000
848.217;  -86.225; -449.000; -569.000
848.467;  -59.275; -405.000; -376.000
848.716; -118.425; -708.000; -725.000
848.966;    5.175; -372.000; -358.000
849.215;  -63.575; -428.000; -419.000
849.465;  -88.150; -785.000; -615.000
849.714; -162.825;-1132.000;-1150.000
849.964;  -57.775; -551.000; -613.000
850.213;  -26.650; -393.000; -355.000
850.463;   85.125;  137.000;  340.000
850.712;   -4.425; -542.000; -567.000
850.961;    6.900; -739.000; -678.000
851.211;   99.675; -513.000; -504.000
851.460;  161.300; -635.000; -650.000
851.709;  593.350;  -25.000;   18.000
851.958;11009.675; -912.000; -750.000
852.208;12256.375; -859.000; -879.000
852.457;  453.350; -181.000;  -13.000
852.706;   61.250; -791.000; -823.000
852.955;   13.975; -507.000; -528.000
853.204;  -64.275; -521.000; -461.000
853.453;  -85.600; -418.000; -458.000
853.702; -130.425; -660.000; -750.000
853.951; -104.825; -532.000; -520.000
854.200; -115.725; -613.000; -562.000
854.449; -120.650; -695.000; -661.000
854.698; -105.725; -340.000; -279.000
854.946;  -59.075; -181.000; -284.000
855.195; -148.525; -843.000; -868.000
855.444;  -97.000; -395.000; -420.000
855.693; -134.375; -345.000; -432.000
855.941; -121.350; -387.000; -516.000
856.190;  -69.125; -256.000; -382.000
856.439; -133.950; -652.000; -703.000
856.687;  -64.425;  -99.000;  -72.000
856.936; -104.125; -621.000; -323.000
857.184; -190.275;-1067.000;-1020.000
857.433;  -92.500; -423.000; -512.000
857.681; -164.800; -989.000; -953.000
857.930;  -66.350; -282.000; -433.000
858.178; -178.550; -856.000; -929.000
858.427; -145.050; -802.000; -781.000
858.675; -119.850; -377.000; -544.000
858.923; -101.000; -527.000; -819.000
859.172; -187.075;-1094.000;-1070.000
859.420;  -89.650; -339.000; -239.000
859.668; -137.250; -624.000; -628.000
859.916;  -25.275;  109.000;  115.000
860.164; -121.375; -699.000; -603.000
860.413;  288.950; -878.000; -696.000
860.661;  194.300; -709.000; -577.000
860.909;  -83.725; -339.000; -325.000
861.157;  -89.225; -277.000; -444.000
861.405; -129.625; -534.000; -670.000
861.653;   12.750;  310.000;  310.000
861.901;  158.725; -543.000; -613.000
862.149;  -25.350; -801.000; -824.000
862.396;  -80.300; -297.000; -187.000
862.644; -103.150; -368.000; -347.000
862.892;  -42.125;   98.000;  138.000
863.140; -119.800; -549.000; -530.000
863.388; -154.375; -815.000; -759.000
863.635; -139.325; -642.000; -601.000
863.883;   -6.050;  231.000;  190.000
864.131;  -87.725; -288.000; -357.000
864.378; -143.000; -675.000; -540.000
864.626; -106.400; -347.000; -415.000
864.873; -119.400; -556.000; -505.000
865.121; -140.175; -714.000; -799.000
865.368;  -44.900; -173.000;   75.000
865.616;  -36.500;  -33.000;  -40.000
865.863;  -80.750; -462.000; -506.000
866.111; -132.950; -795.000; -824.000
866.358;   47.700; -426.000; -420.000
866.605; 2517.950;  -64.000; -804.000
866.853; 2342.525; -621.000; -537.000
867.100;  -50.200; -728.000; -775.000
867.347;  -96.500; -672.000; -611.000
867.594;  -91.350; -740.000; -714.000
867.841;   81.250;   97.000;   17.000
868.089; -143.900; -746.000; -698.000
868.336; -102.275; -477.000; -420.000
868.583; -152.375; -637.000; -741.000
868.830;  -47.375; -131.000; -170.000
869.077; -177.025; -859.000; -787.000
869.324; -135.500; -502.000; -458.000
869.571; -135.125; -398.000; -430.000
869.818; -119.875; -485.000; -439.000
870.065; -109.475; -439.000; -513.000
870.311; -114.075; -456.000; -542.000
870.558; -109.300; -332.000; -311.000
870.805;  -89.100; -320.000; -384.000
871.052; -114.675; -494.000; -369.000
871.298;  -65.475; -204.000; -131.000
871.545;  -63.575; -151.000; -185.000
871.792;  -87.400; -173.000; -222.000
872.038;  -67.075;   43.000; -126.000
872.285; -133.475; -496.000; -387.000
872.532; -107.875; -357.000; -387.000
872.778;    8.200;  556.000;  403.000
873.025; -114.650; -384.000; -359.000
873.271;   31.250;  501.000;  578.000
873.517;  -30.125; -133.000; -209.000
873.764;  -28.025; -193.000;  -80.000
874.010;  -75.750; -143.000; -230.000
874.257;  -50.975;  123.000;   90.000
874.503; -140.625; -579.000; -479.000
874.749;  -67.375;   31.000;  275.000
874.995;  -69.575;  -80.000;  -20.000
875.242; -122.150; -540.000; -478.000
875.488; -103.950; -414.000; -439.000
875.734;  -53.900; -106.000; -234.000
875.980;  182.500; -872.000;-1032.000
876.226;  349.575; -157.000; -255.000
876.472;  -14.825;  343.000;  237.000
876.718;  -29.225;  184.000;  158.000
876.964;  -35.200;   56.000;   55.000
877.210; -162.825; -547.000; -677.000
877.456; -146.025; -630.000; -557.000
877.702; -176.950; -821.000; -832.000
877.948; -120.850; -377.000; -497.000
878.193;   15.525;  361.000;  255.000
878.439; -104.500; -487.000; -472.000
878.685;  -95.775; -272.000; -343.000
878.931; -136.600; -618.000; -676.000
879.176;  -91.125; -201.000; -201.000
879.422; -181.925; -933.000; -820.000
879.668;   74.250;   10.000;   79.000
879.913;  123.025;   53.000;  137.000
880.159;  -53.875; -112.000;  -17.000
880.404;  -70.475; -152.000; -162.000
880.650;  -47.925;   91.000;  141.000
880.895; -171.600; -670.000; -710.000
881.141; -133.575; -454.000; -428.000
881.386; -147.425; -503.000; -658.000
881.631;  -84.175; -311.000; -166.000
881.877;  -37.700;  112.000;  -13.000
882.122; -139.675; -684.000; -600.000
882.367;  -87.750; -136.000; -186.000
882.612;  -73.600;  -80.000; -176.000
882.858; -174.775; -877.000; -823.000
883.103;  -96.150; -297.000; -267.000
883.348; -161.300; -759.000; -852.000
883.593; -142.200; -677.000; -602.000
883.838;  -67.075; -311.000;  -24.000
884.083;   31.925;  353.000;  288.000
884.328; -108.250; -564.000; -545.000
884.573;  -52.325; -196.000; -143.000
884.818;  184.525; -694.000; -531.000
885.063;  150.450; -348.000; -315.000
885.308; -110.225; -475.000; -398.000
885.553;  -13.350;  245.000;  325.000
885.797; -120.750; -545.000; -615.000
886.042;  -56.250;    8.000;   58.000
886.287;  -93.200; -253.000; -211.000
886.532;  -47.700;   26.000;  204.000
886.776; -102.875; -407.000; -525.000
887.021; -131.075; -621.000; -574.000
887.265; -156.600; -685.000; -689.000
887.510; -136.150; -557.000; -496.000
887.755;  -93.900; -194.000; -164.000
887.999; -132.250; -552.000; -575.000
888.244;  -58.225;  -58.000;  161.000
888.488;    0.850;  371.000;  393.000
888.732; -134.925; -368.000; -520.000
888.977; -133.225; -622.000; -567.000
889.221; -160.000; -683.000; -659.000
889.465; -131.575; -422.000; -566.000
889.710; -102.025;  -56.000; -299.000
889.954;    7.350;  579.000;  467.000
890.198; -154.325; -584.000; -707.000
890.442; -154.150; -716.000; -712.000
890.687; -163.575; -800.000; -753.000
890.931;  -91.275; -273.000; -210.000
891.175; -147.575; -502.000; -500.000
891.419;  -64.275; -105.000; -110.000
891.663;  -90.975; -239.000; -112.000
891.907; -169.600; -801.000; -545.000
892.151; -183.950; -920.000; -815.000
892.395; -121.875; -274.000; -387.000
892.638;   -6.125;  408.000;  291.000
892.882; -183.225; -780.000; -867.000
893.126;    0.200;  758.000;  558.000
893.370;  -79.400; -167.000; -168.000
893.614; -159.800; -714.000; -715.000
893.857;  -91.650; -183.000; -197.000
894.101; -141.400; -527.000; -631.000
894.345;  -53.100;  300.000;  150.000
894.588;   23.525;  569.000;  380.000
894.832;  -94.000; -178.000;  -84.000
895.075;  -86.675;   15.000;  -92.000
895.319; -131.750; -552.000; -420.000
895.563; -127.225; -413.000; -353.000
895.806; -148.925; -628.000; -741.000
896.049;  -67.950; -576.000; -368.000
896.293;  107.250;  527.000;  405.000
896.536;  -94.050; -465.000; -468.000
896.779;  -68.200; -149.000;   -1.000
897.023; -159.275; -751.000; -714.000
897.266;  -28.375;  325.000;  269.000
897.509; -180.950; -900.000; -901.000
897.752;  -43.850;  149.000;  171.000
897.996; -196.050; -972.000; -864.000
898.239;  -44.975;  168.000;  102.000
898.482; -136.900; -431.000; -453.000
898.725;  -36.625;  101.000;   53.000
898.968; -158.650; -609.000; -744.000
899.211; -107.600; -513.000; -361.000
899.454; -128.075; -633.000; -539.000
899.697;  -75.750;   90.000;  -43.000
899.940; -163.300; -761.000; -757.000
900.182; -106.600; -335.000; -405.000
900.425; -102.550; -150.000; -298.000
900.668;  -22.925;  491.000;  350.000
900.911; -117.150; -292.000; -345.000
901.154;  -50.750;  141.000;   -3.000
901.396; -152.975; -407.000; -412.000
901.639; -142.975; -430.000; -496.000
901.882; -189.850; -790.000; -809.000
902.124;  -90.300;  -29.000; -143.000
902.367; -129.850; -315.000; -361.000
902.609; -131.725; -476.000; -453.000
902.852;  -97.225; -108.000; -260.000
903.094; -133.325; -458.000; -337.000
903.337;  -62.850;  -26.000;   53.000
903.579; -112.975; -228.000; -441.000
903.821; -169.675; -597.000; -744.000
904.064;  -52.725;   85.000;  127.000
904.306;  -91.900; -126.000; -166.000
904.548; -105.400; -152.000; -366.000
904.790; -105.725; -195.000; -340.000
905.033; -141.800; -625.000; -577.000
905.275; -132.625; -513.000; -524.000
905.517;   57.625;  468.000;  256.000
905.759;  -89.775; -667.000; -761.000
906.001; -101.975; -322.000; -369.000
906.243;  -76.125; -162.000; -224.000
906.485;  115.300; -265.000; -207.000
906.727;   85.675; -499.000; -542.000
906.969;  -36.775;  -30.000; -135.000
907.211;  102.775; -316.000; -382.000
907.453;  257.725; -188.000; -237.000
907.695;  -22.050; -158.000; -385.000
907.936;   46.725;  818.000;  706.000
908.178;  -61.500;   92.000; -135.000
908.420;  -87.275; -111.000; -162.000
908.662; -132.700; -633.000; -682.000
908.903;  -79.200; -208.000; -123.000
909.145;  -70.225; -240.000; -305.000
909.386;    1.525;  315.000;  280.000
909.628;   37.050;  363.000;  397.000
909.870;   -0.925;   29.000;  264.000
910.111; -113.075; -809.000; -949.000
910.353;   21.100; -123.000; -161.000
910.594;    4.150; -574.000; -606.000
910.835;   82.800; -265.000; -326.000
911.077;  136.050; -503.000; -604.000
911.318;  304.600; -505.000; -471.000
911.559;  461.275; -577.000; -880.000
911.801; 1394.275; -284.000; -280.000
912.042;11108.025;  -50.000; -159.000
912.283;26726.700;  404.000;  371.000
912.524; 3683.650; -396.000; -457.000
912.765;  445.950; -193.000;   79.000
913.006;  229.500; -307.000; -338.000
913.247;   45.550; -270.000; -290.000
913.488;  -13.300;  -43.000;   30.000
913.729;  -78.875; -373.000; -373.000
913.970;  -68.700;  -96.000; -292.000
914.211;  -82.750; -160.000; -198.000
914.452;  -81.975; -118.000;  -11.000
914.693;   11.625;  510.000;  592.000
914.934;    8.075;  510.000;  440.000
915.175;  -74.800;   53.000;  -95.000
915.415;  -75.325; -137.000;   27.000
915.656;  -59.700;  -28.000;  192.000
915.897; -112.350; -252.000;  -82.000
916.137;  -68.625;   74.000;   -9.000
916.378; -134.325; -573.000; -517.000
916.619;  -97.700; -159.000;  -63.000
916.859;  -36.900;  303.000;  330.000
917.100;  132.375; 1655.000; 1070.000
917.340;   49.250;  930.000;  728.000
917.581;   51.175;  965.000;  789.000
917.821;  -27.600; -171.000;  143.000
918.061;    4.775; -199.000;  -72.000
918.302;  -60.475; -152.000; -211.000
918.542;  -17.100;  -22.000;    3.000
918.782;   24.675;  369.000;  377.000
919.023;  144.725;  360.000;  427.000
919.263; 1368.125; 8131.000;  202.000
919.503; 1054.550; -137.000;  -54.000
919.743;  610.025;  390.000;  266.000
919.983;  228.575; -134.000;  -26.000
920.223;   80.700;  135.000;   14.000
920.463;  141.625;  631.000;  554.000
920.703;  134.325;   84.000;   39.000
920.943;  172.225; -110.000;   90.000
921.183;  241.875; -414.000; -405.000
921.423;  539.350;  307.000;  546.000
921.663;  748.550; -174.000; -257.000
921.903; 1674.350;  237.000;  173.000
922.143; 9399.400;  372.000;  389.000
922.383;34820.750;  158.000;  115.000
922.622;10648.725; -120.000;  -15.000
922.862; 1177.875;  796.000;  785.000
923.102;  461.100;  -51.000;   33.000
923.341;  183.225;   59.000;   74.000
923.581;   88.025;  450.000;  360.000
923.821;   21.000;  301.000;  398.000
924.060;   15.325;  351.000;  193.000
924.300;  -57.550;  -16.000; -128.000
924.539;  -12.850;  584.000;  473.000
924.779;   30.125;  812.000;  597.000
925.018;  -47.075;  247.000;  353.000
925.257;    3.250;  595.000;  666.000
925.497;  -58.025;  447.000;  412.000
925.736;  -80.000;  -35.000;  102.000
925.975;    7.425;  687.000;  669.000
926.214;   17.525;  907.000;  850.000
926.454;    9.225;  706.000;  757.000
926.693;  -27.725;  419.000;  543.000
926.932;   12.200; 1021.000;  825.000
927.171;   74.125; 1107.000; 1044.000
927.410;   51.225; 1144.000;  967.000
927.649;   20.850;  924.000;  742.000
927.888;   -7.550;  590.000;  564.000
928.127;    5.775;  680.000;  678.000
928.366;   29.775;  842.000;  826.000
928.605;   51.500;  831.000;  737.000
928.844;  248.075; 1451.000; 1393.000
929.083;  619.900;  770.000;  613.000
929.321;  304.175; 1335.000; 1359.000
929.560;   80.625; 1158.000; 1122.000
929.799;  -28.975;  574.000;  475.000
930.038;   88.050; 1025.000; 1394.000
930.276;  -51.700;  334.000;  397.000
930.515;   -2.300;  827.000;  681.000
930.753;  -19.925;  614.000;  589.000
930.992;  -12.525;  664.000;  717.000
931.230;  -10.900;  847.000;  847.000
931.469;  161.000; 2162.000;  892.000
931.707;   72.650;  840.000;  751.000
931.946;   48.650; 1278.000; 1344.000
932.184;   60.500; 1437.000; 1175.000
932.423;   63.150; 1265.000;  963.000
932.661;   90.625; 1296.000; 1428.000
932.899;   24.000;  987.000;  821.000
933.137;   17.150;  754.000;  564.000
933.376;  147.900; 1664.000; 1335.000
933.614;  162.300; 1759.000; 1196.000
933.852;   71.000; 1357.000; 1171.000
934.090;  123.975; 1722.000; 1747.000
934.328;  108.175; 1252.000; 1457.000
934.566;   84.950; 1431.000; 1110.000
934.804;  127.750; 1263.000; 1309.000
935.042;  495.950; 1861.000; 1850.000
935.280; 1984.725; 2088.000; 2063.000
935.518; 1735.800; 2113.000; 2007.000
935.756;  348.925; 2481.000; 2316.000
935.994;  157.650; 1808.000; 1751.000
936.231;  353.925; 2890.000; 2950.000
936.469;  183.775; 2367.000; 2378.000
936.707;  162.525; 2220.000; 2167.000
936.945;  233.950; 2825.000; 2882.000
937.182;  219.450; 2679.000; 2741.000
937.420;  278.875; 3602.000; 3031.000
937.657;  418.400; 3365.000; 3478.000
937.895;  342.700; 3331.000; 3488.000
938.133;  294.950; 3540.000; 3528.000
938.370;  341.075; 3896.000; 4191.000
938.607;  414.725; 4488.000; 4205.000
938.845;  560.725; 5587.000; 5549.000
939.082;  493.300; 5387.000; 5177.000
939.320;  536.300; 5799.000; 5728.000
939.557;  662.275; 6549.000; 6491.000
939.794;  733.725; 7285.000; 7097.000
940.031;  899.275; 8421.000; 8368.000
940.269; 1099.950; 9552.000; 9107.000
940.506; 1130.275;10901.000;10507.000

