
Integration time [ms]: 100.000
Averaging Nr. [scans]: 40
Smoothing Nr. [pixels]: 0
Data measured with spectrometer [name]: 2101013U2
Wave   ;Sample   ;Dark     ;Reference
[nm]   ;[counts] ;[counts] ;[counts] 

394.013;   66.735; -450.257; -315.536
394.305;  215.558; -461.258; -419.536
394.596; 1010.156; -676.269; -527.514
394.887; 2435.798; -796.268; -654.518
395.178;  974.178;  145.736;   11.476
395.470;   95.689; -210.263; -356.526
395.761;  227.337;  305.734;  394.479
396.052;  325.083; -545.284; -306.489
396.343;  356.377; -557.276; -454.503
396.634;  153.296; -200.279; -290.497
396.926;  163.220; -618.268; -565.517
397.217;  143.331;   11.725;  -17.504
397.508;   78.722; -366.273; -154.507
397.799;   62.421; -555.279; -571.497
398.090;   14.591; -973.280; -902.495
398.381;  147.585;   11.708;  -11.473
398.672;   14.786; -585.292; -742.473
398.963;   65.102; -348.279; -373.498
399.254;  145.045;   54.709; -209.475
399.545;   -5.616;-1017.266; -883.520
399.836;   95.316; -407.277; -343.501
400.127;   71.461; -205.295; -209.468
400.418;   83.117; -423.274; -392.506
400.709;   90.953; -359.281; -333.493
401.000;   63.049; -268.291; -309.476
401.290;  101.874;  225.698;  115.545
401.581;   86.366; -166.286; -228.485
401.872;   39.484; -542.298; -486.462
402.163;   73.329; -313.296; -252.467
402.454;  106.745; -123.291; -163.475
402.744;  103.845; -844.297; -813.465
403.035;  543.076; -226.293;  -86.471
403.326;  719.239; -366.292; -384.474
403.617;  439.903;  204.701;  165.539
403.907;  247.439; -593.283; -679.490
404.198; 2220.529; -545.307; -599.446
404.489; 5798.019; -618.283; -588.491
404.779; 2072.852; -618.302; -660.456
405.070;  253.856;  -67.304; -174.451
405.360;  331.753; -259.293; -238.472
405.651;  371.514;  125.699;   98.542
405.942;  214.837;  209.714;  127.516
406.232;  350.901; -432.285; -413.487
406.523;  573.046;  641.706;  758.530
406.813;  124.239; -579.286; -644.484
407.104;  429.134;  261.708;  144.527
407.394;  241.330; -604.299; -591.462
407.685;  185.625;  336.715;  222.513
407.975;   77.017; -400.283; -382.490
408.265;  130.835; -134.289; -190.478
408.556;   90.592; -472.291; -459.475
408.846;  179.222;  474.706;  429.530
409.137;   91.018;   -1.288; -216.480
409.427;   56.551; -193.285; -271.487
409.717;   36.850; -776.273; -692.508
410.007;  137.795;    4.715; -170.486
410.298;   92.139; -360.295; -342.469
410.588;   80.548; -495.285; -510.486
410.878;   51.004; -792.287; -873.482
411.168;  123.936; -481.298; -478.463
411.459;  135.812; -295.283; -242.489
411.749;   81.191; -609.292; -507.474
412.039;   69.416; -755.289; -386.480
412.329;  229.559;   40.722;  132.501
412.619;  222.514;  -62.286; -148.485
412.909;  384.662;  639.711;  594.521
413.199;  372.091; -130.280; -251.495
413.490;  438.028;  521.710;  352.523
413.780;  150.870;-1013.279; -913.496
414.070;  348.478;  -46.276;  235.497
414.360;  397.656; -729.278; -666.498
414.650;  444.575; -726.288; -688.482
414.940;  517.069; -538.280; -441.496
415.230;  887.397;   50.712;   74.519
415.520; 5750.406;  155.730;   66.486
415.809;22481.603; -305.281; -125.493
416.099;17438.969; -388.277; -229.501
416.389; 4681.314;  435.726;  236.494
416.679; 2757.267;   91.738;   85.473
416.969;  501.008; -527.287; -503.483
417.259;  576.122;  341.721;  171.503
417.549;  670.227;  522.718;  318.508
417.838; 1567.997; -205.268; -147.518
418.128; 4992.658;  650.710;  492.522
418.418; 4178.056; -491.272; -579.509
418.708; 2839.515;    9.726;  -48.506
418.997;10444.611; -474.275; -480.505
419.287;10976.171; -733.273; -790.507
419.577;10089.061; -160.283; -123.489
419.866;33657.892; -588.277; -498.501
420.156;35289.152; -242.270;  -55.513
420.446; 6569.260; -112.263;  -26.526
420.735;  976.146; -376.271; -446.512
421.025;  868.655; 1830.722;  315.502
421.314;  812.344; -203.271; -226.512
421.604; 1813.740;   89.732;  233.484
421.893; 1072.440; -705.271; -602.511
422.183;  231.960; -487.263; -461.526
422.472;  396.892;  -36.271; -107.511
422.762;  473.740; -416.266; -379.521
423.051;  277.129; -916.276; -916.503
423.341;  332.398; -491.273; -439.507
423.630;  456.571; -121.265;   15.477
423.919;  395.235;   58.725;   49.495
424.209;  377.866;  -31.263;   56.473
424.498;  490.695;   68.732;  161.483
424.787; 1029.901; -535.267; -601.518
425.077; 3226.119;   34.735;   29.478
425.366; 4898.971; -734.262; -744.528
425.655; 9113.249;  639.727;  259.493
425.945;18259.798; -313.247; -268.554
426.234;10323.793;  117.741;  300.467
426.523; 4729.173;  -86.259; -350.534
426.812; 6506.911;  107.734;  159.480
427.101; 9408.887; -127.269; -323.515
427.390;12067.131;  -55.270;  -86.514
427.680; 3170.143; -624.257; -411.538
427.969;  538.303; -330.255; -301.540
428.258;  329.760; -385.257; -477.536
428.547;  571.686;  449.728;  397.490
428.836; 1446.094; -421.253; -398.543
429.125; 2136.050; -199.259;  -72.534
429.414;  892.467; -330.251; -294.548
429.703; 2925.392; -231.251; -213.548
429.992; 8539.570; -938.250; -828.549
430.281; 5668.553; -397.264; -331.524
430.570;  624.957;  -21.252;   32.454
430.859;  676.248;  279.741;  352.466
431.148;  506.469;  636.752;  631.446
431.437;  309.082;  391.748;  367.454
431.725;  167.511; -544.257; -481.536
432.014;  140.701; -845.253; -756.545
432.303;  423.868; -149.239; -105.569
432.592;  701.610; -460.263; -178.525
432.881; 1026.170; -601.248; -437.554
433.169; 5590.004; -343.255;  -61.540
433.458;11336.801;  445.765;  540.424
433.747; 4934.327; -397.261; -289.529
434.036; 1025.319; -275.242; -280.564
434.324; 2032.432; -395.249; -379.551
434.613; 3410.538;   40.757;  159.437
434.902; 1265.083;  333.760;  439.433
435.190;  783.917;   75.761;  295.431
435.479;  445.220;  -52.245;   83.441
435.767;  148.453; -411.244; -427.561
436.056;  264.015; -340.242; -294.563
436.345;  377.686; -372.240; -223.568
436.633;  409.378;   60.750;  383.450
436.922;  332.063;  208.760;  414.432
437.210;  850.791; -194.236;    1.426
437.499; 2696.199; -583.235; -432.576
437.787; 3017.616; -339.236;  -10.574
438.075;  715.847;   56.761;  162.430
438.364;  947.150;  -44.238;  250.429
438.652;  576.478; -286.226; -138.592
438.941;  165.792;    3.770;  269.415
439.229;   31.654; -665.252; -466.545
439.517;   52.782; -160.234;  -85.577
439.806;   19.868; -501.225; -290.595
440.094;  202.390;  377.766;  650.421
440.382;  259.694; -653.233; -302.580
440.670;  286.949; -361.235; -285.576
440.959;   57.685; -347.223; -170.599
441.247;  105.953; -151.229; -109.587
441.535;  135.281; -266.235;   31.423
441.823;   62.562; -497.234; -305.578
442.111;  223.033;  173.771;  327.412
442.400;  661.094; -628.245; -335.559
442.688; 1891.615; -111.234; -620.579
442.976; 1434.471; -786.213; -450.617
443.264;  165.250; -324.224; -364.597
443.552;  124.804; -258.226;   51.408
443.840;  190.480;  602.765;  876.423
444.128;  128.443;  265.767;  269.420
444.416;   25.560; -694.228; -312.588
444.704;   41.214; -465.219;  -92.605
444.992;   97.981;   -0.226;  240.407
445.280;   76.968; -517.230;  -94.585
445.568;   61.200; -694.212; -396.618
445.856;  453.449; -174.221;  357.398
446.143;  971.685;  -54.220;   -7.604
446.431;  819.139;  -25.228;  625.411
446.719;  298.233;  489.783;  675.391
447.007;  193.412;  481.769;  705.416
447.295;  193.432;  597.777;  871.402
447.583;  116.726; -464.229;  -34.587
447.870;  194.770; -434.221; -202.601
448.158;  502.067; -104.230;  129.415
448.446;  402.736; -800.219; -338.604
448.733;  182.001;   13.776;  269.403
449.021;  270.824;   60.788;  341.382
449.309;  204.614; -296.210;  208.379
449.596;  222.754;  128.783;   59.392
449.884;  165.189; -571.222; -325.600
450.172;  145.244; -756.227; -406.590
450.459;  408.405;  645.786;  780.387
450.747; 2080.803; -411.218; -147.608
451.034; 6687.615;  493.772;  889.411
451.322; 5482.133; -413.214; -170.614
451.609;  477.427;  292.777;  508.403
451.897;  526.976; -550.203; -183.634
452.184; 1600.982; -622.223; -400.598
452.472; 1565.385;   97.792;  269.375
452.759;  356.112;  512.781;  864.395
453.047;  138.972; -407.212; -125.617
453.334;  105.320; -732.219; -216.606
453.621;  106.960; -438.214; -161.615
453.909;  146.618;   13.796;  384.368
454.196;  135.512; -299.199; -123.641
454.483;  230.439;  317.798;  540.364
454.771;  147.238; -215.208;  196.374
455.058;   43.491; -316.207;  102.374
455.345;  110.742;   71.807;  344.347
455.632;   77.694; -128.207;  235.373
455.919;   55.710;  -82.196;  182.354
456.207;  -58.933; -774.198; -450.642
456.494;    9.750; -475.200;  -66.639
456.781;   15.159; -399.202; -198.635
457.068;   85.051; -253.206;  -29.628
457.355;    0.277; -698.206; -401.629
457.642;    6.807; -552.205; -290.630
457.929;    3.933; -778.194; -417.651
458.216;   61.022; -575.212; -354.617
458.503;  210.887; -173.193;  -19.652
458.790;  202.036; -864.208; -630.625
459.077;  265.414;  -77.202;  110.364
459.364;  734.526; -350.195; -210.649
459.651; 1499.624;  -46.206;  220.372
459.938;  746.951; -864.209; -665.623
460.225;  167.317;  132.799;  276.363
460.512;  -27.718; -836.197; -688.645
460.799;  116.877;  -32.218;  320.392
461.086;  101.080; -370.200; -251.640
461.372;   68.467; -509.198; -279.642
461.659;  136.086; -165.196;  108.354
461.946;   91.911; -445.193;  -54.651
462.233;  249.353;  842.800;  888.361
462.519;  331.424; -814.201; -464.639
462.806;  942.607; -768.197; -497.645
463.093;  791.631; -445.191;  -66.656
463.380;  -17.603; -920.186; -824.664
463.666;   62.559; -259.197;  -18.646
463.953;   95.496; -406.195; -243.648
464.239;  179.671; -173.195;  -77.648
464.526;  412.881;  413.806;  743.350
464.813;  388.218; -565.190; -304.658
465.099;  406.812;  606.807;  607.348
465.386;  367.666;  903.807;  921.348
465.672;   71.407; -694.197; -522.645
465.959;   64.135; -598.188; -520.662
466.245;   31.591; -468.193; -359.652
466.532;  113.944; -109.195;   63.352
466.818;  100.021; -357.186; -216.664
467.104;   16.011; -488.182; -415.672
467.391;   11.420; -628.189; -459.658
467.677;   44.975; -289.186;    9.335
467.964;   21.101; -682.189; -471.660
468.250;   99.153; -331.186; -160.665
468.536;   97.871;   90.811;  180.341
468.822;  -27.986; -821.184; -574.668
469.109;  166.040;  351.827;  471.311
469.395;  203.825;  729.808;  787.346
469.681;  200.674;   46.811;  156.341
469.967; 1129.453; -699.188; -382.660
470.254; 2427.686; -494.188; -306.662
470.540; 1575.734; -601.196; -476.646
470.826;  230.197; -488.181; -397.675
471.112;  286.868;  288.816;  113.331
471.398;  104.447; -253.183;  -58.670
471.684;   44.774; -626.177; -447.680
471.970;   -1.500; -918.180; -981.675
472.256;   26.999; -521.192; -441.654
472.542;   31.051; -499.171; -434.691
472.828;   36.882; -743.182; -607.672
473.114;   44.893; -380.166; -283.700
473.400;   38.241; -504.175; -293.684
473.686;   44.200; -452.166; -400.701
473.972;   72.080; -230.174; -131.687
474.258;  -41.035; -925.173; -843.689
474.544;  180.641; -183.178;   -2.679
474.830;  274.017;  -65.175;   45.316
475.116;  385.619; -123.190; -196.658
475.401;  553.828; -558.180; -467.676
475.687;  166.252; -725.180; -718.676
475.973;   12.290; -673.181; -770.673
476.259;  263.220;  736.825;  764.315
476.544;  360.407; -539.176; -437.682
476.830;  710.922; -398.172; -322.690
477.116;  586.006; -430.177; -336.682
477.401;  142.277;  346.820;  358.324
477.687;  -13.109; -289.175; -405.684
477.973;   45.918;   21.819;   28.326
478.258;   -6.755; -448.163; -348.706
478.544;   68.508;   21.815;   61.334
478.829;  -45.494; -818.171; -738.692
479.115;  -49.553; -749.172; -651.690
479.401;   -6.924; -444.174; -449.686
479.686;   32.101; -253.180;  -74.676
479.972;  -26.354; -886.178; -776.680
480.257;   49.045; -258.166;  -65.700
480.542;   -6.765; -614.170; -469.693
480.828;  242.114; 1288.824; 1392.317
481.113;  -19.713; -464.176; -426.683
481.399;   -1.357; -236.161; -202.711
481.684;  -54.831; -620.166; -462.700
481.969;   28.481; -158.159;  -73.713
482.255;    5.995; -439.169; -285.695
482.540;   10.347; -569.178; -441.680
482.825;   13.317; -395.187; -404.663
483.110;   70.524;  -85.169; -105.696
483.396;  159.102; -840.157; -652.718
483.681;  431.880;  543.826;  730.313
483.966;  122.425; -696.160; -700.712
484.251;   17.029; -404.174; -310.687
484.536;    5.155; -356.165; -378.703
484.822;   17.882; -205.173; -218.687
485.107;  -19.710; -599.152; -502.726
485.392;  116.785;  662.836;  541.296
485.677;   81.233;  354.832;  163.302
485.962;  113.350;  160.843;  270.283
486.247;  111.752;  -14.162;   -8.707
486.532;   45.196; -178.166; -325.701
486.817;  165.812;  381.839;  431.291
487.102;  114.748; -453.154; -514.722
487.387;  573.679; -637.156; -652.718
487.672;  969.641; -154.164;  -38.705
487.957;  631.544; -394.160; -286.711
488.241;  168.031; -290.150; -314.729
488.526;  620.016; -280.152; -148.726
488.811; 1003.024; -881.177; -818.680
489.096;  771.251; -666.154; -702.723
489.381;  442.787;    3.847;  162.275
489.666;  313.943; -428.161; -510.710
489.950;  170.054;  558.846;  627.277
490.235;  -22.574; -480.151; -458.728
490.520;  -42.833; -756.161; -723.710
490.804;  -49.944; -827.156; -736.719
491.089;   -0.328; -469.149; -299.732
491.374;   41.214; -132.164;  -75.704
491.658;   -5.667; -817.147; -717.735
491.943;  193.895; -657.152; -609.727
492.227;  282.894; -178.155;  -38.721
492.512;   71.849; -294.157; -341.717
492.797;  -71.459; -713.149; -716.731
493.081;  -33.064; -588.147; -598.735
493.366;  -36.632; -751.161; -635.711
493.650;  211.838;  831.859;  917.254
493.935;   31.607; -648.147; -447.734
494.219;  -38.125; -778.142; -687.743
494.503;  -38.564; -585.150; -487.730
494.788;   48.316;   46.842;   74.285
495.072;   99.757;  184.850;  434.271
495.356;  167.375; -463.148; -343.733
495.641;  442.592; -812.146; -736.736
495.925;  443.186; -976.156; -903.719
496.209;   34.846; -599.149; -451.732
496.494;  -29.299; -763.142; -544.744
496.778;    6.623; -364.154; -360.722
497.062;  -47.215; -819.156; -627.719
497.346;  -34.129; -869.160; -640.711
497.631;  124.053;  580.852;  560.266
497.915;   76.977;  -64.145;  175.261
498.199;   54.202; -341.157; -277.718
498.483;   42.414; -562.152; -508.725
498.767;  187.459;  301.850;  300.271
499.051;  164.519; -126.149; -100.732
499.335;   23.392; -693.149; -739.731
499.619;  -26.638; -381.129; -423.767
499.903;   34.793; -272.155;  -65.721
500.187;   26.280; -588.153; -316.724
500.471;   20.245; -796.152; -595.727
500.755;  126.417;   62.839;  -96.710
501.039;   45.218; -270.155; -357.721
501.323;  111.864;  -21.141;  264.254
501.607;   44.870; -447.163; -503.706
501.891;   -8.796; -607.156; -512.718
502.174;  -12.612; -726.144; -585.741
502.458;   74.548;   89.849;  370.273
502.742;   25.238; -180.138; -191.751
503.026;   79.232; -412.147; -254.734
503.310;  124.880; -437.159; -375.713
503.593;  101.933; -464.147; -325.735
503.877;  121.977; -232.133; -156.760
504.161;  198.158;    2.847;  -50.724
504.444;  132.543; -841.158; -710.716
504.728;  392.063; -487.164; -522.704
505.012;  634.380; -257.150;  -76.729
505.295;  479.143; -417.161; -212.711
505.579;  452.410; -256.156; -496.719
505.862;  625.099; -555.145; -333.738
506.146;  612.557; -681.159; -758.714
506.429;  360.633;  568.841;  461.286
506.713;   56.678; -732.151; -667.728
506.996;  286.573;   90.846;  295.278
507.280;  296.584; -633.165; -474.703
507.563;  208.566; -469.155; -261.721
507.847;   82.006; -423.153; -112.724
508.130;   67.894; -665.161; -456.711
508.413;   78.916; -758.167; -577.700
508.697;  201.066; -151.167;   12.300
508.980;  125.907; -422.153; -312.724
509.263;  -10.637; -466.155; -450.720
509.547;   40.855; -124.150;   82.271
509.830;   47.521; -172.160;  140.289
510.113;   90.885;  128.844;  298.281
510.396;   38.088; -530.152; -300.725
510.680;  244.400; -818.145; -812.738
510.963;  865.602;  184.846;  180.277
511.246;  798.513; -493.150; -357.730
511.529;  299.455; -482.145;  -83.739
511.812;  321.524; -250.134;   10.241
512.095;  226.000; -740.151; -396.728
512.378;   66.037; -317.147; -245.736
512.661;   11.445; -703.137; -623.753
512.944;   23.602; -750.142; -637.744
513.227;   71.217; -170.137; -171.752
513.510;   31.113; -479.144; -671.741
513.793;   24.393; -485.140; -435.747
514.076;  126.632;  -43.127;  -39.771
514.359;  100.472; -294.149; -135.732
514.642;   75.530; -442.142; -567.744
514.925;  651.992;  581.860;  561.253
515.208;  828.095; -498.134; -443.758
515.491;  547.134; -276.133; -182.761
515.773;  318.917; -410.143; -337.742
516.056; 1770.676;  249.864;  409.246
516.339; 2467.205; -754.136; -652.755
516.622; 2015.635; -518.150; -488.730
516.904; 1603.074;  882.857;  975.257
517.187;  746.141; -730.138; -523.752
517.470;  404.073; -568.143; -510.743
517.752;  361.558; -624.136; -470.756
518.035;  299.604; -708.139; -725.749
518.318;  280.655; -799.136; -744.755
518.600; 2005.262; -300.132; -325.762
518.883; 2737.954;  310.858;   88.256
519.165; 1379.534; -585.138; -426.751
519.448;  398.387;  -61.132;  -19.762
519.730;  217.489; -573.126; -415.773
520.013;  349.655;  588.867;  664.240
520.295; 1085.425;  -94.134;  -15.759
520.578; 2449.250; -335.131; -305.764
520.860; 2694.912; -254.132;   56.238
521.143; 1348.085; -763.135; -584.756
521.425;  471.877; -251.125; -279.775
521.707;  629.157; -622.127; -380.771
521.990; 1505.108; -199.127;  167.229
522.272; 1716.670; -116.140;   -4.748
522.554;  892.117; -237.143; -157.742
522.836;  425.948;  -24.134;   99.241
523.119;  237.381; -496.148; -189.734
523.401;  170.756; -448.130; -314.766
523.683;   79.496; -865.137; -693.753
523.965;  240.064;  408.862;  260.248
524.247;  250.423;   54.878;  170.220
524.529;  173.700; -451.134; -367.759
524.812;  325.458;   -3.130;  191.234
525.094;  721.214; -773.138; -631.751
525.376; 1135.936; -143.124;   78.223
525.658;  674.928; -441.136; -339.754
525.940;   12.621; -805.131; -671.764
526.222;   45.331; -188.136;  -88.755
526.504;  139.719; -190.131;   32.237
526.786;  243.628; -960.133; -647.760
527.068;  395.241; -124.123;  -67.778
527.349;  197.374; -865.137; -774.754
527.631;  155.887; -137.132;   22.238
527.913;  106.132; -664.127; -450.771
528.195;  114.220; -761.125; -639.774
528.477;  219.495;  -93.134;  -30.758
528.759;   99.733; -648.130; -522.766
529.040;   33.965; -569.123; -293.778
529.322;   46.948; -235.125;  -10.774
529.604;  159.335;  -47.130;   93.233
529.886;  163.089; -546.126; -302.773
530.167;  134.352;  232.870;  192.235
530.449;   62.037;    1.853;   63.265
530.731;   14.347; -572.122; -459.779
531.012;   65.842; -513.120; -216.784
531.294;   66.356; -118.116;  -43.792
531.575;  132.377;  290.875;  538.225
531.857;   32.740; -548.135; -266.757
532.138;   92.488; -113.141;   40.254
532.420;  179.762;  294.865;  403.244
532.701;  278.405; -722.133; -751.760
532.983;  397.458;  232.867;  182.239
533.264;  158.062; -243.126;  175.228
533.546;  -25.944; -491.136; -508.755
533.827;   69.452;  173.867;   -1.759
534.109;   56.440; -352.135;  -80.757
534.390;  100.216; -725.132; -582.762
534.671;  244.236; -270.135;  -82.756
534.953;  125.968; -751.123; -611.779
535.234;   29.441; -426.117; -255.789
535.515;  -77.549; -891.119; -735.785
535.796;  -20.972; -431.128; -193.770
536.078; -111.414;-1050.124; -904.777
536.359;    7.469;  -22.123;    3.221
536.640;  -30.878; -480.125; -197.774
536.921;  157.891;  225.871;  143.232
537.202;  329.710;  -87.138;  -16.751
537.483;  396.249;  251.869;  377.236
537.764;  148.677;   17.870;   98.235
538.045;  -36.855; -543.134; -371.758
538.326;  -15.558; -596.129; -447.768
538.607;    2.608; -686.127; -476.771
538.888;  152.559;   98.879;    5.218
539.169;  161.528; -704.122; -535.781
539.450;  304.864;  236.871;   16.233
539.731;  217.962; -361.121; -182.783
540.012;  143.917;  199.880;  412.216
540.293;  104.205;   82.876;  158.224
540.574;   14.701; -895.113; -717.796
540.855;  458.786;  435.879;  377.218
541.136;  529.876;   47.878;  139.220
541.416;  256.359; -161.130; -220.766
541.697;  180.495; -274.131; -170.763
541.978;  883.164; -270.135; -315.757
542.259; 1112.308; -211.127; -236.771
542.539;  550.575; -191.116; -186.790
542.820;  182.102;  461.875;  480.225
543.101;  134.227;  -52.145;  -77.738
543.381;   42.433; -638.127; -591.771
543.662;  224.956;  159.873; -254.771
543.942;  479.654; -751.127; -830.770
544.223;  901.527;  193.878;  161.219
544.504;  581.160; -275.124; -182.777
544.784;  511.489; -592.126; -408.773
545.065; 1449.653;  104.884; -254.791
545.345; 1703.226;  227.881;   14.215
545.626; 1111.000;  -14.113; -108.796
545.906;  741.402;   77.869;   98.235
546.186;  327.694;   92.874;  -95.773
546.467;  166.213;   99.877;  -95.778
546.747;  307.324;  264.884;  327.210
547.027;  314.584;   91.876;  111.223
547.308;  283.903; -376.127; -530.770
547.588;  353.918;  299.871;  371.232
547.868;  192.628;  458.870;  588.235
548.149;  170.736;  609.885;  593.207
548.429;  101.631; -347.127; -299.771
548.709;  147.392; -645.120; -461.784
548.989;  413.835;   84.882;   88.213
549.269; 1759.360;   10.868;  139.239
549.550; 4049.042;  215.877;  117.222
549.830; 3625.093; -758.111; -556.799
550.110;  746.875; -468.110; -320.801
550.390;  695.622; -128.122;  -56.779
550.670;  954.146; -868.114; -783.795
550.950;  662.011; -509.121; -471.782
551.230;  181.932;  549.879;  460.218
551.510;  -18.941; -381.121; -326.782
551.790;   22.208; -173.109; -127.803
552.070;  247.788;  940.877; 1181.223
552.350;  329.555; -492.119; -377.786
552.630;  480.230;   -2.121;   77.219
552.909;  306.504;  181.884;   73.209
553.189;  180.267;  -49.132;   33.237
553.469;  150.804; -703.119; -514.786
553.749;  151.784; -469.127; -357.772
554.029;  131.245;   33.883;  -24.790
554.308;  110.015; -154.115;  -37.794
554.588;   48.202; -196.128; -204.770
554.868;   54.311; -366.121;  -47.782
555.147;  106.937; -114.115;  -46.793
555.427;  480.656; -260.116; -250.792
555.707; 3264.985; -284.115; -200.793
555.986; 3911.621; -719.111; -538.800
556.266; 2059.623;   23.884;   72.210
556.546;   72.810; -888.121; -675.782
556.825;  202.944; -657.114; -556.794
557.105; 1491.800; -125.128;   17.230
557.384; 1750.453;  122.884;  187.209
557.664;  673.405; -717.116; -508.792
557.943;   89.811; -557.121; -411.782
558.222;  135.088; -345.118; -344.788
558.502;  241.038; -116.115;  -76.793
558.781;  434.509;  194.885;  499.208
559.061;  331.688; -232.118; -227.788
559.340;  247.693;  302.883;  353.211
559.619;  587.248;   93.884;  148.210
559.899;  833.795; -239.117; -266.789
560.178;  763.363; -778.115; -593.793
560.457; 2617.896; -623.117; -562.790
560.736; 3644.522; -472.111; -482.800
561.015; 2432.423; -500.128; -502.769
561.295;  324.002;  180.893;  215.193
561.574;  324.035;  119.885;  116.207
561.853;  428.087;  274.891;  303.197
562.132;  423.690;  -45.114;  182.206
562.411;  389.680;  396.879;  553.219
562.690;   98.559; -592.115; -458.792
562.969;  129.782;  472.888;  630.203
563.248;  507.903; 2966.878; 2487.219
563.527;  224.847; -290.111; -408.800
563.806;  305.506; -650.127; -521.771
564.085;  326.792; -297.105; -206.810
564.364;  182.873; -594.117; -405.790
564.643;  420.331; -276.121; -223.781
564.922; 1539.131;  221.890;  397.198
565.201; 1536.910; -640.109; -700.803
565.479;  673.757; -297.115; -219.792
565.758;  252.600; -810.128; -712.770
566.037;  403.636; -155.109; -100.803
566.316;  189.753; -286.116;  -28.791
566.595;   37.535;  -17.115;  -12.793
566.873;   89.723; -166.111;  -79.801
567.152;  -63.468; -490.113; -590.797
567.431;    8.774; -113.116;    6.210
567.709;   -0.548; -344.107; -212.807
567.988;  213.169; -810.114; -769.794
568.266;  455.485; -160.115;  -68.793
568.545;  314.188; -644.100; -514.819
568.824;  475.807;  160.885;  356.208
569.102;  437.693; -351.114; -235.794
569.381;  172.506; -492.116; -407.792
569.659;  -40.922; -553.113; -553.796
569.938;   24.376; -743.122; -465.780
570.216;   72.613; -225.109; -225.804
570.494;  -40.228; -632.114; -572.795
570.773;   42.634;  202.879;  114.218
571.051;    4.041; -373.123; -357.778
571.330;   41.451; -221.113; -174.796
571.608;   30.356; -181.098; -173.823
571.886;  -75.434; -671.111; -581.799
572.164;  -78.689; -739.121; -621.782
572.443;  -55.554; -562.105; -512.811
572.721;  -43.454; -399.117; -289.790
572.999;  -38.210; -280.117; -168.788
573.277;   90.614;  379.894;  620.191
573.555;  239.641;   94.894;   37.190
573.834; 1106.215;  -86.117; -114.788
574.112; 1295.280;  880.893;  811.193
574.390;  385.323; -143.111;  -96.801
574.668;    7.208;  -91.112;  -61.797
574.946;  -20.433; -165.106; -187.810
575.224;   -5.291;   71.891;  -16.803
575.502;  -24.724; -200.116; -204.791
575.780;  -82.716; -767.112; -829.798
576.058;  106.222; 1589.889; 1004.200
576.336;  -15.698; -210.110; -129.801
576.614;  -68.491; -511.112; -340.798
576.891;   25.164; -711.115; -823.794
577.169;  384.846; -158.108; -285.805
577.447;  478.454;  169.893;  202.193
577.725;  242.738;  629.888;  854.201
578.003;   -7.939;  -71.112; -371.798
578.280;   80.754; -208.104; -242.812
578.558;   65.963; -450.115; -422.793
578.836;  137.121; -210.114; -145.795
579.114;   41.832; -630.112; -670.797
579.391;   64.841;   -6.117;  -18.789
579.669;  -73.185; -595.114; -704.794
579.947;  139.876; -326.107; -127.806
580.224;  264.901; -692.107; -524.806
580.502;  246.930;  127.893;   76.193
580.779;   18.597;  -42.117;   75.210
581.057;  -66.986; -584.109; -470.804
581.334;  -84.756; -726.102; -695.815
581.612;   35.717;   54.895;  511.190
581.889;  -28.593;  -83.101; -129.818
582.167;  -32.654; -298.099; -190.821
582.444;  -96.598; -845.102; -814.817
582.721;   96.527;  657.899;  715.183
582.999;   35.368; -326.100; -167.821
583.276;  410.345; -812.123; -713.779
583.553;  571.172; -364.102; -294.816
583.831;  169.576; -607.104; -631.812
584.108;   46.819;  349.892;  174.195
584.385;    1.468; -122.102;  -98.815
584.662;  -77.551; -651.111; -828.801
584.940;   29.498;  204.889;  204.199
585.217;  -16.322;  -73.113; -303.796
585.494;   43.532;   71.890;  118.198
585.771;  157.714; -250.109; -354.804
586.048;  413.053; -196.113;  -76.796
586.325;  270.976; -721.110; -773.801
586.602;   85.930;  230.896;  213.188
586.879;  -22.110; -499.100; -580.820
587.156;   37.493; -156.105; -331.810
587.433;  -38.850; -701.102; -667.817
587.710;   60.885;  152.888;  234.202
587.987;  272.723; -264.105; -236.811
588.264;  720.286;  315.888;  387.202
588.541; 1188.957;  -61.104;   26.187
588.818; 2348.616;   72.892;  171.196
589.095; 1982.778; -163.104; -174.812
589.371;  316.512; -459.109; -414.804
589.648;    7.480; -581.107; -437.807
589.925;   -3.653; -517.114; -621.795
590.202;   -4.616; -741.112; -607.798
590.478;   72.875; -166.105;  -73.811
590.755;  217.297; -241.108; -132.806
591.032; 2057.728; -741.110; -699.802
591.308; 2855.145; -732.094; -790.831
591.585; 1471.903; -573.110; -560.802
591.862;   94.126;-1056.102; -950.817
592.138;   26.770; -475.108; -474.805
592.415;  118.606; -486.104; -495.813
592.691; 1274.403;  460.896;  518.188
592.968; 1640.682; -208.098; -123.824
593.244;  767.149; -695.116; -595.790
593.521;   54.577; -105.102;  -42.817
593.797;  -38.726; -810.122; -720.780
594.074;  267.095; -611.096; -588.826
594.350;  587.081;  828.905;  729.172
594.626;  242.049; -303.111; -283.801
594.903;   92.177; -643.101; -645.817
595.179;  168.684;  243.896;  418.187
595.455;    3.606; -136.107; -150.807
595.731;    8.511;  -19.103;  -38.814
596.008;  -36.182; -464.111; -434.800
596.284;   26.592; -187.100; -242.820
596.560;   39.251; -501.093; -493.833
596.836;  164.645; -173.105;  -70.810
597.112;  271.221; -582.108; -437.805
597.388;  241.193;  -49.097;  -48.826
597.665;   94.130;  437.887;  530.203
597.941;  -54.695; -572.089; -658.839
598.217;    6.481; -323.110; -293.802
598.493;  219.866;   61.891; -204.804
598.769;  415.012; -175.100;  -50.819
599.045;  234.549; -490.108; -562.806
599.321;   32.816; -193.100; -261.820
599.597;  116.365; -355.109; -476.804
599.872;  420.132;  409.896;  429.187
600.148;  302.594;  -61.097; -172.826
600.424;  249.603;   91.893;  202.193
600.700;  200.656; -170.107; -280.807
600.976;   94.664; -442.097; -464.825
601.252;  185.587; -226.109; -272.803
601.527;  154.258; -833.104; -840.813
601.803;  120.901; -453.105; -404.812
602.079;  148.112; -124.100; -118.819
602.354;  462.336; -620.092; -531.835
602.630;  701.653; -140.113; -482.796
602.906; 1984.157; -910.101; -863.818
603.181; 5575.154; -627.119; -534.786
603.457; 4727.442;   98.903; -278.826
603.733;  678.488; -605.120; -626.783
604.008;  834.117; -245.106; -164.810
604.284; 2598.553; -636.101; -580.817
604.559; 2252.138;   -3.112;  -42.799
604.835;  422.870; -163.105; -225.810
605.110;  313.796; -732.099; -892.821
605.385;  574.704;  224.907;  267.167
605.661;  542.658; -625.095; -729.829
605.936;  927.399; -664.108; -737.806
606.211;  808.417;  -17.103; -170.815
606.487;  160.717; -329.114; -376.794
606.762;   -9.720; -791.119; -745.786
607.037;  -26.555; -501.105; -433.810
607.313;  -62.723; -589.096; -574.828
607.588;   -4.658; -375.106; -137.810
607.863;   19.582;  -28.101; -143.818
608.138;  169.330;  513.890;  516.198
608.413;   14.575; -576.099; -592.822
608.688;   32.620; -203.108; -267.805
608.964;  156.536; -509.106; -218.809
609.239;  210.617; -107.105; -212.810
609.514;  228.800;  281.895;  240.188
609.789;  537.379; -187.104; -716.812
610.064;  741.826; -435.096; -609.827
610.339;  711.987; -855.109; -799.804
610.614;  967.417; -131.100; -315.820
610.889;  540.675;  215.895;  107.188
611.163;   18.426; -407.104; -591.812
611.438;   55.243;   81.886; -167.794
611.713;   -0.472; -467.101; -499.817
611.988;   17.231; -144.101; -328.818
612.263;  -20.681; -771.102; -717.815
612.538;  192.277;  385.887;  251.204
612.812;  131.568; -832.100; -911.820
613.087;   93.380; -358.098; -338.823
613.362;  -57.719; -497.107; -557.807
613.637;   36.588;  261.897;  138.186
613.911;   -5.189; -256.092; -345.835
614.186;   85.079; -249.107; -292.807
614.460;  549.228; -842.081; -758.854
614.735;  631.428;  -55.087;  -17.843
615.010;  123.868;   43.912;  -82.841
615.284;  224.445;  360.892;  246.195
615.559;  299.310; -792.092; -955.835
615.833;  243.948;  -76.099;  -87.822
616.108;  -21.353; -225.090; -390.837
616.382;  137.904;  274.913;  402.156
616.656;  122.222; -241.090; -232.837
616.931;  419.249; -785.099; -700.822
617.205;  897.709; -973.104; -979.813
617.480;  805.500;  -91.125;    6.225
617.754;  125.398; -396.125; -128.774
618.028;   -2.306; -369.129; -382.768
618.302;   58.293;   73.892;  -25.805
618.577;  -58.010; -371.103; -518.815
618.851;  -68.816; -399.109; -600.803
619.125;  -49.050; -335.134; -378.759
619.399;  -39.641; -244.104; -374.813
619.673;  -52.968; -330.115; -515.792
619.947;  -53.454; -333.114; -448.795
620.222;  -21.125; -198.110; -204.801
620.496;   -1.089;  -47.121;  -96.782
620.770;    1.153; -187.122;  -93.781
621.044;  160.318;  323.895;  346.190
621.318;  606.439; -653.120; -614.783
621.592;  556.737; -430.121; -409.783
621.866;  280.089; -476.112; -572.799
622.140;    7.901; -207.116; -356.791
622.413;   52.268;  138.889;  112.200
622.687;  -50.571; -746.101; -492.817
622.961;   19.018; -130.108; -143.805
623.235;  -55.956; -633.111; -661.800
623.509; -110.200; -816.105; -848.811
623.783;    6.852;  -12.107;   48.193
624.056;  -27.160; -254.120; -280.783
624.330;   42.783;   63.888;   -3.797
624.604;   27.023; -271.116; -355.790
624.877;   62.129;  180.890;   26.198
625.151;   24.316; -249.114; -238.794
625.425;  -44.314; -150.103; -283.814
625.698;  -67.351; -367.119; -374.785
625.972; -106.918; -799.110; -765.802
626.245;   60.999;  685.884;  484.210
626.519;  -64.956; -426.120; -340.784
626.792;  -45.320; -192.107; -380.807
627.066;  -86.054; -485.122; -662.779
627.339; -110.797; -736.110; -663.802
627.613;   31.243;  351.880;  148.216
627.886;   39.158;  187.891; -612.803
628.160;  -14.861;  312.880; -161.783
628.433;  -95.047; -695.125; -703.775
628.706;  -90.881; -517.120; -615.784
628.979;   17.059;  296.876;  117.223
629.253;  -87.946; -785.119; -833.786
629.526;  294.588; -334.126; -253.772
629.799;  253.566; -641.123; -479.778
630.072;  112.795; -497.128; -516.769
630.346;  -92.101;-1115.116;-1080.790
630.619;  369.656; -467.107; -545.808
630.892;  513.595;  709.889;  593.200
631.165;  285.484;  790.896;  679.187
631.438;  -93.114;-1092.112;-1055.798
631.711;   38.819;  453.877;  257.221
631.984;  -67.430; -523.117; -624.789
632.257;  -75.709; -636.117; -681.789
632.530;  -62.276; -412.119; -433.785
632.803;   13.414; -109.115;    7.207
633.076;  -82.562; -360.123; -422.777
633.349;    4.599;  173.872;  121.231
633.622;  -39.302; -187.119; -240.785
633.895; -136.860; -903.120; -823.783
634.167;  -72.060; -496.126; -525.773
634.440;  -22.569;  -19.116; -137.792
634.713;   -6.372;  -22.119; -120.786
634.986;   68.864;  593.871;  453.233
635.258;  -71.888; -507.115; -597.793
635.531;   99.887;  742.882; -343.788
635.804;  -30.856; -303.117; -318.789
636.077;  -91.398; -830.116; -852.791
636.349;  -29.864; -586.115; -474.793
636.622;  349.337; 1695.874; 1392.228
636.894;  183.819; -474.120; -909.784
637.167;   95.256; -836.127; -789.771
637.439;   16.427; -278.128; -213.770
637.712;  -49.637; -312.126; -293.772
637.984;  -88.398; -635.116; -707.791
638.257;  357.213;  515.877;  488.222
638.529;  477.654; -881.125; -924.776
638.802;  203.595; -508.128; -449.769
639.074; -116.898; -927.122; -952.781
639.346; -122.033; -942.135; -930.757
639.619;    2.353;  -79.142; -319.744
639.891;   -2.954;  -83.122; -168.779
640.163;  -83.327; -689.122; -756.780
640.435;   15.775;  273.878;  103.220
640.708;   17.776;  -72.122; -132.780
640.980;  -38.322; -366.122; -362.781
641.252;  170.980;  -25.121;  -71.781
641.524; 1644.782;  580.879;  573.219
641.796; 1634.434;-1094.121; -907.782
642.068;  277.835; -191.121; -300.782
642.340;  -60.163; -486.121; -566.783
642.613;   26.764;  294.880;  323.217
642.885; -112.084; -787.120; -878.783
643.157;  -55.532; -810.120; -658.784
643.428;   64.269;  170.880;  218.216
643.700;  -75.204; -498.120; -425.784
643.972;  -31.527;  -16.119; -133.785
644.244;  -83.300; -474.119; -559.785
644.516;  -53.049; -250.119; -114.786
644.788;   65.103;  662.881;  548.214
645.060;  -15.445;  -12.119; -124.786
645.332; -102.243; -525.118; -535.787
645.603;   33.909;  479.882;  342.213
645.875;  -68.290; -334.118; -369.787
646.147;  174.537; 1487.882; 1242.212
646.418;  -86.586; -931.117; -918.788
646.690;   91.216; -714.117; -715.789
646.962;    6.718; -413.117; -451.789
647.233;  -10.406;   15.883;   11.211
647.505; -106.929; -595.117; -475.790
647.776;   18.498;  328.884;  229.210
648.048;   -9.925; -248.116; -418.790
648.320;  -94.148; -752.116; -679.791
648.591; -148.647;-1055.116; -958.791
648.862;  -81.270; -505.116; -577.792
649.134;   13.857;  115.885;  198.208
649.405;  -61.591; -661.115; -618.792
649.677;  -65.590; -475.115; -598.793
649.948;  -15.488; -181.115; -296.793
650.219;  -16.086;  -37.115; -147.793
650.491;  -73.584; -431.114; -520.794
650.762; -115.532; -705.114; -731.794
651.033;  -86.631; -437.114; -424.795
651.304; -107.154; -743.114; -728.795
651.576;  -65.327; -680.114; -645.795
651.847;  -34.850; -250.113; -140.796
652.118;  -28.398;  -32.113; -189.796
652.389; -107.797; -639.113; -722.796
652.660;  -31.770; -147.113;  -89.797
652.931; -141.468; -897.112; -871.797
653.202;  -84.241; -382.112; -541.798
653.473;  -75.539; -633.112; -533.798
653.744;  118.912; -595.112; -590.798
654.015;  111.839; -356.112; -303.799
654.286;  -65.984; -642.111; -663.799
654.557;  -65.232; -586.111; -521.799
654.828; -170.156;-1114.111;-1088.800
655.099;  -78.529; -404.111; -291.800
655.370;  -95.402; -427.111; -543.801
655.641; -117.050; -656.110; -714.801
655.911; -101.798; -618.110; -638.801
656.182;   65.778;  437.890;  387.198
656.453;  104.855;  830.890;  746.198
656.724;  -80.768; -466.110; -426.802
656.994;  -91.541; -553.109; -568.803
657.265; -107.589; -862.109; -873.803
657.536;  -91.288; -500.109; -377.804
657.806; -112.786; -561.109; -593.804
658.077; -145.284; -866.109; -950.804
658.347;  -90.932; -523.108; -598.805
658.618; -114.905; -646.108; -694.805
658.888;  -22.579;  -41.108;  112.195
659.159;  -74.427; -432.108; -548.806
659.429;  -30.875; -292.108; -349.806
659.700;    3.352; -435.107; -390.807
659.970;  -17.922; -370.107; -359.807
660.241;    2.230; -754.107; -921.807
660.511;  423.507; -147.107; -174.808
660.781;   70.934; -793.106; -748.808
661.052;  -42.789; -222.106; -381.808
661.322;  -19.488;   21.894;   -9.809
661.592;    0.114;  257.894;  148.191
661.862;  -75.034; -369.106; -382.810
662.133;  -87.107; -551.105; -502.810
662.403; -121.805; -770.105; -676.810
662.673;  -61.604; -256.105; -213.811
662.943; -118.827; -612.105; -551.811
663.213;  -13.525;  -85.105;  -81.811
663.483;  -77.073; -593.104; -568.812
663.753;  -49.521; -194.104; -152.812
664.023;  -19.695;   68.896;  -32.813
664.293;  -73.918; -319.104; -126.813
664.563; -106.916; -694.104; -648.813
664.833; -128.264; -743.103; -608.814
665.103; -126.738; -730.103; -793.814
665.373; -124.336; -766.103; -806.814
665.643; -100.409; -863.103; -918.815
665.913;   21.643; -534.103; -714.815
666.182;  125.870; -685.102; -719.816
666.452;  227.896;  -22.102;  -89.816
666.722;  -38.827; -724.102; -784.816
666.992; -145.175; -948.102; -921.817
667.261;  -89.623; -824.102; -808.817
667.531;  188.929;  134.899;   45.183
667.801;  516.230; -440.101; -412.818
668.070;  233.532;  714.899;  697.182
668.340; -109.741; -883.101; -840.819
668.609;   86.086;  588.900;  301.181
668.879;  -76.037; -490.100; -558.819
669.149;  -84.011; -539.100; -516.820
669.418;  -97.334; -698.100; -726.820
669.688;  -58.582; -482.100; -666.820
669.957;   47.920; -423.099; -546.821
670.226;  -34.279; -268.099; -331.821
670.496; -101.952; -431.099; -635.822
670.765;  -85.100; -418.099; -501.822
671.034; -134.373; -872.099; -828.822
671.304;  -16.196;   55.902; -111.823
671.573; -153.145;-1085.098; -957.823
671.842;   46.407; -380.098; -294.823
672.112;   12.559; -692.098; -586.824
672.381;  -14.064; -239.098; -214.824
672.650; -147.912;-1005.097;-1021.825
672.919;  -96.411; -631.097; -507.825
673.188; -110.459; -681.097; -878.825
673.457; -158.107;-1101.097;-1143.826
673.726;  -91.080; -579.096; -646.826
673.995;  -60.703; -533.096; -479.826
674.265;  -24.502; -263.096; -333.827
674.534;   -4.450; -183.096; -235.827
674.802;   -6.698; -618.096; -703.828
675.071;  851.779; -886.095; -801.828
675.340; 3298.055; -464.095; -339.828
675.609; 1102.857;  103.905;   82.171
675.878;   34.259; -949.095; -893.829
676.147;   16.761;  -26.095;   -8.829
676.416;   52.463; -210.094; -294.830
676.685;  634.239; 1000.906; -622.830
676.953;   66.941; -603.094; -452.831
677.222;  -40.982; -193.094; -273.831
677.491;  -17.855;  -24.094; -127.831
677.759;  -16.303;   11.907;  172.168
678.028;  -26.502; -279.093; -222.832
678.297;  -13.850;   71.907;  197.168
678.565; -141.373; -898.093; -944.833
678.834;  -56.596; -311.093; -268.833
679.102;  -80.344; -411.092; -391.834
679.371; -138.868; -898.092; -727.834
679.639; -138.466; -797.092; -786.834
679.908; -123.264; -794.092; -724.835
680.176; -160.837; -895.091; -941.835
680.445;  -81.036; -346.091; -352.835
680.713;  -20.984;  -58.091;  -23.836
680.982; -103.882; -523.091; -525.836
681.250; -112.880; -578.091; -507.837
681.518; -108.553; -534.090; -751.837
681.787;  -19.252; -204.090; -167.837
682.055;  -73.400; -490.090; -422.838
682.323; -152.773; -993.090; -992.838
682.591;   16.579; -216.090; -538.838
682.859;   68.106;    9.911;  -35.839
683.128;   11.857;  232.911;  497.161
683.396; -165.516;-1102.089;-1122.840
683.664;  -47.539; -241.089;   21.160
683.932;    0.413;  144.911;  -76.840
684.200;  -79.585; -576.088; -320.841
684.468;  -31.484;  -73.088; -124.841
684.736;  -42.832; -214.088; -175.841
685.004; -139.655;-1024.088; -982.842
685.272;  -75.528; -880.088; -774.842
685.540;  -58.477; -499.087; -557.843
685.808;  -92.500; -651.087; -682.843
686.076; -103.323; -894.087; -969.843
686.343;  -87.646; -601.087; -815.844
686.611;   34.981; -195.087; -224.844
686.879;  387.882; -530.086; -553.844
687.147; 2816.809; -483.086; -480.845
687.414;  798.911;  -12.086; -169.845
687.682;   -8.612; -658.086; -757.846
687.950;  256.565;  259.915;  263.154
688.217;   -7.109; -792.085; -760.846
688.485;  -18.982; -632.085; -636.847
688.753;  439.720;  -11.085; -102.847
689.020;  112.222; -820.085; -851.847
689.288; -107.176; -853.084; -787.848
689.555;  -36.100; -195.084; -148.848
689.823;  -45.973; -241.084; -345.849
690.090;  -90.971; -546.084; -651.849
690.358; -154.269; -877.084; -897.849
690.625;    6.657;  120.917;   45.150
690.892;  -72.941; -403.083; -369.850
691.160;  -26.639;   72.917;  -35.850
691.427;   10.738;  141.917;  130.149
691.694; -133.435; -855.083; -929.851
691.962; -155.909;-1177.082;-1060.852
692.229;    7.843;  127.918;   56.148
692.496;   50.670;  130.918;  -49.852
692.763;   11.172; -164.082; -201.853
693.031;  -64.501; -739.082; -716.853
693.298;  -57.700; -509.081; -368.853
693.565;  259.302; -155.081; -163.854
693.832; 1054.579;   -5.081;   -9.854
694.099;  121.131; -643.081; -642.855
694.366;  -55.692; -882.081; -896.855
694.633;  -64.141; -920.080; -633.855
694.900;  748.161; 4367.920; -114.856
695.167;  351.963; -214.080; -380.856
695.434;   75.165; -646.080; -623.856
695.701;  180.316;  121.921;  -61.857
695.968;  410.093; -365.079; -361.857
696.234;  995.495; -415.079; -646.858
696.501;10365.322; -776.079; -614.858
696.768; 5174.949; -554.079; -617.858
697.035;  304.275; -632.078; -667.859
697.302;   21.902; -448.078; -552.859
697.568;   18.204; -458.078; -497.859
697.835;  -35.844; -683.078; -624.860
698.102;  -30.592; -498.078; -407.860
698.368;   68.284;  384.923;  396.139
698.635;  -36.664;  -47.077; -424.861
698.901;  -30.662; -240.077; -348.861
699.168;   49.390; -534.077; -456.862
699.435;   60.717;  -72.077;  -13.862
699.701; -108.757; -868.076; -764.862
699.968;    5.570;  144.924; -441.863
700.234; -108.228; -783.076; -822.863
700.500;  -54.676; -448.076; -539.864
700.767;   -6.300;   -1.075;   26.136
701.033; -136.048;-1015.075; -963.864
701.299;  -59.721; -450.075; -483.865
701.566;  128.406;  950.925;  763.135
701.832;    4.258;  -31.075;  -76.865
702.098;  -97.566;-1054.074;-1034.866
702.365;  -95.564;-1098.074;-1030.866
702.631;  -34.737;-1038.074;-1063.867
702.897; 1244.815; -765.074; -676.867
703.163; 2019.692;  348.926;  254.133
703.429;  144.493; -256.073; -273.868
703.695;  -26.505; -796.073; -792.868
703.961;   11.097; -214.073; -210.868
704.227;  -51.451; -630.073; -725.869
704.493;  140.426;  613.927;  510.131
704.759;  -25.598; -565.072; -540.870
705.025;   36.104; -203.072; -194.870
705.291;   -4.144; -666.072; -562.870
705.557;  193.808;  719.928;   34.129
705.823;   36.859; -742.072; -694.871
706.089;  142.511; -307.071; -326.871
706.355;  401.463; -315.071; -244.872
706.620; 5958.840; -776.071; -729.872
706.886; 7951.117; -309.071; -362.873
707.152;  723.468; -818.070; -973.873
707.418;  -21.255;-1153.070;-1186.873
707.683;    1.322; -550.070; -530.874
707.949;  -55.001; -547.070; -578.874
708.215;    5.501; -129.070; -207.874
708.480;  -25.048; -520.069; -420.875
708.746;   97.554;   68.931;   28.125
709.011;  -65.694; -578.069; -612.876
709.277;  -83.892; -538.069; -543.876
709.542;  -46.615; -428.069; -387.876
709.808;   -4.514;  -59.068;   89.123
710.073;  -84.787; -577.068; -695.877
710.339;  -34.535; -242.068; -228.877
710.604;   57.217; -780.068; -845.878
710.869;  276.743; -277.068; -366.878
711.135;  -81.805; -715.067; -628.879
711.400;  -80.003; -507.067; -608.879
711.665;  -61.676; -404.067; -479.879
711.931;  -96.399; -661.067; -677.880
712.196; -123.273; -876.067; -954.880
712.461;   86.729; -402.066; -490.880
712.726;  111.081; -727.066; -771.881
712.991;  -89.842; -647.066; -664.881
713.256;  -50.915; -350.066; -332.882
713.521;  -53.439; -417.065; -381.882
713.787;  -61.287; -454.065; -472.882
714.052;  -22.335; -214.065; -400.883
714.317;  -94.433;-1045.065; -981.883
714.581; 1092.019; -374.065; -268.883
714.846; 1475.245; -822.064; -888.884
715.111;  136.322;  261.936;  257.116
715.376;  -25.576;  -86.064; -223.885
715.641;  -24.399; -365.064; -367.885
715.906;  246.602;   15.936; -551.885
716.171;  108.954;  221.937;  209.114
716.436;   31.131;  -78.063; -104.886
716.700; -115.542; -818.063; -692.886
716.965; -119.915; -794.063; -807.887
717.230;  -71.339; -339.063; -392.887
717.494;  -18.512;  -40.062; -134.888
717.759; -110.760; -784.062; -640.888
718.024;   -2.758;  269.938;  250.112
718.288;   57.944;  685.938;  395.111
718.553; -144.205; -803.062; -977.889
718.817; -145.628; -883.061; -899.889
719.082;  -37.926; -115.061; -125.890
719.346; -143.524;-1000.061; -947.890
719.611;  -67.422; -300.061; -255.891
719.875; -107.321; -568.060; -537.891
720.140;  -73.569; -453.060; -603.891
720.404;   19.908; -136.060; -249.892
720.668;  729.110; -475.060; -411.892
720.933;  279.211;  146.940;  137.108
721.197; -106.362; -667.059; -600.893
721.461; -134.535; -851.059; -826.893
721.725;  -23.533;  -21.059; -250.894
721.990;  -58.706; -284.059; -204.894
722.254;  -26.930;  -26.059; -108.894
722.518;  -82.728; -286.058; -442.895
722.782;  -99.976; -743.058; -594.895
723.046;  114.651;  614.942;  570.105
723.310;   32.728;  374.942;  210.104
723.574; -109.421; -654.058; -614.896
723.838; -107.069; -576.057; -642.897
724.102;  -48.267; -226.057; -239.897
724.366; -132.590;-1032.057; -978.897
724.630; -108.488; -749.057; -571.898
724.894;  -88.212; -722.057; -514.898
725.158;  -12.435;   38.944; -295.898
725.422;  -42.033; -394.056; -327.899
725.685;  -67.956; -441.056; -349.899
725.949;  -94.380; -566.056; -519.900
726.213;  -81.678; -732.056; -811.900
726.477;  122.649;-1020.055; -933.900
726.740;  133.226; -274.055; -104.901
727.004;  317.653; -384.055; -510.901
727.268; 3425.804; -442.055; -400.901
727.531;  917.331; -961.055; -775.902
727.795;  -39.592; -713.054; -673.902
728.059;  -60.115; -552.054; -557.903
728.322; -101.838; -841.054; -669.903
728.586;   -5.387; -692.054; -701.903
728.849;  -77.760; -695.053; -756.904
729.112; -124.408; -812.053; -912.904
729.376; -128.531; -959.053; -905.904
729.639;  -73.379; -536.053; -536.905
729.903; -110.428; -733.053; -699.905
730.166;  -53.426; -437.052; -399.906
730.429;  -49.649; -317.052; -468.906
730.693;  -80.197; -355.052; -894.906
730.956;  202.979;  810.948;  651.093
731.219;  625.356; -310.052; -103.907
731.482;   92.483;-1003.051; -894.907
731.745;   59.510; -794.051; -935.908
732.009;   17.137;  -30.051;   50.092
732.272; -103.237; -904.051; -771.909
732.535;  -58.710; -300.051; -310.909
732.798; -156.008;-1083.050;-1166.909
733.061;  -53.156; -430.050; -456.910
733.324;    2.721;   31.950; -180.910
733.587;   45.997;  290.950;  365.090
733.850;  -76.801; -973.049;-1050.911
734.113;   15.326;   33.951;   32.089
734.376;  -13.122; -328.049; -447.912
734.639;  210.005; 1188.951; 1011.088
734.901;   53.056; -180.049; -402.912
735.164;  457.358; -883.048; -837.913
735.427; 1145.310; -166.048; -355.913
735.690;  107.987; -205.048; -234.913
735.952;  -42.162; -923.048; -925.914
736.215;  -42.060;-1113.048;-1009.914
736.478;   14.967; -771.047; -774.915
736.740;  186.819;   33.953;  129.085
737.003;  622.196; -658.047; -672.915
737.266; 3550.547;  -94.047;   46.084
737.528;  400.774; -682.047; -660.916
737.791;  302.301; -316.046; -327.916
738.053;  811.678;  465.954;  649.083
738.316;10833.555; -162.046; -136.917
738.578; 7362.156; -770.046; -736.918
738.841;  408.658; -382.046; -446.918
739.103;  149.535; -875.045; -777.918
739.365;  464.987;   79.955;  -69.919
739.628;  -17.937; -884.045; -805.919
739.890;  -43.810; -758.045; -710.919
740.152;  -49.508; -692.044; -754.920
740.414;  -18.656; -408.044; -359.920
740.677;  -52.354; -785.044; -634.921
740.939;  -38.378; -587.044; -487.921
741.201;  226.124; -432.044; -572.921
741.463;   21.226; -689.043; -745.922
741.725;   17.653;  -21.043; -199.922
741.987;   40.680;  220.957;  116.078
742.249;  -11.594; -751.043; -859.923
742.511;  167.283; -703.043; -794.923
742.773;    2.835; -546.042; -546.924
743.035;  123.587;  796.958;  533.076
743.297;  -46.061; -963.042;-1013.924
743.559;  672.615; -278.042; -262.925
743.821;   50.317; -735.042; -744.925
744.083;   10.894;  -44.041; -149.925
744.345;  -87.304; -869.041; -892.926
744.607;   37.647;   75.959;  122.074
744.868;  -55.976; -490.041; -554.927
745.130; -102.249; -994.041;-1008.927
745.392;   23.603;   -1.040;  -44.927
745.653;  -11.520; -411.040; -378.928
745.915;  151.656;  896.960;  631.072
746.177;   44.508;   35.960;  -43.928
746.438;  -20.040; -428.040; -543.929
746.700;  -57.938; -947.039; -988.929
746.961;  -10.111; -659.039; -740.930
747.223;  115.165; -190.039;  -74.930
747.484;   87.592; -391.039; -471.930
747.746;  130.494;  -23.038; -106.931
748.007;   86.146; -647.038; -689.931
748.269;  279.773; -468.038; -440.931
748.530;  427.624; -852.038; -638.932
748.791;  260.076; -354.038; -420.932
749.053;  395.678;  286.963;  163.067
749.314;  408.730; -236.037; -169.933
749.575;  470.306; -945.037; -905.933
749.836;  772.508; -217.037;   86.066
750.098; 2345.610;  -60.037;  -21.934
750.359;34278.287;  414.964;  555.066
750.620; 8473.314; -121.036; -220.935
750.881;  924.865; -585.036; -513.935
751.142; 1235.942; -950.036; -938.936
751.403;16457.219; -789.036; -705.936
751.664; 6992.446;-1034.035; -999.936
751.925;  468.273; -175.035; -262.937
752.186;  240.624; -298.035; -278.937
752.447;  118.226; -590.035; -445.937
752.708;   42.078; -532.035; -648.938
752.969;    7.330; -566.034; -576.938
753.230;   -9.368; -777.034; -672.939
753.491;    0.633; -650.034; -631.939
753.751;   50.335;  109.966;   19.061
754.012;   92.012;  258.967;  181.060
754.273;   54.289; -174.033;  -71.940
754.534;  -13.785; -487.033; -580.940
754.794;  -96.483; -926.033; -911.941
755.055;  149.544; 1051.967;  881.059
755.316;  -43.654; -700.032; -566.942
755.576;  -35.877; -606.032; -576.942
755.837;  -44.651; -527.032; -695.942
756.097;  -50.424; -530.032; -564.943
756.358;  -85.172; -725.032; -770.943
756.618;  -65.745; -705.031; -641.943
756.879;  -12.418; -254.031; -349.944
757.139; -139.842;-1098.031;-1116.944
757.400;  -67.340; -538.031; -553.945
757.660;  -29.713; -365.031; -401.945
757.920;    2.989; -266.030; -228.945
758.181;  -32.159; -468.030; -351.946
758.441;  -99.108; -870.030; -809.946
758.701;  -19.331; -308.030; -215.946
758.961;  -14.854; -220.030; -278.947
759.222;  -59.927; -574.029; -502.947
759.482;  -85.751; -683.029; -723.948
759.742;  -88.499; -706.029; -547.948
760.002;   -2.897;  -83.029; -143.948
760.262;   16.205;   50.972;  182.051
760.522;  -44.393; -498.028; -574.949
760.782;  -64.367; -738.028; -612.949
761.042;  -39.865; -618.028; -573.950
761.302;   42.687;   55.972;  -18.950
761.562;   43.864; -164.027; -154.951
761.822;   58.666; -710.027; -551.951
762.082;  -35.883;-1104.027;-1093.951
762.342;   57.694; -328.027; -403.952
762.601;   67.671; -567.027; -506.952
762.861;  330.223; -281.026; -207.952
763.121;  395.875; -406.026; -411.953
763.381; 7322.351; -499.026; -485.953
763.640; 7761.153; -139.026; -307.954
763.900;  355.780; -242.026; -203.954
764.160;   76.632; -458.025; -491.954
764.419;  -17.117; -726.025; -782.955
764.679;  -70.115; -795.025; -726.955
764.939;  -15.613; -124.025; -210.955
765.198;  -81.336; -608.025; -563.956
765.458;  -78.034; -710.024; -612.956
765.717;  -87.733; -454.024; -590.957
765.976;  -59.681; -428.024; -411.957
766.236;  -87.854; -475.024; -610.957
766.495;   21.098;  260.977;   73.042
766.755; -101.525;-1090.023; -987.958
767.014;   -1.749; -594.023; -665.958
767.273;  -68.172; -373.023; -397.959
767.533;  -53.345; -228.023; -307.959
767.792;  -29.518; -151.022; -188.960
768.051;  -69.541; -228.022; -276.960
768.310;  -77.290; -546.022; -650.960
768.569;   -1.813; -161.022;    4.039
768.828;  -47.561; -285.022; -363.961
769.088; -118.984;-1050.021; -942.961
769.347;  -83.508; -755.021; -599.962
769.606; -101.456; -876.021; -857.962
769.865; -115.554;-1016.021;-1033.963
770.124;   -9.327; -411.021; -336.963
770.383;  -59.125; -778.020; -910.963
770.641;   -1.799; -398.020; -400.964
770.900;  -50.497; -953.020; -846.964
771.159;  -43.820; -851.020; -951.964
771.418;  -15.243; -917.020; -779.965
771.677;  122.559; -224.019; -293.965
771.936;  157.310; -794.019; -865.966
772.194; 2435.787; -465.019; -437.966
772.453;11362.389; -213.019; -391.966
772.712;  783.366;  416.982;  329.033
772.970;  122.118;   32.982;   63.033
773.229;   88.244;  -22.018;  102.033
773.488;  -79.879; -814.018; -770.968
773.746;   47.248;  296.982;  335.032
774.005;   -2.700;  190.983;  -22.969
774.263;    1.476;  243.983;  177.031
774.522;  -56.022; -422.017; -548.969
774.780;  -76.570; -484.017; -417.970
775.039;  -77.643; -551.017; -531.970
775.297;  -31.216; -135.016; -351.970
775.555;  -95.865; -489.016; -612.971
775.814; -117.188; -618.016; -570.971
776.072; -123.611; -749.016; -740.971
776.330;  -95.759; -630.016; -520.972
776.589; -129.757; -703.015; -721.972
776.847; -124.006; -645.015; -624.973
777.105; -171.729;-1016.015;-1032.973
777.363;  -91.652; -459.015; -454.973
777.621; -140.050; -660.015; -717.974
777.879;  -22.323;  -42.014;   32.026
778.138;  -99.447; -554.014; -717.974
778.396; -108.545; -585.014; -526.975
778.654; -170.393;-1015.014; -970.975
778.912;  -70.091; -269.014; -371.976
779.170; -129.465; -880.013; -803.976
779.427; -160.213; -922.013; -897.976
779.685; -145.711; -880.013; -832.977
779.943;  -97.984; -654.013; -593.977
780.201; -161.832; -964.012; -883.978
780.459; -118.356; -651.012; -610.978
780.717;  -84.529; -440.012; -390.978
780.974;  -93.077; -449.012; -490.979
781.232;  -75.150; -358.012; -338.979
781.490;  -81.423; -551.011; -472.979
781.747;  -99.997; -555.011; -476.980
782.005;   25.030;  462.989;  254.020
782.263; -172.818; -542.011;-1004.981
782.520;  -83.066; -326.011; -501.981
782.778; -173.064;-1013.010;-1051.981
783.035; -169.263; -962.010; -938.982
783.293;  -71.936; -248.010; -206.982
783.550;  -53.709; -134.010; -198.982
783.808; -143.482; -764.010; -776.983
784.065; -173.256; -745.009; -874.983
784.322;  -52.004;   25.991;  -86.984
784.580; -142.452; -915.009; -771.984
784.837; -105.650; -392.009; -466.984
785.094; -131.523; -783.009; -762.985
785.352;  -72.597; -304.008; -404.985
785.609; -119.070; -934.008; -839.985
785.866;  -75.093; -345.008; -401.986
786.123;  -83.191; -639.008; -583.986
786.380; -120.364; -665.008; -604.987
786.637;  -55.988; -225.007; -380.987
786.895;  -27.161; -456.007; -543.987
787.152;  -44.184; -135.007; -267.988
787.409;  -48.432; -123.007; -225.988
787.666;  -91.955; -299.006; -378.988
787.923; -106.354; -616.006; -695.989
788.179; -107.452; -551.006; -584.989
788.436; -117.450; -585.006; -585.990
788.693;  -29.723;  -92.006;  -87.990
788.950;  123.328; -125.005; -112.990
789.207;  162.580; -381.005; -372.991
789.464;  -51.618; -161.005; -301.991
789.720;  -10.141;  150.995;  110.009
789.977; -165.939;-1003.005; -671.992
790.234;  -31.588;   44.996;  -66.992
790.490; -167.986; -884.004;-1031.993
790.747;  -39.834;  -85.004;   22.007
791.004;  -33.032; -426.004; -348.993
791.260;  -79.080; -430.004; -560.994
791.517; -109.504; -843.003; -788.994
791.773;  -52.202; -379.003; -342.994
792.030; -114.375; -596.003; -660.995
792.286; -107.498; -686.003; -636.995
792.543;  -21.546;  -74.002; -159.995
792.799;  -66.820; -584.002; -382.996
793.055; -154.068;-1179.002;-1210.996
793.312;  -96.041; -827.002; -816.997
793.568;  -66.589; -746.002; -599.997
793.824;   -2.213; -226.001; -284.997
794.081;    8.839; -447.001; -508.998
794.337;   53.341; -664.001; -561.998
794.593; 1290.118; -319.001; -271.999
794.849; 6203.395; -746.001; -772.999
795.105;  290.546; -270.000; -261.999
795.361;    8.398; -490.000; -457.000
795.617;  -55.625; -875.000; -945.000
795.873;  -57.600; -360.000; -407.000
796.129;  -41.600; -368.000; -306.000
796.385;  -32.725; -124.000; -156.000
796.641;   66.150;  412.000;  550.000
796.897;  -76.675; -666.000; -635.000
797.153;   71.425;  453.000;  357.000
797.409;  -92.250; -785.000; -868.000
797.665;  -64.550; -625.000; -732.000
797.921;  -82.275; -775.000; -762.000
798.176;  -56.750; -744.000; -747.000
798.432;  -50.675; -824.000; -596.000
798.688;  -84.025;-1174.000;-1078.000
798.943;   77.125; -165.000; -147.000
799.199;    0.775;-1005.000; -959.000
799.455;  249.125;  369.000;  316.000
799.710;  154.725; -813.000; -380.000
799.966;  287.500; -162.000; -160.000
800.221;  509.375; -638.000; -721.000
800.477;10667.075; -743.000; -710.000
800.732; 9013.250; -773.000; -800.000
800.988;  646.250;  205.000;  -19.000
801.243; 2091.825; -454.000; -344.000
801.498; 8649.975; -814.000; -739.000
801.754;  493.350; -289.000; -163.000
802.009;   84.625; -257.000; -335.000
802.264;  -39.900; -967.000;-1033.000
802.520;   25.500;  222.000;   -3.000
802.775;  -68.900; -524.000; -359.000
803.030;   62.025;  395.000;  356.000
803.285; -110.325; -840.000; -903.000
803.540;  -65.325; -686.000; -699.000
803.795;  -60.000; -648.000; -583.000
804.051;  -27.700; -279.000; -346.000
804.306;    7.000;  168.000;  128.000
804.561;  118.950;  451.000;  362.000
804.816;  128.100;  714.000;  861.000
805.071;   13.325; -185.000; -280.000
805.325;  183.650; -257.000; -427.000
805.580; -117.700; -841.000; -877.000
805.835;  -19.550; -204.000; -297.000
806.090;  -80.425; -760.000; -676.000
806.345;  -13.700; -344.000; -264.000
806.600;  -36.700; -549.000; -632.000
806.854;  -27.300; -408.000; -538.000
807.109;  -22.100; -493.000; -577.000
807.364;    2.950; -407.000; -328.000
807.618;  -16.825; -415.000; -381.000
807.873;   42.525; -470.000; -494.000
808.128;   72.975; -257.000; -518.000
808.382;   97.675; -224.000; -332.000
808.637;   58.900; -440.000; -511.000
808.891;  162.525; -257.000; -180.000
809.146;   86.000; -902.000; -794.000
809.400;  250.175; -848.000; -923.000
809.654;  310.450; -779.000; -551.000
809.909;  443.525; -841.000; -927.000
810.163; 6257.675; -813.000; -651.000
810.418;15536.950; -940.000; -861.000
810.672;  951.450; -685.000; -690.000
810.926;  708.300; -993.000; -973.000
811.180; 1408.225; -439.000; -372.000
811.434;32022.225;  240.000;  135.000
811.689;12355.150; -231.000; -365.000
811.943;  601.650; -936.000; -953.000
812.197;  322.375; -893.000; -671.000
812.451;  120.025; -379.000; -514.000
812.705;  -16.675; -809.000; -619.000
812.959;  -16.800; -263.000; -388.000
813.213;   -8.200; -283.000; -209.000
813.467;   71.975;  470.000;  253.000
813.721; -103.450; -764.000; -792.000
813.975; -120.800; -826.000; -877.000
814.229;   50.400;  430.000;  353.000
814.482;  -81.400; -517.000; -566.000
814.736; -128.150; -766.000; -744.000
814.990; -133.125; -779.000; -872.000
815.244;  -53.250; -228.000; -285.000
815.497;  -93.625; -636.000; -601.000
815.751;  -10.525; -141.000;   82.000
816.005;  -79.200; -470.000; -586.000
816.258;  -63.550; -510.000; -363.000
816.512; -110.425; -693.000; -610.000
816.766;   -7.650;  121.000;  157.000
817.019;   18.375;  148.000;  149.000
817.273; -125.525;-1000.000; -802.000
817.526;  -25.475; -206.000; -173.000
817.779;  -85.625;-1049.000; -960.000
818.033;  -98.175; -693.000; -807.000
818.286; -120.300; -725.000; -792.000
818.540; -101.275; -403.000; -403.000
818.793;  -80.250; -402.000; -489.000
819.046; -105.150; -582.000; -520.000
819.299;  -54.275; -157.000; -166.000
819.553; -109.050; -552.000; -592.000
819.806; -157.450;-1016.000; -838.000
820.059;  -70.950; -334.000; -354.000
820.312;   15.125;  152.000;  185.000
820.565;  -12.725;  110.000;  -27.000
820.818;  -57.675;  -59.000; -173.000
821.071; -169.525;-1041.000; -957.000
821.324; -105.975; -536.000; -540.000
821.577; -115.350; -457.000; -483.000
821.830;  -76.100; -270.000; -172.000
822.083; -131.400; -733.000; -288.000
822.336;  -58.725; -261.000; -167.000
822.589; -135.025; -805.000; -688.000
822.842; -143.625; -875.000; -770.000
823.094; -187.475;-1076.000;-1114.000
823.347; -137.625; -925.000; -729.000
823.600;    5.800;  402.000;  187.000
823.853;  -75.150; -311.000; -267.000
824.105;  -78.800; -331.000; -575.000
824.358; -104.650; -617.000; -716.000
824.611;   24.300;  234.000;   40.000
824.863;  -58.175; -612.000; -591.000
825.116;   44.750;  -33.000;   27.000
825.368;   59.975; -366.000; -372.000
825.621;  142.675; -186.000; -240.000
825.873;   81.750; -704.000; -737.000
826.126;  597.725; -669.000; -641.000
826.378;11533.700; -389.000; -505.000
826.630; 2656.300; -890.000; -898.000
826.883;   34.975; -754.000; -693.000
827.135;   28.625; -279.000; -270.000
827.387; -117.600; -893.000; -839.000
827.639;  -20.225;  -86.000;   32.000
827.892; -124.900; -742.000; -582.000
828.144; -147.525; -848.000; -804.000
828.396;  -53.200;  104.000;  -80.000
828.648;  -97.800; -440.000; -333.000
828.900; -142.975; -702.000; -795.000
829.152; -121.625; -684.000; -683.000
829.404;  -69.200; -215.000; -267.000
829.656;  -53.725;  321.000;  214.000
829.908;  -26.825;  393.000;  229.000
830.160; -164.950;-1064.000;-1047.000
830.412; -104.450; -481.000; -430.000
830.664; -121.200; -557.000; -665.000
830.916;  -82.150; -268.000; -206.000
831.167; -172.300;-1073.000; -951.000
831.419; -113.875; -623.000; -566.000
831.671; -153.050; -764.000; -809.000
831.923;  -93.350; -311.000; -447.000
832.174;  -76.700; -273.000; -331.000
832.426; -114.325; -493.000; -582.000
832.678; -194.825;-1043.000;-1091.000
832.929; -164.675; -947.000; -935.000
833.181;  -71.250; -575.000; -677.000
833.432;  -52.100;  -59.000; -186.000
833.684;  -26.475;  112.000;  -27.000
833.935; -111.800; -610.000; -566.000
834.187; -132.550; -829.000; -823.000
834.438;  -43.925;  -58.000;  -25.000
834.689;  -67.475; -255.000; -123.000
834.941;  -75.325; -343.000; -244.000
835.192; -104.200; -590.000; -533.000
835.443; -108.225; -419.000; -506.000
835.695;  -20.600;  138.000;  -16.000
835.946;  -94.700; -608.000; -378.000
836.197; -116.425; -599.000; -622.000
836.448; -101.975; -528.000; -395.000
836.699;  -49.550; -253.000; -341.000
836.950;  -10.200;   72.000;    7.000
837.201; -146.150;-1003.000; -987.000
837.452;  -51.925; -356.000; -170.000
837.703; -109.325; -791.000; -737.000
837.954;  -34.750; -205.000; -365.000
838.205;  -83.525;-1029.000;-1008.000
838.456;  143.950; -196.000; -282.000
838.707;  -20.925; -423.000; -519.000
838.958;   -7.500; -634.000; -647.000
839.209;  256.550;   18.000;   40.000
839.460;  108.475; -439.000; -201.000
839.710;  157.600; -135.000; -297.000
839.961;  398.025;  730.000;  612.000
840.212;  318.475; -382.000; -497.000
840.462; 1113.100; -328.000; -277.000
840.713;17969.175; -571.000; -536.000
840.964; 6901.575;  -62.000; -143.000
841.214;  466.325; -384.000; -624.000
841.465;  505.875; -214.000; -141.000
841.715;  455.650; -417.000; -380.000
841.966;  565.300; -746.000; -685.000
842.216; 8306.850; -330.000; -431.000
842.466;30596.600; -169.000; -313.000
842.717; 1613.425; -964.000; -952.000
842.967;  268.000; -635.000; -641.000
843.217;  220.425;   20.000;   28.000
843.468;   52.275; -104.000; -132.000
843.718;  -40.650; -718.000; -726.000
843.968; -112.150; -837.000; -765.000
844.218;    8.725; -315.000; -262.000
844.469;  -68.900; -577.000; -561.000
844.719; -109.400; -537.000; -682.000
844.969;  -95.225; -550.000; -580.000
845.219; -158.300; -814.000; -862.000
845.469;  -87.650; -392.000; -342.000
845.719; -146.000; -792.000; -884.000
845.969;  -18.925;  119.000;  174.000
846.219; -134.450; -738.000; -720.000
846.469;   16.075;  464.000;  432.000
846.718;  -53.925; -115.000;   31.000
846.968; -149.175; -827.000; -827.000
847.218;  -61.575; -224.000; -371.000
847.468;   -3.150; -586.000; -555.000
847.718; -157.075; -827.000; -798.000
847.967; -134.475; -826.000; -915.000
848.217;  -81.675; -449.000; -569.000
848.467;  -66.475; -405.000; -376.000
848.716; -108.025; -708.000; -725.000
848.966;   -6.275; -372.000; -358.000
849.215;  -78.900; -428.000; -419.000
849.465;  -92.350; -785.000; -615.000
849.714; -146.550;-1132.000;-1150.000
849.964;  -54.875; -551.000; -613.000
850.213;  -23.900; -393.000; -355.000
850.463;   76.925;  137.000;  340.000
850.712;    4.250; -542.000; -567.000
850.961;   -3.225; -739.000; -678.000
851.211;   92.325; -513.000; -504.000
851.460;  147.850; -635.000; -650.000
851.709;  566.800;  -25.000;   18.000
851.958;10456.850; -912.000; -750.000
852.208;12345.000; -859.000; -879.000
852.457;  435.650; -181.000;  -13.000
852.706;   59.850; -791.000; -823.000
852.955;    5.800; -507.000; -528.000
853.204;  -78.100; -521.000; -461.000
853.453;  -79.425; -418.000; -458.000
853.702; -133.525; -660.000; -750.000
853.951; -105.825; -532.000; -520.000
854.200; -123.800; -613.000; -562.000
854.449; -134.925; -695.000; -661.000
854.698;  -98.475; -340.000; -279.000
854.946;  -75.900; -181.000; -284.000
855.195; -154.875; -843.000; -868.000
855.444; -104.000; -395.000; -420.000
855.693; -129.150; -345.000; -432.000
855.941; -108.850; -387.000; -516.000
856.190;  -61.775; -256.000; -382.000
856.439; -133.100; -652.000; -703.000
856.687;  -69.550;  -99.000;  -72.000
856.936; -125.825; -621.000; -323.000
857.184; -186.425;-1067.000;-1020.000
857.433; -119.500; -423.000; -512.000
857.681; -179.450; -989.000; -953.000
857.930;  -78.925; -282.000; -433.000
858.178; -164.300; -856.000; -929.000
858.427; -161.975; -802.000; -781.000
858.675; -119.800; -377.000; -544.000
858.923; -120.500; -527.000; -819.000
859.172; -185.925;-1094.000;-1070.000
859.420;  -94.150; -339.000; -239.000
859.668; -144.825; -624.000; -628.000
859.916;  -25.575;  109.000;  115.000
860.164; -124.750; -699.000; -603.000
860.413;  218.275; -878.000; -696.000
860.661;  138.650; -709.000; -577.000
860.909;  -89.750; -339.000; -325.000
861.157;  -95.100; -277.000; -444.000
861.405; -133.700; -534.000; -670.000
861.653;    4.175;  310.000;  310.000
861.901;  135.425; -543.000; -613.000
862.149;  -39.250; -801.000; -824.000
862.396;  -81.625; -297.000; -187.000
862.644; -103.825; -368.000; -347.000
862.892;  -46.125;   98.000;  138.000
863.140; -128.625; -549.000; -530.000
863.388; -156.625; -815.000; -759.000
863.635; -131.250; -642.000; -601.000
863.883;  -17.650;  231.000;  190.000
864.131; -103.525; -288.000; -357.000
864.378; -138.775; -675.000; -540.000
864.626; -111.400; -347.000; -415.000
864.873; -126.175; -556.000; -505.000
865.121; -153.875; -714.000; -799.000
865.368;  -41.325; -173.000;   75.000
865.616;  -41.700;  -33.000;  -40.000
865.863;  -78.175; -462.000; -506.000
866.111; -105.475; -795.000; -824.000
866.358;   50.625; -426.000; -420.000
866.605; 2647.075;  -64.000; -804.000
866.853; 2608.075; -621.000; -537.000
867.100;  -32.875; -728.000; -775.000
867.347;  -96.600; -672.000; -611.000
867.594; -109.800; -740.000; -714.000
867.841;   64.075;   97.000;   17.000
868.089; -149.350; -746.000; -698.000
868.336; -107.900; -477.000; -420.000
868.583; -146.600; -637.000; -741.000
868.830;  -47.425; -131.000; -170.000
869.077; -163.675; -859.000; -787.000
869.324; -139.500; -502.000; -458.000
869.571; -138.150; -398.000; -430.000
869.818; -122.900; -485.000; -439.000
870.065; -109.000; -439.000; -513.000
870.311; -114.875; -456.000; -542.000
870.558; -115.450; -332.000; -311.000
870.805;  -85.550; -320.000; -384.000
871.052; -123.475; -494.000; -369.000
871.298;  -46.625; -204.000; -131.000
871.545;  -69.250; -151.000; -185.000
871.792;  -98.450; -173.000; -222.000
872.038;  -66.700;   43.000; -126.000
872.285; -123.575; -496.000; -387.000
872.532; -102.900; -357.000; -387.000
872.778;    2.650;  556.000;  403.000
873.025;  -90.925; -384.000; -359.000
873.271;   22.225;  501.000;  578.000
873.517;  -48.000; -133.000; -209.000
873.764;  -52.075; -193.000;  -80.000
874.010;  -69.925; -143.000; -230.000
874.257;  -44.000;  123.000;   90.000
874.503; -128.525; -579.000; -479.000
874.749;  -80.075;   31.000;  275.000
874.995;  -67.825;  -80.000;  -20.000
875.242; -134.900; -540.000; -478.000
875.488; -112.500; -414.000; -439.000
875.734;  -60.800; -106.000; -234.000
875.980;  135.450; -872.000;-1032.000
876.226;  287.675; -157.000; -255.000
876.472;  -13.250;  343.000;  237.000
876.718;  -42.400;  184.000;  158.000
876.964;  -34.200;   56.000;   55.000
877.210; -170.350; -547.000; -677.000
877.456; -134.725; -630.000; -557.000
877.702; -184.650; -821.000; -832.000
877.948; -108.100; -377.000; -497.000
878.193;  -24.675;  361.000;  255.000
878.439; -107.700; -487.000; -472.000
878.685; -101.850; -272.000; -343.000
878.931; -140.150; -618.000; -676.000
879.176;  -89.575; -201.000; -201.000
879.422; -180.300; -933.000; -820.000
879.668;   66.075;   10.000;   79.000
879.913;  101.500;   53.000;  137.000
880.159;  -54.175; -112.000;  -17.000
880.404;  -55.575; -152.000; -162.000
880.650;  -53.350;   91.000;  141.000
880.895; -157.775; -670.000; -710.000
881.141; -135.350; -454.000; -428.000
881.386; -148.500; -503.000; -658.000
881.631; -101.250; -311.000; -166.000
881.877;  -38.750;  112.000;  -13.000
882.122; -139.525; -684.000; -600.000
882.367;  -93.575; -136.000; -186.000
882.612;  -71.575;  -80.000; -176.000
882.858; -182.825; -877.000; -823.000
883.103; -114.325; -297.000; -267.000
883.348; -165.100; -759.000; -852.000
883.593; -151.625; -677.000; -602.000
883.838;  -72.100; -311.000;  -24.000
884.083;   16.275;  353.000;  288.000
884.328;  -96.775; -564.000; -545.000
884.573;  -53.950; -196.000; -143.000
884.818;  149.750; -694.000; -531.000
885.063;  126.150; -348.000; -315.000
885.308; -121.225; -475.000; -398.000
885.553;   -9.900;  245.000;  325.000
885.797; -136.100; -545.000; -615.000
886.042;  -66.125;    8.000;   58.000
886.287;  -93.850; -253.000; -211.000
886.532;  -58.400;   26.000;  204.000
886.776; -106.950; -407.000; -525.000
887.021; -133.300; -621.000; -574.000
887.265; -162.400; -685.000; -689.000
887.510; -144.600; -557.000; -496.000
887.755;  -78.125; -194.000; -164.000
887.999; -145.600; -552.000; -575.000
888.244;  -56.350;  -58.000;  161.000
888.488;   -4.475;  371.000;  393.000
888.732; -127.125; -368.000; -520.000
888.977; -131.375; -622.000; -567.000
889.221; -161.125; -683.000; -659.000
889.465; -131.950; -422.000; -566.000
889.710;  -91.600;  -56.000; -299.000
889.954;   -1.675;  579.000;  467.000
890.198; -148.025; -584.000; -707.000
890.442; -156.100; -716.000; -712.000
890.687; -165.875; -800.000; -753.000
890.931;  -92.975; -273.000; -210.000
891.175; -142.950; -502.000; -500.000
891.419;  -88.175; -105.000; -110.000
891.663;  -93.750; -239.000; -112.000
891.907; -174.175; -801.000; -545.000
892.151; -185.175; -920.000; -815.000
892.395; -103.925; -274.000; -387.000
892.638;  -12.200;  408.000;  291.000
892.882; -183.875; -780.000; -867.000
893.126;    8.375;  758.000;  558.000
893.370;  -96.225; -167.000; -168.000
893.614; -151.900; -714.000; -715.000
893.857; -112.175; -183.000; -197.000
894.101; -155.475; -527.000; -631.000
894.345;  -57.200;  300.000;  150.000
894.588;   18.300;  569.000;  380.000
894.832;  -87.250; -178.000;  -84.000
895.075;  -82.675;   15.000;  -92.000
895.319; -141.025; -552.000; -420.000
895.563; -121.325; -413.000; -353.000
895.806; -157.425; -628.000; -741.000
896.049;  -76.300; -576.000; -368.000
896.293;   81.025;  527.000;  405.000
896.536;  -79.950; -465.000; -468.000
896.779;  -71.525; -149.000;   -1.000
897.023; -143.975; -751.000; -714.000
897.266;  -37.250;  325.000;  269.000
897.509; -186.300; -900.000; -901.000
897.752;  -61.050;  149.000;  171.000
897.996; -200.775; -972.000; -864.000
898.239;  -43.375;  168.000;  102.000
898.482; -132.850; -431.000; -453.000
898.725;  -30.050;  101.000;   53.000
898.968; -160.725; -609.000; -744.000
899.211; -128.275; -513.000; -361.000
899.454; -136.150; -633.000; -539.000
899.697;  -63.775;   90.000;  -43.000
899.940; -168.175; -761.000; -757.000
900.182; -120.800; -335.000; -405.000
900.425;  -97.675; -150.000; -298.000
900.668;  -18.850;  491.000;  350.000
900.911; -108.975; -292.000; -345.000
901.154;  -57.975;  141.000;   -3.000
901.396; -132.825; -407.000; -412.000
901.639; -138.575; -430.000; -496.000
901.882; -184.975; -790.000; -809.000
902.124;  -83.500;  -29.000; -143.000
902.367; -123.950; -315.000; -361.000
902.609; -143.125; -476.000; -453.000
902.852;  -84.575; -108.000; -260.000
903.094; -121.700; -458.000; -337.000
903.337;  -54.875;  -26.000;   53.000
903.579; -117.100; -228.000; -441.000
903.821; -154.750; -597.000; -744.000
904.064;  -70.700;   85.000;  127.000
904.306; -100.300; -126.000; -166.000
904.548; -105.550; -152.000; -366.000
904.790; -106.300; -195.000; -340.000
905.033; -140.525; -625.000; -577.000
905.275; -131.800; -513.000; -524.000
905.517;   27.725;  468.000;  256.000
905.759;  -91.750; -667.000; -761.000
906.001; -123.300; -322.000; -369.000
906.243;  -70.075; -162.000; -224.000
906.485;   81.175; -265.000; -207.000
906.727;   55.675; -499.000; -542.000
906.969;  -50.125;  -30.000; -135.000
907.211;   73.300; -316.000; -382.000
907.453;  194.250; -188.000; -237.000
907.695;  -26.025; -158.000; -385.000
907.936;   33.475;  818.000;  706.000
908.178;  -67.775;   92.000; -135.000
908.420;  -77.025; -111.000; -162.000
908.662; -132.600; -633.000; -682.000
908.903;  -94.250; -208.000; -123.000
909.145;  -67.900; -240.000; -305.000
909.386;   -1.550;  315.000;  280.000
909.628;   40.800;  363.000;  397.000
909.870;   -6.625;   29.000;  264.000
910.111; -106.850; -809.000; -949.000
910.353;    8.400; -123.000; -161.000
910.594;   -1.350; -574.000; -606.000
910.835;   71.500; -265.000; -326.000
911.077;  133.475; -503.000; -604.000
911.318;  263.175; -505.000; -471.000
911.559;  419.000; -577.000; -880.000
911.801; 1339.650; -284.000; -280.000
912.042;10476.675;  -50.000; -159.000
912.283;26312.925;  404.000;  371.000
912.524; 3813.275; -396.000; -457.000
912.765;  441.700; -193.000;   79.000
913.006;  227.200; -307.000; -338.000
913.247;   41.500; -270.000; -290.000
913.488;  -25.925;  -43.000;   30.000
913.729; -102.575; -373.000; -373.000
913.970;  -60.925;  -96.000; -292.000
914.211;  -80.750; -160.000; -198.000
914.452;  -73.575; -118.000;  -11.000
914.693;   12.825;  510.000;  592.000
914.934;   14.050;  510.000;  440.000
915.175;  -59.400;   53.000;  -95.000
915.415;  -88.450; -137.000;   27.000
915.656;  -73.375;  -28.000;  192.000
915.897;  -90.575; -252.000;  -82.000
916.137;  -70.875;   74.000;   -9.000
916.378; -147.225; -573.000; -517.000
916.619;  -92.700; -159.000;  -63.000
916.859;  -23.500;  303.000;  330.000
917.100;  134.900; 1655.000; 1070.000
917.340;   48.100;  930.000;  728.000
917.581;   65.900;  965.000;  789.000
917.821;  -33.025; -171.000;  143.000
918.061;  -19.050; -199.000;  -72.000
918.302;  -56.175; -152.000; -211.000
918.542;  -32.500;  -22.000;    3.000
918.782;   19.575;  369.000;  377.000
919.023;  113.050;  360.000;  427.000
919.263; 1748.975; 8131.000;  202.000
919.503; 1012.800; -137.000;  -54.000
919.743;  533.100;  390.000;  266.000
919.983;  205.175; -134.000;  -26.000
920.223;   63.550;  135.000;   14.000
920.463;  153.650;  631.000;  554.000
920.703;  131.875;   84.000;   39.000
920.943;  160.050; -110.000;   90.000
921.183;  233.175; -414.000; -405.000
921.423;  510.750;  307.000;  546.000
921.663;  751.350; -174.000; -257.000
921.903; 1640.350;  237.000;  173.000
922.143; 9212.675;  372.000;  389.000
922.383;34985.800;  158.000;  115.000
922.622;11278.000; -120.000;  -15.000
922.862; 1210.825;  796.000;  785.000
923.102;  464.325;  -51.000;   33.000
923.341;  172.525;   59.000;   74.000
923.581;   98.775;  450.000;  360.000
923.821;   21.650;  301.000;  398.000
924.060;    6.825;  351.000;  193.000
924.300;  -62.150;  -16.000; -128.000
924.539;  -17.175;  584.000;  473.000
924.779;    5.400;  812.000;  597.000
925.018;  -53.950;  247.000;  353.000
925.257;  -11.675;  595.000;  666.000
925.497;  -39.650;  447.000;  412.000
925.736;  -76.875;  -35.000;  102.000
925.975;    8.900;  687.000;  669.000
926.214;   26.175;  907.000;  850.000
926.454;   13.675;  706.000;  757.000
926.693;  -36.650;  419.000;  543.000
926.932;   41.550; 1021.000;  825.000
927.171;   58.450; 1107.000; 1044.000
927.410;   53.475; 1144.000;  967.000
927.649;   13.225;  924.000;  742.000
927.888;  -17.050;  590.000;  564.000
928.127;  -15.775;  680.000;  678.000
928.366;   25.525;  842.000;  826.000
928.605;   22.200;  831.000;  737.000
928.844;  220.250; 1451.000; 1393.000
929.083;  578.900;  770.000;  613.000
929.321;  294.450; 1335.000; 1359.000
929.560;   94.600; 1158.000; 1122.000
929.799;  -21.925;  574.000;  475.000
930.038;   87.900; 1025.000; 1394.000
930.276;  -50.350;  334.000;  397.000
930.515;   -5.025;  827.000;  681.000
930.753;  -27.600;  614.000;  589.000
930.992;  -26.950;  664.000;  717.000
931.230;   -1.325;  847.000;  847.000
931.469;  178.450; 2162.000;  892.000
931.707;   65.700;  840.000;  751.000
931.946;   62.575; 1278.000; 1344.000
932.184;   56.225; 1437.000; 1175.000
932.423;   36.400; 1265.000;  963.000
932.661;   96.775; 1296.000; 1428.000
932.899;   30.600;  987.000;  821.000
933.137;   -8.000;  754.000;  564.000
933.376;  137.975; 1664.000; 1335.000
933.614;  147.950; 1759.000; 1196.000
933.852;   55.175; 1357.000; 1171.000
934.090;  136.675; 1722.000; 1747.000
934.328;   98.250; 1252.000; 1457.000
934.566;   98.550; 1431.000; 1110.000
934.804;  134.625; 1263.000; 1309.000
935.042;  525.675; 1861.000; 1850.000
935.280; 2108.575; 2088.000; 2063.000
935.518; 1952.850; 2113.000; 2007.000
935.756;  397.725; 2481.000; 2316.000
935.994;  163.450; 1808.000; 1751.000
936.231;  326.675; 2890.000; 2950.000
936.469;  200.350; 2367.000; 2378.000
936.707;  163.975; 2220.000; 2167.000
936.945;  232.050; 2825.000; 2882.000
937.182;  211.475; 2679.000; 2741.000
937.420;  309.075; 3602.000; 3031.000
937.657;  394.875; 3365.000; 3478.000
937.895;  334.250; 3331.000; 3488.000
938.133;  309.600; 3540.000; 3528.000
938.370;  349.300; 3896.000; 4191.000
938.607;  389.275; 4488.000; 4205.000
938.845;  564.500; 5587.000; 5549.000
939.082;  482.800; 5387.000; 5177.000
939.320;  538.900; 5799.000; 5728.000
939.557;  648.525; 6549.000; 6491.000
939.794;  733.725; 7285.000; 7097.000
940.031;  900.875; 8421.000; 8368.000
940.269; 1083.325; 9552.000; 9107.000
940.506; 1120.500;10901.000;10507.000

