
Integration time [ms]: 200.000
Averaging Nr. [scans]: 10
Smoothing Nr. [pixels]: 0
Data measured with spectrometer [name]: 2101013U2
Wave   ;Sample   ;Dark     ;Reference
[nm]   ;[counts] ;[counts] ;[counts] 

394.013;  -57.629; -450.257; -315.536
394.305; -157.529; -461.258; -419.536
394.596; -179.840; -676.269; -527.514
394.887; -210.338; -796.268; -654.518
395.178;   28.565;  145.736;   11.476
395.470;  -39.934; -210.263; -356.526
395.761;  115.764;  305.734;  394.479
396.052; -141.252; -545.284; -306.489
396.343; -151.845; -557.276; -454.503
396.634;  -77.848; -200.279; -290.497
396.926; -141.538; -618.268; -565.517
397.217;   13.555;   11.725;  -17.504
397.508;  -99.443; -366.273; -154.507
397.799; -143.248; -555.279; -571.497
398.090; -250.349; -973.280; -902.495
398.381;  -44.860;   11.708;  -11.473
398.672; -187.960; -585.292; -742.473
398.963;  -96.248; -348.279; -373.498
399.254;   26.941;   54.709; -209.475
399.545; -289.037;-1017.266; -883.520
399.836;  -94.946; -407.277; -343.501
400.127;  -61.062; -205.295; -209.468
400.418;  -47.844; -423.274; -392.506
400.709;  -80.650; -359.281; -333.493
401.000;  -61.358; -268.291; -309.476
401.290;   54.031;  225.698;  115.545
401.581;  -34.854; -166.286; -228.485
401.872; -110.565; -542.298; -486.462
402.163;  -93.463; -313.296; -252.467
402.454;  -20.259; -123.291; -163.475
402.744; -201.464; -844.297; -813.465
403.035;  -63.461; -226.293;  -86.471
403.326;  -85.859; -366.292; -384.474
403.617;   37.934;  204.701;  165.539
403.907; -143.952; -593.283; -679.490
404.198; -159.173; -545.307; -599.446
404.489; -192.051; -618.283; -588.491
404.779; -166.268; -618.302; -660.456
405.070;  -12.870;  -67.304; -174.451
405.360;  -29.361; -259.293; -238.472
405.651;   48.433;  125.699;   98.542
405.942;   42.046;  209.714;  127.516
406.232; -128.853; -432.285; -413.487
406.523;  212.539;  641.706;  758.530
406.813; -181.954; -579.286; -644.484
407.104;   90.640;  261.708;  144.527
407.394; -197.466; -604.299; -591.462
407.685;   49.247;  336.715;  222.513
407.975; -148.551; -400.283; -382.490
408.265;  -31.257; -134.289; -190.478
408.556; -122.659; -472.291; -459.475
408.846;  200.539;  474.706;  429.530
409.137;  -30.256;   -1.288; -216.480
409.427;  -86.453; -193.285; -271.487
409.717; -166.343; -776.273; -692.508
410.007;   18.946;    4.715; -170.486
410.298;  -98.662; -360.295; -342.469
410.588; -126.553; -495.285; -510.486
410.878; -247.155; -792.287; -873.482
411.168; -117.165; -481.298; -478.463
411.459;  -66.652; -295.283; -242.489
411.749; -186.759; -609.292; -507.474
412.039; -209.057; -755.289; -386.480
412.329;   66.453;   40.722;  132.501
412.619;  -35.054;  -62.286; -148.485
412.909;  192.443;  639.711;  594.521
413.199;  -45.949; -130.280; -251.495
413.490;  139.242;  521.710;  352.523
413.780; -265.948;-1013.279; -913.496
414.070;   31.155;  -46.276;  235.497
414.360; -190.547; -729.278; -666.498
414.650; -182.456; -726.288; -688.482
414.940; -147.849; -538.280; -441.496
415.230;   11.644;   50.712;   74.519
415.520;   35.660;  155.730;   66.486
415.809;  -44.250; -305.281; -125.493
416.099; -163.046; -388.277; -229.501
416.389;  110.956;  435.726;  236.494
416.679;   39.467;   91.738;   85.473
416.969; -151.055; -527.287; -503.483
417.259;  104.352;  341.721;  171.503
417.549;  107.050;  522.718;  318.508
417.838;  -45.038; -205.268; -147.518
418.128;  165.943;  650.710;  492.522
418.418; -154.442; -491.272; -579.509
418.708;   27.456;    9.726;  -48.506
418.997;  -99.444; -474.275; -480.505
419.287; -220.143; -733.273; -790.507
419.577;  -47.752; -160.283; -123.489
419.866; -146.946; -588.277; -498.501
420.156;  -38.140; -242.270;  -55.513
420.446;  -33.334; -112.263;  -26.526
420.735; -132.141; -376.271; -446.512
421.025;  564.253; 1830.722;  315.502
421.314;  -44.941; -203.271; -226.512
421.604;   40.561;   89.732;  233.484
421.893; -160.841; -705.271; -602.511
422.183; -138.434; -487.263; -461.526
422.472;  -28.041;  -36.271; -107.511
422.762;  -84.336; -416.266; -379.521
423.051; -282.645; -916.276; -916.503
423.341; -137.243; -491.273; -439.507
423.630;  -20.935; -121.265;   15.477
423.919;   -5.244;   58.725;   49.495
424.209;  -32.733;  -31.263;   56.473
424.498;    7.362;   68.732;  161.483
424.787; -176.037; -535.267; -601.518
425.077;   28.664;   34.735;   29.478
425.366; -232.333; -734.262; -744.528
425.655;  181.857;  639.727;  259.493
425.945;  -55.320; -313.247; -268.554
426.234;   18.469;  117.741;  300.467
426.523;  -81.130;  -86.259; -350.534
426.812;   70.564;  107.734;  159.480
427.101;  -14.139; -127.269; -323.515
427.390;  -13.240;  -55.270;  -86.514
427.680; -139.128; -624.257; -411.538
427.969;  -60.127; -330.255; -301.540
428.258; -125.029; -385.257; -477.536
428.547;   86.258;  449.728;  397.490
428.836; -126.325; -421.253; -398.543
429.125;  -77.930; -199.259;  -72.534
429.414;  -91.323; -330.251; -294.548
429.703;  -87.423; -231.251; -213.548
429.992; -241.123; -938.250; -828.549
430.281; -139.835; -397.264; -331.524
430.570;   -5.824;  -21.252;   32.454
430.859;   67.470;  279.741;  352.466
431.148;  183.880;  636.752;  631.446
431.437;   79.376;  391.748;  367.454
431.725; -158.829; -544.257; -481.536
432.014; -248.525; -845.253; -756.545
432.303;  -67.512; -149.239; -105.569
432.592;  -92.634; -460.263; -178.525
432.881; -200.120; -601.248; -437.554
433.169;  -60.327; -343.255;  -61.540
433.458;  102.291;  445.765;  540.424
433.747; -126.332; -397.261; -289.529
434.036; -118.215; -275.242; -280.564
434.324; -125.421; -395.249; -379.551
434.613;   17.284;   40.757;  159.437
434.902;   84.387;  333.760;  439.433
435.190;    3.287;   75.761;  295.431
435.479;  -60.917;  -52.245;   83.441
435.767; -148.517; -411.244; -427.561
436.056; -107.715; -340.242; -294.563
436.345; -142.513; -372.240; -223.568
436.633;   79.278;   60.750;  383.450
436.922;   80.487;  208.760;  414.432
437.210; -109.610; -194.236;    1.426
437.499; -214.609; -583.235; -432.576
437.787; -140.210; -339.236;  -10.574
438.075;   24.788;   56.761;  162.430
438.364;   -3.812;  -44.238;  250.429
438.652; -124.601; -286.226; -138.592
438.941;    2.395;    3.770;  269.415
439.229; -228.524; -665.252; -466.545
439.517;  -83.008; -160.234;  -85.577
439.806; -187.600; -501.225; -290.595
440.094;   73.792;  377.766;  650.421
440.382; -160.407; -653.233; -302.580
440.670; -134.909; -361.235; -285.576
440.959; -168.698; -347.223; -170.599
441.247;  -67.004; -151.229; -109.587
441.535;  -32.209; -266.235;   31.423
441.823; -177.008; -497.234; -305.578
442.111;   55.197;  173.771;  327.412
442.400; -181.618; -628.245; -335.559
442.688;  -61.908; -111.234; -620.579
442.976; -248.389; -786.213; -450.617
443.264; -165.699; -324.224; -364.597
443.552;  -58.501; -258.226;   51.408
443.840;  156.991;  602.765;  876.423
444.128;   79.493;  265.767;  269.420
444.416; -188.303; -694.228; -312.588
444.704; -128.595; -465.219;  -92.605
444.992;  -34.101;   -0.226;  240.407
445.280; -118.405; -517.230;  -94.585
445.568; -191.189; -694.212; -396.618
445.856;  -13.396; -174.221;  357.398
446.143;  -76.095;  -54.220;   -7.604
446.431;   33.497;  -25.228;  625.411
446.719;  154.707;  489.783;  675.391
447.007;  135.695;  481.769;  705.416
447.295;  141.202;  597.777;  871.402
447.583; -120.404; -464.229;  -34.587
447.870; -124.197; -434.221; -202.601
448.158;  -51.705; -104.230;  129.415
448.446; -206.495; -800.219; -338.604
448.733;  -21.999;   13.776;  269.403
449.021;  -10.389;   60.788;  341.382
449.309;  -62.387; -296.210;  208.379
449.596;   49.807;  128.783;   59.392
449.884; -169.597; -571.222; -325.600
450.172; -270.102; -756.227; -406.590
450.459;  128.809;  645.786;  780.387
450.747; -151.893; -411.218; -147.608
451.034;  160.198;  493.772;  889.411
451.322; -151.490; -413.214; -170.614
451.609;   56.501;  292.777;  508.403
451.897; -166.681; -550.203; -183.634
452.184; -206.098; -622.223; -400.598
452.472;  -43.185;   97.792;  269.375
452.759;  128.105;  512.781;  864.395
453.047; -141.789; -407.212; -125.617
453.334; -177.994; -732.219; -216.606
453.621; -150.590; -438.214; -161.615
453.909;  -35.682;   13.796;  384.368
454.196;  -79.377; -299.199; -123.641
454.483;   21.321;  317.798;  540.364
454.771;  -38.985; -215.208;  196.374
455.058;  -63.584; -316.207;  102.374
455.345;   11.429;   71.807;  344.347
455.632;  -60.884; -128.207;  235.373
455.919;  -37.875;  -82.196;  182.354
456.207; -219.776; -774.198; -450.642
456.494; -173.378; -475.200;  -66.639
456.781; -139.580; -399.202; -198.635
457.068;  -72.583; -253.206;  -29.628
457.355; -189.683; -698.206; -401.629
457.642; -173.983; -552.205; -290.630
457.929; -216.972; -778.194; -417.651
458.216; -200.189; -575.212; -354.617
458.503;  -45.572; -173.193;  -19.652
458.790; -237.185; -864.208; -630.625
459.077;  -33.779;  -77.202;  110.364
459.364; -132.573; -350.195; -210.649
459.651;   -0.983;  -46.206;  220.372
459.938; -286.586; -864.209; -665.623
460.225;  -16.079;  132.799;  276.363
460.512; -275.275; -836.197; -688.645
460.799;   18.306;  -32.218;  320.392
461.086; -155.778; -370.200; -251.640
461.372; -155.176; -509.198; -279.642
461.659;  -48.574; -165.196;  108.354
461.946; -103.872; -445.193;  -54.651
462.233;  199.022;  842.800;  888.361
462.519; -244.578; -814.201; -464.639
462.806; -218.775; -768.197; -497.645
463.093; -141.470; -445.191;  -66.656
463.380; -290.466; -920.186; -824.664
463.666;  -33.075; -259.197;  -18.646
463.953; -139.473; -406.195; -243.648
464.239;  -83.373; -173.195;  -77.648
464.526;  109.428;  413.806;  743.350
464.813; -172.569; -565.190; -304.658
465.099;   82.528;  606.807;  607.348
465.386;  208.629;  903.807;  921.348
465.672; -230.075; -694.197; -522.645
465.959; -174.767; -598.188; -520.662
466.245; -168.871; -468.193; -359.652
466.532;  -37.874; -109.195;   63.352
466.818; -107.966; -357.186; -216.664
467.104; -149.062; -488.182; -415.672
467.391; -179.368; -628.189; -459.658
467.677;  -90.665; -289.186;    9.335
467.964; -225.968; -682.189; -471.660
468.250;  -90.465; -331.186; -160.665
468.536;  -20.468;   90.811;  180.341
468.822; -214.164; -821.184; -574.668
469.109;  126.847;  351.827;  471.311
469.395;  178.130;  729.808;  787.346
469.681;  -13.368;   46.811;  156.341
469.967; -178.668; -699.188; -382.660
470.254;  -95.467; -494.188; -306.662
470.540; -163.875; -601.196; -476.646
470.826; -147.360; -488.181; -397.675
471.112;   46.737;  288.816;  113.331
471.398;  -52.963; -253.183;  -58.670
471.684; -185.758; -626.177; -447.680
471.970; -292.760; -918.180; -981.675
472.256; -138.471; -521.192; -441.654
472.542; -161.552; -499.171; -434.691
472.828; -199.162; -743.182; -607.672
473.114; -136.248; -380.166; -283.700
473.400; -160.756; -504.175; -293.684
473.686; -126.547; -452.166; -400.701
473.972;  -64.654; -230.174; -131.687
474.258; -270.353; -925.173; -843.689
474.544;  -42.858; -183.178;   -2.679
474.830;  -28.656;  -65.175;   45.316
475.116;  -79.568; -123.190; -196.658
475.401; -147.160; -558.180; -467.676
475.687; -203.760; -725.180; -718.676
475.973; -212.061; -673.181; -770.673
476.259;  215.944;  736.825;  764.315
476.544; -179.457; -539.176; -437.682
476.830; -142.853; -398.172; -322.690
477.116;  -94.557; -430.177; -336.682
477.401;   95.640;  346.820;  358.324
477.687; -135.556; -289.175; -405.684
477.973;   -7.961;   21.819;   28.326
478.258; -150.545; -448.163; -348.706
478.544;  -22.264;   21.815;   61.334
478.829; -235.452; -818.171; -738.692
479.115; -183.753; -749.172; -651.690
479.401; -123.855; -444.174; -449.686
479.686;  -65.560; -253.180;  -74.676
479.972; -236.058; -886.178; -776.680
480.257;  -66.148; -258.166;  -65.700
480.542; -152.651; -614.170; -469.693
480.828;  354.144; 1288.824; 1392.317
481.113; -133.656; -464.176; -426.683
481.399;  -95.143; -236.161; -202.711
481.684; -171.148; -620.166; -462.700
481.969;  -35.241; -158.159;  -73.713
482.255; -156.350; -439.169; -285.695
482.540; -163.858; -569.178; -441.680
482.825; -155.166; -395.187; -404.663
483.110;  -36.350;  -85.169; -105.696
483.396; -228.339; -840.157; -652.718
483.681;  155.546;  543.826;  730.313
483.966; -242.142; -696.160; -700.712
484.251; -119.355; -404.174; -310.687
484.536; -150.847; -356.165; -378.703
484.822; -103.454; -205.173; -218.687
485.107; -184.535; -599.152; -502.726
485.392;  178.054;  662.836;  541.296
485.677;   16.751;  354.832;  163.302
485.962;   56.961;  160.843;  270.283
486.247;    5.656;  -14.162;   -8.707
486.532; -135.648; -178.166; -325.701
486.817;   66.057;  381.839;  431.291
487.102; -169.137; -453.154; -514.722
487.387; -205.739; -637.156; -652.718
487.672;  -28.046; -154.164;  -38.705
487.957; -125.543; -394.160; -286.711
488.241;  -78.934; -290.150; -314.729
488.526;  -90.835; -280.152; -148.726
488.811; -272.658; -881.177; -818.680
489.096; -240.337; -666.154; -702.723
489.381;  -13.136;    3.847;  162.275
489.666; -159.943; -428.161; -510.710
489.950;  190.164;  558.846;  627.277
490.235; -186.634; -480.151; -458.728
490.520; -214.343; -756.161; -723.710
490.804; -257.839; -827.156; -736.719
491.089; -126.032; -469.149; -299.732
491.374;  -35.046; -132.164;  -75.704
491.658; -218.231; -817.147; -717.735
491.943; -191.435; -657.152; -609.727
492.227;  -79.837; -178.155;  -38.721
492.512; -104.440; -294.157; -341.717
492.797; -214.333; -713.149; -716.731
493.081; -232.931; -588.147; -598.735
493.366; -184.943; -751.161; -635.711
493.650;  186.075;  831.859;  917.254
493.935; -183.831; -648.147; -447.734
494.219; -233.027; -778.142; -687.743
494.503; -199.933; -585.150; -487.730
494.788;  -58.240;   46.842;   74.285
495.072;   66.366;  184.850;  434.271
495.356; -165.832; -463.148; -343.733
495.641; -257.630; -812.146; -736.736
495.925; -285.138; -976.156; -903.719
496.209; -124.632; -599.149; -451.732
496.494; -206.526; -763.142; -544.744
496.778; -112.337; -364.154; -360.722
497.062; -222.038; -819.156; -627.719
497.346; -241.142; -869.160; -640.711
497.631;  112.669;  580.852;  560.266
497.915;  -24.929;  -64.145;  175.261
498.199; -102.839; -341.157; -277.718
498.483; -171.135; -562.152; -508.725
498.767;   39.967;  301.850;  300.271
499.051;  -36.632; -126.149; -100.732
499.335; -240.133; -693.149; -739.731
499.619; -161.215; -381.129; -423.767
499.903;  -43.838; -272.155;  -65.721
500.187; -150.636; -588.153; -316.724
500.471; -244.935; -796.152; -595.727
500.755;  -53.943;   62.839;  -96.710
501.039;  -93.638; -270.155; -357.721
501.323;   65.875;  -21.141;  264.254
501.607; -105.345; -447.163; -503.706
501.891; -182.339; -607.156; -512.718
502.174; -194.928; -726.144; -585.741
502.458;  -18.934;   89.849;  370.273
502.742;  -39.523; -180.138; -191.751
503.026;  -93.531; -412.147; -254.734
503.310; -161.042; -437.159; -375.713
503.593; -152.531; -464.147; -325.735
503.877;  -87.419; -232.133; -156.760
504.161;  -41.036;    2.847;  -50.724
504.444; -272.540; -841.158; -710.716
504.728; -176.946; -487.164; -522.704
505.012;  -75.134; -257.150;  -76.729
505.295; -105.543; -417.161; -212.711
505.579; -100.838; -256.156; -496.719
505.862; -159.929; -555.145; -333.738
506.146; -221.641; -681.159; -758.714
506.429;  105.959;  568.841;  461.286
506.713; -209.334; -732.151; -667.728
506.996;    3.363;   90.846;  295.278
507.280; -184.046; -633.165; -474.703
507.563; -145.538; -469.155; -261.721
507.847; -166.436; -423.153; -112.724
508.130; -187.643; -665.161; -456.711
508.413; -220.448; -758.167; -577.700
508.697;  -16.748; -151.167;   12.300
508.980; -119.236; -422.153; -312.724
509.263; -169.938; -466.155; -450.720
509.547;  -79.734; -124.150;   82.271
509.830;   -3.942; -172.160;  140.289
510.113;   27.662;  128.844;  298.281
510.396; -125.336; -530.152; -300.725
510.680; -273.429; -818.145; -812.738
510.963;   21.763;  184.846;  180.277
511.246; -168.133; -493.150; -357.730
511.529; -122.729; -482.145;  -83.739
511.812;  -48.719; -250.134;   10.241
512.095; -181.534; -740.151; -396.728
512.378; -113.930; -317.147; -245.736
512.661; -215.722; -703.137; -623.753
512.944; -219.826; -750.142; -637.744
513.227; -106.922; -170.137; -171.752
513.510; -177.228; -479.144; -671.741
513.793; -176.725; -485.140; -435.747
514.076;  -44.613;  -43.127;  -39.771
514.359; -103.532; -294.149; -135.732
514.642; -180.926; -442.142; -567.744
514.925;  130.175;  581.860;  561.253
515.208; -131.619; -498.134; -443.758
515.491;  -80.018; -276.133; -182.761
515.773; -174.427; -410.143; -337.742
516.056;   62.979;  249.864;  409.246
516.339; -251.221; -754.136; -652.755
516.622; -192.333; -518.150; -488.730
516.904;  255.073;  882.857;  975.257
517.187; -202.422; -730.138; -523.752
517.470; -164.427; -568.143; -510.743
517.752; -192.821; -624.136; -470.756
518.035; -238.924; -708.139; -725.749
518.318; -261.521; -799.136; -744.755
518.600; -132.418; -300.132; -325.762
518.883;   46.874;  310.858;   88.256
519.165; -180.523; -585.138; -426.751
519.448;  -52.318;  -61.132;  -19.762
519.730; -237.512; -573.126; -415.773
520.013;  161.382;  588.867;  664.240
520.295;  -71.119;  -94.134;  -15.759
520.578; -124.016; -335.131; -305.764
520.860;  -72.018; -254.132;   56.238
521.143; -233.320; -763.135; -584.756
521.425; -132.511; -251.125; -279.775
521.707; -178.413; -622.127; -380.771
521.990;  -33.013; -199.127;  167.229
522.272;  -53.124; -116.140;   -4.748
522.554; -106.427; -237.143; -157.742
522.836;  -47.819;  -24.134;   99.241
523.119; -175.931; -496.148; -189.734
523.401; -132.516; -448.130; -314.766
523.683; -274.522; -865.137; -693.753
523.965;   23.178;  408.862;  260.248
524.247;  -10.109;   54.878;  170.220
524.529; -148.619; -451.134; -367.759
524.812;  -49.015;   -3.130;  191.234
525.094; -237.923; -773.138; -631.751
525.376;  -80.010; -143.124;   78.223
525.658; -159.221; -441.136; -339.754
525.940; -274.017; -805.131; -671.764
526.222; -102.621; -188.136;  -88.755
526.504; -100.417; -190.131;   32.237
526.786; -281.419; -960.133; -647.760
527.068; -104.809; -124.123;  -67.778
527.349; -262.321; -865.137; -774.754
527.631;  -48.918; -137.132;   22.238
527.913; -212.713; -664.127; -450.771
528.195; -296.112; -761.125; -639.774
528.477;  -58.119;  -93.134;  -30.758
528.759; -222.615; -648.130; -522.766
529.040; -192.509; -569.123; -293.778
529.322; -100.611; -235.125;  -10.774
529.604;  -33.415;  -47.130;   93.233
529.886; -147.312; -546.126; -302.773
530.167;    5.384;  232.870;  192.235
530.449;  -35.030;    1.853;   63.265
530.731; -193.209; -572.122; -459.779
531.012; -163.407; -513.120; -216.784
531.294;  -90.903; -118.116;  -43.792
531.575;  108.589;  290.875;  538.225
531.857; -173.120; -548.135; -266.757
532.138;  -41.725; -113.141;   40.254
532.420;   15.680;  294.865;  403.244
532.701; -257.618; -722.133; -751.760
532.983;   72.882;  232.867;  182.239
533.264;  -66.412; -243.126;  175.228
533.546; -146.621; -491.136; -508.755
533.827;  -18.719;  173.867;   -1.759
534.109; -163.620; -352.135;  -80.757
534.390; -246.617; -725.132; -582.762
534.671;  -93.120; -270.135;  -82.756
534.953; -243.309; -751.123; -611.779
535.234; -143.104; -426.117; -255.789
535.515; -298.306; -891.119; -735.785
535.796; -111.913; -431.128; -193.770
536.078; -323.010;-1050.124; -904.777
536.359;  -66.709;  -22.123;    3.221
536.640; -143.611; -480.125; -197.774
536.921;   14.985;  225.871;  143.232
537.202; -106.223;  -87.138;  -16.751
537.483;   61.184;  251.869;  377.236
537.764;  -12.216;   17.870;   98.235
538.045; -206.819; -543.134; -371.758
538.326; -210.214; -596.129; -447.768
538.607; -235.613; -686.127; -476.771
538.888;  -36.908;   98.879;    5.218
539.169; -230.708; -704.122; -535.781
539.450;   23.285;  236.871;   16.233
539.731; -113.107; -361.121; -182.783
540.012;   -2.407;  199.880;  412.216
540.293;  -41.310;   82.876;  158.224
540.574; -299.001; -895.113; -717.796
540.855;   17.293;  435.879;  377.218
541.136;   13.092;   47.878;  139.220
541.416; -104.215; -161.130; -220.766
541.697; -151.217; -274.131; -170.763
541.978; -113.120; -270.135; -315.757
542.259; -121.313; -211.127; -236.771
542.539; -114.503; -191.116; -186.790
542.820;   38.689;  461.875;  480.225
543.101; -139.329;  -52.145;  -77.738
543.381; -281.913; -638.127; -591.771
543.662;  -20.113;  159.873; -254.771
543.942; -290.013; -751.127; -830.770
544.223;  -26.708;  193.878;  161.219
544.504; -160.010; -275.124; -182.777
544.784; -208.712; -592.126; -408.773
545.065; -179.503;  104.884; -254.791
545.345;  -15.606;  227.881;   14.215
545.626;  -82.301;  -14.113; -108.796
545.906;  -42.116;   77.869;   98.235
546.186;  -97.312;   92.874;  -95.773
546.467; -106.310;   99.877;  -95.778
546.747;   18.097;  264.884;  327.210
547.027;  -13.010;   91.876;  111.223
547.308; -171.413; -376.127; -530.770
547.588;   24.286;  299.871;  371.232
547.868;   82.284;  458.870;  588.235
548.149;  135.298;  609.885;  593.207
548.429; -129.713; -347.127; -299.771
548.709; -227.407; -645.120; -461.784
548.989;  -48.405;   84.882;   88.213
549.269; -140.918;   10.868;  139.239
549.550;  -37.609;  215.877;  117.222
549.830; -224.099; -758.111; -556.799
550.110; -143.898; -468.110; -320.801
550.390; -105.709; -128.122;  -56.779
550.670; -290.101; -868.114; -783.795
550.950; -196.007; -509.121; -471.782
551.230;  115.592;  549.879;  460.218
551.510; -187.507; -381.121; -326.782
551.790;  -95.597; -173.109; -127.803
552.070;  280.090;  940.877; 1181.223
552.350; -155.305; -492.119; -377.786
552.630;  -12.908;   -2.121;   77.219
552.909;    3.597;  181.884;   73.209
553.189;  -95.017;  -49.132;   33.237
553.469; -225.905; -703.119; -514.786
553.749; -175.513; -469.127; -357.772
554.029;  -69.904;   33.883;  -24.790
554.308;  -83.802; -154.115;  -37.794
554.588; -110.613; -196.128; -204.770
554.868; -108.407; -366.121;  -47.782
555.147; -113.102; -114.115;  -46.793
555.427; -166.303; -260.116; -250.792
555.707; -123.402; -284.115; -200.793
555.986; -235.599; -719.111; -538.800
556.266;  -33.003;   23.884;   72.210
556.546; -255.207; -888.121; -675.782
556.825; -277.401; -657.114; -556.794
557.105;  -65.814; -125.128;   17.230
557.384;  -11.703;  122.884;  187.209
557.664; -233.103; -717.116; -508.792
557.943; -192.007; -557.121; -411.782
558.222; -169.805; -345.118; -344.788
558.502;  -81.002; -116.115;  -76.793
558.781;   43.198;  194.885;  499.208
559.061; -163.105; -232.118; -227.788
559.340;   55.196;  302.883;  353.211
559.619;  -33.003;   93.884;  148.210
559.899; -168.004; -239.117; -266.789
560.178; -263.502; -778.115; -593.793
560.457; -259.804; -623.117; -562.790
560.736; -175.898; -472.111; -482.800
561.015; -223.614; -500.128; -502.769
561.295;   -4.895;  180.893;  215.193
561.574;  -45.602;  119.885;  116.207
561.853;   23.803;  274.891;  303.197
562.132;  -39.802;  -45.114;  182.206
562.411;   95.692;  396.879;  553.219
562.690; -206.302; -592.115; -458.792
562.969;  152.400;  472.888;  630.203
563.248;  707.292; 2966.878; 2487.219
563.527; -150.098; -290.111; -408.800
563.806; -213.613; -650.127; -521.771
564.085; -124.594; -297.105; -206.810
564.364; -197.204; -594.117; -405.790
564.643; -120.908; -276.121; -223.781
564.922;   38.502;  221.890;  397.198
565.201; -265.897; -640.109; -700.803
565.479; -154.103; -297.115; -219.792
565.758; -262.814; -810.128; -712.770
566.037;  -78.197; -155.109; -100.803
566.316; -121.903; -286.116;  -28.791
566.595;  -63.502;  -17.115;  -12.793
566.873;  102.302; -166.111;  -79.801
567.152; -217.800; -490.113; -590.797
567.431;  -86.303; -113.116;    6.210
567.709; -124.795; -344.107; -212.807
567.988; -293.001; -810.114; -769.794
568.266; -103.202; -160.115;  -68.793
568.545; -206.889; -644.100; -514.819
568.824;   46.597;  160.885;  356.208
569.102; -169.201; -351.114; -235.794
569.381; -176.103; -492.116; -407.792
569.659; -234.800; -553.113; -553.796
569.938; -238.308; -743.122; -465.780
570.216; -124.497; -225.109; -225.804
570.494; -207.201; -632.114; -572.795
570.773;  -15.108;  202.879;  114.218
571.051; -153.409; -373.123; -357.778
571.330;  -83.101; -221.113; -174.796
571.608;  -85.687; -181.098; -173.823
571.886; -235.499; -671.111; -581.799
572.164; -226.807; -739.121; -621.782
572.443; -199.193; -562.105; -512.811
572.721; -110.604; -399.117; -289.790
572.999; -147.304; -280.117; -168.788
573.277;   88.206;  379.894;  620.191
573.555;  -45.594;   94.894;   37.190
573.834;  -90.404;  -86.117; -114.788
574.112;  178.005;  880.893;  811.193
574.390;  -43.198; -143.111;  -96.801
574.668; -109.900;  -91.112;  -61.797
574.946; -103.694; -165.106; -187.810
575.224;  -67.797;   71.891;  -16.803
575.502; -128.503; -200.116; -204.791
575.780; -261.000; -767.112; -829.798
576.058;  424.402; 1589.889; 1004.200
576.336; -100.798; -210.110; -129.801
576.614; -188.300; -511.112; -340.798
576.891; -268.602; -711.115; -823.794
577.169; -122.196; -158.108; -285.805
577.447;   30.305;  169.893;  202.193
577.725;  167.301;  629.888;  854.201
578.003; -137.300;  -71.112; -371.798
578.280;  -79.593; -208.104; -242.812
578.558; -196.102; -450.115; -422.793
578.836;  -82.401; -210.114; -145.795
579.114; -264.500; -630.112; -670.797
579.391;  -41.304;   -6.117;  -18.789
579.669; -280.402; -595.114; -704.794
579.947; -111.995; -326.107; -127.806
580.224; -215.795; -692.107; -524.806
580.502;  -51.895;  127.893;   76.193
580.779;  -47.904;  -42.117;   75.210
581.057; -205.197; -584.109; -470.804
581.334; -240.591; -726.102; -695.815
581.612;   45.506;   54.895;  511.190
581.889; -120.290;  -83.101; -129.818
582.167; -128.288; -298.099; -190.821
582.444; -282.690; -845.102; -814.817
582.721;  133.210;  657.899;  715.183
582.999; -101.988; -326.100; -167.821
583.276; -268.709; -812.123; -713.779
583.553; -157.591; -364.102; -294.816
583.831; -233.393; -607.104; -631.812
584.108;   14.104;  349.892;  174.195
584.385;  -77.791; -122.102;  -98.815
584.662; -278.598; -651.111; -828.801
584.940;    4.002;  204.889;  204.199
585.217;  -62.900;  -73.113; -303.796
585.494;  -27.697;   71.890;  118.198
585.771; -141.797; -250.109; -354.804
586.048;  -93.400; -196.113;  -76.796
586.325; -251.898; -721.110; -773.801
586.602;   17.408;  230.896;  213.188
586.879; -228.889; -499.100; -580.820
587.156;  -88.094; -156.105; -331.810
587.433; -270.890; -701.102; -667.817
587.710;  -18.700;  152.888;  234.202
587.987; -134.093; -264.105; -236.811
588.264;   50.000;  315.888;  387.202
588.541;  -42.792;  -61.104;   26.187
588.818;  -55.796;   72.892;  171.196
589.095; -112.093; -163.104; -174.812
589.371; -171.097; -459.109; -414.804
589.648; -178.595; -581.107; -437.807
589.925; -200.301; -517.114; -621.795
590.202; -257.400; -741.112; -607.798
590.478;  -77.893; -166.105;  -73.811
590.755; -120.396; -241.108; -132.806
591.032; -233.398; -741.110; -699.802
591.308; -283.683; -732.094; -790.831
591.585; -198.598; -573.110; -560.802
591.862; -344.390;-1056.102; -950.817
592.138; -164.996; -475.108; -474.805
592.415; -188.792; -486.104; -495.813
592.691;  108.907;  460.896;  518.188
592.968; -129.487; -208.098; -123.824
593.244; -230.903; -695.116; -595.790
593.521;  -74.290; -105.102;  -42.817
593.797; -288.109; -810.122; -720.780
594.074; -228.586; -611.096; -588.826
594.350;  198.415;  828.905;  729.172
594.626; -123.298; -303.111; -283.801
594.903; -226.990; -643.101; -645.817
595.179;   18.308;  243.896;  418.187
595.455; -100.395; -136.107; -150.807
595.731;  -95.992;  -19.103;  -38.814
596.008; -168.899; -464.111; -434.800
596.284; -134.089; -187.100; -242.820
596.560; -178.383; -501.093; -493.833
596.836; -138.493; -173.105;  -70.810
597.112; -175.096; -582.108; -437.805
597.388;  -93.386;  -49.097;  -48.826
597.665;   71.500;  437.887;  530.203
597.941; -245.380; -572.089; -658.839
598.217; -144.597; -323.110; -293.802
598.493; -109.996;   61.891; -204.804
598.769; -103.389; -175.100;  -50.819
599.045; -185.296; -490.108; -562.806
599.321; -135.189; -193.100; -261.820
599.597; -162.197; -355.109; -476.804
599.872;   92.508;  409.896;  429.187
600.148; -100.086;  -61.097; -172.826
600.424;   11.605;   91.893;  202.193
600.700; -120.395; -170.107; -280.807
600.976; -199.486; -442.097; -464.825
601.252; -147.497; -226.109; -272.803
601.527; -298.792; -833.104; -840.813
601.803; -178.993; -453.105; -404.812
602.079;  -74.889; -124.100; -118.819
602.354; -202.482; -620.092; -531.835
602.630; -108.500; -140.113; -482.796
602.906; -284.590; -910.101; -863.818
603.181; -211.505; -627.119; -534.786
603.457;  -55.586;   98.903; -278.826
603.733; -214.307; -605.120; -626.783
604.008; -110.094; -245.106; -164.810
604.284; -215.090; -636.101; -580.817
604.559;  -60.899;   -3.112;  -42.799
604.835; -114.493; -163.105; -225.810
605.110; -297.688; -732.099; -892.821
605.385;   60.718;  224.907;  267.167
605.661; -262.784; -625.095; -729.829
605.936; -251.696; -664.108; -737.806
606.211;  -54.491;  -17.103; -170.815
606.487; -134.502; -329.114; -376.794
606.762; -279.105; -791.119; -745.786
607.037; -156.893; -501.105; -433.810
607.313; -230.885; -589.096; -574.828
607.588;  -89.494; -375.106; -137.810
607.863;  -51.490;  -28.101; -143.818
608.138;  136.302;  513.890;  516.198
608.413; -196.288; -576.099; -592.822
608.688; -125.196; -203.108; -267.805
608.964; -104.294; -509.106; -218.809
609.239;  -88.894; -107.105; -212.810
609.514;    4.907;  281.895;  240.188
609.789; -259.793; -187.104; -716.812
610.064; -198.985; -435.096; -609.827
610.339; -267.797; -855.109; -799.804
610.614;  -96.789; -131.100; -315.820
610.889;    8.507;  215.895;  107.188
611.163; -228.593; -407.104; -591.812
611.438;  -87.901;   81.886; -167.794
611.713; -217.490; -467.101; -499.817
611.988; -122.490; -144.101; -328.818
612.263; -283.991; -771.102; -717.815
612.538;   78.399;  385.887;  251.204
612.812; -282.389; -832.100; -911.820
613.087; -148.087; -358.098; -338.823
613.362; -195.595; -497.107; -557.807
613.637;   28.908;  261.897;  138.186
613.911; -109.181; -256.092; -345.835
614.186; -128.695; -249.107; -292.807
614.460; -299.572; -842.081; -758.854
614.735;  -28.777;  -55.087;  -17.843
615.010;  -61.778;   43.912;  -82.841
615.284;   53.304;  360.892;  246.195
615.559; -299.682; -792.092; -955.835
615.833;  -49.788;  -76.099;  -87.822
616.108; -118.280; -225.090; -390.837
616.382;   55.223;  274.913;  402.156
616.656; -109.580; -241.090; -232.837
616.931; -264.988; -785.099; -700.822
617.205; -319.592; -973.104; -979.813
617.480;  -70.011;  -91.125;    6.225
617.754; -144.611; -396.125; -128.774
618.028; -159.214; -369.129; -382.768
618.302;  -23.896;   73.892;  -25.805
618.577; -177.791; -371.103; -518.815
618.851; -165.497; -399.109; -600.803
619.125; -147.619; -335.134; -378.759
619.399; -125.992; -244.104; -374.813
619.673; -148.803; -330.115; -515.792
619.947; -148.101; -333.114; -448.795
620.222; -142.198; -198.110; -204.801
620.496;  -75.707;  -47.121;  -96.782
620.770;  -87.308; -187.122;  -93.781
621.044;   62.306;  323.895;  346.190
621.318; -235.407; -653.120; -614.783
621.592; -173.307; -430.121; -409.783
621.866; -201.899; -476.112; -572.799
622.140; -112.203; -207.116; -356.791
622.413;  -23.799;  138.889;  112.200
622.687; -224.390; -746.101; -492.817
622.961;  -72.396; -130.108; -143.805
623.235; -210.799; -633.111; -661.800
623.509; -271.093; -816.105; -848.811
623.783;  -27.395;  -12.107;   48.193
624.056; -130.907; -254.120; -280.783
624.330;    0.900;   63.888;   -3.797
624.604;  -90.504; -271.116; -355.790
624.877;   -2.698;  180.890;   26.198
625.151; -124.002; -249.114; -238.794
625.425; -106.992; -150.103; -283.814
625.698; -159.406; -367.119; -374.785
625.972; -233.697; -799.110; -765.802
626.245;  100.097;  685.884;  484.210
626.519; -146.707; -426.120; -340.784
626.792;  -84.495; -192.107; -380.807
627.066; -207.909; -485.122; -662.779
627.339; -251.998; -736.110; -663.802
627.613;   49.993;  351.880;  148.216
627.886;   41.703;  187.891; -612.803
628.160; -115.407;  312.880; -161.783
628.433; -246.811; -695.125; -703.775
628.706; -202.507; -517.120; -615.784
628.979;   18.690;  296.876;  117.223
629.253; -284.605; -785.119; -833.786
629.526; -119.812; -334.126; -253.772
629.799; -228.809; -641.123; -479.778
630.072; -168.014; -497.128; -516.769
630.346; -345.803;-1115.116;-1080.790
630.619; -169.595; -467.107; -545.808
630.892;   98.801;  709.889;  593.200
631.165;  155.408;  790.896;  679.187
631.438; -357.500;-1092.112;-1055.798
631.711;   47.991;  453.877;  257.221
631.984; -200.304; -523.117; -624.789
632.257; -207.004; -636.117; -681.789
632.530; -147.906; -412.119; -433.785
632.803;   41.298; -109.115;    7.207
633.076; -190.210; -360.123; -422.777
633.349;   12.986;  173.872;  121.231
633.622; -126.506; -187.119; -240.785
633.895; -323.507; -903.120; -823.783
634.167; -168.412; -496.126; -525.773
634.440;  -36.703;  -19.116; -137.792
634.713;  -42.006;  -22.119; -120.786
634.986;  120.385;  593.871;  453.233
635.258; -194.202; -507.115; -597.793
635.531;  174.395;  742.882; -343.788
635.804; -139.304; -303.117; -318.789
636.077; -234.503; -830.116; -852.791
636.349; -215.202; -586.115; -474.793
636.622;  487.488; 1695.874; 1392.228
636.894; -173.606; -474.120; -909.784
637.167; -278.713; -836.127; -789.771
637.439;  -76.513; -278.128; -213.770
637.712; -109.912; -312.126; -293.772
637.984; -220.703; -635.116; -707.791
638.257;  114.790;  515.877;  488.222
638.529; -279.311; -881.125; -924.776
638.802; -179.314; -508.128; -449.769
639.074; -333.208; -927.122; -952.781
639.346; -303.020; -942.135; -930.757
639.619;  -69.026;  -79.142; -319.744
639.891;  -59.809;  -83.122; -168.779
640.163; -222.009; -689.122; -756.780
640.435;   11.491;  273.878;  103.220
640.708;  -50.708;  -72.122; -132.780
640.980; -143.908; -366.122; -362.781
641.252;  -48.908;  -25.121;  -71.781
641.524;  148.292;  580.879;  573.219
641.796; -297.508;-1094.121; -907.782
642.068; -109.807; -191.121; -300.782
642.340; -171.407; -486.121; -566.783
642.613;   51.693;  294.880;  323.217
642.885; -258.307; -787.120; -878.783
643.157; -240.207; -810.120; -658.784
643.428;   52.794;  170.880;  218.216
643.700; -153.206; -498.120; -425.784
643.972;  -93.606;  -16.119; -133.785
644.244; -195.606; -474.119; -559.785
644.516;  -90.406; -250.119; -114.786
644.788;  125.494;  662.881;  548.214
645.060;  -47.605;  -12.119; -124.786
645.332; -188.405; -525.118; -535.787
645.603;   81.495;  479.882;  342.213
645.875; -164.705; -334.118; -369.787
646.147;  310.395; 1487.882; 1242.212
646.418; -311.404; -931.117; -918.788
646.690; -232.704; -714.117; -715.789
646.962; -172.404; -413.117; -451.789
647.233;   -9.804;   15.883;   11.211
647.505; -204.304; -595.117; -475.790
647.776;   65.996;  328.884;  229.210
648.048; -108.203; -248.116; -418.790
648.320; -232.103; -752.116; -679.791
648.591; -282.503;-1055.116; -958.791
648.862; -153.103; -505.116; -577.792
649.134;   22.697;  115.885;  198.208
649.405; -201.902; -661.115; -618.792
649.677; -190.002; -475.115; -598.793
649.948; -121.402; -181.115; -296.793
650.219;  -21.902;  -37.115; -147.793
650.491; -186.402; -431.114; -520.794
650.762; -241.401; -705.114; -731.794
651.033; -194.001; -437.114; -424.795
651.304; -280.301; -743.114; -728.795
651.576; -240.201; -680.114; -645.795
651.847;  -73.001; -250.113; -140.796
652.118;  -53.401;  -32.113; -189.796
652.389; -206.000; -639.113; -722.796
652.660;  -54.200; -147.113;  -89.797
652.931; -295.300; -897.112; -871.797
653.202; -176.200; -382.112; -541.798
653.473; -192.500; -633.112; -533.798
653.744; -194.999; -595.112; -590.798
654.015; -138.699; -356.112; -303.799
654.286; -200.799; -642.111; -663.799
654.557; -202.399; -586.111; -521.799
654.828; -360.499;-1114.111;-1088.800
655.099; -137.499; -404.111; -291.800
655.370; -193.798; -427.111; -543.801
655.641; -242.998; -656.110; -714.801
655.911; -216.898; -618.110; -638.801
656.182;   81.102;  437.890;  387.198
656.453;  188.802;  830.890;  746.198
656.724; -143.097; -466.110; -426.802
656.994; -191.297; -553.109; -568.803
657.265; -248.197; -862.109; -873.803
657.536; -168.197; -500.109; -377.804
657.806; -188.097; -561.109; -593.804
658.077; -257.696; -866.109; -950.804
658.347; -173.096; -523.108; -598.805
658.618; -243.396; -646.108; -694.805
658.888;  -31.796;  -41.108;  112.195
659.159; -159.396; -432.108; -548.806
659.429; -135.996; -292.108; -349.806
659.700; -154.095; -435.107; -390.807
659.970; -133.595; -370.107; -359.807
660.241; -266.695; -754.107; -921.807
660.511;  -56.895; -147.107; -174.808
660.781; -266.395; -793.106; -748.808
661.052; -131.194; -222.106; -381.808
661.322;  -51.194;   21.894;   -9.809
661.592;   21.006;  257.894;  148.191
661.862; -158.794; -369.106; -382.810
662.133; -196.394; -551.105; -502.810
662.403; -256.594; -770.105; -676.810
662.673; -134.293; -256.105; -213.811
662.943; -217.393; -612.105; -551.811
663.213;  -49.893;  -85.105;  -81.811
663.483; -177.893; -593.104; -568.812
663.753;  -83.093; -194.104; -152.812
664.023;  -42.092;   68.896;  -32.813
664.293; -107.992; -319.104; -126.813
664.563; -214.092; -694.104; -648.813
664.833; -225.392; -743.103; -608.814
665.103; -269.892; -730.103; -793.814
665.373; -239.091; -766.103; -806.814
665.643; -288.091; -863.103; -918.815
665.913; -209.291; -534.103; -714.815
666.182; -239.491; -685.102; -719.816
666.452;  -41.491;  -22.102;  -89.816
666.722; -248.591; -724.102; -784.816
666.992; -295.590; -948.102; -921.817
667.261; -274.890; -824.102; -808.817
667.531;  -52.690;  134.899;   45.183
667.801; -168.790; -440.101; -412.818
668.070;  176.510;  714.899;  697.182
668.340; -296.989; -883.101; -840.819
668.609;  129.811;  588.900;  301.181
668.879; -186.589; -490.100; -558.819
669.149; -179.789; -539.100; -516.820
669.418; -229.389; -698.100; -726.820
669.688; -214.189; -482.100; -666.820
669.957; -193.788; -423.099; -546.821
670.226; -115.188; -268.099; -331.821
670.496; -201.188; -431.099; -635.822
670.765; -155.788; -418.099; -501.822
671.034; -286.688; -872.099; -828.822
671.304;  -39.087;   55.902; -111.823
671.573; -369.087;-1085.098; -957.823
671.842; -110.687; -380.098; -294.823
672.112; -194.387; -692.098; -586.824
672.381; -127.487; -239.098; -214.824
672.650; -323.087;-1005.097;-1021.825
672.919; -188.386; -631.097; -507.825
673.188; -246.986; -681.097; -878.825
673.457; -355.186;-1101.097;-1143.826
673.726; -207.586; -579.096; -646.826
673.995; -152.286; -533.096; -479.826
674.265; -135.285; -263.096; -333.827
674.534; -104.885; -183.096; -235.827
674.802; -167.085; -618.096; -703.828
675.071; -279.085; -886.095; -801.828
675.340; -175.785; -464.095; -339.828
675.609;   11.916;  103.905;   82.171
675.878; -324.184; -949.095; -893.829
676.147;  -23.484;  -26.095;   -8.829
676.416; -125.784; -210.094; -294.830
676.685;  301.916; 1000.906; -622.830
676.953; -193.284; -603.094; -452.831
677.222;  -69.983; -193.094; -273.831
677.491;  -97.483;  -24.094; -127.831
677.759;  -34.683;   11.907;  172.168
678.028; -101.683; -279.093; -222.832
678.297;  -16.683;   71.907;  197.168
678.565; -321.582; -898.093; -944.833
678.834; -114.282; -311.093; -268.833
679.102; -147.082; -411.092; -391.834
679.371; -277.582; -898.092; -727.834
679.639; -291.182; -797.092; -786.834
679.908; -275.982; -794.092; -724.835
680.176; -326.481; -895.091; -941.835
680.445; -142.381; -346.091; -352.835
680.713;  -39.781;  -58.091;  -23.836
680.982; -202.681; -523.091; -525.836
681.250; -201.281; -578.091; -507.837
681.518; -178.480; -534.090; -751.837
681.787; -117.480; -204.090; -167.837
682.055; -184.180; -490.090; -422.838
682.323; -323.280; -993.090; -992.838
682.591; -103.580; -216.090; -538.838
682.859;  -74.979;    9.911;  -35.839
683.128;   28.721;  232.911;  497.161
683.396; -341.179;-1102.089;-1122.840
683.664;  -77.079; -241.089;   21.160
683.932;  -25.279;  144.911;  -76.840
684.200; -146.279; -576.088; -320.841
684.468;  -54.478;  -73.088; -124.841
684.736;  -72.478; -214.088; -175.841
685.004; -341.978;-1024.088; -982.842
685.272; -266.878; -880.088; -774.842
685.540; -207.878; -499.087; -557.843
685.808; -236.777; -651.087; -682.843
686.076; -271.277; -894.087; -969.843
686.343; -234.277; -601.087; -815.844
686.611;  -64.577; -195.087; -224.844
686.879; -170.877; -530.086; -553.844
687.147; -173.077; -483.086; -480.845
687.414;  -75.776;  -12.086; -169.845
687.682; -238.976; -658.086; -757.846
687.950;   35.224;  259.915;  263.154
688.217; -259.776; -792.085; -760.846
688.485; -200.976; -632.085; -636.847
688.753;  -64.575;  -11.085; -102.847
689.020; -280.875; -820.085; -851.847
689.288; -276.375; -853.084; -787.848
689.555;  -71.375; -195.084; -148.848
689.823; -108.175; -241.084; -345.849
690.090; -212.574; -546.084; -651.849
690.358; -341.774; -877.084; -897.849
690.625;   -5.474;  120.917;   45.150
690.892; -192.074; -403.083; -369.850
691.160;  -45.874;   72.917;  -35.850
691.427;  -13.974;  141.917;  130.149
691.694; -290.673; -855.083; -929.851
691.962; -324.173;-1177.082;-1060.852
692.229;  -23.873;  127.918;   56.148
692.496;  -53.773;  130.918;  -49.852
692.763;  -66.673; -164.082; -201.853
693.031; -210.772; -739.082; -716.853
693.298; -227.272; -509.081; -368.853
693.565;  -78.672; -155.081; -163.854
693.832;  -36.572;   -5.081;   -9.854
694.099; -235.572; -643.081; -642.855
694.366; -280.472; -882.081; -896.855
694.633; -283.971; -920.080; -633.855
694.900; 1319.829; 4367.920; -114.856
695.167;  -89.771; -214.080; -380.856
695.434; -218.871; -646.080; -623.856
695.701;   20.529;  121.921;  -61.857
695.968; -160.270; -365.079; -361.857
696.234; -212.170; -415.079; -646.858
696.501; -198.370; -776.079; -614.858
696.768; -241.270; -554.079; -617.858
697.035; -238.570; -632.078; -667.859
697.302; -201.870; -448.078; -552.859
697.568; -147.669; -458.078; -497.859
697.835; -216.069; -683.078; -624.860
698.102; -185.569; -498.078; -407.860
698.368;   71.531;  384.923;  396.139
698.635; -130.169;  -47.077; -424.861
698.901; -105.868; -240.077; -348.861
699.168; -147.568; -534.077; -456.862
699.435;  -58.568;  -72.077;  -13.862
699.701; -306.068; -868.076; -764.862
699.968; -167.468;  144.924; -441.863
700.234; -263.067; -783.076; -822.863
700.500; -192.167; -448.076; -539.864
700.767;  -21.267;   -1.075;   26.136
701.033; -333.867;-1015.075; -963.864
701.299; -178.167; -450.075; -483.865
701.566;  180.933;  950.925;  763.135
701.832;  -44.166;  -31.075;  -76.865
702.098; -323.266;-1054.074;-1034.866
702.365; -339.966;-1098.074;-1030.866
702.631; -331.566;-1038.074;-1063.867
702.897; -248.866; -765.074; -676.867
703.163;    0.935;  348.926;  254.133
703.429; -119.665; -256.073; -273.868
703.695; -229.865; -796.073; -792.868
703.961;  -87.365; -214.073; -210.868
704.227; -222.365; -630.073; -725.869
704.493;  130.635;  613.927;  510.131
704.759; -176.464; -565.072; -540.870
705.025;  -60.364; -203.072; -194.870
705.291; -216.964; -666.072; -562.870
705.557;  178.736;  719.928;   34.129
705.823; -225.264; -742.072; -694.871
706.089; -123.163; -307.071; -326.871
706.355;  -73.463; -315.071; -244.872
706.620; -280.063; -776.071; -729.872
706.886; -152.163; -309.071; -362.873
707.152; -288.463; -818.070; -973.873
707.418; -384.962;-1153.070;-1186.873
707.683; -182.562; -550.070; -530.874
707.949; -163.862; -547.070; -578.874
708.215;  -95.362; -129.070; -207.874
708.480; -178.562; -520.069; -420.875
708.746;  -23.262;   68.931;   28.125
709.011; -193.461; -578.069; -612.876
709.277; -213.361; -538.069; -543.876
709.542; -150.361; -428.069; -387.876
709.808;  -72.361;  -59.068;   89.123
710.073; -223.661; -577.068; -695.877
710.339; -101.560; -242.068; -228.877
710.604; -296.660; -780.068; -845.878
710.869; -103.860; -277.068; -366.878
711.135; -240.560; -715.067; -628.879
711.400; -199.260; -507.067; -608.879
711.665; -146.460; -404.067; -479.879
711.931; -261.459; -661.067; -677.880
712.196; -306.959; -876.067; -954.880
712.461; -179.059; -402.066; -490.880
712.726; -270.959; -727.066; -771.881
712.991; -245.659; -647.066; -664.881
713.256; -106.458; -350.066; -332.882
713.521; -150.258; -417.065; -381.882
713.787; -166.558; -454.065; -472.882
714.052; -133.858; -214.065; -400.883
714.317; -383.358;-1045.065; -981.883
714.581; -114.657; -374.065; -268.883
714.846; -305.057; -822.064; -888.884
715.111;   71.543;  261.936;  257.116
715.376;  -91.257;  -86.064; -223.885
715.641; -150.157; -365.064; -367.885
715.906; -163.457;   15.936; -551.885
716.171;   59.544;  221.937;  209.114
716.436;  -41.256;  -78.063; -104.886
716.700; -238.856; -818.063; -692.886
716.965; -295.956; -794.063; -807.887
717.230; -126.056; -339.063; -392.887
717.494;  -51.555;  -40.062; -134.888
717.759; -218.155; -784.062; -640.888
718.024;   34.145;  269.938;  250.112
718.288;  162.945;  685.938;  395.111
718.553; -309.455; -803.062; -977.889
718.817; -295.355; -883.061; -899.889
719.082;  -58.954; -115.061; -125.890
719.346; -308.554;-1000.061; -947.890
719.611;  -88.654; -300.061; -255.891
719.875; -223.054; -568.060; -537.891
720.140; -169.454; -453.060; -603.891
720.404;  -86.153; -136.060; -249.892
720.668; -140.153; -475.060; -411.892
720.933;    8.847;  146.940;  137.108
721.197; -234.953; -667.059; -600.893
721.461; -289.753; -851.059; -826.893
721.725;  -20.552;  -21.059; -250.894
721.990; -102.452; -284.059; -204.894
722.254;  -44.452;  -26.059; -108.894
722.518; -143.652; -286.058; -442.895
722.782; -170.252; -743.058; -594.895
723.046;  156.548;  614.942;  570.105
723.310;   46.149;  374.942;  210.104
723.574; -206.851; -654.058; -614.896
723.838; -194.151; -576.057; -642.897
724.102;  -92.951; -226.057; -239.897
724.366; -327.451;-1032.057; -978.897
724.630; -229.350; -749.057; -571.898
724.894; -199.850; -722.057; -514.898
725.158;   -4.550;   38.944; -295.898
725.422; -118.250; -394.056; -327.899
725.685; -165.150; -441.056; -349.899
725.949; -269.050; -566.056; -519.900
726.213; -256.549; -732.056; -811.900
726.477; -340.249;-1020.055; -933.900
726.740;  -82.149; -274.055; -104.901
727.004; -159.749; -384.055; -510.901
727.268; -169.849; -442.055; -400.901
727.531; -277.948; -961.055; -775.902
727.795; -232.548; -713.054; -673.902
728.059; -215.248; -552.054; -557.903
728.322; -219.348; -841.054; -669.903
728.586; -218.748; -692.054; -701.903
728.849; -225.648; -695.053; -756.904
729.112; -274.747; -812.053; -912.904
729.376; -260.847; -959.053; -905.904
729.639; -146.047; -536.053; -536.905
729.903; -240.947; -733.053; -699.905
730.166; -138.347; -437.052; -399.906
730.429;  -87.646; -317.052; -468.906
730.693; -189.446; -355.052; -894.906
730.956;  169.454;  810.948;  651.093
731.219; -104.846; -310.052; -103.907
731.482; -282.746;-1003.051; -894.907
731.745; -304.245; -794.051; -935.908
732.009;  -23.745;  -30.051;   50.092
732.272; -234.245; -904.051; -771.909
732.535; -125.145; -300.051; -310.909
732.798; -356.745;-1083.050;-1166.909
733.061; -150.045; -430.050; -456.910
733.324;  -49.744;   31.950; -180.910
733.587;   70.956;  290.950;  365.090
733.850; -205.744; -973.049;-1050.911
734.113;  -11.844;   33.951;   32.089
734.376; -152.544; -328.049; -447.912
734.639;  288.757; 1188.951; 1011.088
734.901; -114.143; -180.049; -402.912
735.164; -283.143; -883.048; -837.913
735.427;  -65.943; -166.048; -355.913
735.690;  -97.643; -205.048; -234.913
735.952; -332.843; -923.048; -925.914
736.215; -347.842;-1113.048;-1009.914
736.478; -264.442; -771.047; -774.915
736.740;  -34.842;   33.953;  129.085
737.003; -197.742; -658.047; -672.915
737.266;  183.258;  -94.047;   46.084
737.528; -240.241; -682.047; -660.916
737.791; -133.341; -316.046; -327.916
738.053;   46.559;  465.954;  649.083
738.316; -108.141; -162.046; -136.917
738.578; -257.941; -770.046; -736.918
738.841; -122.640; -382.046; -446.918
739.103; -240.940; -875.045; -777.918
739.365;  -53.540;   79.955;  -69.919
739.628; -235.640; -884.045; -805.919
739.890; -228.940; -758.045; -710.919
740.152; -227.040; -692.044; -754.920
740.414; -174.739; -408.044; -359.920
740.677; -206.439; -785.044; -634.921
740.939; -199.439; -587.044; -487.921
741.201; -194.439; -432.044; -572.921
741.463; -196.339; -689.043; -745.922
741.725;  -57.438;  -21.043; -199.922
741.987;    0.862;  220.957;  116.078
742.249; -260.738; -751.043; -859.923
742.511; -242.838; -703.043; -794.923
742.773; -185.238; -546.042; -546.924
743.035;  134.662;  796.958;  533.076
743.297; -346.337; -963.042;-1013.924
743.559;  -67.237; -278.042; -262.925
743.821; -238.437; -735.042; -744.925
744.083; -106.537;  -44.041; -149.925
744.345; -285.537; -869.041; -892.926
744.607;   13.764;   75.959;  122.074
744.868; -221.336; -490.041; -554.927
745.130; -332.836; -994.041;-1008.927
745.392;    6.464;   -1.040;  -44.927
745.653; -135.636; -411.040; -378.928
745.915;  228.365;  896.960;  631.072
746.177;  -36.135;   35.960;  -43.928
746.438; -204.435; -428.040; -543.929
746.700; -290.235; -947.039; -988.929
746.961; -269.635; -659.039; -740.930
747.223;  -92.935; -190.039;  -74.930
747.484; -120.734; -391.039; -471.930
747.746;  -40.534;  -23.038; -106.931
748.007; -251.334; -647.038; -689.931
748.269; -136.434; -468.038; -440.931
748.530; -208.834; -852.038; -638.932
748.791; -130.833; -354.038; -420.932
749.053;   26.167;  286.963;  163.067
749.314;  -97.833; -236.037; -169.933
749.575; -301.233; -945.037; -905.933
749.836;  -55.433; -217.037;   86.066
750.098;  -90.233;  -60.037;  -21.934
750.359;   98.768;  414.964;  555.066
750.620;  -44.532; -121.036; -220.935
750.881; -211.932; -585.036; -513.935
751.142; -313.032; -950.036; -938.936
751.403; -229.532; -789.036; -705.936
751.664; -318.131;-1034.035; -999.936
751.925;  -73.831; -175.035; -262.937
752.186;  -93.731; -298.035; -278.937
752.447; -167.631; -590.035; -445.937
752.708; -209.031; -532.035; -648.938
752.969; -203.130; -566.034; -576.938
753.230; -265.030; -777.034; -672.939
753.491; -231.530; -650.034; -631.939
753.751;  -24.730;  109.966;   19.061
754.012;   40.670;  258.967;  181.060
754.273; -101.430; -174.033;  -71.940
754.534; -182.529; -487.033; -580.940
754.794; -314.729; -926.033; -911.941
755.055;  226.171; 1051.967;  881.059
755.316; -250.729; -700.032; -566.942
755.576; -167.829; -606.032; -576.942
755.837; -212.528; -527.032; -695.942
756.097; -189.028; -530.032; -564.943
756.358; -243.228; -725.032; -770.943
756.618; -223.928; -705.031; -641.943
756.879; -131.728; -254.031; -349.944
757.139; -333.028;-1098.031;-1116.944
757.400; -205.327; -538.031; -553.945
757.660; -136.227; -365.031; -401.945
757.920;  -95.727; -266.030; -228.945
758.181; -118.727; -468.030; -351.946
758.441; -280.327; -870.030; -809.946
758.701; -130.826; -308.030; -215.946
758.961; -104.926; -220.030; -278.947
759.222; -191.526; -574.029; -502.947
759.482; -241.126; -683.029; -723.948
759.742; -251.126; -706.029; -547.948
760.002;  -64.026;  -83.029; -143.948
760.262;  -14.625;   50.972;  182.051
760.522; -169.325; -498.028; -574.949
760.782; -226.825; -738.028; -612.949
761.042; -203.925; -618.028; -573.950
761.302;  -36.325;   55.972;  -18.950
761.562;  -66.824; -164.027; -154.951
761.822; -176.524; -710.027; -551.951
762.082; -381.724;-1104.027;-1093.951
762.342; -127.224; -328.027; -403.952
762.601; -181.224; -567.027; -506.952
762.861; -123.623; -281.026; -207.952
763.121; -122.923; -406.026; -411.953
763.381; -171.723; -499.026; -485.953
763.640;  -84.223; -139.026; -307.954
763.900;  -92.623; -242.026; -203.954
764.160; -149.023; -458.025; -491.954
764.419; -216.322; -726.025; -782.955
764.679; -276.122; -795.025; -726.955
764.939;  -88.622; -124.025; -210.955
765.198; -216.822; -608.025; -563.956
765.458; -227.222; -710.024; -612.956
765.717; -194.621; -454.024; -590.957
765.976; -144.521; -428.024; -411.957
766.236; -216.521; -475.024; -610.957
766.495;   13.179;  260.977;   73.042
766.755; -354.021;-1090.023; -987.958
767.014; -227.821; -594.023; -665.958
767.273; -151.320; -373.023; -397.959
767.533;  -97.420; -228.023; -307.959
767.792;  -59.320; -151.022; -188.960
768.051; -108.420; -228.022; -276.960
768.310; -194.020; -546.022; -650.960
768.569;  -32.919; -161.022;    4.039
768.828; -127.219; -285.022; -363.961
769.088; -319.919;-1050.021; -942.961
769.347; -246.719; -755.021; -599.962
769.606; -258.119; -876.021; -857.962
769.865; -365.618;-1016.021;-1033.963
770.124;  -93.918; -411.021; -336.963
770.383; -312.218; -778.020; -910.963
770.641; -185.018; -398.020; -400.964
770.900; -308.218; -953.020; -846.964
771.159; -295.718; -851.020; -951.964
771.418; -304.917; -917.020; -779.965
771.677;  -52.517; -224.019; -293.965
771.936; -275.817; -794.019; -865.966
772.194; -260.617; -465.019; -437.966
772.453; -129.017; -213.019; -391.966
772.712;   66.284;  416.982;  329.033
772.970;  -24.816;   32.982;   63.033
773.229;  -35.216;  -22.018;  102.033
773.488; -281.616; -814.018; -770.968
773.746;   57.684;  296.982;  335.032
774.005;  -16.116;  190.983;  -22.969
774.263;    1.185;  243.983;  177.031
774.522; -211.515; -422.017; -548.969
774.780; -173.115; -484.017; -417.970
775.039; -209.915; -551.017; -531.970
775.297;  -36.115; -135.016; -351.970
775.555; -229.814; -489.016; -612.971
775.814; -222.214; -618.016; -570.971
776.072; -239.214; -749.016; -740.971
776.330; -209.214; -630.016; -520.972
776.589; -263.414; -703.015; -721.972
776.847; -234.113; -645.015; -624.973
777.105; -313.613;-1016.015;-1032.973
777.363; -180.113; -459.015; -454.973
777.621; -249.413; -660.015; -717.974
777.879;  -45.313;  -42.014;   32.026
778.138; -186.013; -554.014; -717.974
778.396; -211.912; -585.014; -526.975
778.654; -355.712;-1015.014; -970.975
778.912; -125.212; -269.014; -371.976
779.170; -259.012; -880.013; -803.976
779.427; -265.712; -922.013; -897.976
779.685; -288.411; -880.013; -832.977
779.943; -241.611; -654.013; -593.977
780.201; -305.111; -964.012; -883.978
780.459; -194.611; -651.012; -610.978
780.717; -147.011; -440.012; -390.978
780.974; -177.811; -449.012; -490.979
781.232; -161.410; -358.012; -338.979
781.490; -230.310; -551.011; -472.979
781.747; -195.810; -555.011; -476.980
782.005;   91.790;  462.989;  254.020
782.263; -339.110; -542.011;-1004.981
782.520; -133.909; -326.011; -501.981
782.778; -340.109;-1013.010;-1051.981
783.035; -323.309; -962.010; -938.982
783.293; -115.809; -248.010; -206.982
783.550; -103.109; -134.010; -198.982
783.808; -248.609; -764.010; -776.983
784.065; -329.508; -745.009; -874.983
784.322;  -72.508;   25.991;  -86.984
784.580; -257.408; -915.009; -771.984
784.837; -143.608; -392.009; -466.984
785.094; -270.408; -783.009; -762.985
785.352; -148.507; -304.008; -404.985
785.609; -286.207; -934.008; -839.985
785.866; -188.907; -345.008; -401.986
786.123; -211.807; -639.008; -583.986
786.380; -215.307; -665.008; -604.987
786.637; -118.506; -225.007; -380.987
786.895; -203.506; -456.007; -543.987
787.152;  -60.306; -135.007; -267.988
787.409;  -64.106; -123.007; -225.988
787.666; -180.806; -299.006; -378.988
787.923; -216.906; -616.006; -695.989
788.179; -176.105; -551.006; -584.989
788.436; -207.605; -585.006; -585.990
788.693;  -48.005;  -92.006;  -87.990
788.950;  -75.205; -125.005; -112.990
789.207; -155.405; -381.005; -372.991
789.464; -110.004; -161.005; -301.991
789.720;   27.496;  150.995;  110.009
789.977; -369.104;-1003.005; -671.992
790.234;  -45.604;   44.996;  -66.992
790.490; -301.404; -884.004;-1031.993
790.747;  -46.304;  -85.004;   22.007
791.004; -150.603; -426.004; -348.993
791.260; -145.803; -430.004; -560.994
791.517; -295.403; -843.003; -788.994
791.773; -145.703; -379.003; -342.994
792.030; -242.803; -596.003; -660.995
792.286; -219.202; -686.003; -636.995
792.543;  -63.802;  -74.002; -159.995
792.799; -173.602; -584.002; -382.996
793.055; -399.102;-1179.002;-1210.996
793.312; -272.302; -827.002; -816.997
793.568; -211.701; -746.002; -599.997
793.824; -104.001; -226.001; -284.997
794.081; -145.901; -447.001; -508.998
794.337; -193.501; -664.001; -561.998
794.593; -127.001; -319.001; -271.999
794.849; -281.201; -746.001; -772.999
795.105; -168.700; -270.000; -261.999
795.361; -181.100; -490.000; -457.000
795.617; -292.200; -875.000; -945.000
795.873; -196.600; -360.000; -407.000
796.129; -135.200; -368.000; -306.000
796.385;  -87.600; -124.000; -156.000
796.641;   91.700;  412.000;  550.000
796.897; -216.400; -666.000; -635.000
797.153;   75.600;  453.000;  357.000
797.409; -279.100; -785.000; -868.000
797.665; -237.100; -625.000; -732.000
797.921; -256.200; -775.000; -762.000
798.176; -282.600; -744.000; -747.000
798.432; -269.000; -824.000; -596.000
798.688; -366.400;-1174.000;-1078.000
798.943;  -67.100; -165.000; -147.000
799.199; -311.400;-1005.000; -959.000
799.455;   82.700;  369.000;  316.000
799.710; -281.500; -813.000; -380.000
799.966; -110.200; -162.000; -160.000
800.221; -205.500; -638.000; -721.000
800.477; -238.900; -743.000; -710.000
800.732; -300.300; -773.000; -800.000
800.988;   15.700;  205.000;  -19.000
801.243; -158.100; -454.000; -344.000
801.498; -241.100; -814.000; -739.000
801.754;  -94.200; -289.000; -163.000
802.009;  -98.400; -257.000; -335.000
802.264; -331.000; -967.000;-1033.000
802.520;  -69.800;  222.000;   -3.000
802.775; -164.500; -524.000; -359.000
803.030;   51.600;  395.000;  356.000
803.285; -298.200; -840.000; -903.000
803.540; -235.000; -686.000; -699.000
803.795; -225.000; -648.000; -583.000
804.051; -113.900; -279.000; -346.000
804.306;   -0.500;  168.000;  128.000
804.561;   53.700;  451.000;  362.000
804.816;  182.700;  714.000;  861.000
805.071; -109.900; -185.000; -280.000
805.325; -150.300; -257.000; -427.000
805.580; -307.400; -841.000; -877.000
805.835; -109.500; -204.000; -297.000
806.090; -231.600; -760.000; -676.000
806.345; -145.600; -344.000; -264.000
806.600; -201.000; -549.000; -632.000
806.854; -181.700; -408.000; -538.000
807.109; -155.600; -493.000; -577.000
807.364; -151.400; -407.000; -328.000
807.618; -163.900; -415.000; -381.000
807.873; -222.400; -470.000; -494.000
808.128; -133.200; -257.000; -518.000
808.382; -116.000; -224.000; -332.000
808.637; -170.200; -440.000; -511.000
808.891; -103.900; -257.000; -180.000
809.146; -305.700; -902.000; -794.000
809.400; -308.900; -848.000; -923.000
809.654; -210.500; -779.000; -551.000
809.909; -315.000; -841.000; -927.000
810.163; -280.300; -813.000; -651.000
810.418; -328.700; -940.000; -861.000
810.672; -226.000; -685.000; -690.000
810.926; -311.900; -993.000; -973.000
811.180; -168.700; -439.000; -372.000
811.434;   10.500;  240.000;  135.000
811.689; -169.700; -231.000; -365.000
811.943; -326.300; -936.000; -953.000
812.197; -281.500; -893.000; -671.000
812.451; -173.000; -379.000; -514.000
812.705; -289.600; -809.000; -619.000
812.959; -222.700; -263.000; -388.000
813.213; -106.000; -283.000; -209.000
813.467;   83.100;  470.000;  253.000
813.721; -258.400; -764.000; -792.000
813.975; -277.200; -826.000; -877.000
814.229;   54.600;  430.000;  353.000
814.482; -198.400; -517.000; -566.000
814.736; -293.300; -766.000; -744.000
814.990; -277.600; -779.000; -872.000
815.244;  -99.000; -228.000; -285.000
815.497; -224.200; -636.000; -601.000
815.751;  -76.600; -141.000;   82.000
816.005; -204.900; -470.000; -586.000
816.258; -146.800; -510.000; -363.000
816.512; -235.300; -693.000; -610.000
816.766;  -11.600;  121.000;  157.000
817.019;   13.200;  148.000;  149.000
817.273; -315.400;-1000.000; -802.000
817.526; -101.500; -206.000; -173.000
817.779; -337.800;-1049.000; -960.000
818.033; -263.600; -693.000; -807.000
818.286; -241.700; -725.000; -792.000
818.540; -194.100; -403.000; -403.000
818.793; -162.400; -402.000; -489.000
819.046; -233.600; -582.000; -520.000
819.299;  -80.100; -157.000; -166.000
819.553; -220.300; -552.000; -592.000
819.806; -345.100;-1016.000; -838.000
820.059; -107.100; -334.000; -354.000
820.312;   23.700;  152.000;  185.000
820.565;  -35.700;  110.000;  -27.000
820.818;  -70.800;  -59.000; -173.000
821.071; -347.000;-1041.000; -957.000
821.324; -180.600; -536.000; -540.000
821.577; -199.600; -457.000; -483.000
821.830; -125.200; -270.000; -172.000
822.083; -285.600; -733.000; -288.000
822.336;  -92.700; -261.000; -167.000
822.589; -279.900; -805.000; -688.000
822.842; -296.700; -875.000; -770.000
823.094; -391.400;-1076.000;-1114.000
823.347; -289.400; -925.000; -729.000
823.600;   13.900;  402.000;  187.000
823.853;  -91.600; -311.000; -267.000
824.105; -165.600; -331.000; -575.000
824.358; -262.600; -617.000; -716.000
824.611;  -40.800;  234.000;   40.000
824.863; -201.800; -612.000; -591.000
825.116;  -68.200;  -33.000;   27.000
825.368; -156.700; -366.000; -372.000
825.621; -128.700; -186.000; -240.000
825.873; -240.400; -704.000; -737.000
826.126; -253.700; -669.000; -641.000
826.378; -160.700; -389.000; -505.000
826.630; -324.800; -890.000; -898.000
826.883; -263.300; -754.000; -693.000
827.135; -141.100; -279.000; -270.000
827.387; -292.800; -893.000; -839.000
827.639;  -79.700;  -86.000;   32.000
827.892; -244.500; -742.000; -582.000
828.144; -290.800; -848.000; -804.000
828.396;  -75.500;  104.000;  -80.000
828.648; -188.000; -440.000; -333.000
828.900; -269.900; -702.000; -795.000
829.152; -257.500; -684.000; -683.000
829.404;  -91.800; -215.000; -267.000
829.656;   12.700;  321.000;  214.000
829.908;   22.100;  393.000;  229.000
830.160; -327.300;-1064.000;-1047.000
830.412; -195.000; -481.000; -430.000
830.664; -248.700; -557.000; -665.000
830.916; -117.500; -268.000; -206.000
831.167; -339.000;-1073.000; -951.000
831.419; -188.600; -623.000; -566.000
831.671; -285.300; -764.000; -809.000
831.923; -127.800; -311.000; -447.000
832.174; -135.300; -273.000; -331.000
832.426; -190.200; -493.000; -582.000
832.678; -355.100;-1043.000;-1091.000
832.929; -318.600; -947.000; -935.000
833.181; -237.700; -575.000; -677.000
833.432;  -98.200;  -59.000; -186.000
833.684;  -17.700;  112.000;  -27.000
833.935; -189.000; -610.000; -566.000
834.187; -239.600; -829.000; -823.000
834.438;  -75.900;  -58.000;  -25.000
834.689;  -85.700; -255.000; -123.000
834.941; -110.000; -343.000; -244.000
835.192; -191.500; -590.000; -533.000
835.443; -205.200; -419.000; -506.000
835.695;    3.600;  138.000;  -16.000
835.946; -201.100; -608.000; -378.000
836.197; -232.500; -599.000; -622.000
836.448; -214.800; -528.000; -395.000
836.699; -149.300; -253.000; -341.000
836.950;  -17.300;   72.000;    7.000
837.201; -336.900;-1003.000; -987.000
837.452; -125.400; -356.000; -170.000
837.703; -291.400; -791.000; -737.000
837.954; -125.700; -205.000; -365.000
838.205; -324.400;-1029.000;-1008.000
838.456; -141.300; -196.000; -282.000
838.707; -150.200; -423.000; -519.000
838.958; -238.300; -634.000; -647.000
839.209;  -33.800;   18.000;   40.000
839.460; -121.900; -439.000; -201.000
839.710; -126.100; -135.000; -297.000
839.961;  133.000;  730.000;  612.000
840.212; -204.400; -382.000; -497.000
840.462; -130.600; -328.000; -277.000
840.713; -216.900; -571.000; -536.000
840.964;  -93.300;  -62.000; -143.000
841.214; -199.500; -384.000; -624.000
841.465;  -96.800; -214.000; -141.000
841.715; -132.600; -417.000; -380.000
841.966; -245.200; -746.000; -685.000
842.216; -190.500; -330.000; -431.000
842.466;  -94.400; -169.000; -313.000
842.717; -336.600; -964.000; -952.000
842.967; -227.300; -635.000; -641.000
843.217;  -83.200;   20.000;   28.000
843.468;  -72.600; -104.000; -132.000
843.718; -242.100; -718.000; -726.000
843.968; -278.900; -837.000; -765.000
844.218; -120.000; -315.000; -262.000
844.469; -175.900; -577.000; -561.000
844.719; -252.000; -537.000; -682.000
844.969; -193.700; -550.000; -580.000
845.219; -308.300; -814.000; -862.000
845.469; -162.600; -392.000; -342.000
845.719; -273.800; -792.000; -884.000
845.969;  -27.900;  119.000;  174.000
846.219; -257.200; -738.000; -720.000
846.469;   71.500;  464.000;  432.000
846.718; -116.600; -115.000;   31.000
846.968; -284.700; -827.000; -827.000
847.218;  -92.800; -224.000; -371.000
847.468; -224.100; -586.000; -555.000
847.718; -322.000; -827.000; -798.000
847.967; -274.200; -826.000; -915.000
848.217; -174.900; -449.000; -569.000
848.467; -162.800; -405.000; -376.000
848.716; -250.500; -708.000; -725.000
848.966; -150.000; -372.000; -358.000
849.215; -172.700; -428.000; -419.000
849.465; -242.100; -785.000; -615.000
849.714; -397.500;-1132.000;-1150.000
849.964; -215.200; -551.000; -613.000
850.213; -162.400; -393.000; -355.000
850.463;   19.700;  137.000;  340.000
850.712; -220.500; -542.000; -567.000
850.961; -262.800; -739.000; -678.000
851.211; -171.400; -513.000; -504.000
851.460; -239.000; -635.000; -650.000
851.709;  -65.300;  -25.000;   18.000
851.958; -263.100; -912.000; -750.000
852.208; -316.000; -859.000; -879.000
852.457;  -79.100; -181.000;  -13.000
852.706; -298.000; -791.000; -823.000
852.955; -143.300; -507.000; -528.000
853.204; -196.000; -521.000; -461.000
853.453; -195.400; -418.000; -458.000
853.702; -289.900; -660.000; -750.000
853.951; -204.400; -532.000; -520.000
854.200; -202.200; -613.000; -562.000
854.449; -260.900; -695.000; -661.000
854.698; -155.800; -340.000; -279.000
854.946; -112.800; -181.000; -284.000
855.195; -287.800; -843.000; -868.000
855.444; -158.500; -395.000; -420.000
855.693; -183.200; -345.000; -432.000
855.941; -188.200; -387.000; -516.000
856.190; -144.400; -256.000; -382.000
856.439; -232.600; -652.000; -703.000
856.687;  -70.400;  -99.000;  -72.000
856.936; -177.500; -621.000; -323.000
857.184; -358.400;-1067.000;-1020.000
857.433; -155.300; -423.000; -512.000
857.681; -323.900; -989.000; -953.000
857.930; -112.600; -282.000; -433.000
858.178; -334.800; -856.000; -929.000
858.427; -260.700; -802.000; -781.000
858.675; -204.000; -377.000; -544.000
858.923; -178.600; -527.000; -819.000
859.172; -336.900;-1094.000;-1070.000
859.420; -130.000; -339.000; -239.000
859.668; -247.500; -624.000; -628.000
859.916;  -12.800;  109.000;  115.000
860.164; -275.500; -699.000; -603.000
860.413; -278.000; -878.000; -696.000
860.661; -245.600; -709.000; -577.000
860.909; -161.500; -339.000; -325.000
861.157; -172.500; -277.000; -444.000
861.405; -243.800; -534.000; -670.000
861.653;   28.600;  310.000;  310.000
861.901; -209.800; -543.000; -613.000
862.149; -279.900; -801.000; -824.000
862.396; -100.900; -297.000; -187.000
862.644; -154.700; -368.000; -347.000
862.892;  -13.700;   98.000;  138.000
863.140; -193.900; -549.000; -530.000
863.388; -267.000; -815.000; -759.000
863.635; -224.400; -642.000; -601.000
863.883;   17.000;  231.000;  190.000
864.131; -166.700; -288.000; -357.000
864.378; -253.000; -675.000; -540.000
864.626; -166.500; -347.000; -415.000
864.873; -219.600; -556.000; -505.000
865.121; -249.800; -714.000; -799.000
865.368;  -88.300; -173.000;   75.000
865.616;  -88.000;  -33.000;  -40.000
865.863; -190.300; -462.000; -506.000
866.111; -292.500; -795.000; -824.000
866.358; -170.200; -426.000; -420.000
866.605;  -80.400;  -64.000; -804.000
866.853; -216.600; -621.000; -537.000
867.100; -285.400; -728.000; -775.000
867.347; -248.100; -672.000; -611.000
867.594; -255.600; -740.000; -714.000
867.841;  -11.900;   97.000;   17.000
868.089; -280.200; -746.000; -698.000
868.336; -157.000; -477.000; -420.000
868.583; -234.700; -637.000; -741.000
868.830;  -60.100; -131.000; -170.000
869.077; -313.800; -859.000; -787.000
869.324; -211.500; -502.000; -458.000
869.571; -216.800; -398.000; -430.000
869.818; -226.600; -485.000; -439.000
870.065; -205.000; -439.000; -513.000
870.311; -177.100; -456.000; -542.000
870.558; -137.900; -332.000; -311.000
870.805;  -92.000; -320.000; -384.000
871.052; -195.500; -494.000; -369.000
871.298; -110.700; -204.000; -131.000
871.545;  -94.700; -151.000; -185.000
871.792; -127.200; -173.000; -222.000
872.038;  -95.000;   43.000; -126.000
872.285; -196.500; -496.000; -387.000
872.532; -138.100; -357.000; -387.000
872.778;   91.100;  556.000;  403.000
873.025; -160.300; -384.000; -359.000
873.271;  123.500;  501.000;  578.000
873.517;  -81.200; -133.000; -209.000
873.764;  -83.200; -193.000;  -80.000
874.010;  -91.100; -143.000; -230.000
874.257;  -35.300;  123.000;   90.000
874.503; -213.100; -579.000; -479.000
874.749;  -86.400;   31.000;  275.000
874.995;  -67.200;  -80.000;  -20.000
875.242; -218.600; -540.000; -478.000
875.488; -197.400; -414.000; -439.000
875.734;  -85.100; -106.000; -234.000
875.980; -338.200; -872.000;-1032.000
876.226; -103.600; -157.000; -255.000
876.472;   16.700;  343.000;  237.000
876.718;  -37.400;  184.000;  158.000
876.964;  -16.200;   56.000;   55.000
877.210; -267.900; -547.000; -677.000
877.456; -217.400; -630.000; -557.000
877.702; -294.400; -821.000; -832.000
877.948; -189.400; -377.000; -497.000
878.193;   15.900;  361.000;  255.000
878.439; -220.100; -487.000; -472.000
878.685; -163.000; -272.000; -343.000
878.931; -222.200; -618.000; -676.000
879.176; -124.700; -201.000; -201.000
879.422; -319.700; -933.000; -820.000
879.668;  -21.700;   10.000;   79.000
879.913;  -61.600;   53.000;  137.000
880.159;  -80.700; -112.000;  -17.000
880.404;  -95.800; -152.000; -162.000
880.650;  -15.500;   91.000;  141.000
880.895; -281.700; -670.000; -710.000
881.141; -204.500; -454.000; -428.000
881.386; -222.100; -503.000; -658.000
881.631; -125.400; -311.000; -166.000
881.877;  -31.100;  112.000;  -13.000
882.122; -225.000; -684.000; -600.000
882.367; -129.700; -136.000; -186.000
882.612;  -75.600;  -80.000; -176.000
882.858; -313.900; -877.000; -823.000
883.103; -137.200; -297.000; -267.000
883.348; -256.200; -759.000; -852.000
883.593; -280.900; -677.000; -602.000
883.838; -127.400; -311.000;  -24.000
884.083;   15.800;  353.000;  288.000
884.328; -150.200; -564.000; -545.000
884.573;  -98.200; -196.000; -143.000
884.818; -220.800; -694.000; -531.000
885.063; -191.900; -348.000; -315.000
885.308; -220.200; -475.000; -398.000
885.553;   24.600;  245.000;  325.000
885.797; -216.400; -545.000; -615.000
886.042;  -58.700;    8.000;   58.000
886.287; -123.700; -253.000; -211.000
886.532;  -59.900;   26.000;  204.000
886.776; -168.100; -407.000; -525.000
887.021; -240.300; -621.000; -574.000
887.265; -292.900; -685.000; -689.000
887.510; -240.300; -557.000; -496.000
887.755; -100.600; -194.000; -164.000
887.999; -255.100; -552.000; -575.000
888.244;  -77.800;  -58.000;  161.000
888.488;   85.900;  371.000;  393.000
888.732; -222.500; -368.000; -520.000
888.977; -224.400; -622.000; -567.000
889.221; -303.300; -683.000; -659.000
889.465; -181.600; -422.000; -566.000
889.710; -121.800;  -56.000; -299.000
889.954;   88.400;  579.000;  467.000
890.198; -259.300; -584.000; -707.000
890.442; -268.300; -716.000; -712.000
890.687; -286.100; -800.000; -753.000
890.931;  -99.200; -273.000; -210.000
891.175; -231.800; -502.000; -500.000
891.419; -102.700; -105.000; -110.000
891.663; -124.000; -239.000; -112.000
891.907; -272.300; -801.000; -545.000
892.151; -305.300; -920.000; -815.000
892.395; -175.400; -274.000; -387.000
892.638;   21.300;  408.000;  291.000
892.882; -300.600; -780.000; -867.000
893.126;  104.000;  758.000;  558.000
893.370; -151.200; -167.000; -168.000
893.614; -229.600; -714.000; -715.000
893.857; -158.100; -183.000; -197.000
894.101; -214.700; -527.000; -631.000
894.345;  -71.600;  300.000;  150.000
894.588;   94.700;  569.000;  380.000
894.832;  -99.500; -178.000;  -84.000
895.075; -146.100;   15.000;  -92.000
895.319; -196.500; -552.000; -420.000
895.563; -170.600; -413.000; -353.000
895.806; -238.100; -628.000; -741.000
896.049; -162.600; -576.000; -368.000
896.293;   39.700;  527.000;  405.000
896.536; -179.600; -465.000; -468.000
896.779;  -99.600; -149.000;   -1.000
897.023; -268.100; -751.000; -714.000
897.266;    6.100;  325.000;  269.000
897.509; -327.700; -900.000; -901.000
897.752;  -23.400;  149.000;  171.000
897.996; -360.300; -972.000; -864.000
898.239;  -38.500;  168.000;  102.000
898.482; -206.300; -431.000; -453.000
898.725;  -82.500;  101.000;   53.000
898.968; -281.700; -609.000; -744.000
899.211; -230.700; -513.000; -361.000
899.454; -235.400; -633.000; -539.000
899.697;  -72.000;   90.000;  -43.000
899.940; -276.700; -761.000; -757.000
900.182; -155.200; -335.000; -405.000
900.425;  -99.600; -150.000; -298.000
900.668;   20.400;  491.000;  350.000
900.911; -180.600; -292.000; -345.000
901.154;  -32.000;  141.000;   -3.000
901.396; -212.000; -407.000; -412.000
901.639; -240.500; -430.000; -496.000
901.882; -314.600; -790.000; -809.000
902.124; -110.800;  -29.000; -143.000
902.367; -195.100; -315.000; -361.000
902.609; -219.500; -476.000; -453.000
902.852;  -98.400; -108.000; -260.000
903.094; -200.100; -458.000; -337.000
903.337;  -35.700;  -26.000;   53.000
903.579; -177.200; -228.000; -441.000
903.821; -281.200; -597.000; -744.000
904.064;  -47.800;   85.000;  127.000
904.306; -152.300; -126.000; -166.000
904.548; -161.800; -152.000; -366.000
904.790; -185.400; -195.000; -340.000
905.033; -229.500; -625.000; -577.000
905.275; -232.100; -513.000; -524.000
905.517;   14.600;  468.000;  256.000
905.759; -272.100; -667.000; -761.000
906.001; -205.700; -322.000; -369.000
906.243; -152.900; -162.000; -224.000
906.485; -119.600; -265.000; -207.000
906.727; -242.300; -499.000; -542.000
906.969; -126.900;  -30.000; -135.000
907.211; -198.900; -316.000; -382.000
907.453; -133.200; -188.000; -237.000
907.695; -147.900; -158.000; -385.000
907.936;  108.300;  818.000;  706.000
908.178; -112.300;   92.000; -135.000
908.420; -146.600; -111.000; -162.000
908.662; -267.500; -633.000; -682.000
908.903; -193.800; -208.000; -123.000
909.145; -147.400; -240.000; -305.000
909.386;  -31.700;  315.000;  280.000
909.628;   19.600;  363.000;  397.000
909.870;  -44.000;   29.000;  264.000
910.111; -341.500; -809.000; -949.000
910.353; -160.600; -123.000; -161.000
910.594; -246.400; -574.000; -606.000
910.835; -176.600; -265.000; -326.000
911.077; -246.300; -503.000; -604.000
911.318; -246.600; -505.000; -471.000
911.559; -308.800; -577.000; -880.000
911.801; -157.100; -284.000; -280.000
912.042;  -92.900;  -50.000; -159.000
912.283;   52.000;  404.000;  371.000
912.524; -194.400; -396.000; -457.000
912.765; -130.100; -193.000;   79.000
913.006; -174.900; -307.000; -338.000
913.247; -213.600; -270.000; -290.000
913.488; -125.600;  -43.000;   30.000
913.729; -225.300; -373.000; -373.000
913.970;  -91.900;  -96.000; -292.000
914.211; -105.700; -160.000; -198.000
914.452;  -88.100; -118.000;  -11.000
914.693;   67.400;  510.000;  592.000
914.934;   68.300;  510.000;  440.000
915.175;  -94.400;   53.000;  -95.000
915.415; -113.900; -137.000;   27.000
915.656; -114.600;  -28.000;  192.000
915.897; -184.100; -252.000;  -82.000
916.137; -104.900;   74.000;   -9.000
916.378; -231.000; -573.000; -517.000
916.619; -144.000; -159.000;  -63.000
916.859;  -27.900;  303.000;  330.000
917.100;  326.800; 1655.000; 1070.000
917.340;  122.400;  930.000;  728.000
917.581;  101.200;  965.000;  789.000
917.821; -212.200; -171.000;  143.000
918.061; -150.600; -199.000;  -72.000
918.302; -145.600; -152.000; -211.000
918.542; -111.600;  -22.000;    3.000
918.782;  -20.800;  369.000;  377.000
919.023;   28.400;  360.000;  427.000
919.263; 2148.200; 8131.000;  202.000
919.503; -135.300; -137.000;  -54.000
919.743;   -5.300;  390.000;  266.000
919.983;  -80.300; -134.000;  -26.000
920.223; -100.300;  135.000;   14.000
920.463;   54.100;  631.000;  554.000
920.703;  -76.600;   84.000;   39.000
920.943; -117.500; -110.000;   90.000
921.183; -243.000; -414.000; -405.000
921.423;    8.800;  307.000;  546.000
921.663; -177.900; -174.000; -257.000
921.903;  -15.900;  237.000;  173.000
922.143;  -48.100;  372.000;  389.000
922.383;  -97.000;  158.000;  115.000
922.622; -120.300; -120.000;  -15.000
922.862;  118.500;  796.000;  785.000
923.102; -116.900;  -51.000;   33.000
923.341;  -99.400;   59.000;   74.000
923.581;  -17.300;  450.000;  360.000
923.821;  -31.000;  301.000;  398.000
924.060;    4.900;  351.000;  193.000
924.300; -157.600;  -16.000; -128.000
924.539;  -19.100;  584.000;  473.000
924.779;   75.300;  812.000;  597.000
925.018;  -52.200;  247.000;  353.000
925.257;   51.900;  595.000;  666.000
925.497;  -66.700;  447.000;  412.000
925.736; -101.400;  -35.000;  102.000
925.975;   48.200;  687.000;  669.000
926.214;  127.800;  907.000;  850.000
926.454;   69.000;  706.000;  757.000
926.693;    0.200;  419.000;  543.000
926.932;   99.300; 1021.000;  825.000
927.171;  217.300; 1107.000; 1044.000
927.410;  183.000; 1144.000;  967.000
927.649;  102.900;  924.000;  742.000
927.888;   33.900;  590.000;  564.000
928.127;   29.000;  680.000;  678.000
928.366;   96.600;  842.000;  826.000
928.605;   72.900;  831.000;  737.000
928.844;  197.500; 1451.000; 1393.000
929.083;   26.500;  770.000;  613.000
929.321;  232.800; 1335.000; 1359.000
929.560;  189.700; 1158.000; 1122.000
929.799;  -25.400;  574.000;  475.000
930.038;  230.400; 1025.000; 1394.000
930.276;  -42.700;  334.000;  397.000
930.515;   49.000;  827.000;  681.000
930.753;   16.700;  614.000;  589.000
930.992;   45.000;  664.000;  717.000
931.230;   75.000;  847.000;  847.000
931.469;  418.700; 2162.000;  892.000
931.707;  265.300;  840.000;  751.000
931.946;  215.800; 1278.000; 1344.000
932.184;  194.800; 1437.000; 1175.000
932.423;  159.500; 1265.000;  963.000
932.661;  207.100; 1296.000; 1428.000
932.899;   58.200;  987.000;  821.000
933.137;   -5.500;  754.000;  564.000
933.376;  241.600; 1664.000; 1335.000
933.614;  296.400; 1759.000; 1196.000
933.852;  118.000; 1357.000; 1171.000
934.090;  263.800; 1722.000; 1747.000
934.328;  235.300; 1252.000; 1457.000
934.566;   90.600; 1431.000; 1110.000
934.804;  171.600; 1263.000; 1309.000
935.042;  274.800; 1861.000; 1850.000
935.280;  360.200; 2088.000; 2063.000
935.518;  343.900; 2113.000; 2007.000
935.756;  422.400; 2481.000; 2316.000
935.994;  195.600; 1808.000; 1751.000
936.231;  630.100; 2890.000; 2950.000
936.469;  337.100; 2367.000; 2378.000
936.707;  431.000; 2220.000; 2167.000
936.945;  535.200; 2825.000; 2882.000
937.182;  474.600; 2679.000; 2741.000
937.420;  638.600; 3602.000; 3031.000
937.657;  700.800; 3365.000; 3478.000
937.895;  669.200; 3331.000; 3488.000
938.133;  655.600; 3540.000; 3528.000
938.370;  770.900; 3896.000; 4191.000
938.607;  871.900; 4488.000; 4205.000
938.845; 1229.300; 5587.000; 5549.000
939.082; 1064.500; 5387.000; 5177.000
939.320; 1134.500; 5799.000; 5728.000
939.557; 1376.100; 6549.000; 6491.000
939.794; 1491.900; 7285.000; 7097.000
940.031; 1775.400; 8421.000; 8368.000
940.269; 1991.400; 9552.000; 9107.000
940.506; 2268.000;10901.000;10507.000

