
Integration time [ms]: 100.000
Averaging Nr. [scans]: 40
Smoothing Nr. [pixels]: 0
Data measured with spectrometer [name]: 2101013U2
Wave   ;Sample   ;Dark     ;Reference
[nm]   ;[counts] ;[counts] ;[counts] 

394.013;   82.724; -450.257; -315.536
394.305;  271.397; -461.258; -419.536
394.596; 1069.493; -676.269; -527.514
394.887; 2527.110; -796.268; -654.518
395.178;  953.216;  145.736;   11.476
395.470;   98.077; -210.263; -356.526
395.761;  243.775;  305.734;  394.479
396.052;  473.967; -545.284; -306.489
396.343;  461.512; -557.276; -454.503
396.634;  150.131; -200.279; -290.497
396.926;  164.282; -618.268; -565.517
397.217;  139.367;   11.725;  -17.504
397.508;   77.933; -366.273; -154.507
397.799;   63.931; -555.279; -571.497
398.090;   26.875; -973.280; -902.495
398.381;  160.266;   11.708;  -11.473
398.672;   26.967; -585.292; -742.473
398.963;   77.487; -348.279; -373.498
399.254;  124.151;   54.709; -209.475
399.545;   -6.303;-1017.266; -883.520
399.836;   89.651; -407.277; -343.501
400.127;   42.667; -205.295; -209.468
400.418;   82.702; -423.274; -392.506
400.709;   96.487; -359.281; -333.493
401.000;   86.980; -268.291; -309.476
401.290;  119.503;  225.698;  115.545
401.581;   75.974; -166.286; -228.485
401.872;   39.039; -542.298; -486.462
402.163;   57.260; -313.296; -252.467
402.454;  108.202; -123.291; -163.475
402.744;  114.551; -844.297; -813.465
403.035;  550.132; -226.293;  -86.471
403.326;  739.020; -366.292; -384.474
403.617;  430.358;  204.701;  165.539
403.907;  264.073; -593.283; -679.490
404.198; 2242.932; -545.307; -599.446
404.489; 6011.128; -618.283; -588.491
404.779; 2081.082; -618.302; -660.456
405.070;  237.635;  -67.304; -174.451
405.360;  339.959; -259.293; -238.472
405.651;  354.543;  125.699;   98.542
405.942;  215.320;  209.714;  127.516
406.232;  388.709; -432.285; -413.487
406.523;  595.352;  641.706;  758.530
406.813;  139.572; -579.286; -644.484
407.104;  434.940;  261.708;  144.527
407.394;  266.110; -604.299; -591.462
407.685;  174.883;  336.715;  222.513
407.975;   87.801; -400.283; -382.490
408.265;  144.667; -134.289; -190.478
408.556;   88.099; -472.291; -459.475
408.846;  169.078;  474.706;  429.530
409.137;   89.175;   -1.288; -216.480
409.427;   59.234; -193.285; -271.487
409.717;   51.486; -776.273; -692.508
410.007;  155.503;    4.715; -170.486
410.298;  113.470; -360.295; -342.469
410.588;   80.031; -495.285; -510.486
410.878;   69.511; -792.287; -873.482
411.168;  134.491; -481.298; -478.463
411.459;  136.696; -295.283; -242.489
411.749;   72.698; -609.292; -507.474
412.039;   91.323; -755.289; -386.480
412.329;  220.619;   40.722;  132.501
412.619;  226.972;  -62.286; -148.485
412.909;  395.145;  639.711;  594.521
413.199;  387.800; -130.280; -251.495
413.490;  433.335;  521.710;  352.523
413.780;  153.354;-1013.279; -913.496
414.070;  347.263;  -46.276;  235.497
414.360;  431.640; -729.278; -666.498
414.650;  450.632; -726.288; -688.482
414.940;  541.179; -538.280; -441.496
415.230;  925.029;   50.712;   74.519
415.520; 5875.692;  155.730;   66.486
415.809;23258.937; -305.281; -125.493
416.099;17418.704; -388.277; -229.501
416.389; 4754.325;  435.726;  236.494
416.679; 2765.931;   91.738;   85.473
416.969;  504.816; -527.287; -503.483
417.259;  488.281;  341.721;  171.503
417.549;  693.260;  522.718;  318.508
417.838; 1565.210; -205.268; -147.518
418.128; 5110.165;  650.710;  492.522
418.418; 4207.668; -491.272; -579.509
418.708; 2869.000;    9.726;  -48.506
418.997;10810.721; -474.275; -480.505
419.287;11025.207; -733.273; -790.507
419.577;10203.470; -160.283; -123.489
419.866;34493.952; -588.277; -498.501
420.156;35859.313; -242.270;  -55.513
420.446; 6398.348; -112.263;  -26.526
420.735;  986.982; -376.271; -446.512
421.025;  838.089; 1830.722;  315.502
421.314;  848.780; -203.271; -226.512
421.604; 1917.952;   89.732;  233.484
421.893; 1100.827; -705.271; -602.511
422.183;  248.298; -487.263; -461.526
422.472;  418.503;  -36.271; -107.511
422.762;  503.878; -416.266; -379.521
423.051;  276.914; -916.276; -916.503
423.341;  362.334; -491.273; -439.507
423.630;  461.284; -121.265;   15.477
423.919;  398.170;   58.725;   49.495
424.209;  386.179;  -31.263;   56.473
424.498;  516.907;   68.732;  161.483
424.787; 1068.388; -535.267; -601.518
425.077; 3303.957;   34.735;   29.478
425.366; 5030.535; -734.262; -744.528
425.655; 9135.085;  639.727;  259.493
425.945;18660.940; -313.247; -268.554
426.234;10236.858;  117.741;  300.467
426.523; 4880.363;  -86.259; -350.534
426.812; 6591.598;  107.734;  159.480
427.101; 9645.174; -127.269; -323.515
427.390;12310.767;  -55.270;  -86.514
427.680; 3185.308; -624.257; -411.538
427.969;  542.994; -330.255; -301.540
428.258;  367.974; -385.257; -477.536
428.547;  586.797;  449.728;  397.490
428.836; 1527.360; -421.253; -398.543
429.125; 2173.565; -199.259;  -72.534
429.414;  905.033; -330.251; -294.548
429.703; 2956.783; -231.251; -213.548
429.992; 8821.261; -938.250; -828.549
430.281; 5656.066; -397.264; -331.524
430.570;  640.498;  -21.252;   32.454
430.859;  705.562;  279.741;  352.466
431.148;  514.536;  636.752;  631.446
431.437;  316.173;  391.748;  367.454
431.725;  176.176; -544.257; -481.536
432.014;  143.317; -845.253; -756.545
432.303;  439.637; -149.239; -105.569
432.592;  721.023; -460.263; -178.525
432.881; 1026.987; -601.248; -437.554
433.169; 5696.469; -343.255;  -61.540
433.458;11545.396;  445.765;  540.424
433.747; 4911.140; -397.261; -289.529
434.036; 1039.713; -275.242; -280.564
434.324; 2038.599; -395.249; -379.551
434.613; 3466.531;   40.757;  159.437
434.902; 1243.052;  333.760;  439.433
435.190;  815.961;   75.761;  295.431
435.479;  437.988;  -52.245;   83.441
435.767;  167.821; -411.244; -427.561
436.056;  286.858; -340.242; -294.563
436.345;  386.129; -372.240; -223.568
436.633;  405.894;   60.750;  383.450
436.922;  351.882;  208.760;  414.432
437.210;  853.636; -194.236;    1.426
437.499; 2838.969; -583.235; -432.576
437.787; 3099.885; -339.236;  -10.574
438.075;  701.466;   56.761;  162.430
438.364; 1010.869;  -44.238;  250.429
438.652;  622.574; -286.226; -138.592
438.941;  180.513;    3.770;  269.415
439.229;   44.170; -665.252; -466.545
439.517;   65.752; -160.234;  -85.577
439.806;   22.265; -501.225; -290.595
440.094;  211.060;  377.766;  650.421
440.382;  288.489; -653.233; -302.580
440.670;  283.644; -361.235; -285.576
440.959;   47.433; -347.223; -170.599
441.247;  100.850; -151.229; -109.587
441.535;  140.626; -266.235;   31.423
441.823;   59.957; -497.234; -305.578
442.111;  208.004;  173.771;  327.412
442.400;  691.112; -628.245; -335.559
442.688; 1948.160; -111.234; -620.579
442.976; 1454.196; -786.213; -450.617
443.264;  155.597; -324.224; -364.597
443.552;  142.076; -258.226;   51.408
443.840;  192.300;  602.765;  876.423
444.128;  119.963;  265.767;  269.420
444.416;   23.707; -694.228; -312.588
444.704;   45.938; -465.219;  -92.605
444.992;   92.128;   -0.226;  240.407
445.280;   81.139; -517.230;  -94.585
445.568;   84.875; -694.212; -396.618
445.856;  444.047; -174.221;  357.398
446.143; 1053.634;  -54.220;   -7.604
446.431;  840.060;  -25.228;  625.411
446.719;  282.032;  489.783;  675.391
447.007;  204.983;  481.769;  705.416
447.295;  177.580;  597.777;  871.402
447.583;  114.197; -464.229;  -34.587
447.870;  194.094; -434.221; -202.601
448.158;  514.988; -104.230;  129.415
448.446;  409.635; -800.219; -338.604
448.733;  200.348;   13.776;  269.403
449.021;  297.700;   60.788;  341.382
449.309;  189.640; -296.210;  208.379
449.596;  231.503;  128.783;   59.392
449.884;  180.687; -571.222; -325.600
450.172;  163.366; -756.227; -406.590
450.459;  409.104;  645.786;  780.387
450.747; 2109.702; -411.218; -147.608
451.034; 6795.536;  493.772;  889.411
451.322; 5465.183; -413.214; -170.614
451.609;  478.375;  292.777;  508.403
451.897;  556.903; -550.203; -183.634
452.184; 1660.705; -622.223; -400.598
452.472; 1583.536;   97.792;  269.375
452.759;  368.086;  512.781;  864.395
453.047;  154.447; -407.212; -125.617
453.334;  124.319; -732.219; -216.606
453.621;  122.060; -438.214; -161.615
453.909;  144.870;   13.796;  384.368
454.196;  132.891; -299.199; -123.641
454.483;  247.641;  317.798;  540.364
454.771;  156.439; -215.208;  196.374
455.058;   52.693; -316.207;  102.374
455.345;  113.471;   71.807;  344.347
455.632;   86.696; -128.207;  235.373
455.919;   54.438;  -82.196;  182.354
456.207;  -43.180; -774.198; -450.642
456.494;   10.578; -475.200;  -66.639
456.781;   32.237; -399.202; -198.635
457.068;   65.177; -253.206;  -29.628
457.355;   12.504; -698.206; -401.629
457.642;   21.734; -552.205; -290.630
457.929;   15.762; -778.194; -417.651
458.216;   72.447; -575.212; -354.617
458.503;  209.342; -173.193;  -19.652
458.790;  215.312; -864.208; -630.625
459.077;  278.392;  -77.202;  110.364
459.364;  744.305; -350.195; -210.649
459.651; 1584.600;  -46.206;  220.372
459.938;  726.702; -864.209; -665.623
460.225;  186.870;  132.799;  276.363
460.512;  -25.564; -836.197; -688.645
460.799;  131.551;  -32.218;  320.392
461.086;  112.558; -370.200; -251.640
461.372;   77.771; -509.198; -279.642
461.659;  143.790; -165.196;  108.354
461.946;   83.841; -445.193;  -54.651
462.233;  267.156;  842.800;  888.361
462.519;  348.427; -814.201; -464.639
462.806;  979.961; -768.197; -497.645
463.093;  802.861; -445.191;  -66.656
463.380;  -18.747; -920.186; -824.664
463.666;   76.138; -259.197;  -18.646
463.953;  102.075; -406.195; -243.648
464.239;  188.050; -173.195;  -77.648
464.526;  413.411;  413.806;  743.350
464.813;  392.173; -565.190; -304.658
465.099;  394.442;  606.807;  607.348
465.386;  374.396;  903.807;  921.348
465.672;   70.861; -694.197; -522.645
465.959;   51.366; -598.188; -520.662
466.245;   30.396; -468.193; -359.652
466.532;  128.248; -109.195;   63.352
466.818;  116.378; -357.186; -216.664
467.104;   19.818; -488.182; -415.672
467.391;  -10.025; -628.189; -459.658
467.677;   44.556; -289.186;    9.335
467.964;   33.357; -682.189; -471.660
468.250;  103.534; -331.186; -160.665
468.536;   99.551;   90.811;  180.341
468.822;  -22.154; -821.184; -574.668
469.109;  159.000;  351.827;  471.311
469.395;  201.380;  729.808;  787.346
469.681;  204.104;   46.811;  156.341
469.967; 1144.259; -699.188; -382.660
470.254; 2500.417; -494.188; -306.662
470.540; 1553.488; -601.196; -476.646
470.826;  228.479; -488.181; -397.675
471.112;  282.725;  288.816;  113.331
471.398;  108.179; -253.183;  -58.670
471.684;   48.158; -626.177; -447.680
471.970;   12.383; -918.180; -981.675
472.256;   32.429; -521.192; -441.654
472.542;   48.011; -499.171; -434.691
472.828;   39.364; -743.182; -607.672
473.114;   47.054; -380.166; -283.700
473.400;   39.975; -504.175; -293.684
473.686;   73.786; -452.166; -400.701
473.972;   69.239; -230.174; -131.687
474.258;  -32.600; -925.173; -843.689
474.544;  170.800; -183.178;   -2.679
474.830;  276.701;  -65.175;   45.316
475.116;  406.575; -123.190; -196.658
475.401;  574.086; -558.180; -467.676
475.687;  186.460; -725.180; -718.676
475.973;   50.972; -673.181; -770.673
476.259;  274.803;  736.825;  764.315
476.544;  366.966; -539.176; -437.682
476.830;  707.732; -398.172; -322.690
477.116;  582.615; -430.177; -336.682
477.401;  129.535;  346.820;  358.324
477.687;   -4.750; -289.175; -405.684
477.973;   32.451;   21.819;   28.326
478.258;    2.056; -448.163; -348.706
478.544;   67.189;   21.815;   61.334
478.829;  -40.484; -818.171; -738.692
479.115;  -18.319; -749.172; -651.690
479.401;   -3.315; -444.174; -449.686
479.686;   30.909; -253.180;  -74.676
479.972;  -32.870; -886.178; -776.680
480.257;   44.131; -258.166;  -65.700
480.542;    6.320; -614.170; -469.693
480.828;  225.973; 1288.824; 1392.317
481.113;  -23.604; -464.176; -426.683
481.399;  -11.445; -236.161; -202.711
481.684;  -38.095; -620.166; -462.700
481.969;   15.044; -158.159;  -73.713
482.255;   -3.744; -439.169; -285.695
482.540;   14.755; -569.178; -441.680
482.825;    4.148; -395.187; -404.663
483.110;   94.684;  -85.169; -105.696
483.396;  144.466; -840.157; -652.718
483.681;  431.014;  543.826;  730.313
483.966;  120.663; -696.160; -700.712
484.251;   13.938; -404.174; -310.687
484.536;   16.041; -356.165; -378.703
484.822;   11.641; -205.173; -218.687
485.107;  -20.996; -599.152; -502.726
485.392;  122.647;  662.836;  541.296
485.677;   75.994;  354.832;  163.302
485.962;  104.388;  160.843;  270.283
486.247;  104.339;  -14.162;   -8.707
486.532;   54.457; -178.166; -325.701
486.817;  156.825;  381.839;  431.291
487.102;  115.662; -453.154; -514.722
487.387;  566.792; -637.156; -652.718
487.672;  996.252; -154.164;  -38.705
487.957;  622.057; -394.160; -286.711
488.241;  178.371; -290.150; -314.729
488.526;  623.205; -280.152; -148.726
488.811; 1029.832; -881.177; -818.680
489.096;  793.115; -666.154; -702.723
489.381;  449.277;    3.847;  162.275
489.666;  322.030; -428.161; -510.710
489.950;  160.643;  558.846;  627.277
490.235;  -17.459; -480.151; -458.728
490.520;  -25.046; -756.161; -723.710
490.804;  -44.456; -827.156; -736.719
491.089;   12.087; -469.149; -299.732
491.374;   33.951; -132.164;  -75.704
491.658;    6.198; -817.147; -717.735
491.943;  198.285; -657.152; -609.727
492.227;  295.208; -178.155;  -38.721
492.512;   66.763; -294.157; -341.717
492.797;  -49.319; -713.149; -716.731
493.081;  -41.699; -588.147; -598.735
493.366;  -24.069; -751.161; -635.711
493.650;  197.930;  831.859;  917.254
493.935;   22.048; -648.147; -447.734
494.219;  -31.283; -778.142; -687.743
494.503;  -44.849; -585.150; -487.730
494.788;   41.979;   46.842;   74.285
495.072;  100.247;  184.850;  434.271
495.356;  177.840; -463.148; -343.733
495.641;  479.733; -812.146; -736.736
495.925;  470.049; -976.156; -903.719
496.209;   46.611; -599.149; -451.732
496.494;  -23.583; -763.142; -544.744
496.778;   30.512; -364.154; -360.722
497.062;  -44.376; -819.156; -627.719
497.346;  -28.691; -869.160; -640.711
497.631;  124.144;  580.852;  560.266
497.915;   81.743;  -64.145;  175.261
498.199;   69.166; -341.157; -277.718
498.483;   52.179; -562.152; -508.725
498.767;  170.148;  301.850;  300.271
499.051;  158.359; -126.149; -100.732
499.335;   23.982; -693.149; -739.731
499.619;  -24.844; -381.129; -423.767
499.903;   44.531; -272.155;  -65.721
500.187;   51.094; -588.153; -316.724
500.471;   34.559; -796.152; -595.727
500.755;  122.879;   62.839;  -96.710
501.039;   39.782; -270.155; -357.721
501.323;  100.156;  -21.141;  264.254
501.607;   69.407; -447.163; -503.706
501.891;   14.917; -607.156; -512.718
502.174;  -14.195; -726.144; -585.741
502.458;   87.438;   89.849;  370.273
502.742;   41.105; -180.138; -191.751
503.026;   85.747; -412.147; -254.734
503.310;  157.143; -437.159; -375.713
503.593;  104.649; -464.147; -325.735
503.877;  130.621; -232.133; -156.760
504.161;  204.122;    2.847;  -50.724
504.444;  124.507; -841.158; -710.716
504.728;  394.925; -487.164; -522.704
505.012;  621.745; -257.150;  -76.729
505.295;  495.755; -417.161; -212.711
505.579;  470.274; -256.156; -496.719
505.862;  629.390; -555.145; -333.738
506.146;  624.945; -681.159; -758.714
506.429;  343.896;  568.841;  461.286
506.713;   45.842; -732.151; -667.728
506.996;  284.686;   90.846;  295.278
507.280;  291.420; -633.165; -474.703
507.563;  213.030; -469.155; -261.721
507.847;   86.720; -423.153; -112.724
508.130;   68.781; -665.161; -456.711
508.413;   89.826; -758.167; -577.700
508.697;  212.302; -151.167;   12.300
508.980;  133.346; -422.153; -312.724
509.263;  -10.149; -466.155; -450.720
509.547;   40.470; -124.150;   82.271
509.830;   47.558; -172.160;  140.289
510.113;   90.399;  128.844;  298.281
510.396;   24.877; -530.152; -300.725
510.680;  259.941; -818.145; -812.738
510.963;  877.266;  184.846;  180.277
511.246;  834.953; -493.150; -357.730
511.529;  287.246; -482.145;  -83.739
511.812;  317.467; -250.134;   10.241
512.095;  219.614; -740.151; -396.728
512.378;   81.003; -317.147; -245.736
512.661;   11.138; -703.137; -623.753
512.944;   23.569; -750.142; -637.744
513.227;   54.635; -170.137; -171.752
513.510;   40.479; -479.144; -671.741
513.793;   39.786; -485.140; -435.747
514.076;  149.727;  -43.127;  -39.771
514.359;  102.412; -294.149; -135.732
514.642;   82.972; -442.142; -567.744
514.925;  650.559;  581.860;  561.253
515.208;  847.139; -498.134; -443.758
515.491;  564.253; -276.133; -182.761
515.773;  318.733; -410.143; -337.742
516.056; 1763.519;  249.864;  409.246
516.339; 2522.623; -754.136; -652.755
516.622; 2017.400; -518.150; -488.730
516.904; 1647.715;  882.857;  975.257
517.187;  768.934; -730.138; -523.752
517.470;  408.814; -568.143; -510.743
517.752;  383.051; -624.136; -470.756
518.035;  290.021; -708.139; -725.749
518.318;  296.323; -799.136; -744.755
518.600; 2008.131; -300.132; -325.762
518.883; 2814.896;  310.858;   88.256
519.165; 1357.927; -585.138; -426.751
519.448;  402.131;  -61.132;  -19.762
519.730;  235.710; -573.126; -415.773
520.013;  354.474;  588.867;  664.240
520.295; 1129.344;  -94.134;  -15.759
520.578; 2542.669; -335.131; -305.764
520.860; 2794.856; -254.132;   56.238
521.143; 1386.753; -763.135; -584.756
521.425;  462.123; -251.125; -279.775
521.707;  612.778; -622.127; -380.771
521.990; 1523.353; -199.127;  167.229
522.272; 1747.112; -116.140;   -4.748
522.554;  880.409; -237.143; -157.742
522.836;  443.342;  -24.134;   99.241
523.119;  255.171; -496.148; -189.734
523.401;  171.626; -448.130; -314.766
523.683;   79.713; -865.137; -693.753
523.965;  235.257;  408.862;  260.248
524.247;  234.694;   54.878;  170.220
524.529;  190.669; -451.134; -367.759
524.812;  324.328;   -3.130;  191.234
525.094;  719.131; -773.138; -631.751
525.376; 1151.357; -143.124;   78.223
525.658;  678.546; -441.136; -339.754
525.940;   18.441; -805.131; -671.764
526.222;   65.249; -188.136;  -88.755
526.504;  161.789; -190.131;   32.237
526.786;  262.172; -960.133; -647.760
527.068;  418.813; -124.123;  -67.778
527.349;  196.117; -865.137; -774.754
527.631;  139.256; -137.132;   22.238
527.913;  119.252; -664.127; -450.771
528.195;  134.191; -761.125; -639.774
528.477;  212.439;  -93.134;  -30.758
528.759;  105.353; -648.130; -522.766
529.040;   46.111; -569.123; -293.778
529.322;   55.594; -235.125;  -10.774
529.604;  169.055;  -47.130;   93.233
529.886;  175.410; -546.126; -302.773
530.167;  156.597;  232.870;  192.235
530.449;   63.477;    1.853;   63.265
530.731;    9.043; -572.122; -459.779
531.012;   48.564; -513.120; -216.784
531.294;   64.454; -118.116;  -43.792
531.575;  131.973;  290.875;  538.225
531.857;   38.734; -548.135; -266.757
532.138;   94.130; -113.141;   40.254
532.420;  199.005;  294.865;  403.244
532.701;  287.199; -722.133; -751.760
532.983;  406.227;  232.867;  182.239
533.264;  155.858; -243.126;  175.228
533.546;  -34.126; -491.136; -508.755
533.827;   61.220;  173.867;   -1.759
534.109;   55.884; -352.135;  -80.757
534.390;  123.135; -725.132; -582.762
534.671;  250.005; -270.135;  -82.756
534.953;  143.864; -751.123; -611.779
535.234;   29.314; -426.117; -255.789
535.515;  -73.752; -891.119; -735.785
535.796;   -6.627; -431.128; -193.770
536.078; -114.793;-1050.124; -904.777
536.359;   13.265;  -22.123;    3.221
536.640;   -7.608; -480.125; -197.774
536.921;  159.060;  225.871;  143.232
537.202;  345.578;  -87.138;  -16.751
537.483;  407.294;  251.869;  377.236
537.764;  147.622;   17.870;   98.235
538.045;  -34.887; -543.134; -371.758
538.326;  -31.863; -596.129; -447.768
538.607;   18.154; -686.127; -476.771
538.888;  163.805;   98.879;    5.218
539.169;  158.350; -704.122; -535.781
539.450;  330.509;  236.871;   16.233
539.731;  214.284; -361.121; -182.783
540.012;  140.114;  199.880;  412.216
540.293;   88.401;   82.876;  158.224
540.574;   32.699; -895.113; -717.796
540.855;  480.833;  435.879;  377.218
541.136;  528.872;   47.878;  139.220
541.416;  255.853; -161.130; -220.766
541.697;  171.714; -274.131; -170.763
541.978;  890.657; -270.135; -315.757
542.259; 1143.303; -211.127; -236.771
542.539;  532.972; -191.116; -186.790
542.820;  192.172;  461.875;  480.225
543.101;  126.068;  -52.145;  -77.738
543.381;   44.653; -638.127; -591.771
543.662;  236.926;  159.873; -254.771
543.942;  492.424; -751.127; -830.770
544.223;  926.824;  193.878;  161.219
544.504;  595.206; -275.124; -182.777
544.784;  498.284; -592.126; -408.773
545.065; 1460.126;  104.884; -254.791
545.345; 1752.698;  227.881;   14.215
545.626; 1115.849;  -14.113; -108.796
545.906;  755.071;   77.869;   98.235
546.186;  306.064;   92.874;  -95.773
546.467;  160.159;   99.877;  -95.778
546.747;  273.447;  264.884;  327.210
547.027;  311.030;   91.876;  111.223
547.308;  281.098; -376.127; -530.770
547.588;  349.663;  299.871;  371.232
547.868;  187.497;  458.870;  588.235
548.149;  177.484;  609.885;  593.207
548.429;   95.227; -347.127; -299.771
548.709;  156.064; -645.120; -461.784
548.989;  398.957;   84.882;   88.213
549.269; 1757.004;   10.868;  139.239
549.550; 4143.763;  215.877;  117.222
549.830; 3675.242; -758.111; -556.799
550.110;  718.299; -468.110; -320.801
550.390;  714.594; -128.122;  -56.779
550.670;  997.419; -868.114; -783.795
550.950;  685.632; -509.121; -471.782
551.230;  177.554;  549.879;  460.218
551.510;   -8.969; -381.121; -326.782
551.790;    7.057; -173.109; -127.803
552.070;  222.134;  940.877; 1181.223
552.350;  339.052; -492.119; -377.786
552.630;  488.076;   -2.121;   77.219
552.909;  297.952;  181.884;   73.209
553.189;  186.836;  -49.132;   33.237
553.469;  162.201; -703.119; -514.786
553.749;  141.305; -469.127; -357.772
554.029;  152.818;   33.883;  -24.790
554.308;  119.413; -154.115;  -37.794
554.588;   54.147; -196.128; -204.770
554.868;   50.408; -366.121;  -47.782
555.147;  126.710; -114.115;  -46.793
555.427;  478.304; -260.116; -250.792
555.707; 3255.783; -284.115; -200.793
555.986; 3985.195; -719.111; -538.800
556.266; 2050.696;   23.884;   72.210
556.546;   74.556; -888.121; -675.782
556.825;  197.467; -657.114; -556.794
557.105; 1503.845; -125.128;   17.230
557.384; 1752.550;  122.884;  187.209
557.664;  658.553; -717.116; -508.792
557.943;   86.382; -557.121; -411.782
558.222;  135.861; -345.118; -344.788
558.502;  234.511; -116.115;  -76.793
558.781;  436.957;  194.885;  499.208
559.061;  346.535; -232.118; -227.788
559.340;  238.015;  302.883;  353.211
559.619;  579.346;   93.884;  148.210
559.899;  824.267; -239.117; -266.789
560.178;  775.461; -778.115; -593.793
560.457; 2610.494; -623.117; -562.790
560.736; 3701.746; -472.111; -482.800
561.015; 2424.493; -500.128; -502.769
561.295;  332.527;  180.893;  215.193
561.574;  332.533;  119.885;  116.207
561.853;  447.986;  274.891;  303.197
562.132;  398.388;  -45.114;  182.206
562.411;  371.152;  396.879;  553.219
562.690;  101.007; -592.115; -458.792
562.969;  139.431;  472.888;  630.203
563.248;  482.724; 2966.878; 2487.219
563.527;  233.146; -290.111; -408.800
563.806;  306.977; -650.127; -521.771
564.085;  338.917; -297.105; -206.810
564.364;  185.795; -594.117; -405.790
564.643;  394.152; -276.121; -223.781
564.922; 1555.305;  221.890;  397.198
565.201; 1559.634; -640.109; -700.803
565.479;  657.255; -297.115; -219.792
565.758;  273.395; -810.128; -712.770
566.037;  404.310; -155.109; -100.803
566.316;  205.076; -286.116;  -28.791
566.595;   39.583;  -17.115;  -12.793
566.873;   96.923; -166.111;  -79.801
567.152;  -60.095; -490.113; -590.797
567.431;   21.597; -113.116;    6.210
567.709;   -2.273; -344.107; -212.807
567.988;  198.892; -810.114; -769.794
568.266;  453.658; -160.115;  -68.793
568.545;  317.615; -644.100; -514.819
568.824;  478.705;  160.885;  356.208
569.102;  446.092; -351.114; -235.794
569.381;  163.504; -492.116; -407.792
569.659;  -38.173; -553.113; -553.796
569.938;   19.298; -743.122; -465.780
570.216;   92.463; -225.109; -225.804
570.494;  -36.505; -632.114; -572.795
570.773;   33.381;  202.879;  114.218
571.051;    4.187; -373.123; -357.778
571.330;   47.099; -221.113; -174.796
571.608;   35.433; -181.098; -173.823
571.886;  -62.710; -671.111; -581.799
572.164;  -71.192; -739.121; -621.782
572.443;  -48.379; -562.105; -512.811
572.721;  -44.456; -399.117; -289.790
572.999;  -18.938; -280.117; -168.788
573.277;   86.165;  379.894;  620.191
573.555;  223.817;   94.894;   37.190
573.834; 1126.237;  -86.117; -114.788
574.112; 1290.630;  880.893;  811.193
574.390;  392.872; -143.111;  -96.801
574.668;    2.756;  -91.112;  -61.797
574.946;  -18.708; -165.106; -187.810
575.224;    9.984;   71.891;  -16.803
575.502;  -20.401; -200.116; -204.791
575.780;  -86.167; -767.112; -829.798
576.058;  220.046; 1589.889; 1004.200
576.336;  -12.749; -210.110; -129.801
576.614;  -55.917; -511.112; -340.798
576.891;   27.087; -711.115; -823.794
577.169;  409.896; -158.108; -285.805
577.447;  474.379;  169.893;  202.193
577.725;  237.212;  629.888;  854.201
578.003;   15.285;  -71.112; -371.798
578.280;   84.355; -208.104; -242.812
578.558;   68.561; -450.115; -422.793
578.836;  130.545; -210.114; -145.795
579.114;   57.306; -630.112; -670.797
579.391;   59.014;   -6.117;  -18.789
579.669;  -46.562; -595.114; -704.794
579.947;  140.726; -326.107; -127.806
580.224;  267.901; -692.107; -524.806
580.502;  265.105;  127.893;   76.193
580.779;   21.320;  -42.117;   75.210
581.057;  -67.462; -584.109; -470.804
581.334;  -93.080; -726.102; -695.815
581.612;   35.043;   54.895;  511.190
581.889;  -23.567;  -83.101; -129.818
582.167;  -23.052; -298.099; -190.821
582.444; -100.272; -845.102; -814.817
582.721;  102.154;  657.899;  715.183
582.999;   34.870; -326.100; -167.821
583.276;  403.141; -812.123; -713.779
583.553;  597.823; -364.102; -294.816
583.831;  162.477; -607.104; -631.812
584.108;   43.894;  349.892;  174.195
584.385;   -0.006; -122.102;  -98.815
584.662;  -65.427; -651.111; -828.801
584.940;   30.197;  204.889;  204.199
585.217;  -22.699;  -73.113; -303.796
585.494;   26.856;   71.890;  118.198
585.771;  169.714; -250.109; -354.804
586.048;  439.676; -196.113;  -76.796
586.325;  254.100; -721.110; -773.801
586.602;   76.530;  230.896;  213.188
586.879;  -19.034; -499.100; -580.820
587.156;   34.868; -156.105; -331.810
587.433;  -43.049; -701.102; -667.817
587.710;   70.183;  152.888;  234.202
587.987;  271.624; -264.105; -236.811
588.264;  709.360;  315.888;  387.202
588.541; 1181.558;  -61.104;   26.187
588.818; 2385.516;   72.892;  171.196
589.095; 2025.328; -163.104; -174.812
589.371;  327.987; -459.109; -414.804
589.648;   11.055; -581.107; -437.807
589.925;   20.346; -517.114; -621.795
590.202;   -2.042; -741.112; -607.798
590.478;   73.451; -166.105;  -73.811
590.755;  199.372; -241.108; -132.806
591.032; 2053.003; -741.110; -699.802
591.308; 2908.848; -732.094; -790.831
591.585; 1451.852; -573.110; -560.802
591.862;  102.527;-1056.102; -950.817
592.138;   46.070; -475.108; -474.805
592.415;  117.256; -486.104; -495.813
592.691; 1281.754;  460.896;  518.188
592.968; 1654.884; -208.098; -123.824
593.244;  789.097; -695.116; -595.790
593.521;   56.128; -105.102;  -42.817
593.797;  -24.605; -810.122; -720.780
594.074;  294.872; -611.096; -588.826
594.350;  578.358;  828.905;  729.172
594.626;  246.948; -303.111; -283.801
594.903;   85.578; -643.101; -645.817
595.179;  164.360;  243.896;  418.187
595.455;    1.531; -136.107; -150.807
595.731;    0.737;  -19.103;  -38.814
596.008;  -40.983; -464.111; -434.800
596.284;   21.544; -187.100; -242.820
596.560;   40.104; -501.093; -493.833
596.836;  146.270; -173.105;  -70.810
597.112;  292.020; -582.108; -437.805
597.388;  233.620;  -49.097;  -48.826
597.665;  102.854;  437.887;  530.203
597.941;  -65.416; -572.089; -658.839
598.217;   12.181; -323.110; -293.802
598.493;  217.015;   61.891; -204.804
598.769;  438.563; -175.100;  -50.819
599.045;  233.348; -490.108; -562.806
599.321;   35.718; -193.100; -261.820
599.597;  104.065; -355.109; -476.804
599.872;  408.858;  409.896;  429.187
600.148;  304.672;  -61.097; -172.826
600.424;  249.628;   91.893;  202.193
600.700;  204.430; -170.107; -280.807
600.976;   86.541; -442.097; -464.825
601.252;  210.436; -226.109; -272.803
601.527;  164.684; -833.104; -840.813
601.803;  116.426; -453.105; -404.812
602.079;  154.888; -124.100; -118.819
602.354;  459.414; -620.092; -531.835
602.630;  723.176; -140.113; -482.796
602.906; 1887.583; -910.101; -863.818
603.181; 5715.952; -627.119; -534.786
603.457; 4835.969;   98.903; -278.826
603.733;  685.235; -605.120; -626.783
604.008;  795.292; -245.106; -164.810
604.284; 2649.730; -636.101; -580.817
604.559; 2280.412;   -3.112;  -42.799
604.835;  417.295; -163.105; -225.810
605.110;  338.748; -732.099; -892.821
605.385;  612.557;  224.907;  267.167
605.661;  523.361; -625.095; -729.829
605.936;  943.024; -664.108; -737.806
606.211;  823.593;  -17.103; -170.815
606.487;  170.990; -329.114; -376.794
606.762;   12.827; -791.119; -745.786
607.037;  -33.855; -501.105; -433.810
607.313;  -57.246; -589.096; -574.828
607.588;    1.892; -375.106; -137.810
607.863;   23.233;  -28.101; -143.818
608.138;  158.404;  513.890;  516.198
608.413;   11.127; -576.099; -592.822
608.688;   27.420; -203.108; -267.805
608.964;  150.236; -509.106; -218.809
609.239;  195.993; -107.105; -212.810
609.514;  210.701;  281.895;  240.188
609.789;  551.105; -187.104; -716.812
610.064;  746.603; -435.096; -609.827
610.339;  700.837; -855.109; -799.804
610.614;  969.893; -131.100; -315.820
610.889;  550.476;  215.895;  107.188
611.163;   33.952; -407.104; -591.812
611.438;   69.117;   81.886; -167.794
611.713;   -9.895; -467.101; -499.817
611.988;   42.157; -144.101; -328.818
612.263;  -30.205; -771.102; -717.815
612.538;  170.101;  385.887;  251.204
612.812;  136.345; -832.100; -911.820
613.087;   90.457; -358.098; -338.823
613.362;  -60.669; -497.107; -557.807
613.637;   27.789;  261.897;  138.186
613.911;  -18.935; -256.092; -345.835
614.186;   67.929; -249.107; -292.807
614.460;  532.134; -842.081; -758.854
614.735;  644.432;  -55.087;  -17.843
615.010;  123.847;   43.912;  -82.841
615.284;  210.869;  360.892;  246.195
615.559;  318.814; -792.092; -955.835
615.833;  248.075;  -76.099;  -87.822
616.108;    3.951; -225.090; -390.837
616.382;  120.259;  274.913;  402.156
616.656;  130.826; -241.090; -232.837
616.931;  421.426; -785.099; -700.822
617.205;  893.484; -973.104; -979.813
617.480;  817.696;  -91.125;    6.225
617.754;  134.018; -396.125; -128.774
618.028;   -3.761; -369.129; -382.768
618.302;   40.143;   73.892;  -25.805
618.577;  -61.009; -371.103; -518.815
618.851;  -55.817; -399.109; -600.803
619.125;  -55.456; -335.134; -378.759
619.399;  -43.315; -244.104; -374.813
619.673;  -48.795; -330.115; -515.792
619.947;  -51.130; -333.114; -448.795
620.222;  -21.726; -198.110; -204.801
620.496;  -13.342;  -47.121;  -96.782
620.770;    3.349; -187.122;  -93.781
621.044;  182.893;  323.895;  346.190
621.318;  607.811; -653.120; -614.783
621.592;  557.383; -430.121; -409.783
621.866;  281.538; -476.112; -572.799
622.140;   11.673; -207.116; -356.791
622.413;   45.317;  138.889;  112.200
622.687;  -55.545; -746.101; -492.817
622.961;    8.693; -130.108; -143.805
623.235;  -60.582; -633.111; -661.800
623.509; -104.700; -816.105; -848.811
623.783;    7.752;  -12.107;   48.193
624.056;  -24.288; -254.120; -280.783
624.330;   42.981;   63.888;   -3.797
624.604;   35.445; -271.116; -355.790
624.877;   68.628;  180.890;   26.198
625.151;   17.414; -249.114; -238.794
625.425;  -41.939; -150.103; -283.814
625.698;  -61.379; -367.119; -374.785
625.972;  -96.344; -799.110; -765.802
626.245;   58.872;  685.884;  484.210
626.519;  -43.484; -426.120; -340.784
626.792;  -32.995; -192.107; -380.807
627.066;  -80.083; -485.122; -662.779
627.339; -102.823; -736.110; -663.802
627.613;   42.939;  351.880;  148.216
627.886;   45.983;  187.891; -612.803
628.160;  -12.615;  312.880; -161.783
628.433;  -91.152; -695.125; -703.775
628.706;  -85.509; -517.120; -615.784
628.979;   28.005;  296.876;  117.223
629.253;  -93.674; -785.119; -833.786
629.526;  268.158; -334.126; -253.772
629.799;  283.337; -641.123; -479.778
630.072;  115.690; -497.128; -516.769
630.346;  -77.703;-1115.116;-1080.790
630.619;  352.681; -467.107; -545.808
630.892;  527.969;  709.889;  593.200
631.165;  278.384;  790.896;  679.187
631.438;  -87.665;-1092.112;-1055.798
631.711;   27.790;  453.877;  257.221
631.984;  -61.658; -523.117; -624.789
632.257;  -66.361; -636.117; -681.789
632.530;  -63.029; -412.119; -433.785
632.803;   14.762; -109.115;    7.207
633.076;  -88.816; -360.123; -422.777
633.349;    1.694;  173.872;  121.231
633.622;  -40.880; -187.119; -240.785
633.895; -126.913; -903.120; -823.783
634.167;  -66.490; -496.126; -525.773
634.440;   -9.422;  -19.116; -137.792
634.713;  -13.675;  -22.119; -120.786
634.986;   73.259;  593.871;  453.233
635.258;  -68.315; -507.115; -597.793
635.531;   84.235;  742.882; -343.788
635.804;  -25.884; -303.117; -318.789
636.077;  -91.925; -830.116; -852.791
636.349;  -22.141; -586.115; -474.793
636.622;  351.082; 1695.874; 1392.228
636.894;  188.941; -474.120; -909.784
637.167;  116.401; -836.127; -789.771
637.439;    9.497; -278.128; -213.770
637.712;  -50.691; -312.126; -293.772
637.984;  -82.775; -635.116; -707.791
638.257;  327.609;  515.877;  488.222
638.529;  509.724; -881.125; -924.776
638.802;  218.815; -508.128; -449.769
639.074; -113.651; -927.122; -952.781
639.346; -118.690; -942.135; -930.757
639.619;    0.420;  -79.142; -319.744
639.891;   -4.158;  -83.122; -168.779
640.163;  -81.806; -689.122; -756.780
640.435;   22.396;  273.878;  103.220
640.708;    4.223;  -72.122; -132.780
640.980;  -18.200; -366.122; -362.781
641.252;  159.402;  -25.121;  -71.781
641.524; 1611.878;  580.879;  573.219
641.796; 1683.855;-1094.121; -907.782
642.068;  283.782; -191.121; -300.782
642.340;  -63.441; -486.121; -566.783
642.613;   33.586;  294.880;  323.217
642.885;  -97.837; -787.120; -878.783
643.157;  -45.311; -810.120; -658.784
643.428;   42.291;  170.880;  218.216
643.700;  -68.832; -498.120; -425.784
643.972;  -38.705;  -16.119; -133.785
644.244;  -92.378; -474.119; -559.785
644.516;  -51.276; -250.119; -114.786
644.788;   58.450;  662.881;  548.214
645.060;  -17.048;  -12.119; -124.786
645.332; -104.021; -525.118; -535.787
645.603;    5.856;  479.882;  342.213
645.875;  -61.792; -334.118; -369.787
646.147;  145.510; 1487.882; 1242.212
646.418;  -80.289; -931.117; -918.788
646.690;  100.913; -714.117; -715.789
646.962;   12.765; -413.117; -451.789
647.233;  -13.858;   15.883;   11.211
647.505;  -93.881; -595.117; -475.790
647.776;   16.846;  328.884;  229.210
648.048;   -6.553; -248.116; -418.790
648.320;  -77.426; -752.116; -679.791
648.591; -145.799;-1055.116; -958.791
648.862;  -82.872; -505.116; -577.792
649.134;    6.255;  115.885;  198.208
649.405;  -36.443; -661.115; -618.792
649.677;  -58.066; -475.115; -598.793
649.948;  -12.290; -181.115; -296.793
650.219;  -13.438;  -37.115; -147.793
650.491;  -79.336; -431.114; -520.794
650.762; -121.559; -705.114; -731.794
651.033;  -78.507; -437.114; -424.795
651.304;  -89.155; -743.114; -728.795
651.576;  -82.679; -680.114; -645.795
651.847;  -31.752; -250.113; -140.796
652.118;  -20.200;  -32.113; -189.796
652.389; -106.698; -639.113; -722.796
652.660;  -37.221; -147.113;  -89.797
652.931; -124.644; -897.112; -871.797
653.202;  -90.643; -382.112; -541.798
653.473;  -71.391; -633.112; -533.798
653.744;  117.511; -595.112; -590.798
654.015;  118.663; -356.112; -303.799
654.286;  -79.060; -642.111; -663.799
654.557;  -74.633; -586.111; -521.799
654.828; -157.132;-1114.111;-1088.800
655.099;  -88.655; -404.111; -291.800
655.370;  -80.903; -427.111; -543.801
655.641; -127.126; -656.110; -714.801
655.911; -108.149; -618.110; -638.801
656.182;   35.728;  437.890;  387.198
656.453;   96.629;  830.890;  746.198
656.724;  -67.094; -466.110; -426.802
656.994;  -80.067; -553.109; -568.803
657.265; -108.440; -862.109; -873.803
657.536;  -83.513; -500.109; -377.804
657.806; -102.111; -561.109; -593.804
658.077; -131.785; -866.109; -950.804
658.347;  -85.983; -523.108; -598.805
658.618; -111.606; -646.108; -694.805
658.888;  -14.554;  -41.108;  112.195
659.159;  -68.527; -432.108; -548.806
659.429;  -30.975; -292.108; -349.806
659.700;    9.527; -435.107; -390.807
659.970;   -3.347; -370.107; -359.807
660.241;  -13.445; -754.107; -921.807
660.511;  436.907; -147.107; -174.808
660.781;   68.984; -793.106; -748.808
661.052;  -53.939; -222.106; -381.808
661.322;  -19.437;   21.894;   -9.809
661.592;   18.464;  257.894;  148.191
661.862;  -80.209; -369.106; -382.810
662.133;  -96.757; -551.105; -502.810
662.403; -111.355; -770.105; -676.810
662.673;  -67.778; -256.105; -213.811
662.943; -105.001; -612.105; -551.811
663.213;  -16.050;  -85.105;  -81.811
663.483;  -86.423; -593.104; -568.812
663.753;  -52.971; -194.104; -152.812
664.023;  -11.994;   68.896;  -32.813
664.293;  -65.742; -319.104; -126.813
664.563; -105.740; -694.104; -648.813
664.833; -126.439; -743.103; -608.814
665.103; -112.087; -730.103; -793.814
665.373; -111.385; -766.103; -806.814
665.643;  -94.758; -863.103; -918.815
665.913;    4.119; -534.103; -714.815
666.182;  117.046; -685.102; -719.816
666.452;  228.672;  -22.102;  -89.816
666.722;  -25.451; -724.102; -784.816
666.992; -121.649; -948.102; -921.817
667.261;  -97.672; -824.102; -808.817
667.531;  191.280;  134.899;   45.183
667.801;  561.857; -440.101; -412.818
668.070;  232.834;  714.899;  697.182
668.340;  -97.290; -883.101; -840.819
668.609;   68.337;  588.900;  301.181
668.879;  -80.111; -490.100; -558.819
669.149;  -67.034; -539.100; -516.820
669.418; -102.957; -698.100; -726.820
669.688;  -43.355; -482.100; -666.820
669.957;   53.996; -423.099; -546.821
670.226;  -21.002; -268.099; -331.821
670.496;  -97.775; -431.099; -635.822
670.765;  -84.923; -418.099; -501.822
671.034; -150.046; -872.099; -828.822
671.304;  -17.719;   55.902; -111.823
671.573; -156.268;-1085.098; -957.823
671.842;   55.584; -380.098; -294.823
672.112;    7.136; -692.098; -586.824
672.381;  -16.037; -239.098; -214.824
672.650; -131.660;-1005.097;-1021.825
672.919;  -97.008; -631.097; -507.825
673.188; -103.882; -681.097; -878.825
673.457; -153.330;-1101.097;-1143.826
673.726;  -82.228; -579.096; -646.826
673.995;  -52.851; -533.096; -479.826
674.265;  -28.849; -263.096; -333.827
674.534;   -6.022; -183.096; -235.827
674.802;   -5.971; -618.096; -703.828
675.071;  770.456; -886.095; -801.828
675.340; 3366.633; -464.095; -339.828
675.609; 1094.160;  103.905;   82.171
675.878;   43.262; -949.095; -893.829
676.147;   20.764;  -26.095;   -8.829
676.416;   51.565; -210.094; -294.830
676.685;  626.592; 1000.906; -622.830
676.953;   77.044; -603.094; -452.831
677.222;  -37.129; -193.094; -273.831
677.491;  -33.002;  -24.094; -127.831
677.759;   -7.250;   11.907;  172.168
678.028;  -20.348; -279.093; -222.832
678.297;   -9.997;   71.907;  197.168
678.565; -141.795; -898.093; -944.833
678.834;  -62.168; -311.093; -268.833
679.102;  -73.641; -411.092; -391.834
679.371; -137.039; -898.092; -727.834
679.639; -125.562; -797.092; -786.834
679.908; -120.086; -794.092; -724.835
680.176; -146.109; -895.091; -941.835
680.445;  -73.157; -346.091; -352.835
680.713;  -21.955;  -58.091;  -23.836
680.982; -103.203; -523.091; -525.836
681.250; -113.976; -578.091; -507.837
681.518; -105.825; -534.090; -751.837
681.787;  -25.073; -204.090; -167.837
682.055;  -70.021; -490.090; -422.838
682.323; -136.269; -993.090; -992.838
682.591;    3.583; -216.090; -538.838
682.859;   71.760;    9.911;  -35.839
683.128;   10.411;  232.911;  497.161
683.396; -159.862;-1102.089;-1122.840
683.664;  -45.685; -241.089;   21.160
683.932;   -5.733;  144.911;  -76.840
684.200;  -84.331; -576.088; -320.841
684.468;  -29.204;  -73.088; -124.841
684.736;  -43.903; -214.088; -175.841
685.004; -128.601;-1024.088; -982.842
685.272;  -61.574; -880.088; -774.842
685.540;  -66.997; -499.087; -557.843
685.808;  -91.170; -651.087; -682.843
686.076; -110.318; -894.087; -969.843
686.343;  -74.767; -601.087; -815.844
686.611;   33.985; -195.087; -224.844
686.879;  327.537; -530.086; -553.844
687.147; 2835.439; -483.086; -480.845
687.414;  814.816;  -12.086; -169.845
687.682;  -19.657; -658.086; -757.846
687.950;  247.395;  259.915;  263.154
688.217;    7.621; -792.085; -760.846
688.485;  -20.302; -632.085; -636.847
688.753;  439.550;  -11.085; -102.847
689.020;  103.377; -820.085; -851.847
689.288; -109.621; -853.084; -787.848
689.555;  -36.044; -195.084; -148.848
689.823;  -48.968; -241.084; -345.849
690.090;  -89.466; -546.084; -651.849
690.358; -149.139; -877.084; -897.849
690.625;   -7.512;  120.917;   45.150
690.892;  -74.385; -403.083; -369.850
691.160;  -13.258;   72.917;  -35.850
691.427;  -13.507;  141.917;  130.149
691.694; -128.905; -855.083; -929.851
691.962; -135.153;-1177.082;-1060.852
692.229;    3.849;  127.918;   56.148
692.496;   55.801;  130.918;  -49.852
692.763;    4.978; -164.082; -201.853
693.031;  -74.496; -739.082; -716.853
693.298;  -50.544; -509.081; -368.853
693.565;  231.858; -155.081; -163.854
693.832; 1052.035;   -5.081;   -9.854
694.099;  116.762; -643.081; -642.855
694.366;  -60.111; -882.081; -896.855
694.633;  -50.285; -920.080; -633.855
694.900;  698.642; 4367.920; -114.856
695.167;  370.044; -214.080; -380.856
695.434;   98.046; -646.080; -623.856
695.701;  182.323;  121.921;  -61.857
695.968;  433.450; -365.079; -361.857
696.234;  911.227; -415.079; -646.858
696.501;10491.053; -776.079; -614.858
696.768; 5668.605; -554.079; -617.858
697.035;  330.882; -632.078; -667.859
697.302;   40.834; -448.078; -552.859
697.568;   12.736; -458.078; -497.859
697.835;  -38.162; -683.078; -624.860
698.102;  -10.786; -498.078; -407.860
698.368;   73.241;  384.923;  396.139
698.635;  -33.857;  -47.077; -424.861
698.901;  -22.605; -240.077; -348.861
699.168;   37.372; -534.077; -456.862
699.435;   63.624;  -72.077;  -13.862
699.701; -111.300; -868.076; -764.862
699.968;   11.152;  144.924; -441.863
700.234; -103.396; -783.076; -822.863
700.500;  -55.369; -448.076; -539.864
700.767;    0.608;   -1.075;   26.136
701.033; -125.940;-1015.075; -963.864
701.299;  -61.739; -450.075; -483.865
701.566;  111.388;  950.925;  763.135
701.832;   17.490;  -31.075;  -76.865
702.098; -106.758;-1054.074;-1034.866
702.365;  -75.681;-1098.074;-1030.866
702.631;  -38.629;-1038.074;-1063.867
702.897; 1178.747; -765.074; -676.867
703.163; 2153.499;  348.926;  254.133
703.429;  152.726; -256.073; -273.868
703.695;  -38.922; -796.073; -792.868
703.961;   14.630; -214.073; -210.868
704.227;  -53.918; -630.073; -725.869
704.493;  110.008;  613.927;  510.131
704.759;   -6.340; -565.072; -540.870
705.025;   32.487; -203.072; -194.870
705.291;   -6.436; -666.072; -562.870
705.557;  195.916;  719.928;   34.129
705.823;   49.068; -742.072; -694.871
706.089;  153.295; -307.071; -326.871
706.355;  364.621; -315.071; -244.872
706.620; 5849.173; -776.071; -729.872
706.886; 8573.000; -309.071; -362.873
707.152;  770.052; -818.070; -973.873
707.418;   -3.221;-1153.070;-1186.873
707.683;   19.806; -550.070; -530.874
707.949;  -33.018; -547.070; -578.874
708.215;   13.259; -129.070; -207.874
708.480;  -17.364; -520.069; -420.875
708.746;   80.588;   68.931;   28.125
709.011;  -53.110; -578.069; -612.876
709.277;  -80.658; -538.069; -543.876
709.542;  -48.207; -428.069; -387.876
709.808;    9.620;  -59.068;   89.123
710.073;  -80.778; -577.068; -695.877
710.339;  -31.876; -242.068; -228.877
710.604;   54.601; -780.068; -845.878
710.869;  305.553; -277.068; -366.878
711.135;  -68.871; -715.067; -628.879
711.400;  -74.394; -507.067; -608.879
711.665;  -56.942; -404.067; -479.879
711.931;  -99.415; -661.067; -677.880
712.196; -103.763; -876.067; -954.880
712.461;   85.514; -402.066; -490.880
712.726;  123.040; -727.066; -771.881
712.991;  -80.958; -647.066; -664.881
713.256;  -37.106; -350.066; -332.882
713.521;  -68.979; -417.065; -381.882
713.787;  -61.477; -454.065; -472.882
714.052;  -30.500; -214.065; -400.883
714.317;  -86.373;-1045.065; -981.883
714.581; 1050.278; -374.065; -268.883
714.846; 1641.630; -822.064; -888.884
715.111;  165.532;  261.936;  257.116
715.376;  -25.141;  -86.064; -223.885
715.641;  -24.689; -365.064; -367.885
715.906;  264.188;   15.936; -551.885
716.171;  106.164;  221.937;  209.114
716.436;   32.741;  -78.063; -104.886
716.700; -105.382; -818.063; -692.886
716.965; -123.930; -794.063; -807.887
717.230;  -64.953; -339.063; -392.887
717.494;  -16.826;  -40.062; -134.888
717.759;  -91.850; -784.062; -640.888
718.024;   12.902;  269.938;  250.112
718.288;   80.754;  685.938;  395.111
718.553; -143.419; -803.062; -977.889
718.817; -136.242; -883.061; -899.889
719.082;  -32.940; -115.061; -125.890
719.346; -133.014;-1000.061; -947.890
719.611;  -53.537; -300.061; -255.891
719.875;  -92.885; -568.060; -537.891
720.140;  -69.108; -453.060; -603.891
720.404;   19.869; -136.060; -249.892
720.668;  728.771; -475.060; -411.892
720.933;  299.672;  146.940;  137.108
721.197; -116.476; -667.059; -600.893
721.461; -143.999; -851.059; -826.893
721.725;  -19.747;  -21.059; -250.894
721.990;  -59.970; -284.059; -204.894
722.254;  -28.318;  -26.059; -108.894
722.518;  -71.492; -286.058; -442.895
722.782;  -96.240; -743.058; -594.895
723.046;  111.887;  614.942;  570.105
723.310;   21.014;  374.942;  210.104
723.574; -102.834; -654.058; -614.896
723.838; -107.582; -576.057; -642.897
724.102;  -48.780; -226.057; -239.897
724.366; -140.554;-1032.057; -978.897
724.630;  -82.102; -749.057; -571.898
724.894;  -81.425; -722.057; -514.898
725.158;  -16.798;   38.944; -295.898
725.422;  -61.171; -394.056; -327.899
725.685;  -62.394; -441.056; -349.899
725.949;  -75.818; -566.056; -519.900
726.213;  -79.591; -732.056; -811.900
726.477;  104.936;-1020.055; -933.900
726.740;  149.588; -274.055; -104.901
727.004;  294.190; -384.055; -510.901
727.268; 3432.592; -442.055; -400.901
727.531; 1074.018; -961.055; -775.902
727.795;  -25.430; -713.054; -673.902
728.059;  -60.978; -552.054; -557.903
728.322;  -80.376; -841.054; -669.903
728.586;    9.376; -692.054; -701.903
728.849;  -81.622; -695.053; -756.904
729.112; -107.096; -812.053; -912.904
729.376; -138.319; -959.053; -905.904
729.639;  -75.317; -536.053; -536.905
729.903; -105.915; -733.053; -699.905
730.166;  -38.963; -437.052; -399.906
730.429;  -27.136; -317.052; -468.906
730.693;  -60.885; -355.052; -894.906
730.956;  165.792;  810.948;  651.093
731.219;  633.294; -310.052; -103.907
731.482;   83.271;-1003.051; -894.907
731.745;   74.298; -794.051; -935.908
732.009;   20.075;  -30.051;   50.092
732.272;  -94.999; -904.051; -771.909
732.535;  -51.047; -300.051; -310.909
732.798; -149.745;-1083.050;-1166.909
733.061;  -60.143; -430.050; -456.910
733.324;    4.859;   31.950; -180.910
733.587;   48.036;  290.950;  365.090
733.850;  -71.437; -973.049;-1050.911
734.113;   32.564;   33.951;   32.089
734.376;   -2.359; -328.049; -447.912
734.639;  204.268; 1188.951; 1011.088
734.901;   49.820; -180.049; -402.912
735.164;  394.172; -883.048; -837.913
735.427; 1211.949; -166.048; -355.913
735.690;  101.900; -205.048; -234.913
735.952;  -28.398; -923.048; -925.914
736.215;  -31.946;-1113.048;-1009.914
736.478;   29.431; -771.047; -774.915
736.740;  183.583;   33.953;  129.085
737.003;  524.885; -658.047; -672.915
737.266; 3606.136;  -94.047;   46.084
737.528;  417.463; -682.047; -660.916
737.791;  315.365; -316.046; -327.916
738.053;  759.442;  465.954;  649.083
738.316;10346.694; -162.046; -136.917
738.578; 8212.496; -770.046; -736.918
738.841;  465.097; -382.046; -446.918
739.103;  154.924; -875.045; -777.918
739.365;  475.076;   79.955;  -69.919
739.628;    3.528; -884.045; -805.919
739.890;  -31.395; -758.045; -710.919
740.152;  -24.168; -692.044; -754.920
740.414;  -30.992; -408.044; -359.920
740.677;  -50.815; -785.044; -634.921
740.939;  -50.463; -587.044; -487.921
741.201;  226.464; -432.044; -572.921
741.463;   34.891; -689.043; -745.922
741.725;   10.568;  -21.043; -199.922
741.987;   52.070;  220.957;  116.078
742.249;  -20.829; -751.043; -859.923
742.511;  189.848; -703.043; -794.923
742.773;   27.825; -546.042; -546.924
743.035;  121.177;  796.958;  533.076
743.297;  -56.621; -963.042;-1013.924
743.559;  679.006; -278.042; -262.925
743.821;   65.607; -735.042; -744.925
744.083;    0.009;  -44.041; -149.925
744.345;  -79.514; -869.041; -892.926
744.607;   21.838;   75.959;  122.074
744.868;  -55.910; -490.041; -554.927
745.130; -103.233; -994.041;-1008.927
745.392;   31.643;   -1.040;  -44.927
745.653;  -19.230; -411.040; -378.928
745.915;  137.922;  896.960;  631.072
746.177;   48.224;   35.960;  -43.928
746.438;   -8.199; -428.040; -543.929
746.700;  -47.097; -947.039; -988.929
746.961;    3.979; -659.039; -740.930
747.223;  142.856; -190.039;  -74.930
747.484;   81.358; -391.039; -471.930
747.746;  143.710;  -23.038; -106.931
748.007;   89.612; -647.038; -689.931
748.269;  254.989; -468.038; -440.931
748.530;  459.490; -852.038; -638.932
748.791;  247.417; -354.038; -420.932
749.053;  419.669;  286.963;  163.067
749.314;  420.096; -236.037; -169.933
749.575;  493.673; -945.037; -905.933
749.836;  804.850; -217.037;   86.066
750.098; 2099.276;  -60.037;  -21.934
750.359;33381.253;  414.964;  555.066
750.620; 9714.180; -121.036; -220.935
750.881;  964.857; -585.036; -513.935
751.142; 1271.609; -950.036; -938.936
751.403;15628.811; -789.036; -705.936
751.664; 7944.063;-1034.035; -999.936
751.925;  482.614; -175.035; -262.937
752.186;  257.341; -298.035; -278.937
752.447;  124.018; -590.035; -445.937
752.708;   53.870; -532.035; -648.938
752.969;   18.447; -566.034; -576.938
753.230;    0.824; -777.034; -672.939
753.491;    1.975; -650.034; -631.939
753.751;   57.477;  109.966;   19.061
754.012;   77.779;  258.967;  181.060
754.273;   48.056; -174.033;  -71.940
754.534;   -9.192; -487.033; -580.940
754.794;  -75.540; -926.033; -911.941
755.055;  137.061; 1051.967;  881.059
755.316;  -36.762; -700.032; -566.942
755.576;  -29.760; -606.032; -576.942
755.837;  -55.883; -527.032; -695.942
756.097;  -43.406; -530.032; -564.943
756.358;  -72.179; -725.032; -770.943
756.618;  -47.053; -705.031; -641.943
756.879;   -4.701; -254.031; -349.944
757.139; -121.799;-1098.031;-1116.944
757.400;  -53.397; -538.031; -553.945
757.660;  -32.120; -365.031; -401.945
757.920;    1.732; -266.030; -228.945
758.181;  -12.967; -468.030; -351.946
758.441;  -91.440; -870.030; -809.946
758.701;  -27.063; -308.030; -215.946
758.961;  -11.936; -220.030; -278.947
759.222;  -66.259; -574.029; -502.947
759.482;  -72.957; -683.029; -723.948
759.742;  -85.956; -706.029; -547.948
760.002;   11.196;  -83.029; -143.948
760.262;   20.573;   50.972;  182.051
760.522;  -25.000; -498.028; -574.949
760.782;  -45.298; -738.028; -612.949
761.042;  -30.696; -618.028; -573.950
761.302;   46.781;   55.972;  -18.950
761.562;   43.132; -164.027; -154.951
761.822;   78.509; -710.027; -551.951
762.082;  -28.489;-1104.027;-1093.951
762.342;   75.488; -328.027; -403.952
762.601;   75.990; -567.027; -506.952
762.861;  323.442; -281.026; -207.952
763.121;  391.893; -406.026; -411.953
763.381; 6881.245; -499.026; -485.953
763.640; 8845.922; -139.026; -307.954
763.900;  368.749; -242.026; -203.954
764.160;   95.276; -458.025; -491.954
764.419;  -10.572; -726.025; -782.955
764.679;  -61.621; -795.025; -726.955
764.939;  -12.094; -124.025; -210.955
765.198;  -75.942; -608.025; -563.956
765.458;  -92.940; -710.024; -612.956
765.717;  -79.738; -454.024; -590.957
765.976;  -70.386; -428.024; -411.957
766.236;  -81.335; -475.024; -610.957
766.495;   18.542;  260.977;   73.042
766.755;  -98.556;-1090.023; -987.958
767.014;   -7.179; -594.023; -665.958
767.273;  -49.852; -373.023; -397.959
767.533;  -40.450; -228.023; -307.959
767.792;  -38.349; -151.022; -188.960
768.051;  -47.397; -228.022; -276.960
768.310;  -67.445; -546.022; -650.960
768.569;   -0.718; -161.022;    4.039
768.828;  -29.666; -285.022; -363.961
769.088; -112.589;-1050.021; -942.961
769.347;  -63.837; -755.021; -599.962
769.606;  -90.786; -876.021; -857.962
769.865; -123.434;-1016.021;-1033.963
770.124;    5.868; -411.021; -336.963
770.383;  -46.880; -778.020; -910.963
770.641;   -1.453; -398.020; -400.964
770.900;  -50.076; -953.020; -846.964
771.159;  -31.350; -851.020; -951.964
771.418;    7.952; -917.020; -779.965
771.677;  140.079; -224.019; -293.965
771.936;  147.656; -794.019; -865.966
772.194; 2083.908; -465.019; -437.966
772.453;12185.285; -213.019; -391.966
772.712;  896.336;  416.982;  329.033
772.970;  132.113;   32.982;   63.033
773.229;   94.590;  -22.018;  102.033
773.488;  -81.058; -814.018; -770.968
773.746;   53.894;  296.982;  335.032
774.005;    1.321;  190.983;  -22.969
774.263;   19.072;  243.983;  177.031
774.522;  -48.001; -422.017; -548.969
774.780;  -80.149; -484.017; -417.970
775.039;  -76.097; -551.017; -531.970
775.297;  -32.170; -135.016; -351.970
775.555; -100.068; -489.016; -612.971
775.814; -116.642; -618.016; -570.971
776.072; -104.065; -749.016; -740.971
776.330;  -95.063; -630.016; -520.972
776.589; -106.011; -703.015; -721.972
776.847; -129.359; -645.015; -624.973
777.105; -158.107;-1016.015;-1032.973
777.363;  -81.681; -459.015; -454.973
777.621; -124.554; -660.015; -717.974
777.879;  -33.527;  -42.014;   32.026
778.138;  -87.750; -554.014; -717.974
778.396; -104.498; -585.014; -526.975
778.654; -164.146;-1015.014; -970.975
778.912;  -67.319; -269.014; -371.976
779.170; -124.693; -880.013; -803.976
779.427; -147.941; -922.013; -897.976
779.685; -130.614; -880.013; -832.977
779.943;  -81.987; -654.013; -593.977
780.201; -155.435; -964.012; -883.978
780.459; -127.133; -651.012; -610.978
780.717;  -79.507; -440.012; -390.978
780.974; -106.180; -449.012; -490.979
781.232;  -70.603; -358.012; -338.979
781.490;  -76.501; -551.011; -472.979
781.747; -105.574; -555.011; -476.980
782.005;   11.103;  462.989;  254.020
782.263; -156.746; -542.011;-1004.981
782.520;  -79.394; -326.011; -501.981
782.778; -161.117;-1013.010;-1051.981
783.035; -165.565; -962.010; -938.982
783.293;  -54.863; -248.010; -206.982
783.550;  -59.311; -134.010; -198.982
783.808; -133.285; -764.010; -776.983
784.065; -157.733; -745.009; -874.983
784.322;  -39.581;   25.991;  -86.984
784.580; -133.604; -915.009; -771.984
784.837;  -89.102; -392.009; -466.984
785.094; -138.675; -783.009; -762.985
785.352;  -65.849; -304.008; -404.985
785.609; -112.872; -934.008; -839.985
785.866;  -81.145; -345.008; -401.986
786.123;  -75.993; -639.008; -583.986
786.380; -108.216; -665.008; -604.987
786.637;  -51.614; -225.007; -380.987
786.895;  -26.162; -456.007; -543.987
787.152;  -47.911; -135.007; -267.988
787.409;  -47.234; -123.007; -225.988
787.666;  -95.707; -299.006; -378.988
787.923; -104.980; -616.006; -695.989
788.179;  -97.928; -551.006; -584.989
788.436; -108.501; -585.006; -585.990
788.693;  -41.925;  -92.006;  -87.990
788.950;   78.902; -125.005; -112.990
789.207;  187.904; -381.005; -372.991
789.464;  -51.094; -161.005; -301.991
789.720;  -20.917;  150.995;  110.009
789.977; -163.540;-1003.005; -671.992
790.234;  -43.514;   44.996;  -66.992
790.490; -137.837; -884.004;-1031.993
790.747;  -27.085;  -85.004;   22.007
791.004;  -27.108; -426.004; -348.993
791.260;  -77.956; -430.004; -560.994
791.517;  -95.279; -843.003; -788.994
791.773;  -38.878; -379.003; -342.994
792.030; -118.901; -596.003; -660.995
792.286; -111.849; -686.003; -636.995
792.543;  -17.622;  -74.002; -159.995
792.799;  -67.920; -584.002; -382.996
793.055; -151.368;-1179.002;-1210.996
793.312;  -94.267; -827.002; -816.997
793.568;  -59.915; -746.002; -599.997
793.824;    9.187; -226.001; -284.997
794.081;   16.814; -447.001; -508.998
794.337;   58.491; -664.001; -561.998
794.593; 1075.243; -319.001; -271.999
794.849; 6679.144; -746.001; -772.999
795.105;  382.096; -270.000; -261.999
795.361;   16.173; -490.000; -457.000
795.617;  -52.475; -875.000; -945.000
795.873;  -50.075; -360.000; -407.000
796.129;  -45.850; -368.000; -306.000
796.385;  -14.800; -124.000; -156.000
796.641;   60.625;  412.000;  550.000
796.897;  -84.675; -666.000; -635.000
797.153;   65.225;  453.000;  357.000
797.409; -101.125; -785.000; -868.000
797.665;  -76.625; -625.000; -732.000
797.921;  -79.325; -775.000; -762.000
798.176;  -46.925; -744.000; -747.000
798.432;  -35.925; -824.000; -596.000
798.688;  -70.900;-1174.000;-1078.000
798.943;   84.500; -165.000; -147.000
799.199;   17.825;-1005.000; -959.000
799.455;  235.950;  369.000;  316.000
799.710;  146.300; -813.000; -380.000
799.966;  319.100; -162.000; -160.000
800.221;  509.425; -638.000; -721.000
800.477; 9639.625; -743.000; -710.000
800.732;10486.525; -773.000; -800.000
800.988;  702.925;  205.000;  -19.000
801.243; 1765.700; -454.000; -344.000
801.498; 9419.325; -814.000; -739.000
801.754;  613.050; -289.000; -163.000
802.009;  101.275; -257.000; -335.000
802.264;  -44.925; -967.000;-1033.000
802.520;   36.875;  222.000;   -3.000
802.775;  -44.700; -524.000; -359.000
803.030;   41.950;  395.000;  356.000
803.285; -114.825; -840.000; -903.000
803.540;  -76.700; -686.000; -699.000
803.795;  -47.075; -648.000; -583.000
804.051;  -39.850; -279.000; -346.000
804.306;   18.000;  168.000;  128.000
804.561;  120.425;  451.000;  362.000
804.816;  137.025;  714.000;  861.000
805.071;   -1.250; -185.000; -280.000
805.325;  176.125; -257.000; -427.000
805.580; -102.875; -841.000; -877.000
805.835;  -14.050; -204.000; -297.000
806.090;  -84.225; -760.000; -676.000
806.345;  -27.550; -344.000; -264.000
806.600;  -38.850; -549.000; -632.000
806.854;  -10.050; -408.000; -538.000
807.109;  -21.050; -493.000; -577.000
807.364;    8.450; -407.000; -328.000
807.618;   11.775; -415.000; -381.000
807.873;   46.125; -470.000; -494.000
808.128;   82.075; -257.000; -518.000
808.382;  100.900; -224.000; -332.000
808.637;   81.325; -440.000; -511.000
808.891;  169.375; -257.000; -180.000
809.146;   81.650; -902.000; -794.000
809.400;  255.300; -848.000; -923.000
809.654;  320.125; -779.000; -551.000
809.909;  470.175; -841.000; -927.000
810.163; 5246.300; -813.000; -651.000
810.418;16713.900; -940.000; -861.000
810.672; 1125.550; -685.000; -690.000
810.926;  756.225; -993.000; -973.000
811.180; 1370.200; -439.000; -372.000
811.434;31193.675;  240.000;  135.000
811.689;15615.250; -231.000; -365.000
811.943;  726.850; -936.000; -953.000
812.197;  361.400; -893.000; -671.000
812.451;  150.450; -379.000; -514.000
812.705;  -18.050; -809.000; -619.000
812.959;   -7.625; -263.000; -388.000
813.213;   -0.975; -283.000; -209.000
813.467;   81.900;  470.000;  253.000
813.721; -109.775; -764.000; -792.000
813.975; -101.850; -826.000; -877.000
814.229;   30.750;  430.000;  353.000
814.482;  -69.325; -517.000; -566.000
814.736; -119.400; -766.000; -744.000
814.990; -126.600; -779.000; -872.000
815.244;  -40.200; -228.000; -285.000
815.497;  -82.400; -636.000; -601.000
815.751;  -27.200; -141.000;   82.000
816.005;  -87.500; -470.000; -586.000
816.258;  -65.725; -510.000; -363.000
816.512; -107.450; -693.000; -610.000
816.766;  -13.900;  121.000;  157.000
817.019;   13.300;  148.000;  149.000
817.273; -114.975;-1000.000; -802.000
817.526;  -19.675; -206.000; -173.000
817.779;  -84.775;-1049.000; -960.000
818.033;  -71.175; -693.000; -807.000
818.286; -126.100; -725.000; -792.000
818.540; -104.950; -403.000; -403.000
818.793;  -80.875; -402.000; -489.000
819.046;  -94.975; -582.000; -520.000
819.299;  -43.350; -157.000; -166.000
819.553; -104.000; -552.000; -592.000
819.806; -152.500;-1016.000; -838.000
820.059;  -69.475; -334.000; -354.000
820.312;    3.850;  152.000;  185.000
820.565;   -8.125;  110.000;  -27.000
820.818;  -59.925;  -59.000; -173.000
821.071; -157.575;-1041.000; -957.000
821.324; -109.100; -536.000; -540.000
821.577; -102.875; -457.000; -483.000
821.830;  -70.225; -270.000; -172.000
822.083; -130.925; -733.000; -288.000
822.336;  -67.500; -261.000; -167.000
822.589; -120.800; -805.000; -688.000
822.842; -133.675; -875.000; -770.000
823.094; -186.100;-1076.000;-1114.000
823.347; -125.675; -925.000; -729.000
823.600;   -1.075;  402.000;  187.000
823.853;  -43.775; -311.000; -267.000
824.105;  -71.300; -331.000; -575.000
824.358;  -97.000; -617.000; -716.000
824.611;   24.950;  234.000;   40.000
824.863;  -51.950; -612.000; -591.000
825.116;   38.450;  -33.000;   27.000
825.368;   57.675; -366.000; -372.000
825.621;  153.100; -186.000; -240.000
825.873;   75.000; -704.000; -737.000
826.126;  500.700; -669.000; -641.000
826.378;11024.650; -389.000; -505.000
826.630; 3494.800; -890.000; -898.000
826.883;   59.025; -754.000; -693.000
827.135;   52.125; -279.000; -270.000
827.387; -111.100; -893.000; -839.000
827.639;  -30.450;  -86.000;   32.000
827.892; -117.625; -742.000; -582.000
828.144; -137.800; -848.000; -804.000
828.396;  -34.350;  104.000;  -80.000
828.648;  -99.425; -440.000; -333.000
828.900; -145.125; -702.000; -795.000
829.152; -130.375; -684.000; -683.000
829.404;  -64.525; -215.000; -267.000
829.656;   -0.700;  321.000;  214.000
829.908;  -32.325;  393.000;  229.000
830.160; -158.350;-1064.000;-1047.000
830.412;  -94.600; -481.000; -430.000
830.664; -129.625; -557.000; -665.000
830.916;  -81.825; -268.000; -206.000
831.167; -168.275;-1073.000; -951.000
831.419; -108.600; -623.000; -566.000
831.671; -144.500; -764.000; -809.000
831.923;  -98.500; -311.000; -447.000
832.174;  -82.275; -273.000; -331.000
832.426; -117.125; -493.000; -582.000
832.678; -183.100;-1043.000;-1091.000
832.929; -160.950; -947.000; -935.000
833.181;  -71.350; -575.000; -677.000
833.432;  -50.500;  -59.000; -186.000
833.684;  -24.675;  112.000;  -27.000
833.935; -118.000; -610.000; -566.000
834.187; -127.075; -829.000; -823.000
834.438;  -52.425;  -58.000;  -25.000
834.689;  -66.500; -255.000; -123.000
834.941;  -53.250; -343.000; -244.000
835.192; -105.450; -590.000; -533.000
835.443;  -98.500; -419.000; -506.000
835.695;   -7.400;  138.000;  -16.000
835.946;  -80.750; -608.000; -378.000
836.197; -107.225; -599.000; -622.000
836.448;  -87.975; -528.000; -395.000
836.699;  -70.350; -253.000; -341.000
836.950;   -4.275;   72.000;    7.000
837.201; -163.150;-1003.000; -987.000
837.452;  -50.075; -356.000; -170.000
837.703; -114.700; -791.000; -737.000
837.954;  -49.375; -205.000; -365.000
838.205;  -85.675;-1029.000;-1008.000
838.456;  150.875; -196.000; -282.000
838.707;    5.700; -423.000; -519.000
838.958;   -6.550; -634.000; -647.000
839.209;  266.900;   18.000;   40.000
839.460;  115.100; -439.000; -201.000
839.710;  170.350; -135.000; -297.000
839.961;  400.450;  730.000;  612.000
840.212;  320.875; -382.000; -497.000
840.462; 1047.425; -328.000; -277.000
840.713;16728.100; -571.000; -536.000
840.964; 8530.000;  -62.000; -143.000
841.214;  530.075; -384.000; -624.000
841.465;  535.450; -214.000; -141.000
841.715;  484.350; -417.000; -380.000
841.966;  579.825; -746.000; -685.000
842.216; 6836.125; -330.000; -431.000
842.466;32393.800; -169.000; -313.000
842.717; 2326.850; -964.000; -952.000
842.967;  279.775; -635.000; -641.000
843.217;  255.600;   20.000;   28.000
843.468;   66.425; -104.000; -132.000
843.718;  -52.625; -718.000; -726.000
843.968;  -97.225; -837.000; -765.000
844.218;  -10.200; -315.000; -262.000
844.469;  -67.025; -577.000; -561.000
844.719; -102.500; -537.000; -682.000
844.969;  -96.950; -550.000; -580.000
845.219; -138.375; -814.000; -862.000
845.469;  -76.750; -392.000; -342.000
845.719; -142.950; -792.000; -884.000
845.969;  -31.425;  119.000;  174.000
846.219; -132.525; -738.000; -720.000
846.469;    5.025;  464.000;  432.000
846.718;  -47.575; -115.000;   31.000
846.968; -142.000; -827.000; -827.000
847.218;  -42.925; -224.000; -371.000
847.468; -108.400; -586.000; -555.000
847.718; -140.650; -827.000; -798.000
847.967; -133.000; -826.000; -915.000
848.217;  -84.950; -449.000; -569.000
848.467;  -77.150; -405.000; -376.000
848.716; -114.025; -708.000; -725.000
848.966;   -3.775; -372.000; -358.000
849.215;  -60.425; -428.000; -419.000
849.465;  -93.475; -785.000; -615.000
849.714; -137.300;-1132.000;-1150.000
849.964;  -61.250; -551.000; -613.000
850.213;  -26.000; -393.000; -355.000
850.463;   70.500;  137.000;  340.000
850.712;   -6.625; -542.000; -567.000
850.961;   14.650; -739.000; -678.000
851.211;   94.525; -513.000; -504.000
851.460;  164.550; -635.000; -650.000
851.709;  539.000;  -25.000;   18.000
851.958; 9260.925; -912.000; -750.000
852.208;14228.175; -859.000; -879.000
852.457;  555.425; -181.000;  -13.000
852.706;   80.575; -791.000; -823.000
852.955;   25.775; -507.000; -528.000
853.204;  -63.875; -521.000; -461.000
853.453;  -83.175; -418.000; -458.000
853.702; -123.225; -660.000; -750.000
853.951; -107.700; -532.000; -520.000
854.200; -108.850; -613.000; -562.000
854.449; -136.925; -695.000; -661.000
854.698; -102.600; -340.000; -279.000
854.946;  -76.400; -181.000; -284.000
855.195; -158.300; -843.000; -868.000
855.444;  -96.825; -395.000; -420.000
855.693; -131.350; -345.000; -432.000
855.941; -112.350; -387.000; -516.000
856.190;  -57.650; -256.000; -382.000
856.439; -127.700; -652.000; -703.000
856.687;  -59.700;  -99.000;  -72.000
856.936; -115.525; -621.000; -323.000
857.184; -184.575;-1067.000;-1020.000
857.433;  -99.550; -423.000; -512.000
857.681; -161.150; -989.000; -953.000
857.930;  -75.475; -282.000; -433.000
858.178; -172.525; -856.000; -929.000
858.427; -159.250; -802.000; -781.000
858.675; -117.875; -377.000; -544.000
858.923; -117.950; -527.000; -819.000
859.172; -168.875;-1094.000;-1070.000
859.420;  -93.125; -339.000; -239.000
859.668; -128.600; -624.000; -628.000
859.916;  -35.500;  109.000;  115.000
860.164; -118.325; -699.000; -603.000
860.413;  178.400; -878.000; -696.000
860.661;  203.750; -709.000; -577.000
860.909;  -92.325; -339.000; -325.000
861.157;  -83.675; -277.000; -444.000
861.405; -124.100; -534.000; -670.000
861.653;    5.800;  310.000;  310.000
861.901;   97.500; -543.000; -613.000
862.149;   -7.675; -801.000; -824.000
862.396;  -79.075; -297.000; -187.000
862.644;  -95.300; -368.000; -347.000
862.892;  -51.950;   98.000;  138.000
863.140; -102.400; -549.000; -530.000
863.388; -163.100; -815.000; -759.000
863.635; -123.300; -642.000; -601.000
863.883;  -19.350;  231.000;  190.000
864.131;  -99.975; -288.000; -357.000
864.378; -136.325; -675.000; -540.000
864.626;  -98.650; -347.000; -415.000
864.873; -121.350; -556.000; -505.000
865.121; -147.875; -714.000; -799.000
865.368;  -30.625; -173.000;   75.000
865.616;  -27.625;  -33.000;  -40.000
865.863;  -83.250; -462.000; -506.000
866.111; -100.125; -795.000; -824.000
866.358;   54.800; -426.000; -420.000
866.605; 2379.950;  -64.000; -804.000
866.853; 3086.000; -621.000; -537.000
867.100;   15.450; -728.000; -775.000
867.347;  -97.475; -672.000; -611.000
867.594;  -84.150; -740.000; -714.000
867.841;   64.225;   97.000;   17.000
868.089; -136.175; -746.000; -698.000
868.336; -112.075; -477.000; -420.000
868.583; -137.950; -637.000; -741.000
868.830;  -67.050; -131.000; -170.000
869.077; -154.725; -859.000; -787.000
869.324; -134.100; -502.000; -458.000
869.571; -126.550; -398.000; -430.000
869.818; -124.625; -485.000; -439.000
870.065; -117.525; -439.000; -513.000
870.311; -122.825; -456.000; -542.000
870.558;  -97.975; -332.000; -311.000
870.805;  -88.175; -320.000; -384.000
871.052; -120.150; -494.000; -369.000
871.298;  -77.125; -204.000; -131.000
871.545;  -75.075; -151.000; -185.000
871.792; -108.875; -173.000; -222.000
872.038;  -84.475;   43.000; -126.000
872.285; -132.775; -496.000; -387.000
872.532; -101.725; -357.000; -387.000
872.778;   -3.225;  556.000;  403.000
873.025; -100.525; -384.000; -359.000
873.271;   10.225;  501.000;  578.000
873.517;  -50.625; -133.000; -209.000
873.764;  -41.325; -193.000;  -80.000
874.010;  -77.750; -143.000; -230.000
874.257;  -47.275;  123.000;   90.000
874.503; -138.675; -579.000; -479.000
874.749;  -75.250;   31.000;  275.000
874.995;  -74.175;  -80.000;  -20.000
875.242; -121.050; -540.000; -478.000
875.488; -119.600; -414.000; -439.000
875.734;  -66.225; -106.000; -234.000
875.980;   89.475; -872.000;-1032.000
876.226;  340.950; -157.000; -255.000
876.472;   -9.200;  343.000;  237.000
876.718;  -43.050;  184.000;  158.000
876.964;  -58.825;   56.000;   55.000
877.210; -150.125; -547.000; -677.000
877.456; -128.775; -630.000; -557.000
877.702; -175.400; -821.000; -832.000
877.948; -116.425; -377.000; -497.000
878.193;   -0.450;  361.000;  255.000
878.439; -103.225; -487.000; -472.000
878.685;  -96.700; -272.000; -343.000
878.931; -137.525; -618.000; -676.000
879.176;  -83.700; -201.000; -201.000
879.422; -180.400; -933.000; -820.000
879.668;   41.450;   10.000;   79.000
879.913;  117.375;   53.000;  137.000
880.159;  -71.350; -112.000;  -17.000
880.404;  -67.075; -152.000; -162.000
880.650;  -53.525;   91.000;  141.000
880.895; -168.225; -670.000; -710.000
881.141; -116.850; -454.000; -428.000
881.386; -149.900; -503.000; -658.000
881.631; -111.650; -311.000; -166.000
881.877;  -45.650;  112.000;  -13.000
882.122; -141.575; -684.000; -600.000
882.367;  -86.400; -136.000; -186.000
882.612;  -73.325;  -80.000; -176.000
882.858; -160.050; -877.000; -823.000
883.103;  -98.425; -297.000; -267.000
883.348; -154.575; -759.000; -852.000
883.593; -141.475; -677.000; -602.000
883.838;  -64.100; -311.000;  -24.000
884.083;   12.825;  353.000;  288.000
884.328; -109.050; -564.000; -545.000
884.573;  -68.675; -196.000; -143.000
884.818;  122.775; -694.000; -531.000
885.063;  163.375; -348.000; -315.000
885.308; -116.350; -475.000; -398.000
885.553;  -29.100;  245.000;  325.000
885.797; -124.150; -545.000; -615.000
886.042;  -65.850;    8.000;   58.000
886.287; -111.800; -253.000; -211.000
886.532;  -52.475;   26.000;  204.000
886.776;  -98.000; -407.000; -525.000
887.021; -154.525; -621.000; -574.000
887.265; -153.075; -685.000; -689.000
887.510; -125.925; -557.000; -496.000
887.755;  -88.975; -194.000; -164.000
887.999; -140.325; -552.000; -575.000
888.244;  -63.500;  -58.000;  161.000
888.488;  -13.525;  371.000;  393.000
888.732; -126.975; -368.000; -520.000
888.977; -124.825; -622.000; -567.000
889.221; -146.700; -683.000; -659.000
889.465; -140.050; -422.000; -566.000
889.710;  -75.300;  -56.000; -299.000
889.954;  -11.625;  579.000;  467.000
890.198; -146.975; -584.000; -707.000
890.442; -149.225; -716.000; -712.000
890.687; -157.350; -800.000; -753.000
890.931; -113.575; -273.000; -210.000
891.175; -144.900; -502.000; -500.000
891.419;  -68.950; -105.000; -110.000
891.663;  -86.575; -239.000; -112.000
891.907; -163.075; -801.000; -545.000
892.151; -164.675; -920.000; -815.000
892.395; -117.625; -274.000; -387.000
892.638;  -40.725;  408.000;  291.000
892.882; -173.825; -780.000; -867.000
893.126;   10.775;  758.000;  558.000
893.370;  -94.950; -167.000; -168.000
893.614; -137.100; -714.000; -715.000
893.857; -108.800; -183.000; -197.000
894.101; -124.575; -527.000; -631.000
894.345;  -59.075;  300.000;  150.000
894.588;    3.350;  569.000;  380.000
894.832;  -98.775; -178.000;  -84.000
895.075;  -79.600;   15.000;  -92.000
895.319; -133.175; -552.000; -420.000
895.563; -116.500; -413.000; -353.000
895.806; -149.525; -628.000; -741.000
896.049;  -89.050; -576.000; -368.000
896.293;   56.650;  527.000;  405.000
896.536;  -82.050; -465.000; -468.000
896.779;  -65.000; -149.000;   -1.000
897.023; -149.625; -751.000; -714.000
897.266;  -28.025;  325.000;  269.000
897.509; -185.350; -900.000; -901.000
897.752;  -39.900;  149.000;  171.000
897.996; -189.175; -972.000; -864.000
898.239;  -46.400;  168.000;  102.000
898.482; -129.175; -431.000; -453.000
898.725;  -36.575;  101.000;   53.000
898.968; -158.350; -609.000; -744.000
899.211; -104.175; -513.000; -361.000
899.454; -126.400; -633.000; -539.000
899.697;  -76.975;   90.000;  -43.000
899.940; -171.075; -761.000; -757.000
900.182; -110.750; -335.000; -405.000
900.425; -103.900; -150.000; -298.000
900.668;  -30.775;  491.000;  350.000
900.911; -113.350; -292.000; -345.000
901.154;  -48.725;  141.000;   -3.000
901.396; -140.300; -407.000; -412.000
901.639; -142.850; -430.000; -496.000
901.882; -183.500; -790.000; -809.000
902.124;  -78.900;  -29.000; -143.000
902.367; -122.150; -315.000; -361.000
902.609; -126.675; -476.000; -453.000
902.852;  -88.725; -108.000; -260.000
903.094; -135.075; -458.000; -337.000
903.337;  -69.475;  -26.000;   53.000
903.579; -117.450; -228.000; -441.000
903.821; -160.400; -597.000; -744.000
904.064;  -60.900;   85.000;  127.000
904.306;  -84.775; -126.000; -166.000
904.548; -115.750; -152.000; -366.000
904.790; -114.550; -195.000; -340.000
905.033; -143.025; -625.000; -577.000
905.275; -119.225; -513.000; -524.000
905.517;   26.200;  468.000;  256.000
905.759;  -83.700; -667.000; -761.000
906.001; -110.550; -322.000; -369.000
906.243;  -71.875; -162.000; -224.000
906.485;   54.075; -265.000; -207.000
906.727;   82.650; -499.000; -542.000
906.969;  -48.900;  -30.000; -135.000
907.211;   65.150; -316.000; -382.000
907.453;  210.150; -188.000; -237.000
907.695;   12.275; -158.000; -385.000
907.936;   23.925;  818.000;  706.000
908.178;  -69.300;   92.000; -135.000
908.420;  -83.775; -111.000; -162.000
908.662; -127.075; -633.000; -682.000
908.903;  -98.625; -208.000; -123.000
909.145;  -65.000; -240.000; -305.000
909.386;    6.025;  315.000;  280.000
909.628;   24.200;  363.000;  397.000
909.870;    1.000;   29.000;  264.000
910.111;  -86.375; -809.000; -949.000
910.353;    7.250; -123.000; -161.000
910.594;   -5.750; -574.000; -606.000
910.835;   75.950; -265.000; -326.000
911.077;  156.000; -503.000; -604.000
911.318;  285.375; -505.000; -471.000
911.559;  475.300; -577.000; -880.000
911.801; 1282.525; -284.000; -280.000
912.042; 9356.075;  -50.000; -159.000
912.283;28180.825;  404.000;  371.000
912.524; 5309.400; -396.000; -457.000
912.765;  565.300; -193.000;   79.000
913.006;  261.200; -307.000; -338.000
913.247;   51.625; -270.000; -290.000
913.488;   -5.275;  -43.000;   30.000
913.729;  -82.850; -373.000; -373.000
913.970;  -56.525;  -96.000; -292.000
914.211;  -75.025; -160.000; -198.000
914.452;  -71.000; -118.000;  -11.000
914.693;   -3.400;  510.000;  592.000
914.934;   12.300;  510.000;  440.000
915.175;  -72.350;   53.000;  -95.000
915.415;  -76.275; -137.000;   27.000
915.656;  -67.900;  -28.000;  192.000
915.897; -100.225; -252.000;  -82.000
916.137;  -68.175;   74.000;   -9.000
916.378; -123.275; -573.000; -517.000
916.619;  -91.225; -159.000;  -63.000
916.859;  -52.475;  303.000;  330.000
917.100;  124.625; 1655.000; 1070.000
917.340;   32.075;  930.000;  728.000
917.581;   34.675;  965.000;  789.000
917.821;  -49.450; -171.000;  143.000
918.061;  -10.575; -199.000;  -72.000
918.302;  -61.850; -152.000; -211.000
918.542;  -32.825;  -22.000;    3.000
918.782;   28.500;  369.000;  377.000
919.023;  110.000;  360.000;  427.000
919.263; 1181.425; 8131.000;  202.000
919.503; 1097.950; -137.000;  -54.000
919.743;  567.125;  390.000;  266.000
919.983;  262.975; -134.000;  -26.000
920.223;   69.050;  135.000;   14.000
920.463;  140.650;  631.000;  554.000
920.703;  148.400;   84.000;   39.000
920.943;  180.100; -110.000;   90.000
921.183;  258.800; -414.000; -405.000
921.423;  514.750;  307.000;  546.000
921.663;  752.100; -174.000; -257.000
921.903; 1574.200;  237.000;  173.000
922.143; 8367.025;  372.000;  389.000
922.383;34992.650;  158.000;  115.000
922.622;14574.875; -120.000;  -15.000
922.862; 1497.400;  796.000;  785.000
923.102;  535.200;  -51.000;   33.000
923.341;  224.550;   59.000;   74.000
923.581;  112.500;  450.000;  360.000
923.821;   17.375;  301.000;  398.000
924.060;    6.100;  351.000;  193.000
924.300;  -63.200;  -16.000; -128.000
924.539;  -13.425;  584.000;  473.000
924.779;    1.250;  812.000;  597.000
925.018;  -53.700;  247.000;  353.000
925.257;  -14.400;  595.000;  666.000
925.497;  -47.325;  447.000;  412.000
925.736;  -78.925;  -35.000;  102.000
925.975;    1.400;  687.000;  669.000
926.214;   18.500;  907.000;  850.000
926.454;   -0.125;  706.000;  757.000
926.693;  -26.300;  419.000;  543.000
926.932;   30.275; 1021.000;  825.000
927.171;   57.300; 1107.000; 1044.000
927.410;   55.400; 1144.000;  967.000
927.649;   16.700;  924.000;  742.000
927.888;   -3.650;  590.000;  564.000
928.127;  -18.175;  680.000;  678.000
928.366;   33.775;  842.000;  826.000
928.605;   21.775;  831.000;  737.000
928.844;  202.575; 1451.000; 1393.000
929.083;  561.125;  770.000;  613.000
929.321;  330.625; 1335.000; 1359.000
929.560;   78.700; 1158.000; 1122.000
929.799;  -11.575;  574.000;  475.000
930.038;   73.650; 1025.000; 1394.000
930.276;  -38.575;  334.000;  397.000
930.515;    0.425;  827.000;  681.000
930.753;  -12.800;  614.000;  589.000
930.992;  -16.925;  664.000;  717.000
931.230;  -18.675;  847.000;  847.000
931.469;  169.625; 2162.000;  892.000
931.707;   65.775;  840.000;  751.000
931.946;   64.900; 1278.000; 1344.000
932.184;   62.050; 1437.000; 1175.000
932.423;   45.925; 1265.000;  963.000
932.661;   92.625; 1296.000; 1428.000
932.899;   15.125;  987.000;  821.000
933.137;   10.575;  754.000;  564.000
933.376;  129.275; 1664.000; 1335.000
933.614;  166.100; 1759.000; 1196.000
933.852;   59.975; 1357.000; 1171.000
934.090;  124.725; 1722.000; 1747.000
934.328;  114.600; 1252.000; 1457.000
934.566;   87.325; 1431.000; 1110.000
934.804;  165.975; 1263.000; 1309.000
935.042;  506.325; 1861.000; 1850.000
935.280; 2029.525; 2088.000; 2063.000
935.518; 2248.400; 2113.000; 2007.000
935.756;  460.350; 2481.000; 2316.000
935.994;  161.325; 1808.000; 1751.000
936.231;  324.800; 2890.000; 2950.000
936.469;  201.725; 2367.000; 2378.000
936.707;  161.025; 2220.000; 2167.000
936.945;  231.725; 2825.000; 2882.000
937.182;  196.775; 2679.000; 2741.000
937.420;  300.200; 3602.000; 3031.000
937.657;  373.050; 3365.000; 3478.000
937.895;  351.300; 3331.000; 3488.000
938.133;  314.025; 3540.000; 3528.000
938.370;  336.625; 3896.000; 4191.000
938.607;  400.400; 4488.000; 4205.000
938.845;  535.500; 5587.000; 5549.000
939.082;  486.150; 5387.000; 5177.000
939.320;  518.575; 5799.000; 5728.000
939.557;  607.200; 6549.000; 6491.000
939.794;  713.975; 7285.000; 7097.000
940.031;  863.650; 8421.000; 8368.000
940.269; 1070.700; 9552.000; 9107.000
940.506; 1099.150;10901.000;10507.000

