
Integration time [ms]: 200.000
Averaging Nr. [scans]: 10
Smoothing Nr. [pixels]: 0
Data measured with spectrometer [name]: 2101013U2
Wave   ;Sample   ;Dark     ;Reference
[nm]   ;[counts] ;[counts] ;[counts] 

394.013;  126.681; -450.257; -315.536
394.305;  506.978; -461.258; -419.536
394.596; 2023.740; -676.269; -527.514
394.887; 4670.062; -796.268; -654.518
395.178; 1866.303;  145.736;   11.476
395.470;  149.618; -210.263; -356.526
395.761;  476.882;  305.734;  394.479
396.052;  824.372; -545.284; -306.489
396.343;  781.866; -557.276; -454.503
396.634;  213.724; -200.279; -290.497
396.926;  231.359; -618.268; -565.517
397.217;  228.272;   11.725;  -17.504
397.508;   82.593; -366.273; -154.507
397.799;   70.024; -555.279; -571.497
398.090;  -15.284; -973.280; -902.495
398.381;  239.072;   11.708;  -11.473
398.672;  -28.027; -585.292; -742.473
398.963;   79.332; -348.279; -373.498
399.254;  223.885;   54.709; -209.475
399.545;  -77.622;-1017.266; -883.520
399.836;  102.951; -407.277; -343.501
400.127;   84.840; -205.295; -209.468
400.418;  116.486; -423.274; -392.506
400.709;  101.199; -359.281; -333.493
401.000;  119.391; -268.291; -309.476
401.290;  227.555;  225.698;  115.545
401.581;  109.249; -166.286; -228.485
401.872;   19.503; -542.298; -486.462
402.163;   55.530; -313.296; -252.467
402.454;  155.686; -123.291; -163.475
402.744;  128.318; -844.297; -813.465
403.035;  759.560; -226.293;  -86.471
403.326;  964.577; -366.292; -384.474
403.617;  691.495;  204.701;  165.539
403.907;  405.280; -593.283; -679.490
404.198; 3975.793; -545.307; -599.446
404.489;10651.986; -618.283; -588.491
404.779; 3672.760; -618.302; -660.456
405.070;  417.531;  -67.304; -174.451
405.360;  564.163; -259.293; -238.472
405.651;  691.675;  125.699;   98.542
405.942;  319.743;  209.714;  127.516
406.232;  440.262; -432.285; -413.487
406.523;  947.153;  641.706;  758.530
406.813;  161.046; -579.286; -644.484
407.104;  683.870;  261.708;  144.527
407.394;  334.797; -604.299; -591.462
407.685;  316.861;  336.715;  222.513
407.975;   94.185; -400.283; -382.490
408.265;  233.206; -134.289; -190.478
408.556;  115.482; -472.291; -459.475
408.846;  307.654;  474.706;  429.530
409.137;  152.417;   -1.288; -216.480
409.427;   93.662; -193.285; -271.487
409.717;   30.897; -776.273; -692.508
410.007;  265.853;    4.715; -170.486
410.298;  188.943; -360.295; -342.469
410.588;  134.258; -495.285; -510.486
410.878;   20.132; -792.287; -873.482
411.168;  213.606; -481.298; -478.463
411.459;  189.377; -295.283; -242.489
411.749;   71.880; -609.292; -507.474
412.039;   57.115; -755.289; -386.480
412.329;  395.342;   40.722;  132.501
412.619;  328.046;  -62.286; -148.485
412.909;  703.209;  639.711;  594.521
413.199;  565.817; -130.280; -251.495
413.490;  708.497;  521.710;  352.523
413.780;  212.422;-1013.279; -913.496
414.070;  592.167;  -46.276;  235.497
414.360;  585.136; -729.278; -666.498
414.650;  649.126; -726.288; -688.482
414.940;  870.221; -538.280; -441.496
415.230; 1510.422;   50.712;   74.519
415.520; 9889.239;  155.730;   66.486
415.809;39552.998; -305.281; -125.493
416.099;31858.354; -388.277; -229.501
416.389; 8469.983;  435.726;  236.494
416.679; 5164.323;   91.738;   85.473
416.969;  855.538; -527.287; -503.483
417.259; 1003.224;  341.721;  171.503
417.549; 1186.997;  522.718;  318.508
417.838; 2706.561; -205.268; -147.518
418.128; 9003.804;  650.710;  492.522
418.418; 7652.806; -491.272; -579.509
418.708; 4932.283;    9.726;  -48.506
418.997;18815.477; -474.275; -480.505
419.287;19964.292; -733.273; -790.507
419.577;18123.576; -160.283; -123.489
419.866;59059.651; -588.277; -498.501
420.156;61098.733; -242.270;  -55.513
420.446;11688.413; -112.263;  -26.526
420.735; 1485.525; -376.271; -446.512
421.025; 1557.935; 1830.722;  315.502
421.314; 1179.523; -203.271; -226.512
421.604; 2489.252;   89.732;  233.484
421.893; 1472.918; -705.271; -602.511
422.183;  369.913; -487.263; -461.526
422.472;  661.820;  -36.271; -107.511
422.762;  737.086; -416.266; -379.521
423.051;  387.268; -916.276; -916.503
423.341;  492.495; -491.273; -439.507
423.630;  688.993; -121.265;   15.477
423.919;  650.676;   58.725;   49.495
424.209;  626.920;  -31.263;   56.473
424.498;  805.158;   68.732;  161.483
424.787; 1666.167; -535.267; -601.518
425.077; 5395.091;   34.735;   29.478
425.366; 7643.828; -734.262; -744.528
425.655;15544.095;  639.727;  259.493
425.945;33676.701; -313.247; -268.554
426.234;19394.558;  117.741;  300.467
426.523; 8145.165;  -86.259; -350.534
426.812;11350.280;  107.734;  159.480
427.101;16409.247; -127.269; -323.515
427.390;21075.339;  -55.270;  -86.514
427.680; 4856.992; -624.257; -411.538
427.969;  883.306; -330.255; -301.540
428.258;  532.280; -385.257; -477.536
428.547;  901.711;  449.728;  397.490
428.836; 2047.428; -421.253; -398.543
429.125; 3009.668; -199.259;  -72.534
429.414; 1377.358; -330.251; -294.548
429.703; 4946.358; -231.251; -213.548
429.992;14931.363; -938.250; -828.549
430.281;10067.703; -397.264; -331.524
430.570;  996.345;  -21.252;   32.454
430.859; 1040.765;  279.741;  352.466
431.148;  867.295;  636.752;  631.446
431.437;  538.645;  391.748;  367.454
431.725;  282.982; -544.257; -481.536
432.014;  185.837; -845.253; -756.545
432.303;  635.796; -149.239; -105.569
432.592; 1006.212; -460.263; -178.525
432.881; 1625.597; -601.248; -437.554
433.169; 9714.607; -343.255;  -61.540
433.458;20066.842;  445.765;  540.424
433.747; 8686.435; -397.261; -289.529
434.036; 1510.964; -275.242; -280.564
434.324; 3289.179; -395.249; -379.551
434.613; 5813.155;   40.757;  159.437
434.902; 2147.083;  333.760;  439.433
435.190; 1037.895;   75.761;  295.431
435.479;  637.531;  -52.245;   83.441
435.767;  182.142; -411.244; -427.561
436.056;  344.258; -340.242; -294.563
436.345;  581.786; -372.240; -223.568
436.633;  662.773;   60.750;  383.450
436.922;  498.189;  208.760;  414.432
437.210; 1070.528; -194.236;    1.426
437.499; 3298.439; -583.235; -432.576
437.787; 3852.928; -339.236;  -10.574
438.075;  974.402;   56.761;  162.430
438.364; 1288.406;  -44.238;  250.429
438.652;  846.546; -286.226; -138.592
438.941;  243.198;    3.770;  269.415
439.229;    4.541; -665.252; -466.545
439.517;   56.650; -160.234;  -85.577
439.806;  -23.333; -501.225; -290.595
440.094;  339.660;  377.766;  650.421
440.382;  295.866; -653.233; -302.580
440.670;  340.538; -361.235; -285.576
440.959;   18.290; -347.223; -170.599
441.247;  152.413; -151.229; -109.587
441.535;  183.648; -266.235;   31.423
441.823;   29.257; -497.234; -305.578
442.111;  332.419;  173.771;  327.412
442.400;  864.130; -628.245; -335.559
442.688; 2363.660; -111.234; -620.579
442.976; 1736.807; -786.213; -450.617
443.264;  160.876; -324.224; -364.597
443.552;  160.647; -258.226;   51.408
443.840;  345.946;  602.765;  876.423
444.128;  218.164;  265.767;  269.420
444.416;  -32.178; -694.228; -312.588
444.704;    4.430; -465.219;  -92.605
444.992;  111.651;   -0.226;  240.407
445.280;   81.599; -517.230;  -94.585
445.568;   57.412; -694.212; -396.618
445.856;  554.208; -174.221;  357.398
446.143; 1263.425;  -54.220;   -7.604
446.431; 1103.827;  -25.228;  625.411
446.719;  493.455;  489.783;  675.391
447.007;  363.891;  481.769;  705.416
447.295;  341.886;  597.777;  871.402
447.583;  151.810; -464.229;  -34.587
447.870;  253.304; -434.221; -202.601
448.158;  679.397; -104.230;  129.415
448.446;  515.626; -800.219; -338.604
448.733;  276.378;   13.776;  269.403
449.021;  421.112;   60.788;  341.382
449.309;  298.332; -296.210;  208.379
449.596;  356.350;  128.783;   59.392
449.884;  223.095; -571.222; -325.600
450.172;  179.934; -756.227; -406.590
450.459;  712.485;  645.786;  780.387
450.747; 3484.448; -411.218; -147.608
451.034;11528.828;  493.772;  889.411
451.322; 9634.289; -413.214; -170.614
451.609;  862.579;  292.777;  508.403
451.897;  835.116; -550.203; -183.634
452.184; 2689.686; -622.223; -400.598
452.472; 2665.260;   97.792;  269.375
452.759;  637.627;  512.781;  864.395
453.047;  174.708; -407.212; -125.617
453.334;  129.837; -732.219; -216.606
453.621;  153.292; -438.214; -161.615
453.909;  190.505;   13.796;  384.368
454.196;  172.366; -299.199; -123.641
454.483;  398.833;  317.798;  540.364
454.771;  253.064; -215.208;  196.374
455.058;   40.869; -316.207;  102.374
455.345;  213.040;   71.807;  344.347
455.632;  187.573; -128.207;  235.373
455.919;  103.596;  -82.196;  182.354
456.207; -129.828; -774.198; -450.642
456.494;  -25.151; -475.200;  -66.639
456.781;    3.927; -399.202; -198.635
457.068;   76.682; -253.206;  -29.628
457.355;  -25.517; -698.206; -401.629
457.642;  -19.809; -552.205; -290.630
457.929;  -29.872; -778.194; -417.651
458.216;   56.509; -575.212; -354.617
458.503;  364.834; -173.193;  -19.652
458.790;  303.261; -864.208; -630.625
459.077;  450.934;  -77.202;  110.364
459.364; 1167.818; -350.195; -210.649
459.651; 2548.479;  -46.206;  220.372
459.938; 1161.349; -864.209; -665.623
460.225;  247.938;  132.799;  276.363
460.512; -115.808; -836.197; -688.645
460.799;  206.847;  -32.218;  320.392
461.086;  115.055; -370.200; -251.640
461.372;   63.072; -509.198; -279.642
461.659;  171.998; -165.196;  108.354
461.946;  113.432; -445.193;  -54.651
462.233;  451.252;  842.800;  888.361
462.519;  526.648; -814.201; -464.639
462.806; 1555.893; -768.197; -497.645
463.093; 1328.960; -445.191;  -66.656
463.380;  -97.785; -920.186; -824.664
463.666;  122.995; -259.197;  -18.646
463.953;  136.211; -406.195; -243.648
464.239;  294.411; -173.195;  -77.648
464.526;  685.626;  413.806;  743.350
464.813;  539.475; -565.190; -304.658
465.099;  649.833;  606.807;  607.348
465.386;  625.639;  903.807;  921.348
465.672;   29.893; -694.197; -522.645
465.959;   34.199; -598.188; -520.662
466.245;   46.439; -468.193; -359.652
466.532;  174.108; -109.195;   63.352
466.818;  111.014; -357.186; -216.664
467.104;   15.468; -488.182; -415.672
467.391;  -66.322; -628.189; -459.658
467.677;   69.119; -289.186;    9.335
467.964;   10.486; -682.189; -471.660
468.250;  126.323; -331.186; -160.665
468.536;  150.979;   90.811;  180.341
468.822; -103.661; -821.184; -574.668
469.109;  291.876;  351.827;  471.311
469.395;  375.952;  729.808;  787.346
469.681;  311.983;   46.811;  156.341
469.967; 1771.090; -699.188; -382.660
470.254; 3977.100; -494.188; -306.662
470.540; 2605.796; -601.196; -476.646
470.826;  374.283; -488.181; -397.675
471.112;  490.243;  288.816;  113.331
471.398;  138.450; -253.183;  -58.670
471.684;   28.921; -626.177; -447.680
471.970;  -82.212; -918.180; -981.675
472.256;   36.050; -521.192; -441.654
472.542;    3.591; -499.171; -434.691
472.828;  -12.337; -743.182; -607.672
473.114;   68.049; -380.166; -283.700
473.400;   28.443; -504.175; -293.684
473.686;   18.357; -452.166; -400.701
473.972;  101.262; -230.174; -131.687
474.258; -129.324; -925.173; -843.689
474.544;  336.110; -183.178;   -2.679
474.830;  466.445;  -65.175;   45.316
475.116;  754.977; -123.190; -196.658
475.401;  926.291; -558.180; -467.676
475.687;  272.290; -725.180; -718.676
475.973;  -50.227; -673.181; -770.673
476.259;  447.948;  736.825;  764.315
476.544;  557.631; -539.176; -437.682
476.830; 1195.285; -398.172; -322.690
477.116; 1022.830; -430.177; -336.682
477.401;  270.790;  346.820;  358.324
477.687;  -11.357; -289.175; -405.684
477.973;   76.478;   21.819;   28.326
478.258;   -7.815; -448.163; -348.706
478.544;  108.730;   21.815;   61.334
478.829;  -96.802; -818.171; -738.692
479.115;  -92.115; -749.172; -651.690
479.401;  -20.744; -444.174; -449.686
479.686;   52.989; -253.180;  -74.676
479.972;  -67.983; -886.178; -776.680
480.257;   38.151; -258.166;  -65.700
480.542;    3.403; -614.170; -469.693
480.828;  507.841; 1288.824; 1392.317
481.113;  -61.462; -464.176; -426.683
481.399;    4.016; -236.161; -202.711
481.684;  -99.550; -620.166; -462.700
481.969;   37.234; -158.159;  -73.713
482.255;  -44.482; -439.169; -285.695
482.540;  -28.883; -569.178; -441.680
482.825;  -16.292; -395.187; -404.663
483.110;  169.422;  -85.169; -105.696
483.396;  212.063; -840.157; -652.718
483.681;  770.163;  543.826;  730.313
483.966;  217.926; -696.160; -700.712
484.251;   35.261; -404.174; -310.687
484.536;   25.664; -356.165; -378.703
484.822;   44.365; -205.173; -218.687
485.107;  -60.786; -599.152; -502.726
485.392;  271.272;  662.836;  541.296
485.677;  140.035;  354.832;  163.302
485.962;  210.060;  160.843;  270.283
486.247;  177.695;  -14.162;   -8.707
486.532;   72.452; -178.166; -325.701
486.817;  329.609;  381.839;  431.291
487.102;  146.391; -453.154; -514.722
487.387;  910.866; -637.156; -652.718
487.672; 1679.979; -154.164;  -38.705
487.957; 1032.618; -394.160; -286.711
488.241;  306.936; -290.150; -314.729
488.526; 1054.616; -280.152; -148.726
488.811; 1650.119; -881.177; -818.680
489.096; 1238.995; -666.154; -702.723
489.381;  708.311;    3.847;  162.275
489.666;  489.416; -428.161; -510.710
489.950;  352.699;  558.846;  627.277
490.235;  -67.570; -480.151; -458.728
490.520;  -86.685; -756.161; -723.710
490.804; -132.432; -827.156; -736.719
491.089;    5.858; -469.149; -299.732
491.374;   51.977; -132.164;  -75.704
491.658;  -30.727; -817.147; -717.735
491.943;  229.222; -657.152; -609.727
492.227;  395.486; -178.155;  -38.721
492.512;   42.559; -294.157; -341.717
492.797; -120.551; -713.149; -716.731
493.081; -118.123; -588.147; -598.735
493.366; -115.083; -751.161; -635.711
493.650;  397.648;  831.859;  917.254
493.935;   11.072; -648.147; -447.734
494.219; -120.370; -778.142; -687.743
494.503;  -87.557; -585.150; -487.730
494.788;   98.448;   46.842;   74.285
495.072;  206.538;  184.850;  434.271
495.356;  226.162; -463.148; -343.733
495.641;  663.985; -812.146; -736.736
495.925;  550.075; -976.156; -903.719
496.209;   20.557; -599.149; -451.732
496.494; -103.969; -763.142; -544.744
496.778;    8.492; -364.154; -360.722
497.062; -126.126; -819.156; -627.719
497.346; -107.079; -869.160; -640.711
497.631;  312.567;  580.852;  560.266
497.915;  141.299;  -64.145;  175.261
498.199;   93.963; -341.157; -277.718
498.483;   68.014; -562.152; -508.725
498.767;  322.240;  301.850;  300.271
499.051;  275.054; -126.149; -100.732
499.335;   10.351; -693.149; -739.731
499.619;  -68.917; -381.129; -423.767
499.903;   45.484; -272.155;  -65.721
500.187;   21.001; -588.153; -316.724
500.471;  -12.279; -796.152; -595.727
500.755;  189.015;   62.839;  -96.710
501.039;   24.885; -270.155; -357.721
501.323;  191.350;  -21.141;  264.254
501.607;   66.185; -447.163; -503.706
501.891;  -16.035; -607.156; -512.718
502.174;  -61.886; -726.144; -585.741
502.458;  159.426;   89.849;  370.273
502.742;   48.382; -180.138; -191.751
503.026;  132.471; -412.147; -254.734
503.310;  190.733; -437.159; -375.713
503.593;  192.774; -464.147; -325.735
503.877;  181.436; -232.133; -156.760
504.161;  291.304;    2.847;  -50.724
504.444;  101.151; -841.158; -710.716
504.728;  655.976; -487.164; -522.704
505.012; 1014.236; -257.150;  -76.729
505.295;  810.316; -417.161; -212.711
505.579;  820.274; -256.156; -496.719
505.862; 1021.694; -555.145; -333.738
506.146; 1010.636; -681.159; -758.714
506.429;  681.037;  568.841;  461.286
506.713;   92.332; -732.151; -667.728
506.996;  513.391;   90.846;  295.278
507.280;  442.369; -633.165; -474.703
507.563;  337.682; -469.155; -261.721
507.847;  119.402; -423.153; -112.724
508.130;   87.617; -665.161; -456.711
508.413;  130.845; -758.167; -577.700
508.697;  346.545; -151.167;   12.300
508.980;  200.004; -422.153; -312.724
509.263;  -18.623; -466.155; -450.720
509.547;   62.635; -124.150;   82.271
509.830;   96.220; -172.160;  140.289
510.113;  119.974;  128.844;  298.281
510.396;   10.112; -530.152; -300.725
510.680;  237.996; -818.145; -812.738
510.963; 1046.897;  184.846;  180.277
511.246;  867.346; -493.150; -357.730
511.529;  423.903; -482.145;  -83.739
511.812;  502.831; -250.134;   10.241
512.095;  315.428; -740.151; -396.728
512.378;  105.579; -317.147; -245.736
512.661;  -41.608; -703.137; -623.753
512.944;  -22.767; -750.142; -637.744
513.227;   87.488; -170.137; -171.752
513.510;   19.914; -479.144; -671.741
513.793;   -0.644; -485.140; -435.747
514.076;  207.710;  -43.127;  -39.771
514.359;  145.458; -294.149; -135.732
514.642;   76.637; -442.142; -567.744
514.925; 1099.053;  581.860;  561.253
515.208; 1340.326; -498.134; -443.758
515.491;  920.445; -276.133; -182.761
515.773;  506.619; -410.143; -337.742
516.056; 3020.100;  249.864;  409.246
516.339; 3876.206; -754.136; -652.755
516.622; 2959.342; -518.150; -488.730
516.904; 2135.928;  882.857;  975.257
517.187;  928.086; -730.138; -523.752
517.470;  568.527; -568.143; -510.743
517.752;  565.309; -624.136; -470.756
518.035;  425.270; -708.139; -725.749
518.318;  437.306; -799.136; -744.755
518.600; 3365.949; -300.132; -325.762
518.883; 4652.936;  310.858;   88.256
519.165; 2290.477; -585.138; -426.751
519.448;  589.449;  -61.132;  -19.762
519.730;  253.720; -573.126; -415.773
520.013;  552.939;  588.867;  664.240
520.295; 1358.733;  -94.134;  -15.759
520.578; 3004.266; -335.131; -305.764
520.860; 3308.149; -254.132;   56.238
521.143; 1750.112; -763.135; -584.756
521.425;  654.638; -251.125; -279.775
521.707;  990.011; -622.127; -380.771
521.990; 2480.112; -199.127;  167.229
522.272; 2875.758; -116.140;   -4.748
522.554; 1315.320; -237.143; -157.742
522.836;  570.230;  -24.134;   99.241
523.119;  304.370; -496.148; -189.734
523.401;  173.975; -448.130; -314.766
523.683;   58.493; -865.137; -693.753
523.965;  427.884;  408.862;  260.248
524.247;  408.166;   54.878;  170.220
524.529;  242.533; -451.134; -367.759
524.812;  495.878;   -3.130;  191.234
525.094; 1155.283; -773.138; -631.751
525.376; 1866.350; -143.124;   78.223
525.658; 1109.502; -441.136; -339.754
525.940;  -38.738; -805.131; -671.764
526.222;   54.607; -188.136;  -88.755
526.504;  195.759; -190.131;   32.237
526.786;  244.036; -960.133; -647.760
527.068;  453.357; -124.123;  -67.778
527.349;  165.597; -865.137; -774.754
527.631;  207.749; -137.132;   22.238
527.913;  145.110; -664.127; -450.771
528.195;  197.428; -761.125; -639.774
528.477;  350.126;  -93.134;  -30.758
528.759;  127.978; -648.130; -522.766
529.040;   41.555; -569.123; -293.778
529.322;   69.032; -235.125;  -10.774
529.604;  215.181;  -47.130;   93.233
529.886;  195.820; -546.126; -302.773
530.167;  201.870;  232.870;  192.235
530.449;   66.178;    1.853;   63.265
530.731;   37.365; -572.122; -459.779
531.012;   52.093; -513.120; -216.784
531.294;  129.345; -118.116;  -43.792
531.575;  248.038;  290.875;  538.225
531.857;   47.120; -548.135; -266.757
532.138;  175.648; -113.141;   40.254
532.420;  308.815;  294.865;  403.244
532.701;  260.840; -722.133; -751.760
532.983;  566.044;  232.867;  182.239
533.264;  203.117; -243.126;  175.228
533.546;  -80.694; -491.136; -508.755
533.827;  100.735;  173.867;   -1.759
534.109;   84.219; -352.135;  -80.757
534.390;  100.354; -725.132; -582.762
534.671;  398.414; -270.135;  -82.756
534.953;  165.259; -751.123; -611.779
535.234;   22.925; -426.117; -255.789
535.515; -172.196; -891.119; -735.785
535.796;  -53.295; -431.128; -193.770
536.078; -243.151;-1050.124; -904.777
536.359;   30.660;  -22.123;    3.221
536.640;  -51.870; -480.125; -197.774
536.921;  250.388;  225.871;  143.232
537.202;  552.079;  -87.138;  -16.751
537.483;  668.266;  251.869;  377.236
537.764;  293.970;   17.870;   98.235
538.045;  -99.375; -543.134; -371.758
538.326;  -71.910; -596.129; -447.768
538.607;  -22.388; -686.127; -476.771
538.888;  235.481;   98.879;    5.218
539.169;  205.273; -704.122; -535.781
539.450;  486.486;  236.871;   16.233
539.731;  292.286; -361.121; -182.783
540.012;  190.093;  199.880;  412.216
540.293;  139.342;   82.876;  158.224
540.574;  -48.728; -895.113; -717.796
540.855;  706.684;  435.879;  377.218
541.136;  787.270;   47.878;  139.220
541.416;  383.679; -161.130; -220.766
541.697;  260.060; -274.131; -170.763
541.978; 1441.717; -270.135; -315.757
542.259; 1826.312; -211.127; -236.771
542.539;  938.337; -191.116; -186.790
542.820;  308.737;  461.875;  480.225
543.101;  186.498;  -52.145;  -77.738
543.381;   -6.489; -638.127; -591.771
543.662;  351.908;  159.873; -254.771
543.942;  760.306; -751.127; -830.770
544.223; 1512.072;  193.878;  161.219
544.504;  938.549; -275.124; -182.777
544.784;  822.520; -592.126; -408.773
545.065; 2340.341;  104.884; -254.791
545.345; 2766.304;  227.881;   14.215
545.626; 1812.171;  -14.113; -108.796
545.906; 1258.269;   77.869;   98.235
546.186;  537.326;   92.874;  -95.773
546.467;  262.752;   99.877;  -95.778
546.747;  465.136;  264.884;  327.210
547.027;  570.147;   91.876;  111.223
547.308;  445.005; -376.127; -530.770
547.588;  571.291;  299.871;  371.232
547.868;  316.971;  458.870;  588.235
548.149;  395.451;  609.885;  593.207
548.429;  163.909; -347.127; -299.771
548.709;  208.092; -645.120; -461.784
548.989;  680.517;   84.882;   88.213
549.269; 2976.047;   10.868;  139.239
549.550; 6686.058;  215.877;  117.222
549.830; 5819.495; -758.111; -556.799
550.110; 1226.305; -468.110; -320.801
550.390; 1202.465; -128.122;  -56.779
550.670; 1559.266; -868.114; -783.795
550.950; 1118.783; -509.121; -471.782
551.230;  306.178;  549.879;  460.218
551.510;  -15.118; -381.121; -326.782
551.790;   54.816; -173.109; -127.803
552.070;  491.452;  940.877; 1181.223
552.350;  550.709; -492.119; -377.786
552.630;  813.675;   -2.121;   77.219
552.909;  534.942;  181.884;   73.209
553.189;  349.655;  -49.132;   33.237
553.469;  204.709; -703.119; -514.786
553.749;  217.614; -469.127; -357.772
554.029;  250.530;   33.883;  -24.790
554.308;  191.357; -154.115;  -37.794
554.588;   72.303; -196.128; -204.770
554.868;   49.584; -366.121;  -47.782
555.147;  157.553; -114.115;  -46.793
555.427;  825.245; -260.116; -250.792
555.707; 5343.250; -284.115; -200.793
555.986; 6316.200; -719.111; -538.800
556.266; 3469.835;   23.884;   72.210
556.546;   63.582; -888.121; -675.782
556.825;  300.063; -657.114; -556.794
557.105; 2447.300; -125.128;   17.230
557.384; 2839.941;  122.884;  187.209
557.664; 1083.944; -717.116; -508.792
557.943;  158.884; -557.121; -411.782
558.222;  227.521; -345.118; -344.788
558.502;  370.055; -116.115;  -76.793
558.781;  713.849;  194.885;  499.208
559.061;  589.220; -232.118; -227.788
559.340;  478.727;  302.883;  353.211
559.619;  973.434;   93.884;  148.210
559.899; 1346.430; -239.117; -266.789
560.178; 1226.754; -778.115; -593.793
560.457; 4410.632; -623.117; -562.790
560.736; 5688.601; -472.111; -482.800
561.015; 4030.197; -500.128; -502.769
561.295;  564.542;  180.893;  215.193
561.574;  471.651;  119.885;  116.207
561.853;  688.521;  274.891;  303.197
562.132;  709.658;  -45.114;  182.206
562.411;  664.176;  396.879;  553.219
562.690;  136.249; -592.115; -458.792
562.969;  262.981;  472.888;  630.203
563.248; 1047.973; 2966.878; 2487.219
563.527;  373.200; -290.111; -408.800
563.806;  469.009; -650.127; -521.771
564.085;  579.063; -297.105; -206.810
564.364;  265.034; -594.117; -405.790
564.643;  711.676; -276.121; -223.781
564.922; 2638.413;  221.890;  397.198
565.201; 2469.618; -640.109; -700.803
565.479; 1151.147; -297.115; -219.792
565.758;  408.501; -810.128; -712.770
566.037;  644.520; -155.109; -100.803
566.316;  334.641; -286.116;  -28.791
566.595;   63.851;  -17.115;  -12.793
566.873;  192.003; -166.111;  -79.801
567.152;  -94.120; -490.113; -590.797
567.431;   24.036; -113.116;    6.210
567.709;    1.243; -344.107; -212.807
567.988;  282.762; -810.114; -769.794
568.266;  725.451; -160.115;  -68.793
568.545;  490.425; -644.100; -514.819
568.824;  806.046;  160.885;  356.208
569.102;  707.562; -351.114; -235.794
569.381;  247.845; -492.116; -407.792
569.659; -119.825; -553.113; -553.796
569.938;   18.770; -743.122; -465.780
570.216;  141.623; -225.109; -225.804
570.494;  -49.234; -632.114; -572.795
570.773;   83.982;  202.879;  114.218
571.051;   22.556; -373.123; -357.778
571.330;   87.772; -221.113; -174.796
571.608;   37.849; -181.098; -173.823
571.886; -176.807; -671.111; -581.799
572.164; -150.716; -739.121; -621.782
572.443; -108.333; -562.105; -512.811
572.721;  -62.368; -399.117; -289.790
572.999;  -52.277; -280.117; -168.788
573.277;  198.559;  379.894;  620.191
573.555;  399.962;   94.894;   37.190
573.834; 1807.023;  -86.117; -114.788
574.112; 2201.646;  880.893;  811.193
574.390;  659.502; -143.111;  -96.801
574.668;   19.182;  -91.112;  -61.797
574.946;  -30.938; -165.106; -187.810
575.224;   31.018;   71.891;  -16.803
575.502;  -38.562; -200.116; -204.791
575.780; -175.617; -767.112; -829.798
576.058;  471.001; 1589.889; 1004.200
576.336;  -66.992; -210.110; -129.801
576.614;  -90.316; -511.112; -340.798
576.891;   50.857; -711.115; -823.794
577.169;  626.834; -158.108; -285.805
577.447;  756.945;  169.893;  202.193
577.725;  489.889;  629.888;  854.201
578.003;   30.587;  -71.112; -371.798
578.280;  137.379; -208.104; -242.812
578.558;   52.955; -450.115; -422.793
578.836;  169.566; -210.114; -145.795
579.114;   16.681; -630.112; -670.797
579.391;  122.725;   -6.117;  -18.789
579.669; -150.542; -595.114; -704.794
579.947;  233.241; -326.107; -127.806
580.224;  355.640; -692.107; -524.806
580.502;  485.746;  127.893;   76.193
580.779;   26.333;  -42.117;   75.210
581.057; -130.276; -584.109; -470.804
581.334; -189.701; -726.102; -695.815
581.612;   99.463;   54.895;  511.190
581.889;  -62.983;  -83.101; -129.818
582.167;  -43.764; -298.099; -190.821
582.444; -192.490; -845.102; -814.817
582.721;  230.911;  657.899;  715.183
582.999;   45.332; -326.100; -167.821
583.276;  643.362; -812.123; -713.779
583.553;  927.403; -364.102; -294.816
583.831;  266.375; -607.104; -631.812
584.108;  125.731;  349.892;  174.195
584.385;  -14.002; -122.102;  -98.815
584.662; -174.396; -651.111; -828.801
584.940;   84.703;  204.889;  204.199
585.217;  -25.725;  -73.113; -303.796
585.494;   52.915;   71.890;  118.198
585.771;  286.825; -250.109; -354.804
586.048;  719.775; -196.113;  -76.796
586.325;  311.707; -721.110; -773.801
586.602;  156.180;  230.896;  213.188
586.879;  -63.572; -499.100; -580.820
587.156;   50.864; -156.105; -331.810
587.433; -120.093; -701.102; -667.817
587.710;  111.284;  152.888;  234.202
587.987;  439.571; -264.105; -236.811
588.264; 1102.786;  315.888;  387.202
588.541; 2007.183;  -61.104;   26.187
588.818; 3632.428;   72.892;  171.196
589.095; 3208.277; -163.104; -174.812
589.371;  502.422; -459.109; -414.804
589.648;  -48.354; -581.107; -437.807
589.925;  -11.833; -517.114; -621.795
590.202;  -56.116; -741.112; -607.798
590.478;  120.573; -166.105;  -73.811
590.755;  374.036; -241.108; -132.806
591.032; 3456.510; -741.110; -699.802
591.308; 4528.303; -732.094; -790.831
591.585; 2430.409; -573.110; -560.802
591.862;  102.309;-1056.102; -950.817
592.138;   43.033; -475.108; -474.805
592.415;  173.981; -486.104; -495.813
592.691; 2123.678;  460.896;  518.188
592.968; 2471.952; -208.098; -123.824
593.244; 1246.136; -695.116; -595.790
593.521;   93.509; -105.102;  -42.817
593.797;  -69.433; -810.122; -720.780
594.074;  410.768; -611.096; -588.826
594.350;  963.283;  828.905;  729.172
594.626;  383.904; -303.111; -283.801
594.903;  100.910; -643.101; -645.817
595.179;  307.586;  243.896;  418.187
595.455;   22.047; -136.107; -150.807
595.731;  -11.412;  -19.103;  -38.814
596.008;  -64.704; -464.111; -434.800
596.284;   39.131; -187.100; -242.820
596.560;   37.611; -501.093; -493.833
596.836;  264.567; -173.105;  -70.810
597.112;  427.734; -582.108; -437.805
597.388;  395.466;  -49.097;  -48.826
597.665;  217.478;  437.887;  530.203
597.941; -188.150; -572.089; -658.839
598.217;   -0.586; -323.110; -293.802
598.493;  378.827;   61.891; -204.804
598.769;  660.023; -175.100;  -50.819
599.045;  371.737; -490.108; -562.806
599.321;   44.530; -193.100; -261.820
599.597;  173.526; -355.109; -476.804
599.872;  675.883;  409.896;  429.187
600.148;  512.068;  -61.097; -172.826
600.424;  431.644;   91.893;  202.193
600.700;  328.347; -170.107; -280.807
600.976;  155.860; -442.097; -464.825
601.252;  275.521; -226.109; -272.803
601.527;  240.484; -833.104; -840.813
601.803;  166.874; -453.105; -404.812
602.079;  250.823; -124.100; -118.819
602.354;  709.124; -620.092; -531.835
602.630; 1086.975; -140.113; -482.796
602.906; 3297.817; -910.101; -863.818
603.181; 8882.109; -627.119; -534.786
603.457; 7656.365;   98.903; -278.826
603.733; 1078.387; -605.120; -626.783
604.008; 1450.863; -245.106; -164.810
604.284; 3988.712; -636.101; -580.817
604.559; 3636.789;   -3.112;  -42.799
604.835;  660.666; -163.105; -225.810
605.110;  473.737; -732.099; -892.821
605.385;  978.715;  224.907;  267.167
605.661;  859.487; -625.095; -729.829
605.936; 1429.838; -664.108; -737.806
606.211; 1347.497;  -17.103; -170.815
606.487;  230.760; -329.114; -376.794
606.762;  -37.491; -791.119; -745.786
607.037;  -58.833; -501.105; -433.810
607.313; -135.822; -589.096; -574.828
607.588;    2.462; -375.106; -137.810
607.863;   47.116;  -28.101; -143.818
608.138;  321.512;  513.890;  516.198
608.413;   26.942; -576.099; -592.822
608.688;   71.133; -203.108; -267.805
608.964;  239.554; -509.106; -218.809
609.239;  327.063; -107.105; -212.810
609.514;  390.374;  281.895;  240.188
609.789;  798.579; -187.104; -716.812
610.064; 1113.676; -435.096; -609.827
610.339; 1164.122; -855.109; -799.804
610.614; 1531.330; -131.100; -315.820
610.889;  913.174;  215.895;  107.188
611.163;    8.175; -407.104; -591.812
611.438;  105.962;   81.886; -167.794
611.713;  -36.688; -467.101; -499.817
611.988;   41.815; -144.101; -328.818
612.263;  -62.901; -771.102; -717.815
612.538;  327.174;  385.887;  251.204
612.812;  171.032; -832.100; -911.820
613.087;  174.349; -358.098; -338.823
613.362; -109.053; -497.107; -557.807
613.637;   93.192;  261.897;  138.186
613.911;  -54.575; -256.092; -345.835
614.186;  161.845; -249.107; -292.807
614.460;  882.050; -842.081; -758.854
614.735; 1015.481;  -55.087;  -17.843
615.010;  249.568;   43.912;  -82.841
615.284;  416.332;  360.892;  246.195
615.559;  411.123; -792.092; -955.835
615.833;  448.039;  -76.099;  -87.822
616.108;  -21.161; -225.090; -390.837
616.382;  255.583;  274.913;  402.156
616.656;  223.640; -241.090; -232.837
616.931;  641.240; -785.099; -700.822
617.205; 1408.185; -973.104; -979.813
617.480; 1293.335;  -91.125;    6.225
617.754;  211.831; -396.125; -128.774
618.028;  -14.708; -369.129; -382.768
618.302;  133.730;   73.892;  -25.805
618.577; -117.007; -371.103; -518.815
618.851; -122.483; -399.109; -600.803
619.125; -105.967; -335.134; -378.759
619.399;  -45.715; -244.104; -374.813
619.673;  -91.154; -330.115; -515.792
619.947;  -86.334; -333.114; -448.795
620.222;  -29.995; -198.110; -204.801
620.496;  -17.816;  -47.121;  -96.782
620.770;   32.173; -187.122;  -93.781
621.044;  324.064;  323.895;  346.190
621.318;  999.588; -653.120; -614.783
621.592;  844.485; -430.121; -409.783
621.866;  444.691; -476.112; -572.799
622.140;   44.338; -207.116; -356.791
622.413;  114.496;  138.889;  112.200
622.687;  -86.088; -746.101; -492.817
622.961;   31.430; -130.108; -143.805
623.235; -118.903; -633.111; -661.800
623.509; -193.127; -816.105; -848.811
623.783;   32.442;  -12.107;   48.193
624.056;  -41.611; -254.120; -280.783
624.330;   92.282;   63.888;   -3.797
624.604;   65.134; -271.116; -355.790
624.877;  147.711;  180.890;   26.198
625.151;   54.459; -249.114; -238.794
625.425;  -33.912; -150.103; -283.814
625.698; -126.398; -367.119; -374.785
625.972; -168.086; -799.110; -765.802
626.245;  169.236;  685.884;  484.210
626.519;  -92.405; -426.120; -340.784
626.792;  -51.853; -192.107; -380.807
627.066; -171.637; -485.122; -662.779
627.339; -196.291; -736.110; -663.802
627.613;   77.493;  351.880;  148.216
627.886;  135.417;  187.891; -612.803
628.160;  -31.113;  312.880; -161.783
628.433; -170.162; -695.125; -703.775
628.706; -162.105; -517.120; -615.784
628.979;   98.347;  296.876;  117.223
629.253; -205.192; -785.119; -833.786
629.526;  477.918; -334.126; -253.772
629.799;  365.757; -641.123; -479.778
630.072;  187.894; -497.128; -516.769
630.346; -174.264;-1115.116;-1080.790
630.619;  581.748; -467.107; -545.808
630.892;  884.898;  709.889;  593.200
631.165;  545.785;  790.896;  679.187
631.438; -203.713;-1092.112;-1055.798
631.711;  107.961;  453.877;  257.221
631.984; -110.570; -523.117; -624.789
632.257; -131.275; -636.117; -681.789
632.530;  -78.798; -412.119; -433.785
632.803;  102.056; -109.115;    7.207
633.076; -116.848; -360.123; -422.777
633.349;   21.100;  173.872;  121.231
633.622;  -58.500; -187.119; -240.785
633.895; -251.711; -903.120; -823.783
634.167; -132.179; -496.126; -525.773
634.440;   14.245;  -19.116; -137.792
634.713;    1.007;  -22.119; -120.786
634.986;  189.386;  593.871;  453.233
635.258; -141.846; -507.115; -597.793
635.531;  205.520;  742.882; -343.788
635.804;  -57.372; -303.117; -318.789
636.077; -164.561; -830.116; -852.791
636.349;  -66.448; -586.115; -474.793
636.622;  745.117; 1695.874; 1392.228
636.894;  292.195; -474.120; -909.784
637.167;  162.009; -836.127; -789.771
637.439;   62.104; -278.128; -213.770
637.712;  -75.081; -312.126; -293.772
637.984; -150.360; -635.116; -707.791
638.257;  623.053;  515.877;  488.222
638.529;  666.340; -881.125; -924.776
638.802;  314.294; -508.128; -449.769
639.074; -241.528; -927.122; -952.781
639.346; -237.578; -942.135; -930.757
639.619;   32.035;  -79.142; -319.744
639.891;    4.064;  -83.122; -168.779
640.163; -151.134; -689.122; -756.780
640.435;   59.268;  273.878;  103.220
640.708;   60.071;  -72.122; -132.780
640.980;  -56.227; -366.122; -362.781
641.252;  345.676;  -25.121;  -71.781
641.524; 2619.678;  580.879;  573.219
641.796; 2416.481;-1094.121; -907.782
642.068;  464.683; -191.121; -300.782
642.340; -104.615; -486.121; -566.783
642.613;  103.988;  294.880;  323.217
642.885; -173.610; -787.120; -878.783
643.157; -105.207; -810.120; -658.784
643.428;  124.995;  170.880;  218.216
643.700; -102.202; -498.120; -425.784
643.972;  -51.100;  -16.119; -133.785
644.244; -168.697; -474.119; -559.785
644.516;  -88.795; -250.119; -114.786
644.788;  151.207;  662.881;  548.214
645.060;   -8.190;  -12.119; -124.786
645.332; -159.588; -525.118; -535.787
645.603;   94.715;  479.882;  342.213
645.875; -118.183; -334.118; -369.787
646.147;  363.520; 1487.882; 1242.212
646.418; -162.578; -931.117; -918.788
646.690;  125.224; -714.117; -715.789
646.962;   43.127; -413.117; -451.789
647.233;   27.029;   15.883;   11.211
647.505; -195.168; -595.117; -475.790
647.776;   85.534;  328.884;  229.210
648.048;  -15.763; -248.116; -418.790
648.320; -143.861; -752.116; -679.791
648.591; -292.658;-1055.116; -958.791
648.862; -142.856; -505.116; -577.792
649.134;   60.446;  115.885;  198.208
649.405;  -91.751; -661.115; -618.792
649.677; -112.349; -475.115; -598.793
649.948;  -17.646; -181.115; -296.793
650.219;   25.156;  -37.115; -147.793
650.491; -136.141; -431.114; -520.794
650.762; -198.239; -705.114; -731.794
651.033; -130.037; -437.114; -424.795
651.304; -186.734; -743.114; -728.795
651.576; -116.632; -680.114; -645.795
651.847;  -54.529; -250.113; -140.796
652.118;  -29.027;  -32.113; -189.796
652.389; -182.224; -639.113; -722.796
652.660;  -38.322; -147.113;  -89.797
652.931; -285.319; -897.112; -871.797
653.202; -163.717; -382.112; -541.798
653.473; -107.115; -633.112; -533.798
653.744;  177.488; -595.112; -590.798
654.015;  130.290; -356.112; -303.799
654.286; -148.207; -642.111; -663.799
654.557; -136.705; -586.111; -521.799
654.828; -314.402;-1114.111;-1088.800
655.099; -159.600; -404.111; -291.800
655.370; -152.997; -427.111; -543.801
655.641; -209.595; -656.110; -714.801
655.911; -160.393; -618.110; -638.801
656.182;  172.610;  437.890;  387.198
656.453;  248.112;  830.890;  746.198
656.724;  -90.685; -466.110; -426.802
656.994; -137.883; -553.109; -568.803
657.265; -201.680; -862.109; -873.803
657.536; -106.078; -500.109; -377.804
657.806; -164.576; -561.109; -593.804
658.077; -261.373; -866.109; -950.804
658.347; -133.071; -523.108; -598.805
658.618; -209.868; -646.108; -694.805
658.888;  -13.566;  -41.108;  112.195
659.159; -146.563; -432.108; -548.806
659.429;  -32.261; -292.108; -349.806
659.700;   -8.058; -435.107; -390.807
659.970;  -49.056; -370.107; -359.807
660.241;  -28.954; -754.107; -921.807
660.511;  653.749; -147.107; -174.808
660.781;   89.051; -793.106; -748.808
661.052;  -56.646; -222.106; -381.808
661.322;  -21.144;   21.894;   -9.809
661.592;   30.559;  257.894;  148.191
661.862; -129.239; -369.106; -382.810
662.133; -159.437; -551.105; -502.810
662.403; -230.734; -770.105; -676.810
662.673; -108.932; -256.105; -213.811
662.943; -156.129; -612.105; -551.811
663.213;   11.373;  -85.105;  -81.811
663.483; -120.224; -593.104; -568.812
663.753;  -45.522; -194.104; -152.812
664.023;    4.481;   68.896;  -32.813
664.293; -100.617; -319.104; -126.813
664.563; -192.715; -694.104; -648.813
664.833; -214.412; -743.103; -608.814
665.103; -223.110; -730.103; -793.814
665.373; -231.007; -766.103; -806.814
665.643; -204.705; -863.103; -918.815
665.913;    0.698; -534.103; -714.815
666.182;  173.700; -685.102; -719.816
666.452;  328.203;  -22.102;  -89.816
666.722; -112.495; -724.102; -784.816
666.992; -228.893; -948.102; -921.817
667.261; -191.890; -824.102; -808.817
667.531;  349.912;  134.899;   45.183
667.801;  738.615; -440.101; -412.818
668.070;  445.117;  714.899;  697.182
668.340; -193.880; -883.101; -840.819
668.609;  192.922;  588.900;  301.181
668.879; -146.076; -490.100; -558.819
669.149; -131.473; -539.100; -516.820
669.418; -171.471; -698.100; -726.820
669.688;  -87.368; -482.100; -666.820
669.957;  104.734; -423.099; -546.821
670.226;  -26.963; -268.099; -331.821
670.496; -154.561; -431.099; -635.822
670.765; -142.458; -418.099; -501.822
671.034; -247.856; -872.099; -828.822
671.304;  -11.254;   55.902; -111.823
671.573; -284.051;-1085.098; -957.823
671.842;  103.851; -380.098; -294.823
672.112;    6.354; -692.098; -586.824
672.381;   10.956; -239.098; -214.824
672.650; -293.541;-1005.097;-1021.825
672.919; -183.939; -631.097; -507.825
673.188; -191.237; -681.097; -878.825
673.457; -290.534;-1101.097;-1143.826
673.726; -166.032; -579.096; -646.826
673.995;  -81.929; -533.096; -479.826
674.265;   -0.327; -263.096; -333.827
674.534;    1.376; -183.096; -235.827
674.802;   -6.322; -618.096; -703.828
675.071; 1449.881; -886.095; -801.828
675.340; 5030.483; -464.095; -339.828
675.609; 1743.985;  103.905;   82.171
675.878;    5.288; -949.095; -893.829
676.147;   87.390;  -26.095;   -8.829
676.416;  120.093; -210.094; -294.830
676.685; 1120.695; 1000.906; -622.830
676.953;  108.798; -603.094; -452.831
677.222;  -30.800; -193.094; -273.831
677.491;  -28.097;  -24.094; -127.831
677.759;   -8.595;   11.907;  172.168
678.028;   -5.093; -279.093; -222.832
678.297;   11.110;   71.907;  197.168
678.565; -270.088; -898.093; -944.833
678.834;  -58.385; -311.093; -268.833
679.102;  -95.483; -411.092; -391.834
679.371; -244.080; -898.092; -727.834
679.639; -227.978; -797.092; -786.834
679.908; -215.576; -794.092; -724.835
680.176; -301.273; -895.091; -941.835
680.445;  -91.871; -346.091; -352.835
680.713;  -20.068;  -58.091;  -23.836
680.982; -140.266; -523.091; -525.836
681.250; -175.163; -578.091; -507.837
681.518; -162.561; -534.090; -751.837
681.787;  -39.258; -204.090; -167.837
682.055;  -92.756; -490.090; -422.838
682.323; -254.554; -993.090; -992.838
682.591;   63.149; -216.090; -538.838
682.859;   91.351;    9.911;  -35.839
683.128;   49.854;  232.911;  497.161
683.396; -309.644;-1102.089;-1122.840
683.664;  -72.241; -241.089;   21.160
683.932;   36.061;  144.911;  -76.840
684.200; -124.637; -576.088; -320.841
684.468;  -21.334;  -73.088; -124.841
684.736;  -24.532; -214.088; -175.841
685.004; -273.629;-1024.088; -982.842
685.272; -163.227; -880.088; -774.842
685.540; -136.424; -499.087; -557.843
685.808; -146.522; -651.087; -682.843
686.076; -232.219; -894.087; -969.843
686.343; -129.117; -601.087; -815.844
686.611;   79.085; -195.087; -224.844
686.879;  708.388; -530.086; -553.844
687.147; 4292.090; -483.086; -480.845
687.414; 1235.893;  -12.086; -169.845
687.682;  -31.005; -658.086; -757.846
687.950;  493.798;  259.915;  263.154
688.217;  -52.200; -792.085; -760.846
688.485;  -33.797; -632.085; -636.847
688.753;  699.305;  -11.085; -102.847
689.020;  147.607; -820.085; -851.847
689.288; -193.390; -853.084; -787.848
689.555;  -42.788; -195.084; -148.848
689.823;  -50.985; -241.084; -345.849
690.090; -141.583; -546.084; -651.849
690.358; -250.680; -877.084; -897.849
690.625;   73.022;  120.917;   45.150
690.892; -143.376; -403.083; -369.850
691.160;  -17.273;   72.917;  -35.850
691.427;   37.529;  141.917;  130.149
691.694; -246.268; -855.083; -929.851
691.962; -289.566;-1177.082;-1060.852
692.229;   56.937;  127.918;   56.148
692.496;  138.639;  130.918;  -49.852
692.763;   34.642; -164.082; -201.853
693.031; -124.156; -739.082; -716.853
693.298;  -85.954; -509.081; -368.853
693.565;  490.649; -155.081; -163.854
693.832; 1610.151;   -5.081;   -9.854
694.099;  175.754; -643.081; -642.855
694.366; -131.744; -882.081; -896.855
694.633;  -90.641; -920.080; -633.855
694.900; 1543.461; 4367.920; -114.856
695.167;  583.263; -214.080; -380.856
695.434;  118.766; -646.080; -623.856
695.701;  309.468;  121.921;  -61.857
695.968;  615.471; -365.079; -361.857
696.234; 1587.173; -415.079; -646.858
696.501;14925.676; -776.079; -614.858
696.768; 7115.078; -554.079; -617.858
697.035;  433.881; -632.078; -667.859
697.302;    3.783; -448.078; -552.859
697.568;    6.585; -458.078; -497.859
697.835;  -88.012; -683.078; -624.860
698.102;  -12.510; -498.078; -407.860
698.368;  166.593;  384.923;  396.139
698.635;  -23.305;  -47.077; -424.861
698.901;  -10.802; -240.077; -348.861
699.168;   85.700; -534.077; -456.862
699.435;  123.102;  -72.077;  -13.862
699.701; -227.195; -868.076; -764.862
699.968;  -52.393;  144.924; -441.863
700.234; -184.490; -783.076; -822.863
700.500; -103.488; -448.076; -539.864
700.767;   35.415;   -1.075;   26.136
701.033; -274.083;-1015.075; -963.864
701.299;  -88.480; -450.075; -483.865
701.566;  247.522;  950.925;  763.135
701.832;   69.924;  -31.075;  -76.865
702.098; -193.873;-1054.074;-1034.866
702.365; -184.471;-1098.074;-1030.866
702.631;  -94.468;-1038.074;-1063.867
702.897; 2048.234; -765.074; -676.867
703.163; 2960.837;  348.926;  254.133
703.429;  255.039; -256.073; -273.868
703.695;  -61.758; -796.073; -792.868
703.961;   51.444; -214.073; -210.868
704.227; -102.254; -630.073; -725.869
704.493;  249.049;  613.927;  510.131
704.759;  -36.949; -565.072; -540.870
705.025;   75.854; -203.072; -194.870
705.291;  -22.844; -666.072; -562.870
705.557;  391.159;  719.928;   34.129
705.823;    2.261; -742.072; -694.871
706.089;  226.763; -307.071; -326.871
706.355;  653.666; -315.071; -244.872
706.620; 8624.368; -776.071; -729.872
706.886;10868.771; -309.071; -362.873
707.152;  953.773; -818.070; -973.873
707.418;  -85.724;-1153.070;-1186.873
707.683;   -2.422; -550.070; -530.874
707.949;  -66.219; -547.070; -578.874
708.215;    4.183; -129.070; -207.874
708.480;  -18.215; -520.069; -420.875
708.746;  170.288;   68.931;   28.125
709.011;  -86.710; -578.069; -612.876
709.277; -127.907; -538.069; -543.876
709.542;  -75.205; -428.069; -387.876
709.808;   24.198;  -59.068;   89.123
710.073; -153.700; -577.068; -695.877
710.339;  -34.398; -242.068; -228.877
710.604;   57.405; -780.068; -845.878
710.869;  387.307; -277.068; -366.878
711.135; -167.290; -715.067; -628.879
711.400; -149.288; -507.067; -608.879
711.665; -112.785; -404.067; -479.879
711.931; -169.983; -661.067; -677.880
712.196; -241.080; -876.067; -954.880
712.461;  133.122; -402.066; -490.880
712.726;  119.024; -727.066; -771.881
712.991; -174.473; -647.066; -664.881
713.256;  -63.071; -350.066; -332.882
713.521;  -81.368; -417.065; -381.882
713.787;  -92.366; -454.065; -472.882
714.052;  -58.863; -214.065; -400.883
714.317; -232.361;-1045.065; -981.883
714.581; 1663.342; -374.065; -268.883
714.846; 1873.544; -822.064; -888.884
715.111;  300.746;  261.936;  257.116
715.376;  -37.251;  -86.064; -223.885
715.641;  -38.049; -365.064; -367.885
715.906;  389.654;   15.936; -551.885
716.171;  261.256;  221.937;  209.114
716.436;   36.859;  -78.063; -104.886
716.700; -184.139; -818.063; -692.886
716.965; -212.237; -794.063; -807.887
717.230;  -95.034; -339.063; -392.887
717.494;   -7.232;  -40.062; -134.888
717.759; -162.429; -784.062; -640.888
718.024;   65.473;  269.938;  250.112
718.288;  195.376;  685.938;  395.111
718.553; -270.322; -803.062; -977.889
718.817; -242.519; -883.061; -899.889
719.082;  -33.117; -115.061; -125.890
719.346; -267.515;-1000.061; -947.890
719.611;  -51.012; -300.061; -255.891
719.875; -163.510; -568.060; -537.891
720.140;  -85.907; -453.060; -603.891
720.404;  106.995; -136.060; -249.892
720.668; 1201.898; -475.060; -411.892
720.933;  468.600;  146.940;  137.108
721.197; -195.898; -667.059; -600.893
721.461; -225.095; -851.059; -826.893
721.725;   18.407;  -21.059; -250.894
721.990;  -57.190; -284.059; -204.894
722.254;    3.412;  -26.059; -108.894
722.518; -125.285; -286.058; -442.895
722.782; -166.983; -743.058; -594.895
723.046;  260.820;  614.942;  570.105
723.310;   82.422;  374.942;  210.104
723.574; -155.476; -654.058; -614.896
723.838; -191.973; -576.057; -642.897
724.102;  -53.871; -226.057; -239.897
724.366; -259.168;-1032.057; -978.897
724.630; -147.266; -749.057; -571.898
724.894; -151.163; -722.057; -514.898
725.158;   -0.661;   38.944; -295.898
725.422;  -76.558; -394.056; -327.899
725.685;  -95.856; -441.056; -349.899
725.949; -117.454; -566.056; -519.900
726.213; -114.451; -732.056; -811.900
726.477;  163.951;-1020.055; -933.900
726.740;  215.254; -274.055; -104.901
727.004;  537.656; -384.055; -510.901
727.268; 4749.759; -442.055; -400.901
727.531; 1157.561; -961.055; -775.902
727.795; -105.937; -713.054; -673.902
728.059; -125.534; -552.054; -557.903
728.322; -153.532; -841.054; -669.903
728.586;    9.171; -692.054; -701.903
728.849; -177.627; -695.053; -756.904
729.112; -186.124; -812.053; -912.904
729.376; -216.322; -959.053; -905.904
729.639; -130.419; -536.053; -536.905
729.903; -172.117; -733.053; -699.905
730.166;  -84.915; -437.052; -399.906
730.429;  -49.112; -317.052; -468.906
730.693; -104.910; -355.052; -894.906
730.956;  443.893;  810.948;  651.093
731.219;  957.095; -310.052; -103.907
731.482;   89.498;-1003.051; -894.907
731.745;   57.400; -794.051; -935.908
732.009;  103.902;  -30.051;   50.092
732.272; -160.795; -904.051; -771.909
732.535;  -40.893; -300.051; -310.909
732.798; -311.690;-1083.050;-1166.909
733.061;  -90.188; -430.050; -456.910
733.324;   37.115;   31.950; -180.910
733.587;  163.417;  290.950;  365.090
733.850; -111.480; -973.049;-1050.911
734.113;  127.322;   33.951;   32.089
734.376;   13.124; -328.049; -447.912
734.639;  410.127; 1188.951; 1011.088
734.901;  109.829; -180.049; -402.912
735.164;  745.732; -883.048; -837.913
735.427; 1707.234; -166.048; -355.913
735.690;  147.237; -205.048; -234.913
735.952; -111.161; -923.048; -925.914
736.215; -112.459;-1113.048;-1009.914
736.478;    2.644; -771.047; -774.915
736.740;  369.646;   33.953;  129.085
737.003; 1114.049; -658.047; -672.915
737.266; 5324.251;  -94.047;   46.084
737.528;  590.754; -682.047; -660.916
737.791;  417.256; -316.046; -327.916
738.053; 1321.959;  465.954;  649.083
738.316;16365.361; -162.046; -136.917
738.578; 9653.263; -770.046; -736.918
738.841;  625.066; -382.046; -446.918
739.103;  251.468; -875.045; -777.918
739.365;  725.571;   79.955;  -69.919
739.628;  -29.027; -884.045; -805.919
739.890;  -45.524; -758.045; -710.919
740.152;  -88.022; -692.044; -754.920
740.414;  -18.519; -408.044; -359.920
740.677;  -97.217; -785.044; -634.921
740.939;  -62.715; -587.044; -487.921
741.201;  359.988; -432.044; -572.921
741.463;   29.090; -689.043; -745.922
741.725;   32.593;  -21.043; -199.922
741.987;  131.395;  220.957;  116.078
742.249;  -59.902; -751.043; -859.923
742.511;  258.300; -703.043; -794.923
742.773;   14.602; -546.042; -546.924
743.035;  246.705;  796.958;  533.076
743.297; -116.993; -963.042;-1013.924
743.559; 1042.110; -278.042; -262.925
743.821;    8.012; -735.042; -744.925
744.083;   -3.085;  -44.041; -149.925
744.345; -197.483; -869.041; -892.926
744.607;  117.420;   75.959;  122.074
744.868; -104.578; -490.041; -554.927
745.130; -233.376; -994.041;-1008.927
745.392;  134.227;   -1.040;  -44.927
745.653;   15.929; -411.040; -378.928
745.915;  346.932;  896.960;  631.072
746.177;   96.834;   35.960;  -43.928
746.438;    5.437; -428.040; -543.929
746.700; -114.961; -947.039; -988.929
746.961;  -14.759; -659.039; -740.930
747.223;  245.844; -190.039;  -74.930
747.484;   96.446; -391.039; -471.930
747.746;  246.349;  -23.038; -106.931
748.007;  137.151; -647.038; -689.931
748.269;  448.454; -468.038; -440.931
748.530;  620.156; -852.038; -638.932
748.791;  388.159; -354.038; -420.932
749.053;  687.661;  286.963;  163.067
749.314;  661.663; -236.037; -169.933
749.575;  637.466; -945.037; -905.933
749.836; 1193.468; -217.037;   86.066
750.098; 4035.371;  -60.037;  -21.934
750.359;50883.173;  414.964;  555.066
750.620;11288.076; -121.036; -220.935
750.881; 1436.278; -585.036; -513.935
751.142; 1899.981; -950.036; -938.936
751.403;24489.083; -789.036; -705.936
751.664; 9071.285;-1034.035; -999.936
751.925;  725.788; -175.035; -262.937
752.186;  436.290; -298.035; -278.937
752.447;  212.493; -590.035; -445.937
752.708;   64.795; -532.035; -648.938
752.969;    0.198; -566.034; -576.938
753.230;  -19.400; -777.034; -672.939
753.491;  -28.298; -650.034; -631.939
753.751;  130.105;  109.966;   19.061
754.012;  224.407;  258.967;  181.060
754.273;  151.210; -174.033;  -71.940
754.534;   17.012; -487.033; -580.940
754.794; -159.985; -926.033; -911.941
755.055;  342.717; 1051.967;  881.059
755.316;  -90.480; -700.032; -566.942
755.576;  -22.778; -606.032; -576.942
755.837;  -89.876; -527.032; -695.942
756.097;  -61.673; -530.032; -564.943
756.358; -141.371; -725.032; -770.943
756.618;  -82.068; -705.031; -641.943
756.879;   15.234; -254.031; -349.944
757.139; -240.163;-1098.031;-1116.944
757.400; -105.161; -538.031; -553.945
757.660;   -5.959; -365.031; -401.945
757.920;   55.644; -266.030; -228.945
758.181;  -22.954; -468.030; -351.946
758.441; -155.551; -870.030; -809.946
758.701;  -36.049; -308.030; -215.946
758.961;  -14.446; -220.030; -278.947
759.222;  -61.844; -574.029; -502.947
759.482; -140.441; -683.029; -723.948
759.742; -159.139; -706.029; -547.948
760.002;   45.963;  -83.029; -143.948
760.262;   91.166;   50.972;  182.051
760.522;  -53.532; -498.028; -574.949
760.782; -123.829; -738.028; -612.949
761.042;  -33.027; -618.028; -573.950
761.302;  139.876;   55.972;  -18.950
761.562;  112.078; -164.027; -154.951
761.822;  110.081; -710.027; -551.951
762.082; -108.117;-1104.027;-1093.951
762.342;  127.685; -328.027; -403.952
762.601;   71.988; -567.027; -506.952
762.861;  516.890; -281.026; -207.952
763.121;  653.593; -406.026; -411.953
763.381;11717.095; -499.026; -485.953
763.640;10431.898; -139.026; -307.954
763.900;  534.700; -242.026; -203.954
764.160;  102.502; -458.025; -491.954
764.419;   -7.995; -726.025; -782.955
764.679; -137.193; -795.025; -726.955
764.939;  -11.590; -124.025; -210.955
765.198; -141.288; -608.025; -563.956
765.458; -142.385; -710.024; -612.956
765.717; -133.883; -454.024; -590.957
765.976;  -87.880; -428.024; -411.957
766.236; -124.078; -475.024; -610.957
766.495;   45.524;  260.977;   73.042
766.755; -189.473;-1090.023; -987.958
767.014;  -18.471; -594.023; -665.958
767.273;  -93.968; -373.023; -397.959
767.533;  -73.566; -228.023; -307.959
767.792;   10.737; -151.022; -188.960
768.051;  -59.661; -228.022; -276.960
768.310; -144.159; -546.022; -650.960
768.569;   29.944; -161.022;    4.039
768.828;  -27.754; -285.022; -363.961
769.088; -226.951;-1050.021; -942.961
769.347; -183.449; -755.021; -599.962
769.606; -169.146; -876.021; -857.962
769.865; -235.244;-1016.021;-1033.963
770.124;   -4.541; -411.021; -336.963
770.383; -114.739; -778.020; -910.963
770.641;  -19.337; -398.020; -400.964
770.900; -114.934; -953.020; -846.964
771.159; -122.032; -851.020; -951.964
771.418;  -45.729; -917.020; -779.965
771.677;  231.173; -224.019; -293.965
771.936;  169.476; -794.019; -865.966
772.194; 4043.578; -465.019; -437.966
772.453;15153.781; -213.019; -391.966
772.712; 1131.183;  416.982;  329.033
772.970;  238.485;   32.982;   63.033
773.229;  208.088;  -22.018;  102.033
773.488; -171.410; -814.018; -770.968
773.746;  162.493;  296.982;  335.032
774.005;   22.995;  190.983;  -22.969
774.263;   66.598;  243.983;  177.031
774.522; -140.500; -422.017; -548.969
774.780; -125.198; -484.017; -417.970
775.039; -118.195; -551.017; -531.970
775.297;  -28.993; -135.016; -351.970
775.555; -164.690; -489.016; -612.971
775.814; -205.288; -618.016; -570.971
776.072; -200.385; -749.016; -740.971
776.330; -139.883; -630.016; -520.972
776.589; -199.780; -703.015; -721.972
776.847; -233.078; -645.015; -624.973
777.105; -281.576;-1016.015;-1032.973
777.363; -101.273; -459.015; -454.973
777.621; -254.271; -660.015; -717.974
777.879;    3.332;  -42.014;   32.026
778.138; -156.766; -554.014; -717.974
778.396; -167.063; -585.014; -526.975
778.654; -268.861;-1015.014; -970.975
778.912;  -56.259; -269.014; -371.976
779.170; -221.556; -880.013; -803.976
779.427; -260.754; -922.013; -897.976
779.685; -257.251; -880.013; -832.977
779.943; -161.749; -654.013; -593.977
780.201; -293.546; -964.012; -883.978
780.459; -168.144; -651.012; -610.978
780.717; -126.941; -440.012; -390.978
780.974; -153.039; -449.012; -490.979
781.232;  -99.837; -358.012; -338.979
781.490; -130.634; -551.011; -472.979
781.747; -117.932; -555.011; -476.980
782.005;  105.271;  462.989;  254.020
782.263; -297.827; -542.011;-1004.981
782.520; -148.224; -326.011; -501.981
782.778; -274.822;-1013.010;-1051.981
783.035; -308.420; -962.010; -938.982
783.293;  -78.517; -248.010; -206.982
783.550;  -58.415; -134.010; -198.982
783.808; -189.012; -764.010; -776.983
784.065; -276.310; -745.009; -874.983
784.322;  -41.507;   25.991;  -86.984
784.580; -242.805; -915.009; -771.984
784.837; -118.802; -392.009; -466.984
785.094; -228.400; -783.009; -762.985
785.352;  -90.298; -304.008; -404.985
785.609; -212.695; -934.008; -839.985
785.866; -103.093; -345.008; -401.986
786.123; -131.990; -639.008; -583.986
786.380; -175.488; -665.008; -604.987
786.637;  -43.185; -225.007; -380.987
786.895;  -50.983; -456.007; -543.987
787.152;  -38.380; -135.007; -267.988
787.409;  -56.978; -123.007; -225.988
787.666; -164.576; -299.006; -378.988
787.923; -193.273; -616.006; -695.989
788.179; -125.771; -551.006; -584.989
788.436; -181.168; -585.006; -585.990
788.693;   -2.266;  -92.006;  -87.990
788.950;  246.637; -125.005; -112.990
789.207;  280.139; -381.005; -372.991
789.464;  -59.459; -161.005; -301.991
789.720;   38.944;  150.995;  110.009
789.977; -290.354;-1003.005; -671.992
790.234;  -23.251;   44.996;  -66.992
790.490; -268.949; -884.004;-1031.993
790.747;   27.254;  -85.004;   22.007
791.004;  -23.544; -426.004; -348.993
791.260;  -94.741; -430.004; -560.994
791.517; -145.539; -843.003; -788.994
791.773;  -60.937; -379.003; -342.994
792.030; -203.234; -596.003; -660.995
792.286; -147.532; -686.003; -636.995
792.543;   -4.229;  -74.002; -159.995
792.799;  -83.927; -584.002; -382.996
793.055; -275.024;-1179.002;-1210.996
793.312; -165.422; -827.002; -816.997
793.568;  -88.520; -746.002; -599.997
793.824;   53.983; -226.001; -284.997
794.081;    1.585; -447.001; -508.998
794.337;  128.588; -664.001; -561.998
794.593; 2456.190; -319.001; -271.999
794.849; 8936.093; -746.001; -772.999
795.105;  426.395; -270.000; -261.999
795.361;    1.498; -490.000; -457.000
795.617; -107.500; -875.000; -945.000
795.873;  -83.800; -360.000; -407.000
796.129;  -28.700; -368.000; -306.000
796.385;  -10.600; -124.000; -156.000
796.641;  176.300;  412.000;  550.000
796.897; -142.800; -666.000; -635.000
797.153;  178.000;  453.000;  357.000
797.409; -188.200; -785.000; -868.000
797.665; -147.700; -625.000; -732.000
797.921; -128.400; -775.000; -762.000
798.176; -119.700; -744.000; -747.000
798.432;  -95.700; -824.000; -596.000
798.688; -139.100;-1174.000;-1078.000
798.943;  143.400; -165.000; -147.000
799.199;  -51.600;-1005.000; -959.000
799.455;  433.800;  369.000;  316.000
799.710;  126.200; -813.000; -380.000
799.966;  473.900; -162.000; -160.000
800.221;  676.000; -638.000; -721.000
800.477;16567.300; -743.000; -710.000
800.732;11184.400; -773.000; -800.000
800.988;  959.100;  205.000;  -19.000
801.243; 3411.200; -454.000; -344.000
801.498;11439.000; -814.000; -739.000
801.754;  639.000; -289.000; -163.000
802.009;  117.300; -257.000; -335.000
802.264; -109.900; -967.000;-1033.000
802.520;   69.300;  222.000;   -3.000
802.775;  -54.400; -524.000; -359.000
803.030;  162.500;  395.000;  356.000
803.285; -198.100; -840.000; -903.000
803.540; -109.200; -686.000; -699.000
803.795;  -60.300; -648.000; -583.000
804.051;  -48.200; -279.000; -346.000
804.306;   73.300;  168.000;  128.000
804.561;  252.300;  451.000;  362.000
804.816;  311.300;  714.000;  861.000
805.071;   32.500; -185.000; -280.000
805.325;  320.000; -257.000; -427.000
805.580; -184.500; -841.000; -877.000
805.835;    6.600; -204.000; -297.000
806.090; -116.100; -760.000; -676.000
806.345;  -26.500; -344.000; -264.000
806.600;  -71.500; -549.000; -632.000
806.854;  -59.300; -408.000; -538.000
807.109;  -32.200; -493.000; -577.000
807.364;   23.700; -407.000; -328.000
807.618;  -21.100; -415.000; -381.000
807.873;   59.500; -470.000; -494.000
808.128;  144.100; -257.000; -518.000
808.382;  162.500; -224.000; -332.000
808.637;  116.800; -440.000; -511.000
808.891;  266.800; -257.000; -180.000
809.146;  116.600; -902.000; -794.000
809.400;  337.200; -848.000; -923.000
809.654;  424.900; -779.000; -551.000
809.909;  658.700; -841.000; -927.000
810.163;11196.600; -813.000; -651.000
810.418;21812.900; -940.000; -861.000
810.672; 1307.400; -685.000; -690.000
810.926; 1028.300; -993.000; -973.000
811.180; 2243.400; -439.000; -372.000
811.434;48287.900;  240.000;  135.000
811.689;14527.500; -231.000; -365.000
811.943;  792.600; -936.000; -953.000
812.197;  405.700; -893.000; -671.000
812.451;  164.000; -379.000; -514.000
812.705;  -84.500; -809.000; -619.000
812.959;  -54.000; -263.000; -388.000
813.213;   15.200; -283.000; -209.000
813.467;  156.300;  470.000;  253.000
813.721; -184.800; -764.000; -792.000
813.975; -187.400; -826.000; -877.000
814.229;  144.900;  430.000;  353.000
814.482; -103.900; -517.000; -566.000
814.736; -191.300; -766.000; -744.000
814.990; -235.800; -779.000; -872.000
815.244;  -75.500; -228.000; -285.000
815.497; -138.100; -636.000; -601.000
815.751;    8.800; -141.000;   82.000
816.005; -131.000; -470.000; -586.000
816.258;  -73.700; -510.000; -363.000
816.512; -169.700; -693.000; -610.000
816.766;   42.500;  121.000;  157.000
817.019;   89.500;  148.000;  149.000
817.273; -215.200;-1000.000; -802.000
817.526;  -17.000; -206.000; -173.000
817.779; -113.800;-1049.000; -960.000
818.033; -170.300; -693.000; -807.000
818.286; -220.300; -725.000; -792.000
818.540; -132.700; -403.000; -403.000
818.793; -123.200; -402.000; -489.000
819.046; -185.400; -582.000; -520.000
819.299;    4.400; -157.000; -166.000
819.553; -170.400; -552.000; -592.000
819.806; -278.600;-1016.000; -838.000
820.059;  -74.900; -334.000; -354.000
820.312;   78.900;  152.000;  185.000
820.565;   33.900;  110.000;  -27.000
820.818;  -50.000;  -59.000; -173.000
821.071; -271.000;-1041.000; -957.000
821.324; -160.400; -536.000; -540.000
821.577; -158.900; -457.000; -483.000
821.830;  -88.000; -270.000; -172.000
822.083; -242.900; -733.000; -288.000
822.336;  -33.500; -261.000; -167.000
822.589; -242.800; -805.000; -688.000
822.842; -258.500; -875.000; -770.000
823.094; -349.900;-1076.000;-1114.000
823.347; -237.100; -925.000; -729.000
823.600;  109.500;  402.000;  187.000
823.853;  -45.900; -311.000; -267.000
824.105; -131.700; -331.000; -575.000
824.358; -196.100; -617.000; -716.000
824.611;  107.700;  234.000;   40.000
824.863;  -96.500; -612.000; -591.000
825.116;  105.800;  -33.000;   27.000
825.368;   92.800; -366.000; -372.000
825.621;  224.700; -186.000; -240.000
825.873;  100.700; -704.000; -737.000
826.126; 1061.300; -669.000; -641.000
826.378;17448.700; -389.000; -505.000
826.630; 2890.300; -890.000; -898.000
826.883;   20.900; -754.000; -693.000
827.135;   84.900; -279.000; -270.000
827.387; -191.000; -893.000; -839.000
827.639;   -3.100;  -86.000;   32.000
827.892; -208.200; -742.000; -582.000
828.144; -241.000; -848.000; -804.000
828.396;  -15.600;  104.000;  -80.000
828.648; -138.400; -440.000; -333.000
828.900; -244.500; -702.000; -795.000
829.152; -192.600; -684.000; -683.000
829.404; -105.200; -215.000; -267.000
829.656;  -16.800;  321.000;  214.000
829.908;    0.800;  393.000;  229.000
830.160; -282.400;-1064.000;-1047.000
830.412; -129.600; -481.000; -430.000
830.664; -228.700; -557.000; -665.000
830.916; -100.500; -268.000; -206.000
831.167; -306.800;-1073.000; -951.000
831.419; -161.300; -623.000; -566.000
831.671; -259.700; -764.000; -809.000
831.923; -115.800; -311.000; -447.000
832.174;  -87.600; -273.000; -331.000
832.426; -189.200; -493.000; -582.000
832.678; -348.400;-1043.000;-1091.000
832.929; -302.100; -947.000; -935.000
833.181; -129.200; -575.000; -677.000
833.432;  -70.900;  -59.000; -186.000
833.684;   24.400;  112.000;  -27.000
833.935; -202.500; -610.000; -566.000
834.187; -188.000; -829.000; -823.000
834.438;  -32.300;  -58.000;  -25.000
834.689;  -73.200; -255.000; -123.000
834.941;  -58.000; -343.000; -244.000
835.192; -129.900; -590.000; -533.000
835.443; -183.600; -419.000; -506.000
835.695;   31.800;  138.000;  -16.000
835.946; -148.600; -608.000; -378.000
836.197; -143.900; -599.000; -622.000
836.448; -151.300; -528.000; -395.000
836.699;  -86.600; -253.000; -341.000
836.950;   25.200;   72.000;    7.000
837.201; -279.600;-1003.000; -987.000
837.452;  -67.400; -356.000; -170.000
837.703; -222.500; -791.000; -737.000
837.954;  -49.500; -205.000; -365.000
838.205; -146.000;-1029.000;-1008.000
838.456;  244.700; -196.000; -282.000
838.707;    3.000; -423.000; -519.000
838.958;  -13.900; -634.000; -647.000
839.209;  435.500;   18.000;   40.000
839.460;  176.100; -439.000; -201.000
839.710;  238.500; -135.000; -297.000
839.961;  681.100;  730.000;  612.000
840.212;  453.500; -382.000; -497.000
840.462; 1816.800; -328.000; -277.000
840.713;27007.200; -571.000; -536.000
840.964; 8107.000;  -62.000; -143.000
841.214;  636.800; -384.000; -624.000
841.465;  768.900; -214.000; -141.000
841.715;  647.700; -417.000; -380.000
841.966;  869.900; -746.000; -685.000
842.216;14779.600; -330.000; -431.000
842.466;42713.300; -169.000; -313.000
842.717; 1694.900; -964.000; -952.000
842.967;  411.400; -635.000; -641.000
843.217;  385.100;   20.000;   28.000
843.468;  100.700; -104.000; -132.000
843.718;  -94.000; -718.000; -726.000
843.968; -182.000; -837.000; -765.000
844.218;   36.900; -315.000; -262.000
844.469;  -96.300; -577.000; -561.000
844.719; -178.600; -537.000; -682.000
844.969; -140.900; -550.000; -580.000
845.219; -254.600; -814.000; -862.000
845.469; -117.000; -392.000; -342.000
845.719; -229.800; -792.000; -884.000
845.969;   51.700;  119.000;  174.000
846.219; -179.500; -738.000; -720.000
846.469;   83.700;  464.000;  432.000
846.718;  -12.600; -115.000;   31.000
846.968; -253.100; -827.000; -827.000
847.218;  -68.100; -224.000; -371.000
847.468; -159.500; -586.000; -555.000
847.718; -263.100; -827.000; -798.000
847.967; -258.800; -826.000; -915.000
848.217; -130.000; -449.000; -569.000
848.467;  -70.200; -405.000; -376.000
848.716; -159.800; -708.000; -725.000
848.966;    0.000; -372.000; -358.000
849.215; -100.200; -428.000; -419.000
849.465; -159.500; -785.000; -615.000
849.714; -270.800;-1132.000;-1150.000
849.964;  -99.100; -551.000; -613.000
850.213;  -62.200; -393.000; -355.000
850.463;  139.200;  137.000;  340.000
850.712;  -30.500; -542.000; -567.000
850.961;   -3.600; -739.000; -678.000
851.211;  116.700; -513.000; -504.000
851.460;  215.100; -635.000; -650.000
851.709;  871.700;  -25.000;   18.000
851.958;17315.500; -912.000; -750.000
852.208;15612.100; -859.000; -879.000
852.457;  584.400; -181.000;  -13.000
852.706;   55.200; -791.000; -823.000
852.955;   28.300; -507.000; -528.000
853.204; -114.400; -521.000; -461.000
853.453; -100.100; -418.000; -458.000
853.702; -232.300; -660.000; -750.000
853.951; -171.100; -532.000; -520.000
854.200; -164.400; -613.000; -562.000
854.449; -241.000; -695.000; -661.000
854.698; -121.400; -340.000; -279.000
854.946;  -97.700; -181.000; -284.000
855.195; -261.000; -843.000; -868.000
855.444; -143.300; -395.000; -420.000
855.693; -186.500; -345.000; -432.000
855.941; -158.600; -387.000; -516.000
856.190;  -64.600; -256.000; -382.000
856.439; -216.400; -652.000; -703.000
856.687;  -20.900;  -99.000;  -72.000
856.936; -163.400; -621.000; -323.000
857.184; -327.700;-1067.000;-1020.000
857.433; -167.400; -423.000; -512.000
857.681; -292.200; -989.000; -953.000
857.930; -100.500; -282.000; -433.000
858.178; -279.500; -856.000; -929.000
858.427; -259.800; -802.000; -781.000
858.675; -164.600; -377.000; -544.000
858.923; -172.900; -527.000; -819.000
859.172; -362.000;-1094.000;-1070.000
859.420; -109.900; -339.000; -239.000
859.668; -201.700; -624.000; -628.000
859.916;   28.700;  109.000;  115.000
860.164; -196.100; -699.000; -603.000
860.413;  405.700; -878.000; -696.000
860.661;  170.000; -709.000; -577.000
860.909; -100.100; -339.000; -325.000
861.157; -133.200; -277.000; -444.000
861.405; -183.200; -534.000; -670.000
861.653;   57.700;  310.000;  310.000
861.901;  285.700; -543.000; -613.000
862.149;  -83.300; -801.000; -824.000
862.396;  -88.000; -297.000; -187.000
862.644; -125.300; -368.000; -347.000
862.892;   21.700;   98.000;  138.000
863.140; -199.600; -549.000; -530.000
863.388; -287.600; -815.000; -759.000
863.635; -205.900; -642.000; -601.000
863.883;   73.200;  231.000;  190.000
864.131; -133.300; -288.000; -357.000
864.378; -235.200; -675.000; -540.000
864.626; -133.800; -347.000; -415.000
864.873; -203.700; -556.000; -505.000
865.121; -234.000; -714.000; -799.000
865.368;  -14.900; -173.000;   75.000
865.616;  -40.400;  -33.000;  -40.000
865.863; -102.800; -462.000; -506.000
866.111; -199.100; -795.000; -824.000
866.358;   93.200; -426.000; -420.000
866.605; 4132.100;  -64.000; -804.000
866.853; 3042.400; -621.000; -537.000
867.100; -114.600; -728.000; -775.000
867.347; -192.900; -672.000; -611.000
867.594; -145.500; -740.000; -714.000
867.841;  167.900;   97.000;   17.000
868.089; -279.600; -746.000; -698.000
868.336; -172.000; -477.000; -420.000
868.583; -212.400; -637.000; -741.000
868.830;  -32.900; -131.000; -170.000
869.077; -264.000; -859.000; -787.000
869.324; -210.800; -502.000; -458.000
869.571; -223.500; -398.000; -430.000
869.818; -187.500; -485.000; -439.000
870.065; -147.000; -439.000; -513.000
870.311; -158.800; -456.000; -542.000
870.558; -149.200; -332.000; -311.000
870.805; -112.500; -320.000; -384.000
871.052; -149.900; -494.000; -369.000
871.298;  -57.800; -204.000; -131.000
871.545;  -92.800; -151.000; -185.000
871.792; -100.000; -173.000; -222.000
872.038;  -56.900;   43.000; -126.000
872.285; -163.100; -496.000; -387.000
872.532; -158.200; -357.000; -387.000
872.778;   92.400;  556.000;  403.000
873.025; -147.900; -384.000; -359.000
873.271;  102.100;  501.000;  578.000
873.517;  -18.100; -133.000; -209.000
873.764;  -24.100; -193.000;  -80.000
874.010; -101.700; -143.000; -230.000
874.257;   10.100;  123.000;   90.000
874.503; -232.400; -579.000; -479.000
874.749;  -64.600;   31.000;  275.000
874.995;  -75.000;  -80.000;  -20.000
875.242; -180.900; -540.000; -478.000
875.488; -176.800; -414.000; -439.000
875.734;  -63.500; -106.000; -234.000
875.980;  272.100; -872.000;-1032.000
876.226;  414.900; -157.000; -255.000
876.472;   38.100;  343.000;  237.000
876.718;   -4.000;  184.000;  158.000
876.964;  -34.700;   56.000;   55.000
877.210; -219.700; -547.000; -677.000
877.456; -218.300; -630.000; -557.000
877.702; -322.100; -821.000; -832.000
877.948; -165.200; -377.000; -497.000
878.193;   35.900;  361.000;  255.000
878.439; -175.400; -487.000; -472.000
878.685; -131.300; -272.000; -343.000
878.931; -224.900; -618.000; -676.000
879.176;  -96.000; -201.000; -201.000
879.422; -288.200; -933.000; -820.000
879.668;  116.600;   10.000;   79.000
879.913;  234.500;   53.000;  137.000
880.159;  -73.500; -112.000;  -17.000
880.404;  -62.700; -152.000; -162.000
880.650;  -41.900;   91.000;  141.000
880.895; -241.800; -670.000; -710.000
881.141; -182.100; -454.000; -428.000
881.386; -257.600; -503.000; -658.000
881.631; -147.300; -311.000; -166.000
881.877;  -17.600;  112.000;  -13.000
882.122; -210.700; -684.000; -600.000
882.367; -137.800; -136.000; -186.000
882.612;  -84.400;  -80.000; -176.000
882.858; -300.900; -877.000; -823.000
883.103; -128.400; -297.000; -267.000
883.348; -276.100; -759.000; -852.000
883.593; -235.800; -677.000; -602.000
883.838;  -46.900; -311.000;  -24.000
884.083;   86.900;  353.000;  288.000
884.328; -118.200; -564.000; -545.000
884.573;  -36.200; -196.000; -143.000
884.818;  325.900; -694.000; -531.000
885.063;  187.500; -348.000; -315.000
885.308; -146.100; -475.000; -398.000
885.553;   36.900;  245.000;  325.000
885.797; -203.900; -545.000; -615.000
886.042;  -66.200;    8.000;   58.000
886.287; -105.500; -253.000; -211.000
886.532;  -26.800;   26.000;  204.000
886.776; -160.900; -407.000; -525.000
887.021; -212.500; -621.000; -574.000
887.265; -220.500; -685.000; -689.000
887.510; -226.300; -557.000; -496.000
887.755; -119.300; -194.000; -164.000
887.999; -215.600; -552.000; -575.000
888.244;  -57.800;  -58.000;  161.000
888.488;   73.400;  371.000;  393.000
888.732; -181.300; -368.000; -520.000
888.977; -212.100; -622.000; -567.000
889.221; -252.100; -683.000; -659.000
889.465; -191.400; -422.000; -566.000
889.710; -108.400;  -56.000; -299.000
889.954;  102.500;  579.000;  467.000
890.198; -239.400; -584.000; -707.000
890.442; -223.700; -716.000; -712.000
890.687; -259.100; -800.000; -753.000
890.931; -133.600; -273.000; -210.000
891.175; -212.200; -502.000; -500.000
891.419;  -49.300; -105.000; -110.000
891.663; -126.400; -239.000; -112.000
891.907; -284.700; -801.000; -545.000
892.151; -289.500; -920.000; -815.000
892.395; -156.600; -274.000; -387.000
892.638;   23.300;  408.000;  291.000
892.882; -300.400; -780.000; -867.000
893.126;  109.600;  758.000;  558.000
893.370; -116.900; -167.000; -168.000
893.614; -236.300; -714.000; -715.000
893.857; -135.500; -183.000; -197.000
894.101; -238.100; -527.000; -631.000
894.345;  -56.700;  300.000;  150.000
894.588;  128.100;  569.000;  380.000
894.832; -135.700; -178.000;  -84.000
895.075;  -95.500;   15.000;  -92.000
895.319; -217.200; -552.000; -420.000
895.563; -197.600; -413.000; -353.000
895.806; -251.700; -628.000; -741.000
896.049;  -61.400; -576.000; -368.000
896.293;  250.800;  527.000;  405.000
896.536;  -70.700; -465.000; -468.000
896.779;  -83.200; -149.000;   -1.000
897.023; -254.200; -751.000; -714.000
897.266;    0.900;  325.000;  269.000
897.509; -307.200; -900.000; -901.000
897.752;  -32.600;  149.000;  171.000
897.996; -324.400; -972.000; -864.000
898.239;  -17.700;  168.000;  102.000
898.482; -188.200; -431.000; -453.000
898.725;  -14.600;  101.000;   53.000
898.968; -250.500; -609.000; -744.000
899.211; -179.900; -513.000; -361.000
899.454; -224.200; -633.000; -539.000
899.697;  -68.200;   90.000;  -43.000
899.940; -276.800; -761.000; -757.000
900.182; -150.800; -335.000; -405.000
900.425; -123.200; -150.000; -298.000
900.668;   21.900;  491.000;  350.000
900.911; -139.500; -292.000; -345.000
901.154;  -25.600;  141.000;   -3.000
901.396; -232.000; -407.000; -412.000
901.639; -217.000; -430.000; -496.000
901.882; -313.000; -790.000; -809.000
902.124; -101.400;  -29.000; -143.000
902.367; -155.800; -315.000; -361.000
902.609; -202.000; -476.000; -453.000
902.852;  -85.600; -108.000; -260.000
903.094; -170.000; -458.000; -337.000
903.337;  -41.700;  -26.000;   53.000
903.579; -152.900; -228.000; -441.000
903.821; -251.400; -597.000; -744.000
904.064;  -53.800;   85.000;  127.000
904.306; -107.000; -126.000; -166.000
904.548; -111.900; -152.000; -366.000
904.790; -132.000; -195.000; -340.000
905.033; -219.700; -625.000; -577.000
905.275; -207.500; -513.000; -524.000
905.517;  142.800;  468.000;  256.000
905.759; -118.800; -667.000; -761.000
906.001; -145.300; -322.000; -369.000
906.243; -112.900; -162.000; -224.000
906.485;  195.400; -265.000; -207.000
906.727;  114.100; -499.000; -542.000
906.969;  -32.500;  -30.000; -135.000
907.211;  198.800; -316.000; -382.000
907.453;  424.000; -188.000; -237.000
907.695;   46.400; -158.000; -385.000
907.936;  137.200;  818.000;  706.000
908.178;  -75.800;   92.000; -135.000
908.420;  -62.800; -111.000; -162.000
908.662; -248.300; -633.000; -682.000
908.903; -155.900; -208.000; -123.000
909.145;  -91.400; -240.000; -305.000
909.386;   59.900;  315.000;  280.000
909.628;  123.900;  363.000;  397.000
909.870;   47.900;   29.000;  264.000
910.111; -189.800; -809.000; -949.000
910.353;   41.700; -123.000; -161.000
910.594;  -23.800; -574.000; -606.000
910.835;  163.200; -265.000; -326.000
911.077;  190.100; -503.000; -604.000
911.318;  399.600; -505.000; -471.000
911.559;  630.500; -577.000; -880.000
911.801; 2190.000; -284.000; -280.000
912.042;19498.000;  -50.000; -159.000
912.283;40148.800;  404.000;  371.000
912.524; 4623.600; -396.000; -457.000
912.765;  681.700; -193.000;   79.000
913.006;  381.500; -307.000; -338.000
913.247;   69.200; -270.000; -290.000
913.488;   44.400;  -43.000;   30.000
913.729; -130.000; -373.000; -373.000
913.970;  -72.100;  -96.000; -292.000
914.211;  -72.300; -160.000; -198.000
914.452;  -74.000; -118.000;  -11.000
914.693;   90.600;  510.000;  592.000
914.934;  104.800;  510.000;  440.000
915.175;  -50.900;   53.000;  -95.000
915.415; -109.500; -137.000;   27.000
915.656;  -56.400;  -28.000;  192.000
915.897; -122.700; -252.000;  -82.000
916.137;  -67.400;   74.000;   -9.000
916.378; -232.000; -573.000; -517.000
916.619; -117.200; -159.000;  -63.000
916.859;   35.500;  303.000;  330.000
917.100;  380.900; 1655.000; 1070.000
917.340;  160.800;  930.000;  728.000
917.581;  149.500;  965.000;  789.000
917.821;  -46.400; -171.000;  143.000
918.061;   -4.300; -199.000;  -72.000
918.302;  -98.100; -152.000; -211.000
918.542;  -39.000;  -22.000;    3.000
918.782;   75.100;  369.000;  377.000
919.023;  246.900;  360.000;  427.000
919.263; 2626.900; 8131.000;  202.000
919.503; 1527.100; -137.000;  -54.000
919.743;  963.400;  390.000;  266.000
919.983;  358.900; -134.000;  -26.000
920.223;  116.900;  135.000;   14.000
920.463;  291.700;  631.000;  554.000
920.703;  239.700;   84.000;   39.000
920.943;  223.800; -110.000;   90.000
921.183;  346.200; -414.000; -405.000
921.423;  814.700;  307.000;  546.000
921.663; 1075.800; -174.000; -257.000
921.903; 2635.100;  237.000;  173.000
922.143;15959.900;  372.000;  389.000
922.383;53792.900;  158.000;  115.000
922.622;13542.400; -120.000;  -15.000
922.862; 1732.200;  796.000;  785.000
923.102;  672.500;  -51.000;   33.000
923.341;  268.900;   59.000;   74.000
923.581;  180.000;  450.000;  360.000
923.821;   80.000;  301.000;  398.000
924.060;   60.200;  351.000;  193.000
924.300;  -92.800;  -16.000; -128.000
924.539;   38.100;  584.000;  473.000
924.779;   97.000;  812.000;  597.000
925.018;  -38.300;  247.000;  353.000
925.257;   54.600;  595.000;  666.000
925.497;   -2.400;  447.000;  412.000
925.736;  -80.300;  -35.000;  102.000
925.975;   62.400;  687.000;  669.000
926.214;  168.700;  907.000;  850.000
926.454;  123.500;  706.000;  757.000
926.693;    9.800;  419.000;  543.000
926.932;  132.600; 1021.000;  825.000
927.171;  219.700; 1107.000; 1044.000
927.410;  194.800; 1144.000;  967.000
927.649;  142.500;  924.000;  742.000
927.888;    9.500;  590.000;  564.000
928.127;   43.100;  680.000;  678.000
928.366;   88.200;  842.000;  826.000
928.605;  139.100;  831.000;  737.000
928.844;  508.000; 1451.000; 1393.000
929.083;  999.500;  770.000;  613.000
929.321;  540.100; 1335.000; 1359.000
929.560;  259.200; 1158.000; 1122.000
929.799;  -10.100;  574.000;  475.000
930.038;  233.400; 1025.000; 1394.000
930.276;  -29.300;  334.000;  397.000
930.515;   55.700;  827.000;  681.000
930.753;   -2.200;  614.000;  589.000
930.992;    5.800;  664.000;  717.000
931.230;   84.600;  847.000;  847.000
931.469;  430.300; 2162.000;  892.000
931.707;  231.600;  840.000;  751.000
931.946;  205.200; 1278.000; 1344.000
932.184;  231.100; 1437.000; 1175.000
932.423;  184.200; 1265.000;  963.000
932.661;  241.600; 1296.000; 1428.000
932.899;  112.100;  987.000;  821.000
933.137;   87.400;  754.000;  564.000
933.376;  316.900; 1664.000; 1335.000
933.614;  383.500; 1759.000; 1196.000
933.852;  176.200; 1357.000; 1171.000
934.090;  353.900; 1722.000; 1747.000
934.328;  246.100; 1252.000; 1457.000
934.566;  235.800; 1431.000; 1110.000
934.804;  395.400; 1263.000; 1309.000
935.042;  976.000; 1861.000; 1850.000
935.280; 3511.700; 2088.000; 2063.000
935.518; 2675.300; 2113.000; 2007.000
935.756;  700.400; 2481.000; 2316.000
935.994;  408.000; 1808.000; 1751.000
936.231;  741.500; 2890.000; 2950.000
936.469;  468.500; 2367.000; 2378.000
936.707;  399.500; 2220.000; 2167.000
936.945;  534.200; 2825.000; 2882.000
937.182;  486.000; 2679.000; 2741.000
937.420;  684.800; 3602.000; 3031.000
937.657;  905.800; 3365.000; 3478.000
937.895;  732.400; 3331.000; 3488.000
938.133;  691.600; 3540.000; 3528.000
938.370;  790.200; 3896.000; 4191.000
938.607;  873.900; 4488.000; 4205.000
938.845; 1256.600; 5587.000; 5549.000
939.082; 1024.200; 5387.000; 5177.000
939.320; 1162.800; 5799.000; 5728.000
939.557; 1408.200; 6549.000; 6491.000
939.794; 1523.600; 7285.000; 7097.000
940.031; 1931.900; 8421.000; 8368.000
940.269; 2235.500; 9552.000; 9107.000
940.506; 2290.900;10901.000;10507.000

