
Integration time [ms]: 200.000
Averaging Nr. [scans]: 10
Smoothing Nr. [pixels]: 0
Data measured with spectrometer [name]: 2101013U2
Wave   ;Sample   ;Dark     ;Reference
[nm]   ;[counts] ;[counts] ;[counts] 

394.013;  116.804; -450.257; -315.536
394.305;  486.302; -461.258; -419.536
394.596; 1769.660; -676.269; -527.514
394.887; 4102.883; -796.268; -654.518
395.178; 1694.625;  145.736;   11.476
395.470;  159.640; -210.263; -356.526
395.761;  470.803;  305.734;  394.479
396.052;  785.088; -545.284; -306.489
396.343;  754.284; -557.276; -454.503
396.634;  244.641; -200.279; -290.497
396.926;  237.379; -618.268; -565.517
397.217;  252.290;   11.725;  -17.504
397.508;  101.312; -366.273; -154.507
397.799;   83.641; -555.279; -571.497
398.090;   -2.367; -973.280; -902.495
398.381;  252.885;   11.708;  -11.473
398.672;    1.287; -585.292; -742.473
398.963;  105.949; -348.279; -373.498
399.254;  248.399;   54.709; -209.475
399.545;  -46.701;-1017.266; -883.520
399.836;  130.769; -407.277; -343.501
400.127;  135.753; -205.295; -209.468
400.418;  124.404; -423.274; -392.506
400.709;  177.116; -359.281; -333.493
401.000;  122.805; -268.291; -309.476
401.290;  201.465;  225.698;  115.545
401.581;  141.764; -166.286; -228.485
401.872;   51.614; -542.298; -486.462
402.163;  109.942; -313.296; -252.467
402.454;  189.300; -123.291; -163.475
402.744;  128.630; -844.297; -813.465
403.035;  771.573; -226.293;  -86.471
403.326; 1039.591; -366.292; -384.474
403.617;  685.106;  204.701;  165.539
403.907;  386.196; -593.283; -679.490
404.198; 3644.202; -545.307; -599.446
404.489; 9739.803; -618.283; -588.491
404.779; 3448.070; -618.302; -660.456
405.070;  450.541;  -67.304; -174.451
405.360;  584.076; -259.293; -238.472
405.651;  669.286;  125.699;   98.542
405.942;  372.758;  209.714;  127.516
406.232;  570.178; -432.285; -413.487
406.523; 1017.966;  641.706;  758.530
406.813;  166.361; -579.286; -644.484
407.104;  748.984;  261.708;  144.527
407.394;  425.808; -604.299; -591.462
407.685;  331.677;  336.715;  222.513
407.975;  153.301; -400.283; -382.490
408.265;  233.320; -134.289; -190.478
408.556;   86.496; -472.291; -459.475
408.846;  383.567;  474.706;  429.530
409.137;  193.131;   -1.288; -216.480
409.427;  106.477; -193.285; -271.487
409.717;   35.216; -776.273; -692.508
410.007;  282.369;    4.715; -170.486
410.298;  183.156; -360.295; -342.469
410.588;  125.474; -495.285; -510.486
410.878;   39.047; -792.287; -873.482
411.168;  217.618; -481.298; -478.463
411.459;  241.293; -295.283; -242.489
411.749;  114.994; -609.292; -507.474
412.039;   92.529; -755.289; -386.480
412.329;  374.159;   40.722;  132.501
412.619;  381.361;  -62.286; -148.485
412.909;  720.424;  639.711;  594.521
413.199;  669.234; -130.280; -251.495
413.490;  788.711;  521.710;  352.523
413.780;  191.339;-1013.279; -913.496
414.070;  566.885;  -46.276;  235.497
414.360;  650.654; -729.278; -666.498
414.650;  677.841; -726.288; -688.482
414.940;  819.138; -538.280; -441.496
415.230; 1472.837;   50.712;   74.519
415.520; 9748.759;  155.730;   66.486
415.809;37243.015; -305.281; -125.493
416.099;29838.072; -388.277; -229.501
416.389; 7758.201;  435.726;  236.494
416.679; 4685.245;   91.738;   85.473
416.969;  801.853; -527.287; -503.483
417.259;  993.942;  341.721;  171.503
417.549; 1150.613;  522.718;  318.508
417.838; 2516.582; -205.268; -147.518
418.128; 8238.418;  650.710;  492.522
418.418; 6795.125; -491.272; -579.509
418.708; 4629.402;    9.726;  -48.506
418.997;17210.196; -474.275; -480.505
419.287;18004.511; -733.273; -790.507
419.577;16328.092; -160.283; -123.489
419.866;53446.169; -588.277; -498.501
420.156;56794.553; -242.270;  -55.513
420.446;11042.135; -112.263;  -26.526
420.735; 1540.545; -376.271; -446.512
421.025; 1582.353; 1830.722;  315.502
421.314; 1356.643; -203.271; -226.512
421.604; 2829.772;   89.732;  233.484
421.893; 1718.837; -705.271; -602.511
422.183;  386.035; -487.263; -461.526
422.472;  629.040;  -36.271; -107.511
422.762;  769.007; -416.266; -379.521
423.051;  403.686; -916.276; -916.503
423.341;  542.114; -491.273; -439.507
423.630;  695.415; -121.265;   15.477
423.919;  662.995;   58.725;   49.495
424.209;  622.943;  -31.263;   56.473
424.498;  776.479;   68.732;  161.483
424.787; 1640.587; -535.267; -601.518
425.077; 5021.413;   34.735;   29.478
425.366; 7405.050; -734.262; -744.528
425.655;14114.614;  639.727;  259.493
425.945;28738.627; -313.247; -268.554
426.234;16700.181;  117.741;  300.467
426.523; 7679.289;  -86.259; -350.534
426.812;10877.301;  107.734;  159.480
427.101;15029.267; -127.269; -323.515
427.390;19409.359;  -55.270;  -86.514
427.680; 4919.716; -624.257; -411.538
427.969;  913.230; -330.255; -301.540
428.258;  614.704; -385.257; -477.536
428.547;  990.731;  449.728;  397.490
428.836; 2204.253; -421.253; -398.543
429.125; 3242.291; -199.259;  -72.534
429.414; 1477.184; -330.251; -294.548
429.703; 4716.184; -231.251; -213.548
429.992;13830.789; -938.250; -828.549
430.281; 9487.625; -397.264; -331.524
430.570; 1085.071;  -21.252;   32.454
430.859; 1162.088;  279.741;  352.466
431.148;  976.922;  636.752;  631.446
431.437;  647.170;  391.748;  367.454
431.725;  266.206; -544.257; -481.536
432.014;  168.563; -845.253; -756.545
432.303;  670.925; -149.239; -105.569
432.592; 1063.234; -460.263; -178.525
432.881; 1544.723; -601.248; -437.554
433.169; 8818.332; -343.255;  -61.540
433.458;17969.172;  445.765;  540.424
433.747; 8104.758; -397.261; -289.529
434.036; 1584.992; -275.242; -280.564
434.324; 3184.506; -395.249; -379.551
434.613; 5486.683;   40.757;  159.437
434.902; 2059.212;  333.760;  439.433
435.190; 1251.324;   75.761;  295.431
435.479;  721.958;  -52.245;   83.441
435.767;  223.470; -411.244; -427.561
436.056;  411.887; -340.242; -294.563
436.345;  628.715; -372.240; -223.568
436.633;  695.499;   60.750;  383.450
436.922;  554.618;  208.760;  414.432
437.210; 1296.058; -194.236;    1.426
437.499; 4064.069; -583.235; -432.576
437.787; 4529.158; -339.236;  -10.574
438.075; 1191.032;   56.761;  162.430
438.364; 1481.735;  -44.238;  250.429
438.652;  897.279; -286.226; -138.592
438.941;  307.629;    3.770;  269.415
439.229;   31.267; -665.252; -466.545
439.517;   66.081; -160.234;  -85.577
439.806;   39.900; -501.225; -290.595
440.094;  420.691;  377.766;  650.421
440.382;  362.096; -653.233; -302.580
440.670;  406.569; -361.235; -285.576
440.959;   76.224; -347.223; -170.599
441.247;  168.145; -151.229; -109.587
441.535;  240.878; -266.235;   31.423
441.823;   88.787; -497.234; -305.578
442.111;  339.951;  173.771;  327.412
442.400;  967.158; -628.245; -335.559
442.688; 2815.291; -111.234; -620.579
442.976; 2068.044; -786.213; -450.617
443.264;  280.409; -324.224; -364.597
443.552;  185.680; -258.226;   51.408
443.840;  362.777;  602.765;  876.423
444.128;  240.395;  265.767;  269.420
444.416;   -3.146; -694.228; -312.588
444.704;   47.165; -465.219;  -92.605
444.992;  158.084;   -0.226;  240.407
445.280;  105.230; -517.230;  -94.585
445.568;   82.949; -694.212; -396.618
445.856;  681.543; -174.221;  357.398
446.143; 1474.160;  -54.220;   -7.604
446.431; 1253.959;  -25.228;  625.411
446.719;  488.591;  489.783;  675.391
447.007;  385.323;  481.769;  705.416
447.295;  365.120;  597.777;  871.402
447.583;  131.342; -464.229;  -34.587
447.870;  285.439; -434.221; -202.601
448.158;  729.828; -104.230;  129.415
448.446;  546.961; -800.219; -338.604
448.733;  273.011;   13.776;  269.403
449.021;  450.149;   60.788;  341.382
449.309;  276.669; -296.210;  208.379
449.596;  406.786;  128.783;   59.392
449.884;  260.130; -571.222; -325.600
450.172;  171.867; -756.227; -406.590
450.459;  692.621;  645.786;  780.387
450.747; 3116.184; -411.218; -147.608
451.034;10176.961;  493.772;  889.411
451.322; 8528.626; -413.214; -170.614
451.609;  811.413;  292.777;  508.403
451.897;  774.856; -550.203; -183.634
452.184; 2500.820; -622.223; -400.598
452.472; 2420.699;   97.792;  269.375
452.759;  684.262;  512.781;  864.395
453.047;  237.045; -407.212; -125.617
453.334;  130.973; -732.219; -216.606
453.621;  205.129; -438.214; -161.615
453.909;  292.345;   13.796;  384.368
454.196;  235.207; -299.199; -123.641
454.483;  425.273;  317.798;  540.364
454.771;  285.403; -215.208;  196.374
455.058;   91.607; -316.207;  102.374
455.345;  202.582;   71.807;  344.347
455.632;  158.612; -128.207;  235.373
455.919;  109.938;  -82.196;  182.354
456.207; -102.187; -774.198; -450.642
456.494;  -26.810; -475.200;  -66.639
456.781;   40.867; -399.202; -198.635
457.068;  131.921; -253.206;  -29.628
457.355;   -0.878; -698.206; -401.629
457.642;    3.330; -552.205; -290.630
457.929;   -8.330; -778.194; -417.651
458.216;   82.046; -575.212; -354.617
458.503;  314.277; -173.193;  -19.652
458.790;  238.800; -864.208; -630.625
459.077;  442.874;  -77.202;  110.364
459.364; 1129.161; -350.195; -210.649
459.651; 2395.018;  -46.206;  220.372
459.938; 1111.287; -864.209; -665.623
460.225;  316.079;  132.799;  276.363
460.512;  -97.166; -836.197; -688.645
460.799;  236.882;  -32.218;  320.392
461.086;  171.096; -370.200; -251.640
461.372;   93.814; -509.198; -279.642
461.659;  241.039; -165.196;  108.354
461.946;  108.175; -445.193;  -54.651
462.233;  501.193;  842.800;  888.361
462.519;  492.989; -814.201; -464.639
462.806; 1383.534; -768.197; -497.645
463.093; 1256.603; -445.191;  -66.656
463.380; -116.440; -920.186; -824.664
463.666;  140.737; -259.197;  -18.646
463.953;  146.953; -406.195; -243.648
464.239;  311.353; -173.195;  -77.648
464.526;  680.268;  413.806;  743.350
464.813;  574.619; -565.190; -304.658
465.099;  649.976;  606.807;  607.348
465.386;  646.681;  903.807;  921.348
465.672;  113.135; -694.197; -522.645
465.959;  109.243; -598.188; -520.662
466.245;   75.582; -468.193; -359.652
466.532;  211.350; -109.195;   63.352
466.818;  173.059; -357.186; -216.664
467.104;    6.414; -488.182; -415.672
467.391;    0.722; -628.189; -459.658
467.677;  111.264; -289.186;    9.335
467.964;   46.430; -682.189; -471.660
468.250;  187.668; -331.186; -160.665
468.536;  211.523;   90.811;  180.341
468.822;  -21.916; -821.184; -574.668
469.109;  313.725;  351.827;  471.311
469.395;  412.095;  729.808;  787.346
469.681;  344.927;   46.811;  156.341
469.967; 1735.034; -699.188; -382.660
470.254; 3662.345; -494.188; -306.662
470.540; 2453.037; -601.196; -476.646
470.826;  324.729; -488.181; -397.675
471.112;  520.489;  288.816;  113.331
471.398;  192.595; -253.183;  -58.670
471.684;   76.168; -626.177; -447.680
471.970;  -62.765; -918.180; -981.675
472.256;   57.193; -521.192; -441.654
472.542;   39.440; -499.171; -434.691
472.828;   40.709; -743.182; -607.672
473.114;   75.400; -380.166; -283.700
473.400;   56.091; -504.175; -293.684
473.686;  101.308; -452.166; -400.701
473.972;   77.211; -230.174; -131.687
474.258;  -77.775; -925.173; -843.689
474.544;  280.057; -183.178;   -2.679
474.830;  419.193;  -65.175;   45.316
475.116;  592.621; -123.190; -196.658
475.401;  811.938; -558.180; -467.676
475.687;  268.336; -725.180; -718.676
475.973;   19.520; -673.181; -770.673
476.259;  471.496;  736.825;  764.315
476.544;  502.479; -539.176; -437.682
476.830; 1013.234; -398.172; -322.690
477.116;  882.077; -430.177; -336.682
477.401;  266.037;  346.820;  358.324
477.687;   -5.309; -289.175; -405.684
477.973;  117.124;   21.819;   28.326
478.258;   -2.064; -448.163; -348.706
478.544;  105.575;   21.815;   61.334
478.829; -114.453; -818.171; -738.692
479.115;  -83.866; -749.172; -651.690
479.401;  -12.195; -444.174; -449.686
479.686;   66.036; -253.180;  -74.676
479.972;  -77.936; -886.178; -776.680
480.257;  119.002; -258.166;  -65.700
480.542;  -21.747; -614.170; -469.693
480.828;  535.089; 1288.824; 1392.317
481.113;  -80.714; -464.176; -426.683
481.399;   63.569; -236.161; -202.711
481.684;  -68.099; -620.166; -462.700
481.969;  108.187; -158.159;  -73.713
482.255;   14.767; -439.169; -285.695
482.540;    1.064; -569.178; -441.680
482.825;   13.053; -395.187; -404.663
483.110;  125.072;  -85.169; -105.696
483.396;  173.717; -840.157; -652.718
483.681;  699.011;  543.826;  730.313
483.966;  178.979; -696.160; -700.712
484.251;   43.110; -404.174; -310.687
484.536;   37.515; -356.165; -378.703
484.822;   30.414; -205.173; -218.687
485.107;  -40.931; -599.152; -502.726
485.392;  301.223;  662.836;  541.296
485.677;  186.485;  354.832;  163.302
485.962;  224.213;  160.843;  270.283
486.247;  214.047;  -14.162;   -8.707
486.532;   83.603; -178.166; -325.701
486.817;  303.561;  381.839;  431.291
487.102;  168.646; -453.154; -514.722
487.387;  795.319; -637.156; -652.718
487.672; 1444.730; -154.164;  -38.705
487.957;  953.371; -394.160; -286.711
488.241;  308.792; -290.150; -314.729
488.526;  955.671; -280.152; -148.726
488.811; 1463.867; -881.177; -818.680
489.096; 1089.549; -666.154; -702.723
489.381;  683.166;    3.847;  162.275
489.666;  450.868; -428.161; -510.710
489.950;  359.854;  558.846;  627.277
490.235;  -69.415; -480.151; -458.728
490.520;  -54.033; -756.161; -723.710
490.804; -135.678; -827.156; -736.719
491.089;   10.513; -469.149; -299.732
491.374;   58.128; -132.164;  -75.704
491.658;  -33.571; -817.147; -717.735
491.943;  189.377; -657.152; -609.727
492.227;  399.440; -178.155;  -38.721
492.512;  110.713; -294.157; -341.717
492.797; -105.195; -713.149; -716.731
493.081; -106.167; -588.147; -598.735
493.366;  -49.531; -751.161; -635.711
493.650;  397.706;  831.859;  917.254
493.935;   27.728; -648.147; -447.734
494.219;  -77.512; -778.142; -687.743
494.503;  -91.102; -585.150; -487.730
494.788;  101.901;   46.842;   74.285
495.072;  199.594;  184.850;  434.271
495.356;  240.018; -463.148; -343.733
495.641;  601.842; -812.146; -736.736
495.925;  564.729; -976.156; -903.719
496.209;   92.213; -599.149; -451.732
496.494;  -79.311; -763.142; -544.744
496.778;   61.346; -364.154; -360.722
497.062; -139.972; -819.156; -627.719
497.346;  -93.727; -869.160; -640.711
497.631;  298.823;  580.852;  560.266
497.915;  139.156;  -64.145;  175.261
498.199;  126.617; -341.157; -277.718
498.483;   81.269; -562.152; -508.725
498.767;  334.795;  301.850;  300.271
499.051;  270.510; -126.149; -100.732
499.335;    9.707; -693.149; -739.731
499.619;  -50.256; -381.129; -423.767
499.903;   45.138; -272.155;  -65.721
500.187;   50.356; -588.153; -316.724
500.471;  -36.024; -796.152; -595.727
500.755;  182.067;   62.839;  -96.710
501.039;   26.039; -270.155; -357.721
501.323;  195.408;  -21.141;  264.254
501.607;   75.737; -447.163; -503.706
501.891;    7.219; -607.156; -512.718
502.174;  -58.128; -726.144; -585.741
502.458;  167.081;   89.849;  370.273
502.742;   56.141; -180.138; -191.751
503.026;  110.728; -412.147; -254.734
503.310;  174.386; -437.159; -375.713
503.593;  141.530; -464.147; -325.735
503.877;  177.996; -232.133; -156.760
504.161;  284.259;    2.847;  -50.724
504.444;  132.404; -841.158; -710.716
504.728;  546.027; -487.164; -522.704
505.012;  947.891; -257.150;  -76.729
505.295;  746.569; -417.161; -212.711
505.579;  716.528; -256.156; -496.719
505.862;  972.851; -555.145; -333.738
506.146;  851.589; -681.159; -758.714
506.429;  592.290;  568.841;  461.286
506.713;   70.687; -732.151; -667.728
506.996;  475.445;   90.846;  295.278
507.280;  419.521; -633.165; -474.703
507.563;  277.736; -469.155; -261.721
507.847;  100.657; -423.153; -112.724
508.130;  103.570; -665.161; -456.711
508.413;  111.096; -758.167; -577.700
508.697;  371.896; -151.167;   12.300
508.980;  168.259; -422.153; -312.724
509.263;  -19.669; -466.155; -450.720
509.547;   69.591; -124.150;   82.271
509.830;   82.473; -172.160;  140.289
510.113;  164.228;  128.844;  298.281
510.396;   33.866; -530.152; -300.725
510.680;  355.453; -818.145; -812.738
510.963; 1322.051;  184.846;  180.277
511.246; 1117.201; -493.150; -357.730
511.529;  431.360; -482.145;  -83.739
511.812;  508.791; -250.134;   10.241
512.095;  257.183; -740.151; -396.728
512.378;   99.236; -317.147; -245.736
512.661;   -3.549; -703.137; -623.753
512.944;   -3.009; -750.142; -637.744
513.227;  113.848; -170.137; -171.752
513.510;   -0.028; -479.144; -671.741
513.793;   17.514; -485.140; -435.747
514.076;  223.673;  -43.127;  -39.771
514.359;  164.314; -294.149; -135.732
514.642;   69.795; -442.142; -567.744
514.925; 1062.212;  581.860;  561.253
515.208; 1142.386; -498.134; -443.758
515.491;  847.605; -276.133; -182.761
515.773;  427.777; -410.143; -337.742
516.056; 2630.760;  249.864;  409.246
516.339; 3449.465; -754.136; -652.755
516.622; 2875.198; -518.150; -488.730
516.904; 2367.686;  882.857;  975.257
517.187;  981.646; -730.138; -523.752
517.470;  520.585; -568.143; -510.743
517.752;  496.569; -624.136; -470.756
518.035;  360.428; -708.139; -725.749
518.318;  392.866; -799.136; -744.755
518.600; 2819.110; -300.132; -325.762
518.883; 3908.494;  310.858;   88.256
519.165; 1932.636; -585.138; -426.751
519.448;  560.410;  -61.132;  -19.762
519.730;  296.683; -573.126; -415.773
520.013;  573.000;  588.867;  664.240
520.295; 1483.094;  -94.134;  -15.759
520.578; 3307.128; -335.131; -305.764
520.860; 3719.310; -254.132;   56.238
521.143; 1827.972; -763.135; -584.756
521.425;  693.801; -251.125; -279.775
521.707;  841.073; -622.127; -380.771
521.990; 2200.274; -199.127;  167.229
522.272; 2469.816; -116.140;   -4.748
522.554; 1251.978; -237.143; -157.742
522.836;  628.591;  -24.134;   99.241
523.119;  356.426; -496.148; -189.734
523.401;  195.737; -448.130; -314.766
523.683;   64.252; -865.137; -693.753
523.965;  432.043;  408.862;  260.248
524.247;  373.130;   54.878;  170.220
524.529;  215.493; -451.134; -367.759
524.812;  494.739;   -3.130;  191.234
525.094; 1023.942; -773.138; -631.751
525.376; 1619.313; -143.124;   78.223
525.658;  974.762; -441.136; -339.754
525.940;  -38.977; -805.131; -671.764
526.222;   74.767; -188.136;  -88.755
526.504;  191.720; -190.131;   32.237
526.786;  326.797; -960.133; -647.760
527.068;  600.421; -124.123;  -67.778
527.349;  221.557; -865.137; -774.754
527.631;  181.609; -137.132;   22.238
527.913;  114.272; -664.127; -450.771
528.195;  134.891; -761.125; -639.774
528.477;  317.287;  -93.134;  -30.758
528.759;  104.739; -648.130; -522.766
529.040;   22.819; -569.123; -293.778
529.322;   57.395; -235.125;  -10.774
529.604;  229.942;  -47.130;   93.233
529.886;  181.583; -546.126; -302.773
530.167;  250.831;  232.870;  192.235
530.449;   79.735;    1.853;   63.265
530.731;  -17.171; -572.122; -459.779
531.012;   52.957; -513.120; -216.784
531.294;   99.710; -118.116;  -43.792
531.575;  245.001;  290.875;  538.225
531.857;  -11.420; -548.135; -266.757
532.138;  139.906; -113.141;   40.254
532.420;  309.674;  294.865;  403.244
532.701;  299.100; -722.133; -751.760
532.983;  560.904;  232.867;  182.239
533.264;  199.180; -243.126;  175.228
533.546;  -52.234; -491.136; -508.755
533.827;  125.195;  173.867;   -1.759
534.109;   82.779; -352.135;  -80.757
534.390;   99.215; -725.132; -582.762
534.671;  370.574; -270.135;  -82.756
534.953;  160.223; -751.123; -611.779
535.234;   25.590; -426.117; -255.789
535.515; -178.432; -891.119; -735.785
535.796;  -16.033; -431.128; -193.770
536.078; -220.887;-1050.124; -904.777
536.359;   17.924;  -22.123;    3.221
536.640;  -38.907; -480.125; -197.774
536.921;  248.750;  225.871;  143.232
537.202;  463.138;  -87.138;  -16.751
537.483;  577.727;  251.869;  377.236
537.764;  218.631;   17.870;   98.235
538.045;  -81.915; -543.134; -371.758
538.326;  -75.848; -596.129; -447.768
538.607;  -28.025; -686.127; -476.771
538.888;  220.645;   98.879;    5.218
539.169;  179.137; -704.122; -535.781
539.450;  464.048;  236.871;   16.233
539.731;  285.150; -361.121; -182.783
540.012;  206.057;  199.880;  412.216
540.293;  137.105;   82.876;  158.224
540.574;  -11.961; -895.113; -717.796
540.855;  669.648;  435.879;  377.218
541.136;  770.834;   47.878;  139.220
541.416;  364.540; -161.130; -220.766
541.697;  235.221; -274.131; -170.763
541.978; 1310.077; -270.135; -315.757
542.259; 1605.074; -211.127; -236.771
542.539;  788.502; -191.116; -186.790
542.820;  332.800;  461.875;  480.225
543.101;  185.655;  -52.145;  -77.738
543.381;    3.874; -638.127; -591.771
543.662;  371.871;  159.873; -254.771
543.942;  648.968; -751.127; -830.770
544.223; 1326.536;  193.878;  161.219
544.504;  826.912; -275.124; -182.777
544.784;  707.682; -592.126; -408.773
545.065; 2102.607;  104.884; -254.791
545.345; 2489.769;  227.881;   14.215
545.626; 1623.938;  -14.113; -108.796
545.906; 1108.630;   77.869;   98.235
546.186;  462.189;   92.874;  -95.773
546.467;  240.416;   99.877;  -95.778
546.747;  439.802;  264.884;  327.210
547.027;  500.210;   91.876;  111.223
547.308;  319.167; -376.127; -530.770
547.588;  572.253;  299.871;  371.232
547.868;  311.532;  458.870;  588.235
548.149;  336.117;  609.885;  593.207
548.429;  107.372; -347.127; -299.771
548.709;  168.357; -645.120; -461.784
548.989;  600.582;   84.882;   88.213
549.269; 2533.308;   10.868;  139.239
549.550; 5670.421;  215.877;  117.222
549.830; 5099.262; -758.111; -556.799
550.110; 1047.173; -468.110; -320.801
550.390; 1025.629; -128.122;  -56.779
550.670; 1278.632; -868.114; -783.795
550.950;  941.748; -509.121; -471.782
551.230;  329.142;  549.879;  460.218
551.510;  -12.154; -381.121; -326.782
551.790;   61.383; -173.109; -127.803
552.070;  465.816;  940.877; 1181.223
552.350;  419.074; -492.119; -377.786
552.630;  689.839;   -2.121;   77.219
552.909;  474.408;  181.884;   73.209
553.189;  321.916;  -49.132;   33.237
553.469;  187.774; -703.119; -514.786
553.749;  171.576; -469.127; -357.772
554.029;  199.996;   33.883;  -24.790
554.308;  215.523; -154.115;  -37.794
554.588;   51.165; -196.128; -204.770
554.868;   27.149; -366.121;  -47.782
555.147;  151.919; -114.115;  -46.793
555.427;  691.911; -260.116; -250.792
555.707; 4659.716; -284.115; -200.793
555.986; 5472.567; -719.111; -538.800
556.266; 2920.400;   23.884;   72.210
556.546;   95.046; -888.121; -675.782
556.825;  245.429; -657.114; -556.794
557.105; 2127.262; -125.128;   17.230
557.384; 2380.506;  122.884;  187.209
557.664;  899.610; -717.116; -508.792
557.943;  129.248; -557.121; -411.782
558.222;  175.786; -345.118; -344.788
558.502;  348.421; -116.115;  -76.793
558.781;  649.915;  194.885;  499.208
559.061;  465.286; -232.118; -227.788
559.340;  396.292;  302.883;  353.211
559.619;  828.900;   93.884;  148.210
559.899; 1139.795; -239.117; -266.789
560.178; 1036.720; -778.115; -593.793
560.457; 3785.597; -623.117; -562.790
560.736; 4925.869; -472.111; -482.800
561.015; 3422.960; -500.128; -502.769
561.295;  505.310;  180.893;  215.193
561.574;  486.517;  119.885;  116.207
561.853;  679.589;  274.891;  303.197
562.132;  593.724;  -45.114;  182.206
562.411;  583.440;  396.879;  553.219
562.690;  122.315; -592.115; -458.792
562.969;  255.948;  472.888;  630.203
563.248;  973.237; 2966.878; 2487.219
563.527;  304.268; -290.111; -408.800
563.806;  390.572; -650.127; -521.771
564.085;  465.031; -297.105; -206.810
564.364;  247.999; -594.117; -405.790
564.643;  573.140; -276.121; -223.781
564.922; 2194.981;  221.890;  397.198
565.201; 2097.386; -640.109; -700.803
565.479;  990.213; -297.115; -219.792
565.758;  309.263; -810.128; -712.770
566.037;  569.487; -155.109; -100.803
566.316;  288.407; -286.116;  -28.791
566.595;   34.817;  -17.115;  -12.793
566.873;  197.670; -166.111;  -79.801
567.152;  -96.253; -490.113; -590.797
567.431;  -17.399; -113.116;    6.210
567.709;    7.711; -344.107; -212.807
567.988;  237.429; -810.114; -769.794
568.266;  619.416; -160.115;  -68.793
568.545;  426.796; -644.100; -514.819
568.824;  724.912;  160.885;  356.208
569.102;  596.028; -351.114; -235.794
569.381;  206.511; -492.116; -407.792
569.659;  -94.858; -553.113; -553.796
569.938;  -23.166; -743.122; -465.780
570.216;  132.891; -225.109; -225.804
570.494;  -96.867; -632.114; -572.795
570.773;  121.846;  202.879;  114.218
571.051;  -29.180; -373.123; -357.778
571.330;   60.539; -221.113; -174.796
571.608;   42.720; -181.098; -173.823
571.886; -133.440; -671.111; -581.799
572.164; -136.451; -739.121; -621.782
572.443;  -92.264; -562.105; -512.811
572.721;  -85.703; -399.117; -289.790
572.999;  -30.811; -280.117; -168.788
573.277;  161.327;  379.894;  620.191
573.555;  343.130;   94.894;   37.190
573.834; 1499.688;  -86.117; -114.788
574.112; 1846.614;  880.893;  811.193
574.390;  541.169; -143.111;  -96.801
574.668;   13.648;  -91.112;  -61.797
574.946;  -30.869; -165.106; -187.810
575.224;   15.686;   71.891;  -16.803
575.502;  -35.996; -200.116; -204.791
575.780; -152.950; -767.112; -829.798
576.058;  531.068; 1589.889; 1004.200
576.336;  -29.824; -210.110; -129.801
576.614;  -82.650; -511.112; -340.798
576.891;  -14.777; -711.115; -823.794
577.169;  553.502; -158.108; -285.805
577.447;  728.513;  169.893;  202.193
577.725;  411.356;  629.888;  854.201
578.003;   52.854;  -71.112; -371.798
578.280;  134.149; -208.104; -242.812
578.558;   62.721; -450.115; -422.793
578.836;  165.732; -210.114; -145.795
579.114;  -11.152; -630.112; -670.797
579.391;  122.691;   -6.117;  -18.789
579.669; -138.276; -595.114; -704.794
579.947;  206.509; -326.107; -127.806
580.224;  273.409; -692.107; -524.806
580.502;  389.714;  127.893;   76.193
580.779;   59.099;  -42.117;   75.210
581.057; -105.109; -584.109; -470.804
581.334; -196.531; -726.102; -695.815
581.612;   84.232;   54.895;  511.190
581.889;  -24.013;  -83.101; -129.818
582.167;  -53.494; -298.099; -190.821
582.444; -181.720; -845.102; -814.817
582.721;  204.381;  657.899;  715.183
582.999;   62.603; -326.100; -167.821
583.276;  486.926; -812.123; -713.779
583.553;  759.673; -364.102; -294.816
583.831;  228.744; -607.104; -631.812
584.108;  125.499;  349.892;  174.195
584.385;   19.468; -122.102;  -98.815
584.662; -138.729; -651.111; -828.801
584.940;   88.070;  204.889;  204.199
585.217;  -38.359;  -73.113; -303.796
585.494;   76.182;   71.890;  118.198
585.771;  240.092; -250.109; -354.804
586.048;  567.741; -196.113;  -76.796
586.325;  323.874; -721.110; -773.801
586.602;  167.949;  230.896;  213.188
586.879;  -46.302; -499.100; -580.820
587.156;   54.733; -156.105; -331.810
587.433; -118.123; -701.102; -667.817
587.710;   98.351;  152.888;  234.202
587.987;  388.740; -264.105; -236.811
588.264; 1052.953;  315.888;  387.202
588.541; 1742.352;  -61.104;   26.187
588.818; 3302.995;   72.892;  171.196
589.095; 2860.846; -163.104; -174.812
589.371;  452.690; -459.109; -414.804
589.648;   10.014; -581.107; -437.807
589.925;   -1.266; -517.114; -621.795
590.202;  -79.750; -741.112; -607.798
590.478;   71.642; -166.105;  -73.811
590.755;  296.904; -241.108; -132.806
591.032; 2831.377; -741.110; -699.802
591.308; 3753.975; -732.094; -790.831
591.585; 1959.877; -573.110; -560.802
591.862;   38.579;-1056.102; -950.817
592.138;   42.901; -475.108; -474.805
592.415;  122.450; -486.104; -495.813
592.691; 1868.847;  460.896;  518.188
592.968; 2191.023; -208.098; -123.824
593.244; 1090.502; -695.116; -595.790
593.521;  102.279; -105.102;  -42.817
593.797; -112.969; -810.122; -720.780
594.074;  361.040; -611.096; -588.826
594.350;  942.155;  828.905;  729.172
594.626;  358.371; -303.111; -283.801
594.903;   72.180; -643.101; -645.817
595.179;  305.555;  243.896;  418.187
595.455;   30.416; -136.107; -150.807
595.731;   46.557;  -19.103;  -38.814
596.008;  -80.037; -464.111; -434.800
596.284;   15.201; -187.100; -242.820
596.560;   30.984; -501.093; -493.833
596.836;  191.036; -173.105;  -70.810
597.112;  393.302; -582.108; -437.805
597.388;  350.237;  -49.097;  -48.826
597.665;  208.745;  437.887;  530.203
597.941; -124.776; -572.089; -658.839
598.217;  -17.319; -323.110; -293.802
598.493;  292.995;   61.891; -204.804
598.769;  579.393; -175.100;  -50.819
599.045;  301.505; -490.108; -562.806
599.321;   71.300; -193.100; -261.820
599.597;  135.294; -355.109; -476.804
599.872;  629.152;  409.896;  429.187
600.148;  440.939;  -61.097; -172.826
600.424;  409.812;   91.893;  202.193
600.700;  271.915; -170.107; -280.807
600.976;  116.731; -442.097; -464.825
601.252;  265.789; -226.109; -272.803
601.527;  140.854; -833.104; -840.813
601.803;  146.543; -453.105; -404.812
602.079;  256.593; -124.100; -118.819
602.354;  621.397; -620.092; -531.835
602.630;  964.841; -140.113; -482.796
602.906; 2877.787; -910.101; -863.818
603.181; 7708.674; -627.119; -534.786
603.457; 6670.336;   98.903; -278.826
603.733;  953.251; -605.120; -626.783
604.008; 1259.231; -245.106; -164.810
604.284; 3513.282; -636.101; -580.817
604.559; 3171.256;   -3.112;  -42.799
604.835;  566.135; -163.105; -225.810
605.110;  417.007; -732.099; -892.821
605.385;  897.587;  224.907;  267.167
605.661;  718.659; -625.095; -729.829
605.936; 1178.206; -664.108; -737.806
606.211; 1148.367;  -17.103; -170.815
606.487;  208.227; -329.114; -376.794
606.762;  -48.226; -791.119; -745.786
607.037;  -58.964; -501.105; -433.810
607.313; -107.950; -589.096; -574.828
607.588;   -7.669; -375.106; -137.810
607.863;   24.886;  -28.101; -143.818
608.138;  294.480;  513.890;  516.198
608.413;  -71.787; -576.099; -592.822
608.688;   38.201; -203.108; -267.805
608.964;  191.923; -509.106; -218.809
609.239;  255.632; -107.105; -212.810
609.514;  353.843;  281.895;  240.188
609.789;  722.949; -187.104; -716.812
610.064;  965.648; -435.096; -609.827
610.339;  948.590; -855.109; -799.804
610.614; 1272.901; -131.100; -315.820
610.889;  789.943;  215.895;  107.188
611.163;  -12.756; -407.104; -591.812
611.438;   57.628;   81.886; -167.794
611.713;  -43.418; -467.101; -499.817
611.988;   60.985; -144.101; -328.818
612.263;  -98.731; -771.102; -717.815
612.538;  298.540;  385.887;  251.204
612.812;  112.502; -832.100; -911.820
613.087;  124.220; -358.098; -338.823
613.362; -120.885; -497.107; -557.807
613.637;   96.461;  261.897;  138.186
613.911;  -32.102; -256.092; -345.835
614.186;  113.413; -249.107; -292.807
614.460;  642.626; -842.081; -758.854
614.735;  921.856;  -55.087;  -17.843
615.010;  208.142;   43.912;  -82.841
615.284;  356.300;  360.892;  246.195
615.559;  335.896; -792.092; -955.835
615.833;  367.510;  -76.099;  -87.822
616.108;  -25.788; -225.090; -390.837
616.382;  255.258;  274.913;  402.156
616.656;  162.613; -241.090; -232.837
616.931;  552.711; -785.099; -700.822
617.205; 1177.154; -973.104; -979.813
617.480; 1171.898;  -91.125;    6.225
617.754;  137.694; -396.125; -128.774
618.028;    5.454; -369.129; -382.768
618.302;   91.198;   73.892;  -25.805
618.577;  -92.637; -371.103; -518.815
618.851; -103.415; -399.109; -600.803
619.125;  -79.607; -335.134; -378.759
619.399;  -34.545; -244.104; -374.813
619.673;  -82.888; -330.115; -515.792
619.947;  -75.168; -333.114; -448.795
620.222;  -25.928; -198.110; -204.801
620.496;   15.848;  -47.121;  -96.782
620.770;   30.537; -187.122;  -93.781
621.044;  283.033;  323.895;  346.190
621.318;  828.652; -653.120; -614.783
621.592;  759.249; -430.121; -409.783
621.866;  345.057; -476.112; -572.799
622.140;   60.104; -207.116; -356.791
622.413;   99.063;  138.889;  112.200
622.687;  -99.618; -746.101; -492.817
622.961;   46.398; -130.108; -143.805
623.235; -157.236; -633.111; -661.800
623.509; -204.658; -816.105; -848.811
623.783;   26.610;  -12.107;   48.193
624.056;  -44.546; -254.120; -280.783
624.330;  114.748;   63.888;   -3.797
624.604;   45.699; -271.116; -355.790
624.877;  125.778;  180.890;   26.198
625.151;   29.025; -249.114; -238.794
625.425;  -55.143; -150.103; -283.814
625.698;  -95.134; -367.119; -374.785
625.972; -189.118; -799.110; -765.802
626.245;  157.802;  685.884;  484.210
626.519;  -77.841; -426.120; -340.784
626.792;  -29.585; -192.107; -380.807
627.066; -194.173; -485.122; -662.779
627.339; -203.624; -736.110; -663.802
627.613;   91.857;  351.880;  148.216
627.886;  136.284;  187.891; -612.803
628.160;  -17.048;  312.880; -161.783
628.433; -211.298; -695.125; -703.775
628.706; -157.041; -517.120; -615.784
628.979;   91.010;  296.876;  117.223
629.253; -202.127; -785.119; -833.786
629.526;  373.780; -334.126; -253.772
629.799;  287.120; -641.123; -479.778
630.072;   95.556; -497.128; -516.769
630.346; -205.898;-1115.116;-1080.790
630.619;  443.816; -467.107; -545.808
630.892;  782.465;  709.889;  593.200
631.165;  491.955;  790.896;  679.187
631.438; -217.947;-1092.112;-1055.798
631.711;  124.424;  453.877;  257.221
631.984; -107.805; -523.117; -624.789
632.257; -169.009; -636.117; -681.789
632.530;  -80.933; -412.119; -433.785
632.803;  102.222; -109.115;    7.207
633.076; -119.384; -360.123; -422.777
633.349;   37.062;  173.872;  121.231
633.622;  -65.235; -187.119; -240.785
633.895; -243.447; -903.120; -823.783
634.167; -116.017; -496.126; -525.773
634.440;    2.810;  -19.116; -137.792
634.713;    6.571;  -22.119; -120.786
634.986;  197.648;  593.871;  453.233
635.258; -126.480; -507.115; -597.793
635.531;  193.185;  742.882; -343.788
635.804;  -45.906; -303.117; -318.789
636.077; -173.895; -830.116; -852.791
636.349;  -95.583; -586.115; -474.793
636.622;  700.279; 1695.874; 1392.228
636.894;  237.460; -474.120; -909.784
637.167;   52.671; -836.127; -789.771
637.439;   50.566; -278.128; -213.770
637.712;  -77.318; -312.126; -293.772
637.984; -156.394; -635.116; -707.791
638.257;  584.416;  515.877;  488.222
638.529;  604.903; -881.125; -924.776
638.802;  259.756; -508.128; -449.769
639.074; -236.764; -927.122; -952.781
639.346; -243.018; -942.135; -930.757
639.619;   29.893;  -79.142; -319.744
639.891;   12.327;  -83.122; -168.779
640.163; -149.570; -689.122; -756.780
640.435;   71.432;  273.878;  103.220
640.708;   43.535;  -72.122; -132.780
640.980;  -49.063; -366.122; -362.781
641.252;  292.040;  -25.121;  -71.781
641.524; 2540.242;  580.879;  573.219
641.796; 2189.845;-1094.121; -907.782
642.068;  405.447; -191.121; -300.782
642.340; -112.250; -486.121; -566.783
642.613;   66.752;  294.880;  323.217
642.885; -212.445; -787.120; -878.783
643.157; -132.943; -810.120; -658.784
643.428;  122.260;  170.880;  218.216
643.700;  -94.238; -498.120; -425.784
643.972;  -25.235;  -16.119; -133.785
644.244; -150.133; -474.119; -559.785
644.516;  -79.230; -250.119; -114.786
644.788;  154.972;  662.881;  548.214
645.060;   14.575;  -12.119; -124.786
645.332; -153.523; -525.118; -535.787
645.603;   86.080;  479.882;  342.213
645.875; -129.618; -334.118; -369.787
646.147;  355.885; 1487.882; 1242.212
646.418; -209.213; -931.117; -918.788
646.690;   56.790; -714.117; -715.789
646.962;   25.792; -413.117; -451.789
647.233;   32.195;   15.883;   11.211
647.505; -178.003; -595.117; -475.790
647.776;  117.700;  328.884;  229.210
648.048;  -31.498; -248.116; -418.790
648.320; -158.095; -752.116; -679.791
648.591; -291.393;-1055.116; -958.791
648.862; -133.690; -505.116; -577.792
649.134;   54.012;  115.885;  198.208
649.405; -109.485; -661.115; -618.792
649.677; -118.683; -475.115; -598.793
649.948;   18.120; -181.115; -296.793
650.219;   10.122;  -37.115; -147.793
650.491; -135.775; -431.114; -520.794
650.762; -181.873; -705.114; -731.794
651.033; -132.670; -437.114; -424.795
651.304; -175.768; -743.114; -728.795
651.576; -119.465; -680.114; -645.795
651.847;  -66.463; -250.113; -140.796
652.118;    5.840;  -32.113; -189.796
652.389; -163.358; -639.113; -722.796
652.660;  -33.155; -147.113;  -89.797
652.931; -257.553; -897.112; -871.797
653.202; -159.550; -382.112; -541.798
653.473; -132.848; -633.112; -533.798
653.744;  142.555; -595.112; -590.798
654.015;  138.657; -356.112; -303.799
654.286; -132.840; -642.111; -663.799
654.557; -112.138; -586.111; -521.799
654.828; -300.335;-1114.111;-1088.800
655.099; -125.733; -404.111; -291.800
655.370; -154.430; -427.111; -543.801
655.641; -222.828; -656.110; -714.801
655.911; -191.025; -618.110; -638.801
656.182;  170.177;  437.890;  387.198
656.453;  277.980;  830.890;  746.198
656.724; -104.218; -466.110; -426.802
656.994; -130.515; -553.109; -568.803
657.265; -217.613; -862.109; -873.803
657.536; -152.710; -500.109; -377.804
657.806; -157.608; -561.109; -593.804
658.077; -254.705; -866.109; -950.804
658.347; -155.303; -523.108; -598.805
658.618; -199.800; -646.108; -694.805
658.888;  -18.798;  -41.108;  112.195
659.159; -145.695; -432.108; -548.806
659.429;  -64.493; -292.108; -349.806
659.700;    5.610; -435.107; -390.807
659.970;  -34.388; -370.107; -359.807
660.241;  -23.085; -754.107; -921.807
660.511;  571.117; -147.107; -174.808
660.781;   47.520; -793.106; -748.808
661.052;  -54.078; -222.106; -381.808
661.322;  -11.375;   21.894;   -9.809
661.592;   71.127;  257.894;  148.191
661.862; -132.570; -369.106; -382.810
662.133; -158.568; -551.105; -502.810
662.403; -216.865; -770.105; -676.810
662.673;  -82.963; -256.105; -213.811
662.943; -183.760; -612.105; -551.811
663.213;   29.442;  -85.105;  -81.811
663.483; -157.755; -593.104; -568.812
663.753;  -66.053; -194.104; -152.812
664.023;   -3.150;   68.896;  -32.813
664.293;  -89.148; -319.104; -126.813
664.563; -215.845; -694.104; -648.813
664.833; -225.043; -743.103; -608.814
665.103; -237.040; -730.103; -793.814
665.373; -204.438; -766.103; -806.814
665.643; -175.435; -863.103; -918.815
665.913;  -12.833; -534.103; -714.815
666.182;  107.970; -685.102; -719.816
666.452;  281.772;  -22.102;  -89.816
666.722; -112.125; -724.102; -784.816
666.992; -270.523; -948.102; -921.817
667.261; -206.120; -824.102; -808.817
667.531;  321.682;  134.899;   45.183
667.801;  721.085; -440.101; -412.818
668.070;  432.687;  714.899;  697.182
668.340; -211.810; -883.101; -840.819
668.609;  192.292;  588.900;  301.181
668.879; -148.405; -490.100; -558.819
669.149; -144.803; -539.100; -516.820
669.418; -162.200; -698.100; -726.820
669.688;  -98.798; -482.100; -666.820
669.957;   30.805; -423.099; -546.821
670.226;  -13.493; -268.099; -331.821
670.496; -162.990; -431.099; -635.822
670.765; -142.988; -418.099; -501.822
671.034; -256.285; -872.099; -828.822
671.304;   27.117;   55.902; -111.823
671.573; -286.380;-1085.098; -957.823
671.842;   44.922; -380.098; -294.823
672.112;  -26.775; -692.098; -586.824
672.381;    4.127; -239.098; -214.824
672.650; -252.070;-1005.097;-1021.825
672.919; -155.368; -631.097; -507.825
673.188; -175.465; -681.097; -878.825
673.457; -291.663;-1101.097;-1143.826
673.726; -144.760; -579.096; -646.826
673.995; -101.658; -533.096; -479.826
674.265;  -44.255; -263.096; -333.827
674.534;   -0.853; -183.096; -235.827
674.802;  -26.650; -618.096; -703.828
675.071; 1195.552; -886.095; -801.828
675.340; 4321.755; -464.095; -339.828
675.609; 1524.757;  103.905;   82.171
675.878;  -34.740; -949.095; -893.829
676.147;   57.662;  -26.095;   -8.829
676.416;  103.265; -210.094; -294.830
676.685; 1000.567; 1000.906; -622.830
676.953;   59.470; -603.094; -452.831
677.222;  -56.328; -193.094; -273.831
677.491;  -14.125;  -24.094; -127.831
677.759;   18.577;   11.907;  172.168
678.028;  -43.820; -279.093; -222.832
678.297;    5.282;   71.907;  197.168
678.565; -233.515; -898.093; -944.833
678.834; -107.613; -311.093; -268.833
679.102; -118.710; -411.092; -391.834
679.371; -235.008; -898.092; -727.834
679.639; -260.905; -797.092; -786.834
679.908; -222.403; -794.092; -724.835
680.176; -295.100; -895.091; -941.835
680.445; -118.098; -346.091; -352.835
680.713;  -15.695;  -58.091;  -23.836
680.982; -171.793; -523.091; -525.836
681.250; -185.090; -578.091; -507.837
681.518; -156.988; -534.090; -751.837
681.787;  -15.985; -204.090; -167.837
682.055; -123.683; -490.090; -422.838
682.323; -263.580; -993.090; -992.838
682.591;   34.322; -216.090; -538.838
682.859;  113.125;    9.911;  -35.839
683.128;   77.627;  232.911;  497.161
683.396; -307.370;-1102.089;-1122.840
683.664;  -36.868; -241.089;   21.160
683.932;   30.435;  144.911;  -76.840
684.200; -143.163; -576.088; -320.841
684.468;    1.040;  -73.088; -124.841
684.736;  -33.158; -214.088; -175.841
685.004; -259.455;-1024.088; -982.842
685.272; -135.053; -880.088; -774.842
685.540; -145.550; -499.087; -557.843
685.808; -177.848; -651.087; -682.843
686.076; -232.345; -894.087; -969.843
686.343; -158.343; -601.087; -815.844
686.611;   35.660; -195.087; -224.844
686.879;  580.562; -530.086; -553.844
687.147; 3696.565; -483.086; -480.845
687.414; 1054.767;  -12.086; -169.845
687.682;  -57.630; -658.086; -757.846
687.950;  396.272;  259.915;  263.154
688.217;  -59.825; -792.085; -760.846
688.485;  -59.023; -632.085; -636.847
688.753;  612.780;  -11.085; -102.847
689.020;   62.482; -820.085; -851.847
689.288; -228.115; -853.084; -787.848
689.555;  -29.513; -195.084; -148.848
689.823;  -50.210; -241.084; -345.849
690.090; -147.108; -546.084; -651.849
690.358; -296.105; -877.084; -897.849
690.625;   47.897;  120.917;   45.150
690.892; -119.500; -403.083; -369.850
691.160;    3.202;   72.917;  -35.850
691.427;   52.005;  141.917;  130.149
691.694; -235.893; -855.083; -929.851
691.962; -287.090;-1177.082;-1060.852
692.229;   71.312;  127.918;   56.148
692.496;  108.115;  130.918;  -49.852
692.763;   30.817; -164.082; -201.853
693.031; -150.880; -739.082; -716.853
693.298;  -85.178; -509.081; -368.853
693.565;  351.625; -155.081; -163.854
693.832; 1448.027;   -5.081;   -9.854
694.099;  105.630; -643.081; -642.855
694.366; -160.468; -882.081; -896.855
694.633; -126.065; -920.080; -633.855
694.900; 1548.237; 4367.920; -114.856
695.167;  516.940; -214.080; -380.856
695.434;   96.442; -646.080; -623.856
695.701;  307.945;  121.921;  -61.857
695.968;  550.747; -365.079; -361.857
696.234; 1558.450; -415.079; -646.858
696.501;15264.652; -776.079; -614.858
696.768; 7240.255; -554.079; -617.858
697.035;  421.057; -632.078; -667.859
697.302;   38.560; -448.078; -552.859
697.568;   43.562; -458.078; -497.859
697.835;  -96.835; -683.078; -624.860
698.102;  -15.133; -498.078; -407.860
698.368;  181.470;  384.923;  396.139
698.635;  -19.328;  -47.077; -424.861
698.901;  -12.525; -240.077; -348.861
699.168;   79.877; -534.077; -456.862
699.435;  108.480;  -72.077;  -13.862
699.701; -230.718; -868.076; -764.862
699.968;  -65.515;  144.924; -441.863
700.234; -177.913; -783.076; -822.863
700.500;  -93.410; -448.076; -539.864
700.767;   62.192;   -1.075;   26.136
701.033; -238.905;-1015.075; -963.864
701.299;  -76.303; -450.075; -483.865
701.566;  237.400;  950.925;  763.135
701.832;   84.202;  -31.075;  -76.865
702.098; -192.295;-1054.074;-1034.866
702.365; -166.493;-1098.074;-1030.866
702.631; -139.190;-1038.074;-1063.867
702.897; 1769.812; -765.074; -676.867
703.163; 2758.815;  348.926;  254.133
703.429;  216.317; -256.073; -273.868
703.695; -114.580; -796.073; -792.868
703.961;   52.322; -214.073; -210.868
704.227;  -99.375; -630.073; -725.869
704.493;  271.127;  613.927;  510.131
704.759;  -16.470; -565.072; -540.870
705.025;   68.232; -203.072; -194.870
705.291;  -51.265; -666.072; -562.870
705.557;  375.037;  719.928;   34.129
705.823;   23.740; -742.072; -694.871
706.089;  224.842; -307.071; -326.871
706.355;  658.845; -315.071; -244.872
706.620; 9226.547; -776.071; -729.872
706.886;11335.150; -309.071; -362.873
707.152;  938.152; -818.070; -973.873
707.418;  -92.045;-1153.070;-1186.873
707.683;   18.757; -550.070; -530.874
707.949;  -73.440; -547.070; -578.874
708.215;   48.762; -129.070; -207.874
708.480;  -34.235; -520.069; -420.875
708.746;  156.367;   68.931;   28.125
709.011;  -78.330; -578.069; -612.876
709.277; -127.028; -538.069; -543.876
709.542;  -57.825; -428.069; -387.876
709.808;   39.377;  -59.068;   89.123
710.073; -154.520; -577.068; -695.877
710.339;   -4.418; -242.068; -228.877
710.604;   47.785; -780.068; -845.878
710.869;  388.687; -277.068; -366.878
711.135; -136.410; -715.067; -628.879
711.400; -137.608; -507.067; -608.879
711.665; -102.105; -404.067; -479.879
711.931; -160.603; -661.067; -677.880
712.196; -227.800; -876.067; -954.880
712.461;  100.102; -402.066; -490.880
712.726;  105.105; -727.066; -771.881
712.991; -173.593; -647.066; -664.881
713.256;  -68.190; -350.066; -332.882
713.521;  -94.288; -417.065; -381.882
713.787; -118.385; -454.065; -472.882
714.052;  -32.483; -214.065; -400.883
714.317; -208.980;-1045.065; -981.883
714.581; 1694.922; -374.065; -268.883
714.846; 1987.925; -822.064; -888.884
715.111;  276.127;  261.936;  257.116
715.376;  -22.770;  -86.064; -223.885
715.641;   21.032; -365.064; -367.885
715.906;  323.735;   15.936; -551.885
716.171;  241.937;  221.937;  209.114
716.436;   68.040;  -78.063; -104.886
716.700; -204.658; -818.063; -692.886
716.965; -211.155; -794.063; -807.887
717.230;  -79.453; -339.063; -392.887
717.494;    0.650;  -40.062; -134.888
717.759; -152.848; -784.062; -640.888
718.024;   60.255;  269.938;  250.112
718.288;  172.157;  685.938;  395.111
718.553; -231.640; -803.062; -977.889
718.817; -255.038; -883.061; -899.889
719.082;  -37.035; -115.061; -125.890
719.346; -261.833;-1000.061; -947.890
719.611;  -48.330; -300.061; -255.891
719.875; -176.928; -568.060; -537.891
720.140;  -96.425; -453.060; -603.891
720.404;   42.677; -136.060; -249.892
720.668;  985.480; -475.060; -411.892
720.933;  426.482;  146.940;  137.108
721.197; -185.815; -667.059; -600.893
721.461; -236.713; -851.059; -826.893
721.725;   41.490;  -21.059; -250.894
721.990;  -75.108; -284.059; -204.894
722.254;    5.095;  -26.059; -108.894
722.518; -117.203; -286.058; -442.895
722.782; -149.400; -743.058; -594.895
723.046;  237.502;  614.942;  570.105
723.310;  105.805;  374.942;  210.104
723.574; -161.693; -654.058; -614.896
723.838; -186.590; -576.057; -642.897
724.102;  -55.488; -226.057; -239.897
724.366; -217.485;-1032.057; -978.897
724.630; -155.283; -749.057; -571.898
724.894; -121.280; -722.057; -514.898
725.158;   25.622;   38.944; -295.898
725.422;  -63.975; -394.056; -327.899
725.685; -101.073; -441.056; -349.899
725.949; -136.070; -566.056; -519.900
726.213; -129.568; -732.056; -811.900
726.477;  116.535;-1020.055; -933.900
726.740;  193.737; -274.055; -104.901
727.004;  524.440; -384.055; -510.901
727.268; 4971.842; -442.055; -400.901
727.531; 1175.345; -961.055; -775.902
727.795;  -97.253; -713.054; -673.902
728.059; -106.650; -552.054; -557.903
728.322; -135.248; -841.054; -669.903
728.586;  -26.745; -692.054; -701.903
728.849; -179.943; -695.053; -756.904
729.112; -246.240; -812.053; -912.904
729.376; -254.038; -959.053; -905.904
729.639; -117.935; -536.053; -536.905
729.903; -189.033; -733.053; -699.905
730.166;  -47.030; -437.052; -399.906
730.429;  -26.428; -317.052; -468.906
730.693; -105.425; -355.052; -894.906
730.956;  393.777;  810.948;  651.093
731.219;  831.880; -310.052; -103.907
731.482;   80.482;-1003.051; -894.907
731.745;   27.085; -794.051; -935.908
732.009;   90.287;  -30.051;   50.092
732.272; -170.810; -904.051; -771.909
732.535;  -38.108; -300.051; -310.909
732.798; -329.605;-1083.050;-1166.909
733.061;  -92.203; -430.050; -456.910
733.324;   38.200;   31.950; -180.910
733.587;  184.202;  290.950;  365.090
733.850; -105.495; -973.049;-1050.911
734.113;   75.707;   33.951;   32.089
734.376;  -10.090; -328.049; -447.912
734.639;  402.212; 1188.951; 1011.088
734.901;  115.215; -180.049; -402.912
735.164;  611.617; -883.048; -837.913
735.427; 1496.020; -166.048; -355.913
735.690;  190.522; -205.048; -234.913
735.952; -100.775; -923.048; -925.914
736.215; -105.373;-1113.048;-1009.914
736.478;   -3.370; -771.047; -774.915
736.740;  327.732;   33.953;  129.085
737.003;  945.735; -658.047; -672.915
737.266; 4878.837;  -94.047;   46.084
737.528;  520.140; -682.047; -660.916
737.791;  448.342; -316.046; -327.916
738.053; 1259.545;  465.954;  649.083
738.316;16220.347; -162.046; -136.917
738.578; 9793.750; -770.046; -736.918
738.841;  606.352; -382.046; -446.918
739.103;  239.955; -875.045; -777.918
739.365;  675.357;   79.955;  -69.919
739.628;  -22.440; -884.045; -805.919
739.890;  -82.138; -758.045; -710.919
740.152;  -68.035; -692.044; -754.920
740.414;  -28.333; -408.044; -359.920
740.677;  -81.630; -785.044; -634.921
740.939;  -70.328; -587.044; -487.921
741.201;  290.075; -432.044; -572.921
741.463;  -10.523; -689.043; -745.922
741.725;   56.680;  -21.043; -199.922
741.987;  114.382;  220.957;  116.078
742.249;  -30.815; -751.043; -859.923
742.511;  195.687; -703.043; -794.923
742.773;  -23.210; -546.042; -546.924
743.035;  241.592;  796.958;  533.076
743.297; -129.105; -963.042;-1013.924
743.559;  935.797; -278.042; -262.925
743.821;    3.400; -735.042; -744.925
744.083;   45.002;  -44.041; -149.925
744.345; -156.695; -869.041; -892.926
744.607;  101.807;   75.959;  122.074
744.868;  -91.290; -490.041; -554.927
745.130; -224.788; -994.041;-1008.927
745.392;   87.715;   -1.040;  -44.927
745.653;    7.317; -411.040; -378.928
745.915;  352.520;  896.960;  631.072
746.177;  119.322;   35.960;  -43.928
746.438;    7.425; -428.040; -543.929
746.700;  -99.273; -947.039; -988.929
746.961;  -12.670; -659.039; -740.930
747.223;  217.532; -190.039;  -74.930
747.484;   90.535; -391.039; -471.930
747.746;  240.537;  -23.038; -106.931
748.007;  154.240; -647.038; -689.931
748.269;  413.242; -468.038; -440.931
748.530;  551.145; -852.038; -638.932
748.791;  339.447; -354.038; -420.932
749.053;  676.950;  286.963;  163.067
749.314;  618.652; -236.037; -169.933
749.575;  611.355; -945.037; -905.933
749.836; 1169.757; -217.037;   86.066
750.098; 3880.260;  -60.037;  -21.934
750.359;48052.662;  414.964;  555.066
750.620;10835.865; -121.036; -220.935
750.881; 1376.167; -585.036; -513.935
751.142; 1892.070; -950.036; -938.936
751.403;24437.872; -789.036; -705.936
751.664; 9135.875;-1034.035; -999.936
751.925;  690.077; -175.035; -262.937
752.186;  445.880; -298.035; -278.937
752.447;  166.682; -590.035; -445.937
752.708;   85.585; -532.035; -648.938
752.969;  -17.413; -566.034; -576.938
753.230;  -28.810; -777.034; -672.939
753.491;  -22.508; -650.034; -631.939
753.751;  143.295;  109.966;   19.061
754.012;  203.597;  258.967;  181.060
754.273;  126.400; -174.033;  -71.940
754.534;    4.502; -487.033; -580.940
754.794; -167.895; -926.033; -911.941
755.055;  353.607; 1051.967;  881.059
755.316;  -56.490; -700.032; -566.942
755.576;  -43.288; -606.032; -576.942
755.837;  -60.385; -527.032; -695.942
756.097;  -70.183; -530.032; -564.943
756.358; -134.280; -725.032; -770.943
756.618;  -80.778; -705.031; -641.943
756.879;  -24.575; -254.031; -349.944
757.139; -256.673;-1098.031;-1116.944
757.400;  -96.870; -538.031; -553.945
757.660;  -28.268; -365.031; -401.945
757.920;    1.035; -266.030; -228.945
758.181;  -16.263; -468.030; -351.946
758.441; -176.260; -870.030; -809.946
758.701;   -6.758; -308.030; -215.946
758.961;  -12.055; -220.030; -278.947
759.222;  -85.953; -574.029; -502.947
759.482; -135.850; -683.029; -723.948
759.742; -147.448; -706.029; -547.948
760.002;   54.955;  -83.029; -143.948
760.262;   67.357;   50.972;  182.051
760.522;  -68.640; -498.028; -574.949
760.782;  -83.238; -738.028; -612.949
761.042;  -55.935; -618.028; -573.950
761.302;  130.767;   55.972;  -18.950
761.562;  125.270; -164.027; -154.951
761.822;   98.672; -710.027; -551.951
762.082; -111.325;-1104.027;-1093.951
762.342;  130.977; -328.027; -403.952
762.601;  124.480; -567.027; -506.952
762.861;  494.982; -281.026; -207.952
763.121;  687.385; -406.026; -411.953
763.381;12336.487; -499.026; -485.953
763.640;11367.590; -139.026; -307.954
763.900;  564.992; -242.026; -203.954
764.160;  161.095; -458.025; -491.954
764.419;  -38.603; -726.025; -782.955
764.679; -124.100; -795.025; -726.955
764.939;   19.102; -124.025; -210.955
765.198; -117.395; -608.025; -563.956
765.458; -130.393; -710.024; -612.956
765.717; -158.390; -454.024; -590.957
765.976;  -74.788; -428.024; -411.957
766.236; -141.285; -475.024; -610.957
766.495;   95.817;  260.977;   73.042
766.755; -215.180;-1090.023; -987.958
767.014;  -28.778; -594.023; -665.958
767.273;  -78.175; -373.023; -397.959
767.533;  -46.173; -228.023; -307.959
767.792;   -3.770; -151.022; -188.960
768.051;  -50.068; -228.022; -276.960
768.310; -127.865; -546.022; -650.960
768.569;   44.537; -161.022;    4.039
768.828;  -30.060; -285.022; -363.961
769.088; -206.158;-1050.021; -942.961
769.347; -139.455; -755.021; -599.962
769.606; -140.353; -876.021; -857.962
769.865; -224.450;-1016.021;-1033.963
770.124;   36.852; -411.021; -336.963
770.383; -108.945; -778.020; -910.963
770.641;   -0.743; -398.020; -400.964
770.900; -118.240; -953.020; -846.964
771.159;  -81.438; -851.020; -951.964
771.418;  -61.935; -917.020; -779.965
771.677;  252.267; -224.019; -293.965
771.936;  213.270; -794.019; -865.966
772.194; 4378.072; -465.019; -437.966
772.453;16460.975; -213.019; -391.966
772.712; 1204.777;  416.982;  329.033
772.970;  271.380;   32.982;   63.033
773.229;  189.682;  -22.018;  102.033
773.488; -134.415; -814.018; -770.968
773.746;  169.787;  296.982;  335.032
774.005;   65.490;  190.983;  -22.969
774.263;   71.992;  243.983;  177.031
774.522; -122.005; -422.017; -548.969
774.780; -105.203; -484.017; -417.970
775.039; -136.600; -551.017; -531.970
775.297;   16.802; -135.016; -351.970
775.555; -151.495; -489.016; -612.971
775.814; -197.593; -618.016; -570.971
776.072; -181.190; -749.016; -740.971
776.330; -134.988; -630.016; -520.972
776.589; -205.485; -703.015; -721.972
776.847; -179.183; -645.015; -624.973
777.105; -313.380;-1016.015;-1032.973
777.363;  -95.778; -459.015; -454.973
777.621; -229.675; -660.015; -717.974
777.879;   18.527;  -42.014;   32.026
778.138; -186.870; -554.014; -717.974
778.396; -149.368; -585.014; -526.975
778.654; -262.665;-1015.014; -970.975
778.912;  -51.763; -269.014; -371.976
779.170; -241.160; -880.013; -803.976
779.427; -238.858; -922.013; -897.976
779.685; -254.355; -880.013; -832.977
779.943; -178.853; -654.013; -593.977
780.201; -267.750; -964.012; -883.978
780.459; -181.548; -651.012; -610.978
780.717; -118.545; -440.012; -390.978
780.974; -147.843; -449.012; -490.979
781.232; -121.640; -358.012; -338.979
781.490; -129.238; -551.011; -472.979
781.747; -123.535; -555.011; -476.980
782.005;   99.867;  462.989;  254.020
782.263; -302.630; -542.011;-1004.981
782.520; -126.828; -326.011; -501.981
782.778; -305.925;-1013.010;-1051.981
783.035; -284.523; -962.010; -938.982
783.293;  -58.220; -248.010; -206.982
783.550;  -54.918; -134.010; -198.982
783.808; -227.415; -764.010; -776.983
784.065; -281.313; -745.009; -874.983
784.322;  -21.310;   25.991;  -86.984
784.580; -230.708; -915.009; -771.984
784.837; -106.305; -392.009; -466.984
785.094; -203.203; -783.009; -762.985
785.352;  -80.100; -304.008; -404.985
785.609; -206.298; -934.008; -839.985
785.866; -129.795; -345.008; -401.986
786.123; -142.993; -639.008; -583.986
786.380; -186.990; -665.008; -604.987
786.637;  -10.888; -225.007; -380.987
786.895;  -54.985; -456.007; -543.987
787.152;  -58.883; -135.007; -267.988
787.409;  -11.980; -123.007; -225.988
787.666; -107.278; -299.006; -378.988
787.923; -170.475; -616.006; -695.989
788.179; -173.273; -551.006; -584.989
788.436; -157.470; -585.006; -585.990
788.693;  -32.468;  -92.006;  -87.990
788.950;  193.335; -125.005; -112.990
789.207;  208.637; -381.005; -372.991
789.464;  -69.560; -161.005; -301.991
789.720;   26.342;  150.995;  110.009
789.977; -319.455;-1003.005; -671.992
790.234;   -8.453;   44.996;  -66.992
790.490; -263.850; -884.004;-1031.993
790.747;   -0.848;  -85.004;   22.007
791.004;  -53.445; -426.004; -348.993
791.260; -101.943; -430.004; -560.994
791.517; -176.640; -843.003; -788.994
791.773;  -30.038; -379.003; -342.994
792.030; -174.735; -596.003; -660.995
792.286; -155.433; -686.003; -636.995
792.543;   13.970;  -74.002; -159.995
792.799;  -66.628; -584.002; -382.996
793.055; -263.125;-1179.002;-1210.996
793.312; -137.623; -827.002; -816.997
793.568;  -84.220; -746.002; -599.997
793.824;   58.982; -226.001; -284.997
794.081;   19.585; -447.001; -508.998
794.337;   95.687; -664.001; -561.998
794.593; 2476.790; -319.001; -271.999
794.849; 9033.992; -746.001; -772.999
795.105;  429.095; -270.000; -261.999
795.361;   32.497; -490.000; -457.000
795.617; -155.100; -875.000; -945.000
795.873;  -81.600; -360.000; -407.000
796.129;  -38.600; -368.000; -306.000
796.385;  -10.900; -124.000; -156.000
796.641;  195.400;  412.000;  550.000
796.897; -102.200; -666.000; -635.000
797.153;  193.800;  453.000;  357.000
797.409; -161.100; -785.000; -868.000
797.665; -124.000; -625.000; -732.000
797.921; -102.900; -775.000; -762.000
798.176; -103.200; -744.000; -747.000
798.432;  -84.200; -824.000; -596.000
798.688; -144.700;-1174.000;-1078.000
798.943;  133.700; -165.000; -147.000
799.199;  -34.200;-1005.000; -959.000
799.455;  464.800;  369.000;  316.000
799.710;  205.400; -813.000; -380.000
799.966;  502.600; -162.000; -160.000
800.221;  738.000; -638.000; -721.000
800.477;16679.300; -743.000; -710.000
800.732;11546.000; -773.000; -800.000
800.988; 1012.000;  205.000;  -19.000
801.243; 3897.100; -454.000; -344.000
801.498;13113.800; -814.000; -739.000
801.754;  750.700; -289.000; -163.000
802.009;  156.100; -257.000; -335.000
802.264; -125.600; -967.000;-1033.000
802.520;   88.900;  222.000;   -3.000
802.775;  -23.700; -524.000; -359.000
803.030;  159.800;  395.000;  356.000
803.285; -208.200; -840.000; -903.000
803.540;  -97.400; -686.000; -699.000
803.795;  -93.500; -648.000; -583.000
804.051;  -49.700; -279.000; -346.000
804.306;  108.600;  168.000;  128.000
804.561;  252.600;  451.000;  362.000
804.816;  316.400;  714.000;  861.000
805.071;   40.400; -185.000; -280.000
805.325;  221.300; -257.000; -427.000
805.580; -180.100; -841.000; -877.000
805.835;    1.200; -204.000; -297.000
806.090; -112.600; -760.000; -676.000
806.345;  -53.000; -344.000; -264.000
806.600;  -36.900; -549.000; -632.000
806.854;  -13.000; -408.000; -538.000
807.109;  -27.300; -493.000; -577.000
807.364;   24.700; -407.000; -328.000
807.618;   17.300; -415.000; -381.000
807.873;   56.400; -470.000; -494.000
808.128;  152.300; -257.000; -518.000
808.382;  158.600; -224.000; -332.000
808.637;  139.100; -440.000; -511.000
808.891;  269.500; -257.000; -180.000
809.146;   83.200; -902.000; -794.000
809.400;  317.700; -848.000; -923.000
809.654;  438.800; -779.000; -551.000
809.909;  703.600; -841.000; -927.000
810.163;10600.800; -813.000; -651.000
810.418;21062.100; -940.000; -861.000
810.672; 1345.300; -685.000; -690.000
810.926; 1065.500; -993.000; -973.000
811.180; 2415.600; -439.000; -372.000
811.434;52015.800;  240.000;  135.000
811.689;15993.400; -231.000; -365.000
811.943;  839.100; -936.000; -953.000
812.197;  528.400; -893.000; -671.000
812.451;  198.200; -379.000; -514.000
812.705;  -64.600; -809.000; -619.000
812.959;  -99.400; -263.000; -388.000
813.213;   42.600; -283.000; -209.000
813.467;  174.300;  470.000;  253.000
813.721; -154.700; -764.000; -792.000
813.975; -160.300; -826.000; -877.000
814.229;  145.400;  430.000;  353.000
814.482;  -97.600; -517.000; -566.000
814.736; -193.900; -766.000; -744.000
814.990; -187.800; -779.000; -872.000
815.244;  -56.000; -228.000; -285.000
815.497; -128.400; -636.000; -601.000
815.751;   30.600; -141.000;   82.000
816.005; -150.300; -470.000; -586.000
816.258;  -89.200; -510.000; -363.000
816.512; -176.500; -693.000; -610.000
816.766;   32.800;  121.000;  157.000
817.019;   71.100;  148.000;  149.000
817.273; -211.800;-1000.000; -802.000
817.526;   13.500; -206.000; -173.000
817.779; -156.300;-1049.000; -960.000
818.033; -156.400; -693.000; -807.000
818.286; -197.400; -725.000; -792.000
818.540; -146.800; -403.000; -403.000
818.793; -107.900; -402.000; -489.000
819.046; -191.900; -582.000; -520.000
819.299;  -34.800; -157.000; -166.000
819.553; -188.300; -552.000; -592.000
819.806; -270.200;-1016.000; -838.000
820.059;  -86.300; -334.000; -354.000
820.312;   91.700;  152.000;  185.000
820.565;   19.000;  110.000;  -27.000
820.818;  -46.300;  -59.000; -173.000
821.071; -267.900;-1041.000; -957.000
821.324; -165.900; -536.000; -540.000
821.577; -145.300; -457.000; -483.000
821.830;  -73.100; -270.000; -172.000
822.083; -199.500; -733.000; -288.000
822.336;  -24.200; -261.000; -167.000
822.589; -224.100; -805.000; -688.000
822.842; -255.200; -875.000; -770.000
823.094; -343.900;-1076.000;-1114.000
823.347; -218.100; -925.000; -729.000
823.600;   85.200;  402.000;  187.000
823.853;  -65.200; -311.000; -267.000
824.105; -114.500; -331.000; -575.000
824.358; -202.800; -617.000; -716.000
824.611;  107.100;  234.000;   40.000
824.863; -106.100; -612.000; -591.000
825.116;   97.400;  -33.000;   27.000
825.368;  101.400; -366.000; -372.000
825.621;  204.700; -186.000; -240.000
825.873;  104.300; -704.000; -737.000
826.126; 1022.600; -669.000; -641.000
826.378;17427.500; -389.000; -505.000
826.630; 3097.000; -890.000; -898.000
826.883;   27.800; -754.000; -693.000
827.135;   60.400; -279.000; -270.000
827.387; -191.300; -893.000; -839.000
827.639;   -3.400;  -86.000;   32.000
827.892; -212.600; -742.000; -582.000
828.144; -246.400; -848.000; -804.000
828.396;    7.000;  104.000;  -80.000
828.648; -135.100; -440.000; -333.000
828.900; -241.100; -702.000; -795.000
829.152; -178.800; -684.000; -683.000
829.404;  -76.200; -215.000; -267.000
829.656;  -43.800;  321.000;  214.000
829.908;   34.900;  393.000;  229.000
830.160; -292.300;-1064.000;-1047.000
830.412; -141.100; -481.000; -430.000
830.664; -210.600; -557.000; -665.000
830.916;  -71.000; -268.000; -206.000
831.167; -303.400;-1073.000; -951.000
831.419; -161.600; -623.000; -566.000
831.671; -253.600; -764.000; -809.000
831.923;  -89.300; -311.000; -447.000
832.174; -103.700; -273.000; -331.000
832.426; -143.100; -493.000; -582.000
832.678; -311.300;-1043.000;-1091.000
832.929; -271.800; -947.000; -935.000
833.181; -140.600; -575.000; -677.000
833.432;  -43.300;  -59.000; -186.000
833.684;   20.300;  112.000;  -27.000
833.935; -158.500; -610.000; -566.000
834.187; -189.500; -829.000; -823.000
834.438;  -33.200;  -58.000;  -25.000
834.689;  -37.400; -255.000; -123.000
834.941;  -62.200; -343.000; -244.000
835.192; -179.100; -590.000; -533.000
835.443; -124.000; -419.000; -506.000
835.695;    9.900;  138.000;  -16.000
835.946; -142.000; -608.000; -378.000
836.197; -170.500; -599.000; -622.000
836.448; -147.000; -528.000; -395.000
836.699;  -83.900; -253.000; -341.000
836.950;   21.500;   72.000;    7.000
837.201; -259.600;-1003.000; -987.000
837.452;  -78.800; -356.000; -170.000
837.703; -218.900; -791.000; -737.000
837.954;  -41.000; -205.000; -365.000
838.205; -168.600;-1029.000;-1008.000
838.456;  163.200; -196.000; -282.000
838.707;   11.500; -423.000; -519.000
838.958;   -7.500; -634.000; -647.000
839.209;  428.900;   18.000;   40.000
839.460;  163.000; -439.000; -201.000
839.710;  244.200; -135.000; -297.000
839.961;  713.600;  730.000;  612.000
840.212;  494.100; -382.000; -497.000
840.462; 1890.600; -328.000; -277.000
840.713;28343.700; -571.000; -536.000
840.964; 8390.700;  -62.000; -143.000
841.214;  643.100; -384.000; -624.000
841.465;  759.400; -214.000; -141.000
841.715;  651.500; -417.000; -380.000
841.966;  862.000; -746.000; -685.000
842.216;14364.300; -330.000; -431.000
842.466;42486.700; -169.000; -313.000
842.717; 1614.400; -964.000; -952.000
842.967;  388.600; -635.000; -641.000
843.217;  376.400;   20.000;   28.000
843.468;  113.500; -104.000; -132.000
843.718; -108.600; -718.000; -726.000
843.968; -158.200; -837.000; -765.000
844.218;   28.100; -315.000; -262.000
844.469;  -87.000; -577.000; -561.000
844.719; -198.100; -537.000; -682.000
844.969; -137.200; -550.000; -580.000
845.219; -242.900; -814.000; -862.000
845.469;  -90.600; -392.000; -342.000
845.719; -245.100; -792.000; -884.000
845.969;   27.500;  119.000;  174.000
846.219; -185.900; -738.000; -720.000
846.469;  122.300;  464.000;  432.000
846.718;  -38.500; -115.000;   31.000
846.968; -233.200; -827.000; -827.000
847.218;  -61.800; -224.000; -371.000
847.468; -160.800; -586.000; -555.000
847.718; -257.900; -827.000; -798.000
847.967; -231.300; -826.000; -915.000
848.217; -119.600; -449.000; -569.000
848.467;  -93.400; -405.000; -376.000
848.716; -206.700; -708.000; -725.000
848.966;  -27.600; -372.000; -358.000
849.215; -123.800; -428.000; -419.000
849.465; -156.500; -785.000; -615.000
849.714; -279.800;-1132.000;-1150.000
849.964;  -79.100; -551.000; -613.000
850.213;  -19.300; -393.000; -355.000
850.463;  168.600;  137.000;  340.000
850.712;   13.500; -542.000; -567.000
850.961;   20.800; -739.000; -678.000
851.211;  137.100; -513.000; -504.000
851.460;  225.900; -635.000; -650.000
851.709;  887.300;  -25.000;   18.000
851.958;17564.700; -912.000; -750.000
852.208;16070.600; -859.000; -879.000
852.457;  635.400; -181.000;  -13.000
852.706;   60.900; -791.000; -823.000
852.955;   10.600; -507.000; -528.000
853.204; -102.700; -521.000; -461.000
853.453; -131.000; -418.000; -458.000
853.702; -212.800; -660.000; -750.000
853.951; -169.800; -532.000; -520.000
854.200; -178.200; -613.000; -562.000
854.449; -205.100; -695.000; -661.000
854.698; -131.000; -340.000; -279.000
854.946;  -70.500; -181.000; -284.000
855.195; -255.800; -843.000; -868.000
855.444; -130.000; -395.000; -420.000
855.693; -199.200; -345.000; -432.000
855.941; -148.900; -387.000; -516.000
856.190;  -54.200; -256.000; -382.000
856.439; -189.800; -652.000; -703.000
856.687;  -63.100;  -99.000;  -72.000
856.936; -200.300; -621.000; -323.000
857.184; -310.300;-1067.000;-1020.000
857.433; -132.700; -423.000; -512.000
857.681; -294.700; -989.000; -953.000
857.930;  -91.000; -282.000; -433.000
858.178; -295.000; -856.000; -929.000
858.427; -241.300; -802.000; -781.000
858.675; -205.900; -377.000; -544.000
858.923; -159.200; -527.000; -819.000
859.172; -316.000;-1094.000;-1070.000
859.420; -142.000; -339.000; -239.000
859.668; -206.400; -624.000; -628.000
859.916;   22.800;  109.000;  115.000
860.164; -188.400; -699.000; -603.000
860.413;  323.800; -878.000; -696.000
860.661;  106.500; -709.000; -577.000
860.909; -113.100; -339.000; -325.000
861.157;  -98.100; -277.000; -444.000
861.405; -196.200; -534.000; -670.000
861.653;   71.800;  310.000;  310.000
861.901;  223.500; -543.000; -613.000
862.149; -104.200; -801.000; -824.000
862.396; -102.200; -297.000; -187.000
862.644; -128.300; -368.000; -347.000
862.892;   -9.700;   98.000;  138.000
863.140; -199.400; -549.000; -530.000
863.388; -249.000; -815.000; -759.000
863.635; -197.300; -642.000; -601.000
863.883;   72.300;  231.000;  190.000
864.131; -120.100; -288.000; -357.000
864.378; -229.300; -675.000; -540.000
864.626; -158.100; -347.000; -415.000
864.873; -170.200; -556.000; -505.000
865.121; -233.000; -714.000; -799.000
865.368;  -47.500; -173.000;   75.000
865.616;  -25.800;  -33.000;  -40.000
865.863;  -79.300; -462.000; -506.000
866.111; -198.500; -795.000; -824.000
866.358;  113.200; -426.000; -420.000
866.605; 4734.900;  -64.000; -804.000
866.853; 3538.800; -621.000; -537.000
867.100; -103.900; -728.000; -775.000
867.347; -171.700; -672.000; -611.000
867.594; -170.000; -740.000; -714.000
867.841;  155.500;   97.000;   17.000
868.089; -246.600; -746.000; -698.000
868.336; -167.000; -477.000; -420.000
868.583; -229.800; -637.000; -741.000
868.830;  -53.600; -131.000; -170.000
869.077; -302.800; -859.000; -787.000
869.324; -169.200; -502.000; -458.000
869.571; -203.500; -398.000; -430.000
869.818; -197.900; -485.000; -439.000
870.065; -168.800; -439.000; -513.000
870.311; -178.200; -456.000; -542.000
870.558; -135.100; -332.000; -311.000
870.805;  -91.300; -320.000; -384.000
871.052; -142.800; -494.000; -369.000
871.298;  -88.400; -204.000; -131.000
871.545;  -57.000; -151.000; -185.000
871.792;  -99.700; -173.000; -222.000
872.038;  -53.400;   43.000; -126.000
872.285; -164.200; -496.000; -387.000
872.532; -143.300; -357.000; -387.000
872.778;  108.300;  556.000;  403.000
873.025; -122.600; -384.000; -359.000
873.271;  108.500;  501.000;  578.000
873.517;   -9.700; -133.000; -209.000
873.764;   -5.100; -193.000;  -80.000
874.010;  -79.300; -143.000; -230.000
874.257;   -9.300;  123.000;   90.000
874.503; -214.600; -579.000; -479.000
874.749;  -62.500;   31.000;  275.000
874.995;  -58.700;  -80.000;  -20.000
875.242; -178.600; -540.000; -478.000
875.488; -129.400; -414.000; -439.000
875.734;  -38.800; -106.000; -234.000
875.980;  222.200; -872.000;-1032.000
876.226;  370.400; -157.000; -255.000
876.472;   33.200;  343.000;  237.000
876.718;    0.800;  184.000;  158.000
876.964;  -29.700;   56.000;   55.000
877.210; -235.800; -547.000; -677.000
877.456; -203.600; -630.000; -557.000
877.702; -280.500; -821.000; -832.000
877.948; -167.000; -377.000; -497.000
878.193;   76.400;  361.000;  255.000
878.439; -167.000; -487.000; -472.000
878.685; -136.700; -272.000; -343.000
878.931; -223.000; -618.000; -676.000
879.176; -110.200; -201.000; -201.000
879.422; -299.800; -933.000; -820.000
879.668;  101.100;   10.000;   79.000
879.913;  169.300;   53.000;  137.000
880.159;  -56.900; -112.000;  -17.000
880.404;  -59.200; -152.000; -162.000
880.650;  -12.900;   91.000;  141.000
880.895; -243.100; -670.000; -710.000
881.141; -186.800; -454.000; -428.000
881.386; -249.800; -503.000; -658.000
881.631; -135.500; -311.000; -166.000
881.877;   25.400;  112.000;  -13.000
882.122; -195.900; -684.000; -600.000
882.367; -145.500; -136.000; -186.000
882.612;  -62.300;  -80.000; -176.000
882.858; -293.600; -877.000; -823.000
883.103; -125.700; -297.000; -267.000
883.348; -244.000; -759.000; -852.000
883.593; -223.100; -677.000; -602.000
883.838;  -58.500; -311.000;  -24.000
884.083;   61.600;  353.000;  288.000
884.328; -116.200; -564.000; -545.000
884.573;  -23.500; -196.000; -143.000
884.818;  214.700; -694.000; -531.000
885.063;  182.400; -348.000; -315.000
885.308; -156.700; -475.000; -398.000
885.553;   70.200;  245.000;  325.000
885.797; -177.900; -545.000; -615.000
886.042;  -31.900;    8.000;   58.000
886.287; -102.600; -253.000; -211.000
886.532;  -37.700;   26.000;  204.000
886.776; -109.100; -407.000; -525.000
887.021; -217.700; -621.000; -574.000
887.265; -246.400; -685.000; -689.000
887.510; -216.800; -557.000; -496.000
887.755; -113.400; -194.000; -164.000
887.999; -229.000; -552.000; -575.000
888.244;  -23.300;  -58.000;  161.000
888.488;   81.500;  371.000;  393.000
888.732; -177.300; -368.000; -520.000
888.977; -201.800; -622.000; -567.000
889.221; -265.200; -683.000; -659.000
889.465; -168.300; -422.000; -566.000
889.710; -122.100;  -56.000; -299.000
889.954;   66.900;  579.000;  467.000
890.198; -234.700; -584.000; -707.000
890.442; -259.700; -716.000; -712.000
890.687; -298.600; -800.000; -753.000
890.931; -126.800; -273.000; -210.000
891.175; -218.900; -502.000; -500.000
891.419;  -82.700; -105.000; -110.000
891.663;  -94.000; -239.000; -112.000
891.907; -259.100; -801.000; -545.000
892.151; -300.600; -920.000; -815.000
892.395; -169.400; -274.000; -387.000
892.638;   17.500;  408.000;  291.000
892.882; -288.400; -780.000; -867.000
893.126;   93.700;  758.000;  558.000
893.370; -130.300; -167.000; -168.000
893.614; -218.500; -714.000; -715.000
893.857; -124.000; -183.000; -197.000
894.101; -243.900; -527.000; -631.000
894.345;  -21.200;  300.000;  150.000
894.588;  115.700;  569.000;  380.000
894.832; -105.700; -178.000;  -84.000
895.075; -112.700;   15.000;  -92.000
895.319; -190.000; -552.000; -420.000
895.563; -173.400; -413.000; -353.000
895.806; -234.300; -628.000; -741.000
896.049;  -90.900; -576.000; -368.000
896.293;  191.000;  527.000;  405.000
896.536; -155.200; -465.000; -468.000
896.779;  -82.800; -149.000;   -1.000
897.023; -236.200; -751.000; -714.000
897.266;  -25.500;  325.000;  269.000
897.509; -298.500; -900.000; -901.000
897.752;   -5.300;  149.000;  171.000
897.996; -325.800; -972.000; -864.000
898.239;   11.500;  168.000;  102.000
898.482; -196.100; -431.000; -453.000
898.725;    6.300;  101.000;   53.000
898.968; -249.300; -609.000; -744.000
899.211; -149.800; -513.000; -361.000
899.454; -182.000; -633.000; -539.000
899.697;  -54.800;   90.000;  -43.000
899.940; -279.500; -761.000; -757.000
900.182; -149.300; -335.000; -405.000
900.425; -138.700; -150.000; -298.000
900.668;   33.400;  491.000;  350.000
900.911; -139.500; -292.000; -345.000
901.154;   -2.100;  141.000;   -3.000
901.396; -192.900; -407.000; -412.000
901.639; -217.500; -430.000; -496.000
901.882; -313.500; -790.000; -809.000
902.124;  -85.600;  -29.000; -143.000
902.367; -141.000; -315.000; -361.000
902.609; -198.200; -476.000; -453.000
902.852; -125.500; -108.000; -260.000
903.094; -161.600; -458.000; -337.000
903.337;  -17.900;  -26.000;   53.000
903.579; -172.100; -228.000; -441.000
903.821; -259.800; -597.000; -744.000
904.064;  -84.600;   85.000;  127.000
904.306; -107.000; -126.000; -166.000
904.548; -139.600; -152.000; -366.000
904.790; -138.900; -195.000; -340.000
905.033; -216.200; -625.000; -577.000
905.275; -193.900; -513.000; -524.000
905.517;  140.600;  468.000;  256.000
905.759; -151.100; -667.000; -761.000
906.001; -141.000; -322.000; -369.000
906.243;  -86.000; -162.000; -224.000
906.485;  173.300; -265.000; -207.000
906.727;   44.500; -499.000; -542.000
906.969;  -13.100;  -30.000; -135.000
907.211;  171.800; -316.000; -382.000
907.453;  326.600; -188.000; -237.000
907.695;  -19.100; -158.000; -385.000
907.936;  174.800;  818.000;  706.000
908.178;  -35.100;   92.000; -135.000
908.420;  -73.500; -111.000; -162.000
908.662; -215.300; -633.000; -682.000
908.903; -134.700; -208.000; -123.000
909.145;  -48.000; -240.000; -305.000
909.386;   74.200;  315.000;  280.000
909.628;  121.500;  363.000;  397.000
909.870;   10.900;   29.000;  264.000
910.111; -206.500; -809.000; -949.000
910.353;   15.500; -123.000; -161.000
910.594;  -13.700; -574.000; -606.000
910.835;  164.600; -265.000; -326.000
911.077;  215.300; -503.000; -604.000
911.318;  445.800; -505.000; -471.000
911.559;  694.200; -577.000; -880.000
911.801; 2410.500; -284.000; -280.000
912.042;20833.900;  -50.000; -159.000
912.283;43478.200;  404.000;  371.000
912.524; 5112.100; -396.000; -457.000
912.765;  790.400; -193.000;   79.000
913.006;  384.200; -307.000; -338.000
913.247;   76.500; -270.000; -290.000
913.488;    6.500;  -43.000;   30.000
913.729; -113.500; -373.000; -373.000
913.970;  -81.700;  -96.000; -292.000
914.211;  -73.300; -160.000; -198.000
914.452;  -19.700; -118.000;  -11.000
914.693;   81.000;  510.000;  592.000
914.934;  112.800;  510.000;  440.000
915.175;  -79.600;   53.000;  -95.000
915.415;  -75.500; -137.000;   27.000
915.656;  -95.500;  -28.000;  192.000
915.897; -133.400; -252.000;  -82.000
916.137;  -66.800;   74.000;   -9.000
916.378; -206.000; -573.000; -517.000
916.619; -102.000; -159.000;  -63.000
916.859;   16.800;  303.000;  330.000
917.100;  372.900; 1655.000; 1070.000
917.340;  195.100;  930.000;  728.000
917.581;  179.100;  965.000;  789.000
917.821;   -1.200; -171.000;  143.000
918.061;    7.800; -199.000;  -72.000
918.302;  -91.200; -152.000; -211.000
918.542;  -37.100;  -22.000;    3.000
918.782;  106.500;  369.000;  377.000
919.023;  293.000;  360.000;  427.000
919.263; 2590.800; 8131.000;  202.000
919.503; 1482.300; -137.000;  -54.000
919.743;  879.200;  390.000;  266.000
919.983;  322.400; -134.000;  -26.000
920.223;  177.700;  135.000;   14.000
920.463;  319.800;  631.000;  554.000
920.703;  260.500;   84.000;   39.000
920.943;  279.000; -110.000;   90.000
921.183;  381.200; -414.000; -405.000
921.423;  914.600;  307.000;  546.000
921.663; 1202.700; -174.000; -257.000
921.903; 2834.500;  237.000;  173.000
922.143;16747.400;  372.000;  389.000
922.383;56747.000;  158.000;  115.000
922.622;14508.300; -120.000;  -15.000
922.862; 1866.600;  796.000;  785.000
923.102;  771.500;  -51.000;   33.000
923.341;  316.800;   59.000;   74.000
923.581;  187.300;  450.000;  360.000
923.821;   79.000;  301.000;  398.000
924.060;   85.900;  351.000;  193.000
924.300;  -80.300;  -16.000; -128.000
924.539;   36.300;  584.000;  473.000
924.779;   77.900;  812.000;  597.000
925.018;  -34.800;  247.000;  353.000
925.257;   66.100;  595.000;  666.000
925.497;    2.000;  447.000;  412.000
925.736;  -91.100;  -35.000;  102.000
925.975;   93.100;  687.000;  669.000
926.214;  168.200;  907.000;  850.000
926.454;  140.800;  706.000;  757.000
926.693;   -1.400;  419.000;  543.000
926.932;  117.500; 1021.000;  825.000
927.171;  241.400; 1107.000; 1044.000
927.410;  199.400; 1144.000;  967.000
927.649;  137.800;  924.000;  742.000
927.888;   61.000;  590.000;  564.000
928.127;   90.500;  680.000;  678.000
928.366;  139.300;  842.000;  826.000
928.605;  130.800;  831.000;  737.000
928.844;  498.100; 1451.000; 1393.000
929.083; 1035.400;  770.000;  613.000
929.321;  543.500; 1335.000; 1359.000
929.560;  249.500; 1158.000; 1122.000
929.799;   14.100;  574.000;  475.000
930.038;  224.500; 1025.000; 1394.000
930.276;  -43.300;  334.000;  397.000
930.515;  107.500;  827.000;  681.000
930.753;   32.700;  614.000;  589.000
930.992;   62.200;  664.000;  717.000
931.230;   92.600;  847.000;  847.000
931.469;  467.100; 2162.000;  892.000
931.707;  195.100;  840.000;  751.000
931.946;  200.200; 1278.000; 1344.000
932.184;  182.900; 1437.000; 1175.000
932.423;  155.700; 1265.000;  963.000
932.661;  204.800; 1296.000; 1428.000
932.899;  109.800;  987.000;  821.000
933.137;   86.800;  754.000;  564.000
933.376;  328.400; 1664.000; 1335.000
933.614;  344.300; 1759.000; 1196.000
933.852;  175.100; 1357.000; 1171.000
934.090;  358.800; 1722.000; 1747.000
934.328;  305.000; 1252.000; 1457.000
934.566;  283.500; 1431.000; 1110.000
934.804;  330.700; 1263.000; 1309.000
935.042; 1040.100; 1861.000; 1850.000
935.280; 4085.700; 2088.000; 2063.000
935.518; 3084.400; 2113.000; 2007.000
935.756;  728.500; 2481.000; 2316.000
935.994;  407.400; 1808.000; 1751.000
936.231;  789.600; 2890.000; 2950.000
936.469;  427.300; 2367.000; 2378.000
936.707;  403.100; 2220.000; 2167.000
936.945;  557.500; 2825.000; 2882.000
937.182;  498.900; 2679.000; 2741.000
937.420;  663.200; 3602.000; 3031.000
937.657;  881.900; 3365.000; 3478.000
937.895;  726.800; 3331.000; 3488.000
938.133;  713.000; 3540.000; 3528.000
938.370;  784.500; 3896.000; 4191.000
938.607;  887.100; 4488.000; 4205.000
938.845; 1228.700; 5587.000; 5549.000
939.082; 1050.800; 5387.000; 5177.000
939.320; 1136.000; 5799.000; 5728.000
939.557; 1388.200; 6549.000; 6491.000
939.794; 1575.000; 7285.000; 7097.000
940.031; 1952.600; 8421.000; 8368.000
940.269; 2278.900; 9552.000; 9107.000
940.506; 2343.100;10901.000;10507.000

