
Integration time [ms]: 200.000
Averaging Nr. [scans]: 10
Smoothing Nr. [pixels]: 0
Data measured with spectrometer [name]: 2101013U2
Wave   ;Sample   ;Dark     ;Reference
[nm]   ;[counts] ;[counts] ;[counts] 

394.013;   75.389; -450.257; -315.536
394.305;  345.987; -461.258; -419.536
394.596; 1471.272; -676.269; -527.514
394.887; 3579.591; -796.268; -654.518
395.178; 1453.425;  145.736;   11.476
395.470;  133.337; -210.263; -356.526
395.761;  367.407;  305.734;  394.479
396.052;  639.133; -545.284; -306.489
396.343;  581.510; -557.276; -454.503
396.634;  178.976; -200.279; -290.497
396.926;  154.988; -618.268; -565.517
397.217;  156.015;   11.725;  -17.504
397.508;   79.233; -366.273; -154.507
397.799;   16.976; -555.279; -571.497
398.090;  -98.331; -973.280; -902.495
398.381;  201.949;   11.708;  -11.473
398.672;  -59.650; -585.292; -742.473
398.963;   47.182; -348.279; -373.498
399.254;  166.260;   54.709; -209.475
399.545; -120.497;-1017.266; -883.520
399.836;   51.298; -407.277; -343.501
400.127;   63.123; -205.295; -209.468
400.418;   76.027; -423.274; -392.506
400.709;   74.255; -359.281; -333.493
401.000;   58.965; -268.291; -309.476
401.290;  225.452;  225.698;  115.545
401.581;  100.213; -166.286; -228.485
401.872;  -24.408; -542.298; -486.462
402.163;   42.014; -313.296; -252.467
402.454;  148.761; -123.291; -163.475
402.744;   27.905; -844.297; -813.465
403.035;  521.939; -226.293;  -86.471
403.326;  754.154; -366.292; -384.474
403.617;  515.085;  204.701;  165.539
403.907;  299.139; -593.283; -679.490
404.198; 3053.801; -545.307; -599.446
404.489; 8078.445; -618.283; -588.491
404.779; 2744.056; -618.302; -660.456
405.070;  321.032;  -67.304; -174.451
405.360;  443.742; -259.293; -238.472
405.651;  569.468;  125.699;   98.542
405.942;  291.408;  209.714;  127.516
406.232;  367.624; -432.285; -413.487
406.523;  743.534;  641.706;  758.530
406.813;   90.111; -579.286; -644.484
407.104;  539.248;  261.708;  144.527
407.394;  202.587; -604.299; -591.462
407.685;  225.023;  336.715;  222.513
407.975;   69.343; -400.283; -382.490
408.265;  164.377; -134.289; -190.478
408.556;   73.758; -472.291; -459.475
408.846;  285.635;  474.706;  429.530
409.137;  135.187;   -1.288; -216.480
409.427;   45.024; -193.285; -271.487
409.717;    0.837; -776.273; -692.508
410.007;  225.517;    4.715; -170.486
410.298;   73.726; -360.295; -342.469
410.588;   50.721; -495.285; -510.486
410.878;  -28.301; -792.287; -873.482
411.168;   51.694; -481.298; -478.463
411.459;  150.137; -295.283; -242.489
411.749;   36.856; -609.292; -507.474
412.039;   16.285; -755.289; -386.480
412.329;  290.590;   40.722;  132.501
412.619;  226.711;  -62.286; -148.485
412.909;  582.680;  639.711;  594.521
413.199;  434.070; -130.280; -251.495
413.490;  550.170;  521.710;  352.523
413.780;   85.074;-1013.279; -913.496
414.070;  430.912;  -46.276;  235.497
414.360;  447.386; -729.278; -666.498
414.650;  455.395; -726.288; -688.482
414.940;  656.573; -538.280; -441.496
415.230; 1193.691;   50.712;   74.519
415.520; 7604.071;  155.730;   66.486
415.809;30362.354; -305.281; -125.493
416.099;24380.001; -388.277; -229.501
416.389; 6674.325;  435.726;  236.494
416.679; 4014.541;   91.738;   85.473
416.969;  605.104; -527.287; -503.483
417.259;  801.976;  341.721;  171.503
417.549;  938.753;  522.718;  318.508
417.838; 2019.490; -205.268; -147.518
418.128; 7020.276;  650.710;  492.522
418.418; 5852.144; -491.272; -579.509
418.708; 3803.625;    9.726;  -48.506
418.997;14427.220; -474.275; -480.505
419.287;15327.832; -733.273; -790.507
419.577;14113.036; -160.283; -123.489
419.866;46823.498; -588.277; -498.501
420.156;49370.167; -242.270;  -55.513
420.446; 9194.733; -112.263;  -26.526
420.735; 1124.560; -376.271; -446.512
421.025; 1341.585; 1830.722;  315.502
421.314;  938.358; -203.271; -226.512
421.604; 1903.082;   89.732;  233.484
421.893; 1057.954; -705.271; -602.511
422.183;  244.333; -487.263; -461.526
422.472;  504.855;  -36.271; -107.511
422.762;  581.210; -416.266; -379.521
423.051;  256.612; -916.276; -916.503
423.341;  379.434; -491.273; -439.507
423.630;  547.217; -121.265;   15.477
423.919;  539.819;   58.725;   49.495
424.209;  504.539;  -31.263;   56.473
424.498;  631.487;   68.732;  161.483
424.787; 1265.394; -535.267; -601.518
425.077; 4130.715;   34.735;   29.478
425.366; 5951.745; -734.262; -744.528
425.655;12177.135;  639.727;  259.493
425.945;26416.789; -313.247; -268.554
426.234;15250.271;  117.741;  300.467
426.523; 6341.876;  -86.259; -350.534
426.812; 8719.605;  107.734;  159.480
427.101;12676.678; -127.269; -323.515
427.390;16412.371;  -55.270;  -86.514
427.680; 3760.898; -624.257; -411.538
427.969;  636.910; -330.255; -301.540
428.258;  397.289; -385.257; -477.536
428.547;  751.348;  449.728;  397.490
428.836; 1569.628; -421.253; -398.543
429.125; 2309.978; -199.259;  -72.534
429.414; 1076.854; -330.251; -294.548
429.703; 3759.054; -231.251; -213.548
429.992;11419.657; -938.250; -828.549
430.281; 7721.925; -397.264; -331.524
430.570;  801.843;  -21.252;   32.454
430.859;  824.876;  279.741;  352.466
431.148;  710.984;  636.752;  631.446
431.437;  426.842;  391.748;  367.454
431.725;  159.791; -544.257; -481.536
432.014;   43.636; -845.253; -756.545
432.303;  505.268; -149.239; -105.569
432.592;  747.032; -460.263; -178.525
432.881; 1190.286; -601.248; -437.554
433.169; 7369.611; -343.255;  -61.540
433.458;15308.706;  445.765;  540.424
433.747; 6499.752; -397.261; -289.529
434.036; 1071.542; -275.242; -280.564
434.324; 2482.371; -395.249; -379.551
434.613; 4495.134;   40.757;  159.437
434.902; 1606.158;  333.760;  439.433
435.190;  757.267;   75.761;  295.431
435.479;  461.814;  -52.245;   83.441
435.767;  133.023; -411.244; -427.561
436.056;  252.537; -340.242; -294.563
436.345;  442.160; -372.240; -223.568
436.633;  536.466;   60.750;  383.450
436.922;  403.763;  208.760;  414.432
437.210;  837.695; -194.236;    1.426
437.499; 2416.904; -583.235; -432.576
437.787; 2766.994; -339.236;  -10.574
438.075;  707.073;   56.761;  162.430
438.364;  949.676;  -44.238;  250.429
438.652;  545.193; -286.226; -138.592
438.941;  200.953;    3.770;  269.415
439.229;  -38.560; -665.252; -466.545
439.517;   47.913; -160.234;  -85.577
439.806;  -43.690; -501.225; -290.595
440.094;  296.222;  377.766;  650.421
440.382;  161.426; -653.233; -302.580
440.670;  264.204; -361.235; -285.576
440.959;   10.930; -347.223; -170.599
441.247;   78.865; -151.229; -109.587
441.535;  132.811; -266.235;   31.423
441.823;   -3.081; -497.234; -305.578
442.111;  281.370;  173.771;  327.412
442.400;  616.813; -628.245; -335.559
442.688; 1775.321; -111.234; -620.579
442.976; 1227.527; -786.213; -450.617
443.264;  120.718; -324.224; -364.597
443.552;  127.594; -258.226;   51.408
443.840;  323.910;  602.765;  876.423
444.128;  160.425;  265.767;  269.420
444.416;  -59.727; -694.228; -312.588
444.704;    4.563; -465.219;  -92.605
444.992;  133.797;   -0.226;  240.407
445.280;   22.053; -517.230;  -94.585
445.568;  -19.469; -694.212; -396.618
445.856;  466.345; -174.221;  357.398
446.143; 1012.258;  -54.220;   -7.604
446.431;  835.477;  -25.228;  625.411
446.719;  425.684;  489.783;  675.391
447.007;  276.847;  481.769;  705.416
447.295;  303.126;  597.777;  871.402
447.583;   38.863; -464.229;  -34.587
447.870;  195.741; -434.221; -202.601
448.158;  530.952; -104.230;  129.415
448.446;  351.460; -800.219; -338.604
448.733;  190.219;   13.776;  269.403
449.021;  338.831;   60.788;  341.382
449.309;  211.847; -296.210;  208.379
449.596;  324.080;  128.783;   59.392
449.884;   96.134; -571.222; -325.600
450.172;  111.883; -756.227; -406.590
450.459;  615.409;  645.786;  780.387
450.747; 2684.278; -411.218; -147.608
451.034; 8955.178;  493.772;  889.411
451.322; 7456.912; -413.214; -170.614
451.609;  698.721;  292.777;  508.403
451.897;  643.817; -550.203; -183.634
452.184; 2051.027; -622.223; -400.598
452.472; 2140.771;   97.792;  269.375
452.759;  518.060;  512.781;  864.395
453.047;  114.728; -407.212; -125.617
453.334;   43.869; -732.219; -216.606
453.621;  104.415; -438.214; -161.615
453.909;  205.608;   13.796;  384.368
454.196;  130.359; -299.199; -123.641
454.483;  289.432;  317.798;  540.364
454.771;  196.575; -215.208;  196.374
455.058;   51.378; -316.207;  102.374
455.345;  172.520;   71.807;  344.347
455.632;   98.582; -128.207;  235.373
455.919;  116.184;  -82.196;  182.354
456.207; -167.836; -774.198; -450.642
456.494;  -23.655; -475.200;  -66.639
456.781;  -52.173; -399.202; -198.635
457.068;   90.189; -253.206;  -29.628
457.355;  -32.010; -698.206; -401.629
457.642;  -39.804; -552.205; -290.630
457.929;  -61.690; -778.194; -417.651
458.216;   42.828; -575.212; -354.617
458.503;  274.416; -173.193;  -19.652
458.790;  196.572; -864.208; -630.625
459.077;  330.532;  -77.202;  110.364
459.364;  905.402; -350.195; -210.649
459.651; 2005.287;  -46.206;  220.372
459.938;  843.161; -864.209; -665.623
460.225;  205.736;  132.799;  276.363
460.512; -152.719; -836.197; -688.645
460.799;  156.277;  -32.218;  320.392
461.086;   79.950; -370.200; -251.640
461.372;  -20.536; -509.198; -279.642
461.659;  176.585; -165.196;  108.354
461.946;   56.014; -445.193;  -54.651
462.233;  423.648;  842.800;  888.361
462.519;  339.644; -814.201; -464.639
462.806; 1118.081; -768.197; -497.645
463.093; 1021.937; -445.191;  -66.656
463.380;  -89.417; -920.186; -824.664
463.666;   62.683; -259.197;  -18.646
463.953;  102.797; -406.195; -243.648
464.239;  243.797; -173.195;  -77.648
464.526;  561.109;  413.806;  743.350
464.813;  367.950; -565.190; -304.658
465.099;  525.015;  606.807;  607.348
465.386;  504.819;  903.807;  921.348
465.672;   -5.618; -694.197; -522.645
465.959;  -19.630; -598.188; -520.662
466.245;  -11.080; -468.193; -359.652
466.532;  107.794; -109.195;   63.352
466.818;   66.982; -357.186; -216.664
467.104;  -70.273; -488.182; -415.672
467.391;  -67.748; -628.189; -459.658
467.677;   39.487; -289.186;    9.335
467.964;  -36.841; -682.189; -471.660
468.250;   63.089; -331.186; -160.665
468.536;  156.853;   90.811;  180.341
468.822; -138.797; -821.184; -574.668
469.109;  260.317;  351.827;  471.311
469.395;  319.630;  729.808;  787.346
469.681;  258.457;   46.811;  156.341
469.967; 1396.662; -699.188; -382.660
470.254; 3111.171; -494.188; -306.662
470.540; 2033.884; -601.196; -476.646
470.826;  259.140; -488.181; -397.675
471.112;  408.207;  288.816;  113.331
471.398;  134.112; -253.183;  -58.670
471.684;    3.471; -626.177; -447.680
471.970;  -82.556; -918.180; -981.675
472.256;  -16.071; -521.192; -441.654
472.542;  -12.871; -499.171; -434.691
472.828;  -52.677; -743.182; -607.672
473.114;   22.077; -380.166; -283.700
473.400;  -27.511; -504.175; -293.684
473.686;   -5.116; -452.166; -400.701
473.972;   82.506; -230.174; -131.687
474.258; -145.683; -925.173; -843.689
474.544;  264.962; -183.178;   -2.679
474.830;  379.391;  -65.175;   45.316
475.116;  549.452; -123.190; -196.658
475.401;  743.846; -558.180; -467.676
475.687;  164.945; -725.180; -718.676
475.973;  -56.368; -673.181; -770.673
476.259;  411.094;  736.825;  764.315
476.544;  407.280; -539.176; -437.682
476.830;  940.925; -398.172; -322.690
477.116;  873.778; -430.177; -336.682
477.401;  230.346;  346.820;  358.324
477.687;  -21.111; -289.175; -405.684
477.973;   73.835;   21.819;   28.326
478.258;  -46.693; -448.163; -348.706
478.544;   70.395;   21.815;   61.334
478.829; -122.165; -818.171; -738.692
479.115; -134.276; -749.172; -651.690
479.401;  -24.299; -444.174; -449.686
479.686;   83.544; -253.180;  -74.676
479.972; -115.433; -886.178; -776.680
480.257;   49.979; -258.166;  -65.700
480.542;  -36.160; -614.170; -469.693
480.828;  433.988; 1288.824; 1392.317
481.113;  -61.715; -464.176; -426.683
481.399;  -28.966; -236.161; -202.711
481.684;  -95.422; -620.166; -462.700
481.969;   73.349; -158.159;  -73.713
482.255;  -38.049; -439.169; -285.695
482.540;  -12.232; -569.178; -441.680
482.825;  -33.423; -395.187; -404.663
483.110;  134.255;  -85.169; -105.696
483.396;  162.673; -840.157; -652.718
483.681;  670.906;  543.826;  730.313
483.966;  164.542; -696.160; -700.712
484.251;    3.305; -404.174; -310.687
484.536;    9.290; -356.165; -378.703
484.822;   -5.392; -205.173; -218.687
485.107;  -27.085; -599.152; -502.726
485.392;  221.597;  662.836;  541.296
485.677;  163.866;  354.832;  163.302
485.962;  167.970;  160.843;  270.283
486.247;  142.016;  -14.162;   -8.707
486.532;   14.280; -178.166; -325.701
486.817;  293.927;  381.839;  431.291
487.102;   81.996; -453.154; -514.722
487.387;  769.975; -637.156; -652.718
487.672; 1406.402; -154.164;  -38.705
487.957;  850.635; -394.160; -286.711
488.241;  231.934; -290.150; -314.729
488.526;  837.016; -280.152; -148.726
488.811; 1245.670; -881.177; -818.680
489.096; 1004.499; -666.154; -702.723
489.381;  595.512;    3.847;  162.275
489.666;  434.033; -428.161; -510.710
489.950;  304.202;  558.846;  627.277
490.235; -103.372; -480.151; -458.728
490.520;  -96.868; -756.161; -723.710
490.804; -161.323; -827.156; -736.719
491.089;  -48.149; -469.149; -299.732
491.374;   68.301; -132.164;  -75.704
491.658; -109.436; -817.147; -717.735
491.943;  149.221; -657.152; -609.727
492.227;  307.091; -178.155;  -38.721
492.512;   36.769; -294.157; -341.717
492.797; -149.956; -713.149; -716.731
493.081; -128.133; -588.147; -598.735
493.366; -101.566; -751.161; -635.711
493.650;  355.926;  831.859;  917.254
493.935;  -28.237; -648.147; -447.734
494.219;  -89.788; -778.142; -687.743
494.503; -110.461; -585.150; -487.730
494.788;   86.460;   46.842;   74.285
495.072;  198.835;  184.850;  434.271
495.356;  197.255; -463.148; -343.733
495.641;  462.374; -812.146; -736.736
495.925;  436.182; -976.156; -903.719
496.209;  -12.450; -599.149; -451.732
496.494; -116.388; -763.142; -544.744
496.778;   -5.304; -364.154; -360.722
497.062; -149.918; -819.156; -627.719
497.346;  -95.263; -869.160; -640.711
497.631;  271.458;  580.852;  560.266
497.915;  122.886;  -64.145;  175.261
498.199;   51.773; -341.157; -277.718
498.483;   -1.085; -562.152; -508.725
498.767;  277.336;  301.850;  300.271
499.051;  232.048; -126.149; -100.732
499.335;   -8.254; -693.149; -739.731
499.619;  -72.262; -381.129; -423.767
499.903;   13.390; -272.155;  -65.721
500.187;  -16.696; -588.153; -316.724
500.471;  -27.180; -796.152; -595.727
500.755;  132.033;   62.839;  -96.710
501.039;   21.590; -270.155; -357.721
501.323;   88.028;  -21.141;  264.254
501.607;   17.808; -447.163; -503.706
501.891;  -79.026; -607.156; -512.718
502.174;  -70.102; -726.144; -585.741
502.458;  118.925;   89.849;  370.273
502.742;   46.354; -180.138; -191.751
503.026;   98.562; -412.147; -254.734
503.310;  143.747; -437.159; -375.713
503.593;   86.364; -464.147; -325.735
503.877;  146.499; -232.133; -156.760
504.161;  226.707;    2.847;  -50.724
504.444;   54.763; -841.158; -710.716
504.728;  455.400; -487.164; -522.704
505.012;  837.933; -257.150;  -76.729
505.295;  613.934; -417.161; -212.711
505.579;  628.382; -256.156; -496.719
505.862;  863.682; -555.145; -333.738
506.146;  788.350; -681.159; -758.714
506.429;  568.751;  568.841;  461.286
506.713;   38.130; -732.151; -667.728
506.996;  388.495;   90.846;  295.278
507.280;  323.995; -633.165; -474.703
507.563;  226.488; -469.155; -261.721
507.847;   56.605; -423.153; -112.724
508.130;   52.535; -665.161; -456.711
508.413;   69.974; -758.167; -577.700
508.697;  304.874; -151.167;   12.300
508.980;  124.806; -422.153; -312.724
509.263;  -51.116; -466.155; -450.720
509.547;   50.332; -124.150;   82.271
509.830;   98.037; -172.160;  140.289
510.113;  132.781;  128.844;  298.281
510.396;  -12.287; -530.152; -300.725
510.680;  105.383; -818.145; -812.738
510.963;  807.601;  184.846;  180.277
511.246;  651.641; -493.150; -357.730
511.529;  340.289; -482.145;  -83.739
511.812;  436.695; -250.134;   10.241
512.095;  215.126; -740.151; -396.728
512.378;   74.669; -317.147; -245.736
512.661;  -39.837; -703.137; -623.753
512.944;  -41.586; -750.142; -637.744
513.227;  112.460; -170.137; -171.752
513.510;  -30.002; -479.144; -671.741
513.793;  -23.667; -485.140; -435.747
514.076;  138.761;  -43.127;  -39.771
514.359;   92.751; -294.149; -135.732
514.642;   36.117; -442.142; -567.744
514.925;  945.131;  581.860;  561.253
515.208; 1073.391; -498.134; -443.758
515.491;  718.207; -276.133; -182.761
515.773;  355.002; -410.143; -337.742
516.056; 2419.070;  249.864;  409.246
516.339; 3106.074; -754.136; -652.755
516.622; 2216.838; -518.150; -488.730
516.904; 1695.910;  882.857;  975.257
517.187;  641.158; -730.138; -523.752
517.470;  426.809; -568.143; -510.743
517.752;  466.277; -624.136; -470.756
518.035;  320.444; -708.139; -725.749
518.318;  337.874; -799.136; -744.755
518.600; 2669.810; -300.132; -325.762
518.883; 3765.217;  310.858;   88.256
519.165; 1727.350; -585.138; -426.751
519.448;  474.910;  -61.132;  -19.762
519.730;  174.570; -573.126; -415.773
520.013;  494.702;  588.867;  664.240
520.295;  995.197;  -94.134;  -15.759
520.578; 2237.625; -335.131; -305.764
520.860; 2497.210; -254.132;   56.238
521.143; 1215.880; -763.135; -584.756
521.425;  523.584; -251.125; -279.775
521.707;  704.662; -622.127; -380.771
521.990; 2090.762; -199.127;  167.229
522.272; 2324.034; -116.140;   -4.748
522.554; 1089.003; -237.143; -157.742
522.836;  445.895;  -24.134;   99.241
523.119;  240.761; -496.148; -189.734
523.401;  168.532; -448.130; -314.766
523.683;   34.863; -865.137; -693.753
523.965;  373.256;  408.862;  260.248
524.247;  327.407;   54.878;  170.220
524.529;  174.197; -451.134; -367.759
524.812;  473.934;   -3.130;  191.234
525.094;  896.155; -773.138; -631.751
525.376; 1518.794; -143.124;   78.223
525.658;  912.071; -441.136; -339.754
525.940;  -24.179; -805.131; -671.764
526.222;    7.875; -188.136;  -88.755
526.504;  146.719; -190.131;   32.237
526.786;  124.300; -960.133; -647.760
527.068;  354.800; -124.123;  -67.778
527.349;   58.067; -865.137; -774.754
527.631;  160.710; -137.132;   22.238
527.913;   93.261; -664.127; -450.771
528.195;   91.876; -761.125; -639.774
528.477;  289.391;  -93.134;  -30.758
528.759;   80.334; -648.130; -522.766
529.040;    9.099; -569.123; -293.778
529.322;   33.079; -235.125;  -10.774
529.604;  156.837;  -47.130;   93.233
529.886;  128.869; -546.126; -302.773
530.167;  168.627;  232.870;  192.235
530.449;   90.268;    1.853;   63.265
530.731;  -37.193; -572.122; -459.779
531.012;   37.530; -513.120; -216.784
531.294;   98.473; -118.116;  -43.792
531.575;  237.984;  290.875;  538.225
531.857;   -5.814; -548.135; -266.757
532.138;  164.726; -113.141;   40.254
532.420;  254.382;  294.865;  403.244
532.701;  174.802; -722.133; -751.760
532.983;  460.706;  232.867;  182.239
533.264;  158.467; -243.126;  175.228
533.546; -108.025; -491.136; -508.755
533.827;   88.999;  173.867;   -1.759
534.109;   15.086; -352.135;  -80.757
534.390;   58.714; -725.132; -582.762
534.671;  281.281; -270.135;  -82.756
534.953;   70.202; -751.123; -611.779
535.234;  -38.644; -426.117; -255.789
535.515; -183.861; -891.119; -735.785
535.796;  -48.044; -431.128; -193.770
536.078; -237.306;-1050.124; -904.777
536.359;   27.303;  -22.123;    3.221
536.640;  -39.722; -480.125; -197.774
536.921;  197.343;  225.871;  143.232
537.202;  440.352;  -87.138;  -16.751
537.483;  587.924;  251.869;  377.236
537.764;  243.028;   17.870;   98.235
538.045;  -98.810; -543.134; -371.758
538.326;  -50.256; -596.129; -447.768
538.607;  -31.237; -686.127; -476.771
538.888;  231.520;   98.879;    5.218
539.169;  161.214; -704.122; -535.781
539.450;  444.241;  236.871;   16.233
539.731;  201.124; -361.121; -182.783
540.012;  174.430;  199.880;  412.216
540.293;   90.388;   82.876;  158.224
540.574;  -72.904; -895.113; -717.796
540.855;  551.022;  435.879;  377.218
541.136;  607.311;   47.878;  139.220
541.416;  299.735; -161.130; -220.766
541.697;  189.519; -274.131; -170.763
541.978; 1108.784; -270.135; -315.757
542.259; 1416.862; -211.127; -236.771
542.539;  707.166; -191.116; -186.790
542.820;  259.784;  461.875;  480.225
543.101;  123.985;  -52.145;  -77.738
543.381;  -35.538; -638.127; -591.771
543.662;  302.160;  159.873; -254.771
543.942;  549.357; -751.127; -830.770
544.223; 1229.712;  193.878;  161.219
544.504;  758.093; -275.124; -182.777
544.784;  551.769; -592.126; -408.773
545.065; 1785.570;  104.884; -254.791
545.345; 2210.739;  227.881;   14.215
545.626; 1428.695;  -14.113; -108.796
545.906;  996.027;   77.869;   98.235
546.186;  438.274;   92.874;  -95.773
546.467;  250.796;   99.877;  -95.778
546.747;  389.466;  264.884;  327.210
547.027;  457.492;   91.876;  111.223
547.308;  317.157; -376.127; -530.770
547.588;  475.645;  299.871;  371.232
547.868;  297.428;  458.870;  588.235
548.149;  280.779;  609.885;  593.207
548.429;  137.560; -347.127; -299.771
548.709;  104.429; -645.120; -461.784
548.989;  531.450;   84.882;   88.213
549.269; 2361.708;   10.868;  139.239
549.550; 5281.501;  215.877;  117.222
549.830; 4716.615; -758.111; -556.799
550.110;  911.623; -468.110; -320.801
550.390;  951.507; -128.122;  -56.779
550.670; 1190.290; -868.114; -783.795
550.950;  853.122; -509.121; -471.782
551.230;  316.118;  549.879;  460.218
551.510;  -74.479; -381.121; -326.782
551.790;   29.232; -173.109; -127.803
552.070;  472.696;  940.877; 1181.223
552.350;  415.543; -492.119; -377.786
552.630;  628.715;   -2.121;   77.219
552.909;  393.471;  181.884;   73.209
553.189;  247.216;  -49.132;   33.237
553.469;  130.543; -703.119; -514.786
553.749;  127.964; -469.127; -357.772
554.029;  208.561;   33.883;  -24.790
554.308;  147.483; -154.115;  -37.794
554.588;   64.755; -196.128; -204.770
554.868;   31.223; -366.121;  -47.782
555.147;  170.080; -114.115;  -46.793
555.427;  623.573; -260.116; -250.792
555.707; 4363.078; -284.115; -200.793
555.986; 4966.719; -719.111; -538.800
556.266; 2838.065;   23.884;   72.210
556.546;   34.121; -888.121; -675.782
556.825;  209.888; -657.114; -556.794
557.105; 1993.053; -125.128;   17.230
557.384; 2326.570;  122.884;  187.209
557.664;  764.873; -717.116; -508.792
557.943;   78.922; -557.121; -411.782
558.222;  191.753; -345.118; -344.788
558.502;  310.782; -116.115;  -76.793
558.781;  614.777;  194.885;  499.208
559.061;  393.253; -232.118; -227.788
559.340;  341.958;  302.883;  353.211
559.619;  855.164;   93.884;  148.210
559.899; 1094.760; -239.117; -266.789
560.178;  957.381; -778.115; -593.793
560.457; 3487.462; -623.117; -562.790
560.736; 4713.620; -472.111; -482.800
561.015; 3220.351; -500.128; -502.769
561.295;  449.254;  180.893;  215.193
561.574;  395.678;  119.885;  116.207
561.853;  629.237;  274.891;  303.197
562.132;  538.384;  -45.114;  182.206
562.411;  544.616;  396.879;  553.219
562.690;   98.076; -592.115; -458.792
562.969;  272.603;  472.888;  630.203
563.248;  908.213; 2966.878; 2487.219
563.527;  250.419; -290.111; -408.800
563.806;  336.260; -650.127; -521.771
564.085;  424.871; -297.105; -206.810
564.364;  189.564; -594.117; -405.790
564.643;  532.416; -276.121; -223.781
564.922; 2079.830;  221.890;  397.198
565.201; 1971.934; -640.109; -700.803
565.479;  878.575; -297.115; -219.792
565.758;  275.053; -810.128; -712.770
566.037;  460.535; -155.109; -100.803
566.316;  242.170; -286.116;  -28.791
566.595;   65.078;  -17.115;  -12.793
566.873;  196.222; -166.111;  -79.801
567.152; -115.698; -490.113; -590.797
567.431;   12.266; -113.116;    6.210
567.709;   -3.646; -344.107; -212.807
567.988;  192.088; -810.114; -769.794
568.266;  544.378; -160.115;  -68.793
568.545;  383.123; -644.100; -514.819
568.824;  688.874;  160.885;  356.208
569.102;  625.587; -351.114; -235.794
569.381;  184.773; -492.116; -407.792
569.659;  -93.702; -553.113; -553.796
569.938;  -38.289; -743.122; -465.780
570.216;   82.338; -225.109; -225.804
570.494; -115.809; -632.114; -572.795
570.773;   96.020;  202.879;  114.218
571.051;   -3.701; -373.123; -357.778
571.330;   65.296; -221.113; -174.796
571.608;   23.643; -181.098; -173.823
571.886; -160.187; -671.111; -581.799
572.164; -152.877; -739.121; -621.782
572.443; -113.125; -562.105; -512.811
572.721;  -77.338; -399.117; -289.790
572.999;  -76.345; -280.117; -168.788
573.277;  190.968;  379.894;  620.191
573.555;  335.870;   94.894;   37.190
573.834; 1423.655;  -86.117; -114.788
574.112; 1807.057;  880.893;  811.193
574.390;  513.321; -143.111;  -96.801
574.668;   -6.296;  -91.112;  -61.797
574.946;  -42.930; -165.106; -187.810
575.224;   22.834;   71.891;  -16.803
575.502;  -25.233; -200.116; -204.791
575.780; -194.195; -767.112; -829.798
576.058;  320.420; 1589.889; 1004.200
576.336;  -56.874; -210.110; -129.801
576.614; -125.895; -511.112; -340.798
576.891;  -20.317; -711.115; -823.794
577.169;  496.547; -158.108; -285.805
577.447;  729.156;  169.893;  202.193
577.725;  424.010;  629.888;  854.201
578.003;   11.008;  -71.112; -371.798
578.280;   85.385; -208.104; -242.812
578.558;   -4.718; -450.115; -422.793
578.836;  126.091; -210.114; -145.795
579.114;    7.503; -630.112; -670.797
579.391;   58.857;   -6.117;  -18.789
579.669; -169.316; -595.114; -704.794
579.947;  166.853; -326.107; -127.806
580.224;  275.753; -692.107; -524.806
580.502;  350.757;  127.893;   76.193
580.779;   62.963;  -42.117;   75.210
581.057; -163.961; -584.109; -470.804
581.334; -204.199; -726.102; -695.815
581.612;   93.771;   54.895;  511.190
581.889;  -34.284;  -83.101; -129.818
582.167;  -65.468; -298.099; -190.821
582.444; -194.590; -845.102; -814.817
582.721;  197.011;  657.899;  715.183
582.999;   38.629; -326.100; -167.821
583.276;  482.704; -812.123; -713.779
583.553;  682.905; -364.102; -294.816
583.831;  181.381; -607.104; -631.812
584.108;   99.745;  349.892;  174.195
584.385;  -29.499; -122.102;  -98.815
584.662; -165.278; -651.111; -828.801
584.940;   42.721;  204.889;  204.199
585.217;  -37.802;  -73.113; -303.796
585.494;   40.831;   71.890;  118.198
585.771;  209.239; -250.109; -354.804
586.048;  507.098; -196.113;  -76.796
586.325;  266.625; -721.110; -773.801
586.602;  135.085;  230.896;  213.188
586.879;  -73.475; -499.100; -580.820
587.156;    0.772; -156.105; -331.810
587.433; -122.092; -701.102; -667.817
587.710;   91.306;  152.888;  234.202
587.987;  325.278; -264.105; -236.811
588.264;  882.908;  315.888;  387.202
588.541; 1557.288;  -61.104;   26.187
588.818; 2931.142;   72.892;  171.196
589.095; 2471.183; -163.104; -174.812
589.371;  368.737; -459.109; -414.804
589.648;   -1.243; -581.107; -437.807
589.925;  -44.608; -517.114; -621.795
590.202;  -68.295; -741.112; -607.798
590.478;   90.080; -166.105;  -73.811
590.755;  313.649; -241.108; -132.806
591.032; 2685.427; -741.110; -699.802
591.308; 3527.987; -732.094; -790.831
591.585; 1893.527; -573.110; -560.802
591.862;   34.610;-1056.102; -950.817
592.138;   15.746; -475.108; -474.805
592.415;  142.286; -486.104; -495.813
592.691; 1705.284;  460.896;  518.188
592.968; 1966.845; -208.098; -123.824
593.244;  956.266; -695.116; -595.790
593.521;  108.510; -105.102;  -42.817
593.797; -134.392; -810.122; -720.780
594.074;  277.259; -611.096; -588.826
594.350;  870.071;  828.905;  729.172
594.626;  330.322; -303.111; -283.801
594.903;   32.411; -643.101; -645.817
595.179;  304.090;  243.896;  418.187
595.455;   -6.642; -136.107; -150.807
595.731;  -19.308;  -19.103;  -38.814
596.008;  -76.484; -464.111; -434.800
596.284;   24.528; -187.100; -242.820
596.560;  -10.106; -501.093; -493.833
596.836;  225.274; -173.105;  -70.810
597.112;  271.547; -582.108; -437.805
597.388;  343.157;  -49.097;  -48.826
597.665;  202.101;  437.887;  530.203
597.941; -137.073; -572.089; -658.839
598.217;  -34.869; -323.110; -293.802
598.493;  269.141;   61.891; -204.804
598.769;  502.621; -175.100;  -50.819
599.045;  277.650; -490.108; -562.806
599.321;  -16.773; -193.100; -261.820
599.597;  138.440; -355.109; -476.804
599.872;  576.888;  409.896;  429.187
600.148;  380.558;  -61.097; -172.826
600.424;  367.355;   91.893;  202.193
600.700;  253.258; -170.107; -280.807
600.976;   84.152; -442.097; -464.825
601.252;  245.337; -226.109; -272.803
601.527;  100.089; -833.104; -840.813
601.803;  108.981; -453.105; -404.812
602.079;  166.621; -124.100; -118.819
602.354;  543.905; -620.092; -531.835
602.630;  902.898; -140.113; -482.796
602.906; 2529.216; -910.101; -863.818
603.181; 6967.043; -627.119; -534.786
603.457; 6026.456;   98.903; -278.826
603.733;  848.425; -605.120; -626.783
604.008; 1101.871; -245.106; -164.810
604.284; 3146.212; -636.101; -580.817
604.559; 2948.810;   -3.112;  -42.799
604.835;  544.274; -163.105; -225.810
605.110;  360.833; -732.099; -892.821
605.385;  809.397;  224.907;  267.167
605.661;  591.474; -625.095; -729.829
605.936; 1145.450; -664.108; -737.806
606.211; 1142.400;  -17.103; -170.815
606.487;  222.286; -329.114; -376.794
606.762;  -79.457; -791.119; -745.786
607.037;  -57.526; -501.105; -433.810
607.313; -131.433; -589.096; -574.828
607.588;  -49.330; -375.106; -137.810
607.863;   30.216;  -28.101; -143.818
608.138;  281.429;  513.890;  516.198
608.413;  -25.963; -576.099; -592.822
608.688;   47.646; -203.108; -267.805
608.964;  168.464; -509.106; -218.809
609.239;  245.871; -107.105; -212.810
609.514;  354.280;  281.895;  240.188
609.789;  638.885; -187.104; -716.812
610.064;  875.266; -435.096; -609.827
610.339;  834.237; -855.109; -799.804
610.614; 1260.627; -131.100; -315.820
610.889;  728.280;  215.895;  107.188
611.163;    2.081; -407.104; -591.812
611.438;   48.187;   81.886; -167.794
611.713;  -53.188; -467.101; -499.817
611.988;   43.415; -144.101; -328.818
612.263; -104.799; -771.102; -717.815
612.538;  307.597;  385.887;  251.204
612.812;   93.529; -832.100; -911.820
613.087;   76.843; -358.098; -338.823
613.362; -111.042; -497.107; -557.807
613.637;   70.895;  261.897;  138.186
613.911;  -53.694; -256.092; -345.835
614.186;  137.056; -249.107; -292.807
614.460;  605.810; -842.081; -758.854
614.735;  798.953;  -55.087;  -17.843
615.010;  201.642;   43.912;  -82.841
615.284;  320.746;  360.892;  246.195
615.559;  287.805; -792.092; -955.835
615.833;  297.935;  -76.099;  -87.822
616.108;   -3.282; -225.090; -390.837
616.382;  234.255;  274.913;  402.156
616.656;  160.118; -241.090; -232.837
616.931;  468.635; -785.099; -700.822
617.205;  994.690; -973.104; -979.813
617.480; 1069.782;  -91.125;    6.225
617.754;  116.779; -396.125; -128.774
618.028;  -18.054; -369.129; -382.768
618.302;   92.544;   73.892;  -25.805
618.577; -142.603; -371.103; -518.815
618.851; -147.067; -399.109; -600.803
619.125;  -66.403; -335.134; -378.759
619.399;  -21.210; -244.104; -374.813
619.673;  -84.826; -330.115; -515.792
619.947;  -66.209; -333.114; -448.795
620.222;  -30.277; -198.110; -204.801
620.496;  -17.778;  -47.121;  -96.782
620.770;    6.713; -187.122;  -93.781
621.044;  282.272;  323.895;  346.190
621.318;  770.126; -653.120; -614.783
621.592;  683.623; -430.121; -409.783
621.866;  321.411; -476.112; -572.799
622.140;    6.967; -207.116; -356.791
622.413;  114.216;  138.889;  112.200
622.687; -101.788; -746.101; -492.817
622.961;   34.644; -130.108; -143.805
623.235; -131.783; -633.111; -661.800
623.509; -209.320; -816.105; -848.811
623.783;   53.454;  -12.107;   48.193
624.056;  -52.973; -254.120; -280.783
624.330;   99.004;   63.888;   -3.797
624.604;   50.164; -271.116; -355.790
624.877;   88.028;  180.890;   26.198
625.151;   46.485; -249.114; -238.794
625.425;  -65.708; -150.103; -283.814
625.698;  -86.963; -367.119; -374.785
625.972; -184.969; -799.110; -765.802
626.245;  165.166;  685.884;  484.210
626.519;  -80.969; -426.120; -340.784
626.792;  -44.542; -192.107; -380.807
627.066; -157.795; -485.122; -662.779
627.339; -175.874; -736.110; -663.802
627.613;  108.630;  351.880;  148.216
627.886;  110.433;  187.891; -612.803
628.160;    3.125;  312.880; -161.783
628.433; -201.615; -695.125; -703.775
628.706; -164.369; -517.120; -615.784
628.979;   88.892;  296.876;  117.223
629.253; -192.657; -785.119; -833.786
629.526;  342.967; -334.126; -253.772
629.799;  271.100; -641.123; -479.778
630.072;  101.148; -497.128; -516.769
630.346; -214.034;-1115.116;-1080.790
630.619;  473.059; -467.107; -545.808
630.892;  762.717;  709.889;  593.200
631.165;  476.390;  790.896;  679.187
631.438; -216.592;-1092.112;-1055.798
631.711;  117.203;  453.877;  257.221
631.984;  -99.139; -523.117; -624.789
632.257; -132.043; -636.117; -681.789
632.530; -101.663; -412.119; -433.785
632.803;   94.983; -109.115;    7.207
633.076;  -80.204; -360.123; -422.777
633.349;   24.652;  173.872;  121.231
633.622;  -73.564; -187.119; -240.785
633.895; -249.173; -903.120; -823.783
634.167; -111.830; -496.126; -525.773
634.440;  -14.627;  -19.116; -137.792
634.713;   25.841;  -22.119; -120.786
634.986;  187.441;  593.871;  453.233
635.258; -136.320; -507.115; -597.793
635.531;  219.952;  742.882; -343.788
635.804;  -43.241; -303.117; -318.789
636.077; -217.731; -830.116; -852.791
636.349;  -76.521; -586.115; -474.793
636.622;  697.667; 1695.874; 1392.228
636.894;  246.132; -474.120; -909.784
637.167;   37.760; -836.127; -789.771
637.439;   35.056; -278.128; -213.770
637.712;  -78.132; -312.126; -293.772
637.984; -160.431; -635.116; -707.791
638.257;  524.897;  515.877;  488.222
638.529;  493.586; -881.125; -924.776
638.802;  223.948; -508.128; -449.769
639.074; -242.788; -927.122; -952.781
639.346; -247.812; -942.135; -930.757
639.619;    7.215;  -79.142; -319.744
639.891;  -34.095;  -83.122; -168.779
640.163; -142.993; -689.122; -756.780
640.435;   71.809;  273.878;  103.220
640.708;   35.712;  -72.122; -132.780
640.980;  -73.386; -366.122; -362.781
641.252;  243.016;  -25.121;  -71.781
641.524; 1996.418;  580.879;  573.219
641.796; 1810.320;-1094.121; -907.782
642.068;  318.122; -191.121; -300.782
642.340; -121.976; -486.121; -566.783
642.613;   86.326;  294.880;  323.217
642.885; -173.772; -787.120; -878.783
643.157; -131.670; -810.120; -658.784
643.428;  119.132;  170.880;  218.216
643.700; -142.266; -498.120; -425.784
643.972;  -28.364;  -16.119; -133.785
644.244; -154.462; -474.119; -559.785
644.516;  -35.360; -250.119; -114.786
644.788;  188.042;  662.881;  548.214
645.060;   37.644;  -12.119; -124.786
645.332; -189.554; -525.118; -535.787
645.603;  122.148;  479.882;  342.213
645.875; -108.150; -334.118; -369.787
646.147;  361.452; 1487.882; 1242.212
646.418; -188.046; -931.117; -918.788
646.690;   80.556; -714.117; -715.789
646.962;    9.158; -413.117; -451.789
647.233;   20.560;   15.883;   11.211
647.505; -171.538; -595.117; -475.790
647.776;  108.064;  328.884;  229.210
648.048;  -28.534; -248.116; -418.790
648.320; -160.632; -752.116; -679.791
648.591; -293.830;-1055.116; -958.791
648.862; -129.928; -505.116; -577.792
649.134;   56.874;  115.885;  198.208
649.405; -134.424; -661.115; -618.792
649.677; -121.322; -475.115; -598.793
649.948;  -19.120; -181.115; -296.793
650.219;   17.383;  -37.115; -147.793
650.491; -101.115; -431.114; -520.794
650.762; -204.613; -705.114; -731.794
651.033; -121.911; -437.114; -424.795
651.304; -220.009; -743.114; -728.795
651.576; -151.707; -680.114; -645.795
651.847;  -43.205; -250.113; -140.796
652.118;  -16.003;  -32.113; -189.796
652.389; -183.801; -639.113; -722.796
652.660;  -10.899; -147.113;  -89.797
652.931; -245.897; -897.112; -871.797
653.202; -136.395; -382.112; -541.798
653.473; -159.293; -633.112; -533.798
653.744;   97.309; -595.112; -590.798
654.015;  138.111; -356.112; -303.799
654.286; -147.287; -642.111; -663.799
654.557; -135.085; -586.111; -521.799
654.828; -311.183;-1114.111;-1088.800
655.099; -154.881; -404.111; -291.800
655.370; -128.779; -427.111; -543.801
655.641; -212.577; -656.110; -714.801
655.911; -167.775; -618.110; -638.801
656.182;  137.627;  437.890;  387.198
656.453;  268.829;  830.890;  746.198
656.724; -110.669; -466.110; -426.802
656.994; -129.467; -553.109; -568.803
657.265; -198.265; -862.109; -873.803
657.536; -125.263; -500.109; -377.804
657.806; -181.461; -561.109; -593.804
658.077; -248.959; -866.109; -950.804
658.347; -159.257; -523.108; -598.805
658.618; -204.455; -646.108; -694.805
658.888;   -9.453;  -41.108;  112.195
659.159;  -99.351; -432.108; -548.806
659.429;  -63.549; -292.108; -349.806
659.700;  -11.347; -435.107; -390.807
659.970;  -39.244; -370.107; -359.807
660.241;  -42.942; -754.107; -921.807
660.511;  489.060; -147.107; -174.808
660.781;   26.162; -793.106; -748.808
661.052;  -61.336; -222.106; -381.808
661.322;   -2.234;   21.894;   -9.809
661.592;   77.668;  257.894;  148.191
661.862; -101.230; -369.106; -382.810
662.133; -179.528; -551.105; -502.810
662.403; -189.326; -770.105; -676.810
662.673;  -78.424; -256.105; -213.811
662.943; -177.622; -612.105; -551.811
663.213;    0.380;  -85.105;  -81.811
663.483; -125.318; -593.104; -568.812
663.753;  -80.316; -194.104; -152.812
664.023;   19.186;   68.896;  -32.813
664.293;  -72.712; -319.104; -126.813
664.563; -186.710; -694.104; -648.813
664.833; -197.808; -743.103; -608.814
665.103; -230.006; -730.103; -793.814
665.373; -216.204; -766.103; -806.814
665.643; -198.202; -863.103; -918.815
665.913;  -41.000; -534.103; -714.815
666.182;   62.302; -685.102; -719.816
666.452;  252.904;  -22.102;  -89.816
666.722;  -92.494; -724.102; -784.816
666.992; -274.692; -948.102; -921.817
667.261; -204.190; -824.102; -808.817
667.531;  296.612;  134.899;   45.183
667.801;  507.214; -440.101; -412.818
668.070;  397.616;  714.899;  697.182
668.340; -209.082; -883.101; -840.819
668.609;  171.920;  588.900;  301.181
668.879; -124.178; -490.100; -558.819
669.149; -125.776; -539.100; -516.820
669.418; -163.973; -698.100; -726.820
669.688;  -93.571; -482.100; -666.820
669.957;   13.131; -423.099; -546.821
670.226;  -40.667; -268.099; -331.821
670.496; -134.265; -431.099; -635.822
670.765; -112.663; -418.099; -501.822
671.034; -240.161; -872.099; -828.822
671.304;   34.641;   55.902; -111.823
671.573; -268.857;-1085.098; -957.823
671.842;   66.745; -380.098; -294.823
672.112;  -67.553; -692.098; -586.824
672.381;  -24.151; -239.098; -214.824
672.650; -256.149;-1005.097;-1021.825
672.919; -179.047; -631.097; -507.825
673.188; -147.145; -681.097; -878.825
673.457; -323.143;-1101.097;-1143.826
673.726; -133.741; -579.096; -646.826
673.995;  -96.639; -533.096; -479.826
674.265;  -27.137; -263.096; -333.827
674.534;  -17.335; -183.096; -235.827
674.802;  -64.633; -618.096; -703.828
675.071; 1070.269; -886.095; -801.828
675.340; 3943.071; -464.095; -339.828
675.609; 1405.973;  103.905;   82.171
675.878;  -11.725; -949.095; -893.829
676.147;   79.677;  -26.095;   -8.829
676.416;   89.479; -210.094; -294.830
676.685;  941.381; 1000.906; -622.830
676.953;   50.883; -603.094; -452.831
677.222;  -53.315; -193.094; -273.831
677.491;   -3.613;  -24.094; -127.831
677.759;    2.089;   11.907;  172.168
678.028;  -19.809; -279.093; -222.832
678.297;   22.693;   71.907;  197.168
678.565; -271.705; -898.093; -944.833
678.834;  -95.703; -311.093; -268.833
679.102; -119.800; -411.092; -391.834
679.371; -246.998; -898.092; -727.834
679.639; -225.496; -797.092; -786.834
679.908; -200.294; -794.092; -724.835
680.176; -304.992; -895.091; -941.835
680.445;  -90.590; -346.091; -352.835
680.713;    3.412;  -58.091;  -23.836
680.982; -146.586; -523.091; -525.836
681.250; -150.584; -578.091; -507.837
681.518; -176.582; -534.090; -751.837
681.787;  -19.580; -204.090; -167.837
682.055; -111.378; -490.090; -422.838
682.323; -251.676; -993.090; -992.838
682.591;   31.126; -216.090; -538.838
682.859;  131.428;    9.911;  -35.839
683.128;   48.830;  232.911;  497.161
683.396; -278.568;-1102.089;-1122.840
683.664;  -42.966; -241.089;   21.160
683.932;   52.136;  144.911;  -76.840
684.200; -164.262; -576.088; -320.841
684.468;   14.840;  -73.088; -124.841
684.736;  -48.858; -214.088; -175.841
685.004; -251.456;-1024.088; -982.842
685.272; -161.454; -880.088; -774.842
685.540; -113.752; -499.087; -557.843
685.808; -175.650; -651.087; -682.843
686.076; -202.748; -894.087; -969.843
686.343; -136.846; -601.087; -815.844
686.611;   61.756; -195.087; -224.844
686.879;  546.658; -530.086; -553.844
687.147; 3456.060; -483.086; -480.845
687.414;  974.462;  -12.086; -169.845
687.682;  -74.936; -658.086; -757.846
687.950;  353.266;  259.915;  263.154
688.217;  -96.432; -792.085; -760.846
688.485;  -41.029; -632.085; -636.847
688.753;  566.073;  -11.085; -102.847
689.020;   20.775; -820.085; -851.847
689.288; -198.023; -853.084; -787.848
689.555;  -46.321; -195.084; -148.848
689.823;  -48.619; -241.084; -345.849
690.090; -156.417; -546.084; -651.849
690.358; -270.315; -877.084; -897.849
690.625;   47.287;  120.917;   45.150
690.892; -121.311; -403.083; -369.850
691.160;  -10.009;   72.917;  -35.850
691.427;   75.593;  141.917;  130.149
691.694; -245.505; -855.083; -929.851
691.962; -286.203;-1177.082;-1060.852
692.229;   38.599;  127.918;   56.148
692.496;  112.101;  130.918;  -49.852
692.763;   23.903; -164.082; -201.853
693.031; -179.195; -739.082; -716.853
693.298; -105.993; -509.081; -368.853
693.565;  404.109; -155.081; -163.854
693.832; 1304.511;   -5.081;   -9.854
694.099;   79.013; -643.081; -642.855
694.366; -174.385; -882.081; -896.855
694.633; -150.683; -920.080; -633.855
694.900; 1492.719; 4367.920; -114.856
695.167;  440.121; -214.080; -380.856
695.434;   21.723; -646.080; -623.856
695.701;  280.925;  121.921;  -61.857
695.968;  489.927; -365.079; -361.857
696.234; 1232.529; -415.079; -646.858
696.501;11663.031; -776.079; -614.858
696.768; 5559.833; -554.079; -617.858
697.035;  267.835; -632.078; -667.859
697.302;   -2.963; -448.078; -552.859
697.568;  -22.061; -458.078; -497.859
697.835;  -93.459; -683.078; -624.860
698.102;  -64.256; -498.078; -407.860
698.368;  170.146;  384.923;  396.139
698.635;  -73.952;  -47.077; -424.861
698.901;  -45.650; -240.077; -348.861
699.168;   46.052; -534.077; -456.862
699.435;  100.354;  -72.077;  -13.862
699.701; -240.944; -868.076; -764.862
699.968;  -74.042;  144.924; -441.863
700.234; -193.540; -783.076; -822.863
700.500;  -77.438; -448.076; -539.864
700.767;  -17.136;   -1.075;   26.136
701.033; -263.334;-1015.075; -963.864
701.299;  -93.632; -450.075; -483.865
701.566;  270.970;  950.925;  763.135
701.832;   54.772;  -31.075;  -76.865
702.098; -214.426;-1054.074;-1034.866
702.365; -218.124;-1098.074;-1030.866
702.631; -144.322;-1038.074;-1063.867
702.897; 1471.080; -765.074; -676.867
703.163; 2345.182;  348.926;  254.133
703.429;  120.484; -256.073; -273.868
703.695;  -91.514; -796.073; -792.868
703.961;   36.688; -214.073; -210.868
704.227; -114.810; -630.073; -725.869
704.493;  279.892;  613.927;  510.131
704.759;  -64.206; -565.072; -540.870
705.025;   43.896; -203.072; -194.870
705.291;  -73.502; -666.072; -562.870
705.557;  354.300;  719.928;   34.129
705.823;  -45.498; -742.072; -694.871
706.089;  135.904; -307.071; -326.871
706.355;  465.306; -315.071; -244.872
706.620; 6515.708; -776.071; -729.872
706.886; 8224.610; -309.071; -362.873
707.152;  619.012; -818.070; -973.873
707.418; -144.686;-1153.070;-1186.873
707.683;  -69.283; -550.070; -530.874
707.949; -126.181; -547.070; -578.874
708.215;  -19.679; -129.070; -207.874
708.480;  -52.077; -520.069; -420.875
708.746;  108.925;   68.931;   28.125
709.011; -106.673; -578.069; -612.876
709.277; -168.171; -538.069; -543.876
709.542;  -64.769; -428.069; -387.876
709.808;   28.533;  -59.068;   89.123
710.073; -144.665; -577.068; -695.877
710.339;  -45.163; -242.068; -228.877
710.604;   10.339; -780.068; -845.878
710.869;  317.541; -277.068; -366.878
711.135; -108.757; -715.067; -628.879
711.400; -153.455; -507.067; -608.879
711.665; -100.953; -404.067; -479.879
711.931; -192.551; -661.067; -677.880
712.196; -237.149; -876.067; -954.880
712.461;   87.853; -402.066; -490.880
712.726;   65.155; -727.066; -771.881
712.991; -164.043; -647.066; -664.881
713.256;  -65.541; -350.066; -332.882
713.521;  -73.839; -417.065; -381.882
713.787; -105.737; -454.065; -472.882
714.052;  -54.135; -214.065; -400.883
714.317; -226.533;-1045.065; -981.883
714.581; 1136.369; -374.065; -268.883
714.846; 1293.871; -822.064; -888.884
715.111;  217.973;  261.936;  257.116
715.376;  -51.625;  -86.064; -223.885
715.641;  -47.123; -365.064; -367.885
715.906;  293.379;   15.936; -551.885
716.171;  182.481;  221.937;  209.114
716.436;  106.683;  -78.063; -104.886
716.700; -200.515; -818.063; -692.886
716.965; -208.512; -794.063; -807.887
717.230; -100.910; -339.063; -392.887
717.494;    2.592;  -40.062; -134.888
717.759; -195.106; -784.062; -640.888
718.024;   54.596;  269.938;  250.112
718.288;  151.298;  685.938;  395.111
718.553; -261.600; -803.062; -977.889
718.817; -270.398; -883.061; -899.889
719.082;  -22.296; -115.061; -125.890
719.346; -234.494;-1000.061; -947.890
719.611;  -26.392; -300.061; -255.891
719.875; -179.890; -568.060; -537.891
720.140; -106.588; -453.060; -603.891
720.404;   68.414; -136.060; -249.892
720.668;  907.716; -475.060; -411.892
720.933;  354.018;  146.940;  137.108
721.197; -156.080; -667.059; -600.893
721.461; -261.478; -851.059; -826.893
721.725;    1.724;  -21.059; -250.894
721.990;  -48.174; -284.059; -204.894
722.254;   36.528;  -26.059; -108.894
722.518; -110.570; -286.058; -442.895
722.782; -141.468; -743.058; -594.895
723.046;  264.334;  614.942;  570.105
723.310;  124.836;  374.942;  210.104
723.574; -157.462; -654.058; -614.896
723.838; -139.360; -576.057; -642.897
724.102;  -61.158; -226.057; -239.897
724.366; -225.756;-1032.057; -978.897
724.630; -189.054; -749.057; -571.898
724.894; -135.052; -722.057; -514.898
725.158;  -27.150;   38.944; -295.898
725.422;  -93.848; -394.056; -327.899
725.685; -106.046; -441.056; -349.899
725.949; -167.744; -566.056; -519.900
726.213; -170.442; -732.056; -811.900
726.477;   62.761;-1020.055; -933.900
726.740;  136.763; -274.055; -104.901
727.004;  340.265; -384.055; -510.901
727.268; 3495.967; -442.055; -400.901
727.531;  768.669; -961.055; -775.902
727.795; -115.729; -713.054; -673.902
728.059; -109.627; -552.054; -557.903
728.322; -137.925; -841.054; -669.903
728.586;   -0.923; -692.054; -701.903
728.849; -172.021; -695.053; -756.904
729.112; -221.819; -812.053; -912.904
729.376; -267.617; -959.053; -905.904
729.639; -107.315; -536.053; -536.905
729.903; -183.813; -733.053; -699.905
730.166;  -59.911; -437.052; -399.906
730.429;  -63.109; -317.052; -468.906
730.693; -102.907; -355.052; -894.906
730.956;  342.195;  810.948;  651.093
731.219;  747.197; -310.052; -103.907
731.482;   53.799;-1003.051; -894.907
731.745;  -19.999; -794.051; -935.908
732.009;   67.203;  -30.051;   50.092
732.272; -166.195; -904.051; -771.909
732.535;  -93.493; -300.051; -310.909
732.798; -290.691;-1083.050;-1166.909
733.061;  -91.789; -430.050; -456.910
733.324;    6.513;   31.950; -180.910
733.587;  161.615;  290.950;  365.090
733.850;  -97.783; -973.049;-1050.911
734.113;   45.219;   33.951;   32.089
734.376;   16.021; -328.049; -447.912
734.639;  395.823; 1188.951; 1011.088
734.901;   51.125; -180.049; -402.912
735.164;  477.727; -883.048; -837.913
735.427; 1299.329; -166.048; -355.913
735.690;  114.632; -205.048; -234.913
735.952; -149.266; -923.048; -925.914
736.215; -126.364;-1113.048;-1009.914
736.478;  -43.462; -771.047; -774.915
736.740;  251.340;   33.953;  129.085
737.003;  821.342; -658.047; -672.915
737.266; 4260.144;  -94.047;   46.084
737.528;  412.046; -682.047; -660.916
737.791;  354.048; -316.046; -327.916
738.053; 1062.650;  465.954;  649.083
738.316;12723.352; -162.046; -136.917
738.578; 7549.954; -770.046; -736.918
738.841;  465.456; -382.046; -446.918
739.103;  177.458; -875.045; -777.918
739.365;  529.960;   79.955;  -69.919
739.628;  -81.538; -884.045; -805.919
739.890; -108.836; -758.045; -710.919
740.152; -104.134; -692.044; -754.920
740.414;  -44.132; -408.044; -359.920
740.677; -105.630; -785.044; -634.921
740.939; -107.228; -587.044; -487.921
741.201;  238.774; -432.044; -572.921
741.463;  -31.624; -689.043; -745.922
741.725;   38.678;  -21.043; -199.922
741.987;  150.180;  220.957;  116.078
742.249;  -50.218; -751.043; -859.923
742.511;  172.884; -703.043; -794.923
742.773;  -20.614; -546.042; -546.924
743.035;  227.888;  796.958;  533.076
743.297; -148.410; -963.042;-1013.924
743.559;  788.592; -278.042; -262.925
743.821;  -12.806; -735.042; -744.925
744.083;   -3.404;  -44.041; -149.925
744.345; -162.802; -869.041; -892.926
744.607;   79.300;   75.959;  122.074
744.868; -123.798; -490.041; -554.927
745.130; -246.095; -994.041;-1008.927
745.392;   84.307;   -1.040;  -44.927
745.653;  -46.391; -411.040; -378.928
745.915;  339.411;  896.960;  631.072
746.177;   64.913;   35.960;  -43.928
746.438;  -31.885; -428.040; -543.929
746.700; -132.383; -947.039; -988.929
746.961;  -42.581; -659.039; -740.930
747.223;  159.921; -190.039;  -74.930
747.484;   74.623; -391.039; -471.930
747.746;  168.325;  -23.038; -106.931
748.007;   40.327; -647.038; -689.931
748.269;  315.929; -468.038; -440.931
748.530;  394.131; -852.038; -638.932
748.791;  231.633; -354.038; -420.932
749.053;  565.635;  286.963;  163.067
749.314;  497.537; -236.037; -169.933
749.575;  490.439; -945.037; -905.933
749.836;  971.741; -217.037;   86.066
750.098; 3235.143;  -60.037;  -21.934
750.359;40495.245;  414.964;  555.066
750.620; 8837.947; -121.036; -220.935
750.881; 1106.049; -585.036; -513.935
751.142; 1553.751; -950.036; -938.936
751.403;19377.553; -789.036; -705.936
751.664; 7083.455;-1034.035; -999.936
751.925;  536.357; -175.035; -262.937
752.186;  281.059; -298.035; -278.937
752.447;  106.361; -590.035; -445.937
752.708;    9.863; -532.035; -648.938
752.969;  -67.235; -566.034; -576.938
753.230;  -34.233; -777.034; -672.939
753.491;  -54.531; -650.034; -631.939
753.751;  110.771;  109.966;   19.061
754.012;  182.873;  258.967;  181.060
754.273;  101.176; -174.033;  -71.940
754.534;  -57.522; -487.033; -580.940
754.794; -192.120; -926.033; -911.941
755.055;  299.582; 1051.967;  881.059
755.316;  -97.616; -700.032; -566.942
755.576;  -42.314; -606.032; -576.942
755.837; -100.412; -527.032; -695.942
756.097;  -82.610; -530.032; -564.943
756.358; -160.008; -725.032; -770.943
756.618;  -88.906; -705.031; -641.943
756.879;   -4.104; -254.031; -349.944
757.139; -267.802;-1098.031;-1116.944
757.400;  -88.200; -538.031; -553.945
757.660;  -19.198; -365.031; -401.945
757.920;   34.304; -266.030; -228.945
758.181;  -41.694; -468.030; -351.946
758.441; -168.892; -870.030; -809.946
758.701;  -65.290; -308.030; -215.946
758.961;  -24.588; -220.030; -278.947
759.222;  -69.386; -574.029; -502.947
759.482; -146.584; -683.029; -723.948
759.742; -139.682; -706.029; -547.948
760.002;   59.520;  -83.029; -143.948
760.262;   85.522;   50.972;  182.051
760.522;  -86.576; -498.028; -574.949
760.782; -113.774; -738.028; -612.949
761.042;  -77.072; -618.028; -573.950
761.302;   84.630;   55.972;  -18.950
761.562;   78.432; -164.027; -154.951
761.822;   69.634; -710.027; -551.951
762.082; -146.264;-1104.027;-1093.951
762.342;   78.138; -328.027; -403.952
762.601;   57.340; -567.027; -506.952
762.861;  431.042; -281.026; -207.952
763.121;  583.944; -406.026; -411.953
763.381;10387.946; -499.026; -485.953
763.640; 9295.549; -139.026; -307.954
763.900;  449.951; -242.026; -203.954
764.160;  118.753; -458.025; -491.954
764.419;  -63.745; -726.025; -782.955
764.679; -155.243; -795.025; -726.955
764.939;   -3.041; -124.025; -210.955
765.198; -114.639; -608.025; -563.956
765.458; -148.437; -710.024; -612.956
765.717; -137.635; -454.024; -590.957
765.976;  -74.833; -428.024; -411.957
766.236; -112.431; -475.024; -610.957
766.495;   87.971;  260.977;   73.042
766.755; -199.727;-1090.023; -987.958
767.014;  -67.925; -594.023; -665.958
767.273;  -53.523; -373.023; -397.959
767.533;  -64.421; -228.023; -307.959
767.792;  -12.419; -151.022; -188.960
768.051;  -93.017; -228.022; -276.960
768.310; -145.815; -546.022; -650.960
768.569;   40.387; -161.022;    4.039
768.828;  -25.311; -285.022; -363.961
769.088; -258.109;-1050.021; -942.961
769.347; -145.607; -755.021; -599.962
769.606; -155.305; -876.021; -857.962
769.865; -228.103;-1016.021;-1033.963
770.124;    3.799; -411.021; -336.963
770.383; -145.299; -778.020; -910.963
770.641;  -41.497; -398.020; -400.964
770.900; -186.595; -953.020; -846.964
771.159; -161.693; -851.020; -951.964
771.418;  -85.291; -917.020; -779.965
771.677;  117.311; -224.019; -293.965
771.936;   74.313; -794.019; -865.966
772.194; 3067.515; -465.019; -437.966
772.453;11931.817; -213.019; -391.966
772.712;  927.219;  416.982;  329.033
772.970;  178.622;   32.982;   63.033
773.229;  143.824;  -22.018;  102.033
773.488; -190.974; -814.018; -770.968
773.746;  167.628;  296.982;  335.032
774.005;   60.730;  190.983;  -22.969
774.263;   54.732;  243.983;  177.031
774.522; -140.366; -422.017; -548.969
774.780; -123.164; -484.017; -417.970
775.039; -136.062; -551.017; -531.970
775.297;   13.340; -135.016; -351.970
775.555; -151.458; -489.016; -612.971
775.814; -200.256; -618.016; -570.971
776.072; -219.254; -749.016; -740.971
776.330; -140.252; -630.016; -520.972
776.589; -186.250; -703.015; -721.972
776.847; -205.848; -645.015; -624.973
777.105; -282.046;-1016.015;-1032.973
777.363;  -92.944; -459.015; -454.973
777.621; -207.242; -660.015; -717.974
777.879;   14.760;  -42.014;   32.026
778.138; -138.138; -554.014; -717.974
778.396; -163.736; -585.014; -526.975
778.654; -299.934;-1015.014; -970.975
778.912;  -73.832; -269.014; -371.976
779.170; -215.630; -880.013; -803.976
779.427; -267.828; -922.013; -897.976
779.685; -222.126; -880.013; -832.977
779.943; -156.524; -654.013; -593.977
780.201; -277.222; -964.012; -883.978
780.459; -185.320; -651.012; -610.978
780.717; -105.618; -440.012; -390.978
780.974; -151.716; -449.012; -490.979
781.232;  -97.714; -358.012; -338.979
781.490; -129.812; -551.011; -472.979
781.747; -158.610; -555.011; -476.980
782.005;  109.793;  462.989;  254.020
782.263; -273.205; -542.011;-1004.981
782.520; -113.603; -326.011; -501.981
782.778; -304.801;-1013.010;-1051.981
783.035; -286.699; -962.010; -938.982
783.293;  -57.597; -248.010; -206.982
783.550;  -25.995; -134.010; -198.982
783.808; -199.193; -764.010; -776.983
784.065; -277.091; -745.009; -874.983
784.322;  -40.489;   25.991;  -86.984
784.580; -261.687; -915.009; -771.984
784.837; -124.285; -392.009; -466.984
785.094; -242.483; -783.009; -762.985
785.352;  -70.881; -304.008; -404.985
785.609; -215.079; -934.008; -839.985
785.866; -129.577; -345.008; -401.986
786.123; -153.575; -639.008; -583.986
786.380; -144.273; -665.008; -604.987
786.637;  -82.271; -225.007; -380.987
786.895;  -35.969; -456.007; -543.987
787.152;  -39.167; -135.007; -267.988
787.409;  -15.065; -123.007; -225.988
787.666; -117.463; -299.006; -378.988
787.923; -137.161; -616.006; -695.989
788.179; -173.759; -551.006; -584.989
788.436; -169.957; -585.006; -585.990
788.693;  -34.855;  -92.006;  -87.990
788.950;  186.247; -125.005; -112.990
789.207;  168.849; -381.005; -372.991
789.464;  -25.449; -161.005; -301.991
789.720;   42.553;  150.995;  110.009
789.977; -262.045;-1003.005; -671.992
790.234;  -36.443;   44.996;  -66.992
790.490; -265.341; -884.004;-1031.993
790.747;    0.261;  -85.004;   22.007
791.004;  -43.737; -426.004; -348.993
791.260; -150.534; -430.004; -560.994
791.517; -172.232; -843.003; -788.994
791.773; -105.030; -379.003; -342.994
792.030; -178.528; -596.003; -660.995
792.286; -185.626; -686.003; -636.995
792.543;  -10.524;  -74.002; -159.995
792.799;  -76.222; -584.002; -382.996
793.055; -302.320;-1179.002;-1210.996
793.312; -208.618; -827.002; -816.997
793.568; -139.916; -746.002; -599.997
793.824;    3.186; -226.001; -284.997
794.081;   17.188; -447.001; -508.998
794.337;   43.390; -664.001; -561.998
794.593; 2146.292; -319.001; -271.999
794.849; 7544.094; -746.001; -772.999
795.105;  365.496; -270.000; -261.999
795.361;    7.598; -490.000; -457.000
795.617; -164.800; -875.000; -945.000
795.873;  -76.900; -360.000; -407.000
796.129;  -28.600; -368.000; -306.000
796.385;   -9.400; -124.000; -156.000
796.641;  179.800;  412.000;  550.000
796.897; -169.700; -666.000; -635.000
797.153;  153.400;  453.000;  357.000
797.409; -196.800; -785.000; -868.000
797.665; -127.500; -625.000; -732.000
797.921; -153.700; -775.000; -762.000
798.176; -112.200; -744.000; -747.000
798.432; -138.200; -824.000; -596.000
798.688; -166.400;-1174.000;-1078.000
798.943;   94.200; -165.000; -147.000
799.199;  -71.600;-1005.000; -959.000
799.455;  342.600;  369.000;  316.000
799.710;   75.500; -813.000; -380.000
799.966;  284.400; -162.000; -160.000
800.221;  524.800; -638.000; -721.000
800.477;12871.200; -743.000; -710.000
800.732; 8592.000; -773.000; -800.000
800.988;  776.800;  205.000;  -19.000
801.243; 2790.400; -454.000; -344.000
801.498; 8988.300; -814.000; -739.000
801.754;  487.300; -289.000; -163.000
802.009;   98.700; -257.000; -335.000
802.264; -135.400; -967.000;-1033.000
802.520;   50.400;  222.000;   -3.000
802.775;  -61.300; -524.000; -359.000
803.030;  142.900;  395.000;  356.000
803.285; -191.300; -840.000; -903.000
803.540; -118.200; -686.000; -699.000
803.795;  -99.100; -648.000; -583.000
804.051;  -49.200; -279.000; -346.000
804.306;  110.800;  168.000;  128.000
804.561;  243.700;  451.000;  362.000
804.816;  305.500;  714.000;  861.000
805.071;    4.300; -185.000; -280.000
805.325;  228.600; -257.000; -427.000
805.580; -217.700; -841.000; -877.000
805.835;  -23.900; -204.000; -297.000
806.090; -142.600; -760.000; -676.000
806.345;  -15.100; -344.000; -264.000
806.600;  -83.500; -549.000; -632.000
806.854;  -88.700; -408.000; -538.000
807.109;  -29.600; -493.000; -577.000
807.364;   -1.400; -407.000; -328.000
807.618;  -31.000; -415.000; -381.000
807.873;   15.200; -470.000; -494.000
808.128;  130.200; -257.000; -518.000
808.382;  121.300; -224.000; -332.000
808.637;   58.000; -440.000; -511.000
808.891;  233.000; -257.000; -180.000
809.146;   30.200; -902.000; -794.000
809.400;  257.500; -848.000; -923.000
809.654;  337.800; -779.000; -551.000
809.909;  538.900; -841.000; -927.000
810.163; 9123.100; -813.000; -651.000
810.418;17973.800; -940.000; -861.000
810.672; 1085.800; -685.000; -690.000
810.926;  829.200; -993.000; -973.000
811.180; 1919.700; -439.000; -372.000
811.434;41636.300;  240.000;  135.000
811.689;12567.100; -231.000; -365.000
811.943;  632.700; -936.000; -953.000
812.197;  305.500; -893.000; -671.000
812.451;  121.000; -379.000; -514.000
812.705;  -97.200; -809.000; -619.000
812.959;  -88.800; -263.000; -388.000
813.213;   31.600; -283.000; -209.000
813.467;  186.900;  470.000;  253.000
813.721; -210.100; -764.000; -792.000
813.975; -181.800; -826.000; -877.000
814.229;  100.300;  430.000;  353.000
814.482; -147.900; -517.000; -566.000
814.736; -200.200; -766.000; -744.000
814.990; -232.000; -779.000; -872.000
815.244;  -60.700; -228.000; -285.000
815.497; -135.800; -636.000; -601.000
815.751;  -13.700; -141.000;   82.000
816.005; -106.900; -470.000; -586.000
816.258;  -99.400; -510.000; -363.000
816.512; -185.000; -693.000; -610.000
816.766;   56.400;  121.000;  157.000
817.019;   89.800;  148.000;  149.000
817.273; -203.200;-1000.000; -802.000
817.526;   -9.900; -206.000; -173.000
817.779; -138.300;-1049.000; -960.000
818.033; -193.600; -693.000; -807.000
818.286; -197.400; -725.000; -792.000
818.540; -126.600; -403.000; -403.000
818.793; -106.700; -402.000; -489.000
819.046; -144.600; -582.000; -520.000
819.299;  -31.800; -157.000; -166.000
819.553; -174.500; -552.000; -592.000
819.806; -270.500;-1016.000; -838.000
820.059;  -46.900; -334.000; -354.000
820.312;   60.100;  152.000;  185.000
820.565;  -13.800;  110.000;  -27.000
820.818;  -37.100;  -59.000; -173.000
821.071; -285.700;-1041.000; -957.000
821.324; -165.800; -536.000; -540.000
821.577; -160.700; -457.000; -483.000
821.830; -103.900; -270.000; -172.000
822.083; -209.600; -733.000; -288.000
822.336;  -59.400; -261.000; -167.000
822.589; -209.900; -805.000; -688.000
822.842; -240.900; -875.000; -770.000
823.094; -331.800;-1076.000;-1114.000
823.347; -226.000; -925.000; -729.000
823.600;   61.300;  402.000;  187.000
823.853;  -54.400; -311.000; -267.000
824.105; -117.000; -331.000; -575.000
824.358; -192.400; -617.000; -716.000
824.611;   83.100;  234.000;   40.000
824.863;  -96.900; -612.000; -591.000
825.116;   94.900;  -33.000;   27.000
825.368;   51.800; -366.000; -372.000
825.621;  173.400; -186.000; -240.000
825.873;  -19.100; -704.000; -737.000
826.126;  714.600; -669.000; -641.000
826.378;13529.900; -389.000; -505.000
826.630; 2289.100; -890.000; -898.000
826.883;  -28.100; -754.000; -693.000
827.135;   37.900; -279.000; -270.000
827.387; -231.300; -893.000; -839.000
827.639;  -29.100;  -86.000;   32.000
827.892; -218.000; -742.000; -582.000
828.144; -258.300; -848.000; -804.000
828.396;  -11.200;  104.000;  -80.000
828.648; -143.500; -440.000; -333.000
828.900; -246.800; -702.000; -795.000
829.152; -173.900; -684.000; -683.000
829.404;  -77.900; -215.000; -267.000
829.656;   24.500;  321.000;  214.000
829.908;   30.800;  393.000;  229.000
830.160; -280.600;-1064.000;-1047.000
830.412; -153.800; -481.000; -430.000
830.664; -195.000; -557.000; -665.000
830.916; -102.200; -268.000; -206.000
831.167; -319.200;-1073.000; -951.000
831.419; -195.500; -623.000; -566.000
831.671; -252.500; -764.000; -809.000
831.923; -124.200; -311.000; -447.000
832.174; -101.500; -273.000; -331.000
832.426; -181.800; -493.000; -582.000
832.678; -316.500;-1043.000;-1091.000
832.929; -279.500; -947.000; -935.000
833.181; -123.900; -575.000; -677.000
833.432;  -17.400;  -59.000; -186.000
833.684;    9.900;  112.000;  -27.000
833.935; -165.000; -610.000; -566.000
834.187; -213.800; -829.000; -823.000
834.438;  -34.200;  -58.000;  -25.000
834.689;  -62.600; -255.000; -123.000
834.941;  -64.700; -343.000; -244.000
835.192; -168.600; -590.000; -533.000
835.443; -176.600; -419.000; -506.000
835.695;   12.000;  138.000;  -16.000
835.946; -126.200; -608.000; -378.000
836.197; -154.700; -599.000; -622.000
836.448; -168.500; -528.000; -395.000
836.699;  -48.900; -253.000; -341.000
836.950;   43.400;   72.000;    7.000
837.201; -273.800;-1003.000; -987.000
837.452;  -64.100; -356.000; -170.000
837.703; -185.300; -791.000; -737.000
837.954;  -57.600; -205.000; -365.000
838.205; -194.200;-1029.000;-1008.000
838.456;  171.300; -196.000; -282.000
838.707;   -2.200; -423.000; -519.000
838.958;  -41.800; -634.000; -647.000
839.209;  402.300;   18.000;   40.000
839.460;   72.400; -439.000; -201.000
839.710;  211.300; -135.000; -297.000
839.961;  593.000;  730.000;  612.000
840.212;  396.300; -382.000; -497.000
840.462; 1469.400; -328.000; -277.000
840.713;21802.500; -571.000; -536.000
840.964; 6471.700;  -62.000; -143.000
841.214;  493.600; -384.000; -624.000
841.465;  658.300; -214.000; -141.000
841.715;  606.000; -417.000; -380.000
841.966;  698.200; -746.000; -685.000
842.216;13261.000; -330.000; -431.000
842.466;37302.800; -169.000; -313.000
842.717; 1424.600; -964.000; -952.000
842.967;  363.700; -635.000; -641.000
843.217;  305.600;   20.000;   28.000
843.468;  106.100; -104.000; -132.000
843.718;  -76.000; -718.000; -726.000
843.968; -174.500; -837.000; -765.000
844.218;   26.900; -315.000; -262.000
844.469;  -91.300; -577.000; -561.000
844.719; -171.700; -537.000; -682.000
844.969; -149.100; -550.000; -580.000
845.219; -213.600; -814.000; -862.000
845.469; -102.800; -392.000; -342.000
845.719; -213.200; -792.000; -884.000
845.969;   30.400;  119.000;  174.000
846.219; -177.200; -738.000; -720.000
846.469;  122.900;  464.000;  432.000
846.718;  -49.500; -115.000;   31.000
846.968; -245.500; -827.000; -827.000
847.218;  -28.000; -224.000; -371.000
847.468; -212.500; -586.000; -555.000
847.718; -254.200; -827.000; -798.000
847.967; -243.300; -826.000; -915.000
848.217; -115.900; -449.000; -569.000
848.467;  -95.400; -405.000; -376.000
848.716; -177.900; -708.000; -725.000
848.966;  -32.600; -372.000; -358.000
849.215;  -86.000; -428.000; -419.000
849.465; -201.000; -785.000; -615.000
849.714; -283.100;-1132.000;-1150.000
849.964; -135.600; -551.000; -613.000
850.213;  -57.700; -393.000; -355.000
850.463;  142.700;  137.000;  340.000
850.712;  -59.200; -542.000; -567.000
850.961;  -50.400; -739.000; -678.000
851.211;   69.200; -513.000; -504.000
851.460;   98.300; -635.000; -650.000
851.709;  737.100;  -25.000;   18.000
851.958;13147.600; -912.000; -750.000
852.208;12008.000; -859.000; -879.000
852.457;  460.600; -181.000;  -13.000
852.706;   -7.000; -791.000; -823.000
852.955;  -36.700; -507.000; -528.000
853.204; -131.600; -521.000; -461.000
853.453; -131.600; -418.000; -458.000
853.702; -218.500; -660.000; -750.000
853.951; -189.900; -532.000; -520.000
854.200; -195.500; -613.000; -562.000
854.449; -228.200; -695.000; -661.000
854.698; -156.100; -340.000; -279.000
854.946;  -61.200; -181.000; -284.000
855.195; -222.600; -843.000; -868.000
855.444; -135.500; -395.000; -420.000
855.693; -166.800; -345.000; -432.000
855.941; -168.900; -387.000; -516.000
856.190;  -68.900; -256.000; -382.000
856.439; -218.600; -652.000; -703.000
856.687;  -41.000;  -99.000;  -72.000
856.936; -192.000; -621.000; -323.000
857.184; -297.600;-1067.000;-1020.000
857.433; -121.100; -423.000; -512.000
857.681; -270.800; -989.000; -953.000
857.930;  -87.600; -282.000; -433.000
858.178; -299.900; -856.000; -929.000
858.427; -258.600; -802.000; -781.000
858.675; -153.700; -377.000; -544.000
858.923; -173.100; -527.000; -819.000
859.172; -296.700;-1094.000;-1070.000
859.420; -141.200; -339.000; -239.000
859.668; -189.000; -624.000; -628.000
859.916;    5.600;  109.000;  115.000
860.164; -208.100; -699.000; -603.000
860.413;  242.600; -878.000; -696.000
860.661;   90.500; -709.000; -577.000
860.909; -110.500; -339.000; -325.000
861.157;  -92.100; -277.000; -444.000
861.405; -181.400; -534.000; -670.000
861.653;   92.300;  310.000;  310.000
861.901;  145.900; -543.000; -613.000
862.149; -136.400; -801.000; -824.000
862.396;  -93.400; -297.000; -187.000
862.644; -102.500; -368.000; -347.000
862.892;   16.200;   98.000;  138.000
863.140; -153.100; -549.000; -530.000
863.388; -252.500; -815.000; -759.000
863.635; -166.700; -642.000; -601.000
863.883;   31.100;  231.000;  190.000
864.131; -148.800; -288.000; -357.000
864.378; -244.500; -675.000; -540.000
864.626; -189.600; -347.000; -415.000
864.873; -176.000; -556.000; -505.000
865.121; -255.400; -714.000; -799.000
865.368;  -42.600; -173.000;   75.000
865.616;  -13.600;  -33.000;  -40.000
865.863; -117.100; -462.000; -506.000
866.111; -199.600; -795.000; -824.000
866.358;   24.700; -426.000; -420.000
866.605; 3048.200;  -64.000; -804.000
866.853; 2116.000; -621.000; -537.000
867.100; -146.500; -728.000; -775.000
867.347; -146.100; -672.000; -611.000
867.594; -145.700; -740.000; -714.000
867.841;  137.800;   97.000;   17.000
868.089; -236.100; -746.000; -698.000
868.336; -152.100; -477.000; -420.000
868.583; -249.600; -637.000; -741.000
868.830;  -33.700; -131.000; -170.000
869.077; -269.800; -859.000; -787.000
869.324; -208.300; -502.000; -458.000
869.571; -205.800; -398.000; -430.000
869.818; -184.700; -485.000; -439.000
870.065; -154.000; -439.000; -513.000
870.311; -147.100; -456.000; -542.000
870.558; -154.800; -332.000; -311.000
870.805;  -98.700; -320.000; -384.000
871.052; -138.700; -494.000; -369.000
871.298;  -60.000; -204.000; -131.000
871.545;  -69.500; -151.000; -185.000
871.792; -139.600; -173.000; -222.000
872.038;  -52.600;   43.000; -126.000
872.285; -194.300; -496.000; -387.000
872.532; -134.100; -357.000; -387.000
872.778;  119.400;  556.000;  403.000
873.025; -136.800; -384.000; -359.000
873.271;  107.600;  501.000;  578.000
873.517;   11.100; -133.000; -209.000
873.764;  -23.900; -193.000;  -80.000
874.010;  -65.700; -143.000; -230.000
874.257;   -0.900;  123.000;   90.000
874.503; -195.600; -579.000; -479.000
874.749;  -98.400;   31.000;  275.000
874.995;  -85.400;  -80.000;  -20.000
875.242; -180.000; -540.000; -478.000
875.488; -152.400; -414.000; -439.000
875.734;  -50.200; -106.000; -234.000
875.980;  154.600; -872.000;-1032.000
876.226;  336.600; -157.000; -255.000
876.472;   82.700;  343.000;  237.000
876.718;   -2.500;  184.000;  158.000
876.964;    1.900;   56.000;   55.000
877.210; -201.400; -547.000; -677.000
877.456; -222.300; -630.000; -557.000
877.702; -272.900; -821.000; -832.000
877.948; -157.200; -377.000; -497.000
878.193;   96.900;  361.000;  255.000
878.439; -150.600; -487.000; -472.000
878.685; -118.800; -272.000; -343.000
878.931; -206.600; -618.000; -676.000
879.176; -113.600; -201.000; -201.000
879.422; -279.400; -933.000; -820.000
879.668;   90.700;   10.000;   79.000
879.913;  185.200;   53.000;  137.000
880.159;  -58.600; -112.000;  -17.000
880.404;  -59.800; -152.000; -162.000
880.650;  -26.900;   91.000;  141.000
880.895; -233.700; -670.000; -710.000
881.141; -159.300; -454.000; -428.000
881.386; -224.900; -503.000; -658.000
881.631; -125.100; -311.000; -166.000
881.877;   16.000;  112.000;  -13.000
882.122; -202.000; -684.000; -600.000
882.367;  -57.800; -136.000; -186.000
882.612; -107.600;  -80.000; -176.000
882.858; -261.700; -877.000; -823.000
883.103;  -98.500; -297.000; -267.000
883.348; -231.300; -759.000; -852.000
883.593; -237.900; -677.000; -602.000
883.838;  -57.600; -311.000;  -24.000
884.083;   77.500;  353.000;  288.000
884.328; -103.400; -564.000; -545.000
884.573;  -54.100; -196.000; -143.000
884.818;  242.500; -694.000; -531.000
885.063;  130.600; -348.000; -315.000
885.308; -135.900; -475.000; -398.000
885.553;   62.700;  245.000;  325.000
885.797; -182.800; -545.000; -615.000
886.042;  -56.600;    8.000;   58.000
886.287; -129.400; -253.000; -211.000
886.532;  -19.800;   26.000;  204.000
886.776; -110.900; -407.000; -525.000
887.021; -206.700; -621.000; -574.000
887.265; -213.200; -685.000; -689.000
887.510; -195.400; -557.000; -496.000
887.755;  -87.200; -194.000; -164.000
887.999; -215.900; -552.000; -575.000
888.244;   -7.400;  -58.000;  161.000
888.488;   74.000;  371.000;  393.000
888.732; -191.800; -368.000; -520.000
888.977; -219.900; -622.000; -567.000
889.221; -265.000; -683.000; -659.000
889.465; -192.500; -422.000; -566.000
889.710;  -91.400;  -56.000; -299.000
889.954;   77.600;  579.000;  467.000
890.198; -233.100; -584.000; -707.000
890.442; -251.900; -716.000; -712.000
890.687; -250.500; -800.000; -753.000
890.931; -103.900; -273.000; -210.000
891.175; -214.900; -502.000; -500.000
891.419;  -88.400; -105.000; -110.000
891.663; -112.400; -239.000; -112.000
891.907; -262.500; -801.000; -545.000
892.151; -275.600; -920.000; -815.000
892.395; -128.400; -274.000; -387.000
892.638;   31.700;  408.000;  291.000
892.882; -273.800; -780.000; -867.000
893.126;  116.200;  758.000;  558.000
893.370; -110.400; -167.000; -168.000
893.614; -223.500; -714.000; -715.000
893.857; -120.700; -183.000; -197.000
894.101; -205.000; -527.000; -631.000
894.345;  -37.000;  300.000;  150.000
894.588;  132.700;  569.000;  380.000
894.832;  -98.800; -178.000;  -84.000
895.075; -126.200;   15.000;  -92.000
895.319; -203.500; -552.000; -420.000
895.563; -183.100; -413.000; -353.000
895.806; -225.800; -628.000; -741.000
896.049;  -85.400; -576.000; -368.000
896.293;  165.500;  527.000;  405.000
896.536; -114.500; -465.000; -468.000
896.779;  -77.600; -149.000;   -1.000
897.023; -233.600; -751.000; -714.000
897.266;   26.300;  325.000;  269.000
897.509; -313.500; -900.000; -901.000
897.752;  -29.500;  149.000;  171.000
897.996; -293.500; -972.000; -864.000
898.239;  -17.500;  168.000;  102.000
898.482; -167.500; -431.000; -453.000
898.725;  -11.000;  101.000;   53.000
898.968; -208.600; -609.000; -744.000
899.211; -180.800; -513.000; -361.000
899.454; -216.500; -633.000; -539.000
899.697;  -88.000;   90.000;  -43.000
899.940; -276.300; -761.000; -757.000
900.182; -136.500; -335.000; -405.000
900.425;  -98.500; -150.000; -298.000
900.668;   31.500;  491.000;  350.000
900.911; -120.800; -292.000; -345.000
901.154;  -21.500;  141.000;   -3.000
901.396; -219.800; -407.000; -412.000
901.639; -222.500; -430.000; -496.000
901.882; -304.600; -790.000; -809.000
902.124; -124.500;  -29.000; -143.000
902.367; -180.000; -315.000; -361.000
902.609; -196.700; -476.000; -453.000
902.852;  -91.000; -108.000; -260.000
903.094; -183.000; -458.000; -337.000
903.337;   -1.100;  -26.000;   53.000
903.579; -158.300; -228.000; -441.000
903.821; -271.700; -597.000; -744.000
904.064;  -52.000;   85.000;  127.000
904.306;  -89.000; -126.000; -166.000
904.548; -139.600; -152.000; -366.000
904.790; -129.400; -195.000; -340.000
905.033; -208.100; -625.000; -577.000
905.275; -200.400; -513.000; -524.000
905.517;   92.100;  468.000;  256.000
905.759; -147.400; -667.000; -761.000
906.001; -169.300; -322.000; -369.000
906.243;  -78.000; -162.000; -224.000
906.485;  176.100; -265.000; -207.000
906.727;   -1.400; -499.000; -542.000
906.969;  -47.600;  -30.000; -135.000
907.211;  122.200; -316.000; -382.000
907.453;  275.400; -188.000; -237.000
907.695;  -24.600; -158.000; -385.000
907.936;  201.400;  818.000;  706.000
908.178;  -39.600;   92.000; -135.000
908.420;  -60.700; -111.000; -162.000
908.662; -180.900; -633.000; -682.000
908.903;  -92.200; -208.000; -123.000
909.145;  -65.600; -240.000; -305.000
909.386;   75.800;  315.000;  280.000
909.628;  125.200;  363.000;  397.000
909.870;   17.000;   29.000;  264.000
910.111; -187.900; -809.000; -949.000
910.353;    2.400; -123.000; -161.000
910.594;  -53.500; -574.000; -606.000
910.835;  112.200; -265.000; -326.000
911.077;  190.600; -503.000; -604.000
911.318;  320.600; -505.000; -471.000
911.559;  548.400; -577.000; -880.000
911.801; 1929.200; -284.000; -280.000
912.042;17118.400;  -50.000; -159.000
912.283;35061.900;  404.000;  371.000
912.524; 4031.000; -396.000; -457.000
912.765;  568.500; -193.000;   79.000
913.006;  275.300; -307.000; -338.000
913.247;   22.300; -270.000; -290.000
913.488;    6.100;  -43.000;   30.000
913.729; -151.200; -373.000; -373.000
913.970;  -77.600;  -96.000; -292.000
914.211;  -76.700; -160.000; -198.000
914.452;  -62.200; -118.000;  -11.000
914.693;   89.800;  510.000;  592.000
914.934;  133.300;  510.000;  440.000
915.175;  -38.700;   53.000;  -95.000
915.415;  -58.000; -137.000;   27.000
915.656;  -75.700;  -28.000;  192.000
915.897; -115.800; -252.000;  -82.000
916.137; -105.400;   74.000;   -9.000
916.378; -186.700; -573.000; -517.000
916.619; -107.000; -159.000;  -63.000
916.859;   29.500;  303.000;  330.000
917.100;  348.100; 1655.000; 1070.000
917.340;  209.300;  930.000;  728.000
917.581;  148.800;  965.000;  789.000
917.821;  -59.500; -171.000;  143.000
918.061;  -20.600; -199.000;  -72.000
918.302;  -93.300; -152.000; -211.000
918.542;  -44.600;  -22.000;    3.000
918.782;   89.300;  369.000;  377.000
919.023;  203.400;  360.000;  427.000
919.263; 2285.800; 8131.000;  202.000
919.503; 1162.700; -137.000;  -54.000
919.743;  808.300;  390.000;  266.000
919.983;  254.900; -134.000;  -26.000
920.223;  100.900;  135.000;   14.000
920.463;  215.600;  631.000;  554.000
920.703;  179.700;   84.000;   39.000
920.943;  160.700; -110.000;   90.000
921.183;  200.600; -414.000; -405.000
921.423;  617.500;  307.000;  546.000
921.663;  799.900; -174.000; -257.000
921.903; 1891.500;  237.000;  173.000
922.143;11667.200;  372.000;  389.000
922.383;40529.100;  158.000;  115.000
922.622;10149.400; -120.000;  -15.000
922.862; 1313.200;  796.000;  785.000
923.102;  510.100;  -51.000;   33.000
923.341;  220.600;   59.000;   74.000
923.581;  158.200;  450.000;  360.000
923.821;   66.000;  301.000;  398.000
924.060;   23.200;  351.000;  193.000
924.300;  -85.400;  -16.000; -128.000
924.539;   49.100;  584.000;  473.000
924.779;  123.700;  812.000;  597.000
925.018;  -13.800;  247.000;  353.000
925.257;   89.000;  595.000;  666.000
925.497;   -1.100;  447.000;  412.000
925.736; -102.200;  -35.000;  102.000
925.975;   86.300;  687.000;  669.000
926.214;  145.100;  907.000;  850.000
926.454;  121.500;  706.000;  757.000
926.693;   -3.500;  419.000;  543.000
926.932;  157.700; 1021.000;  825.000
927.171;  239.200; 1107.000; 1044.000
927.410;  222.800; 1144.000;  967.000
927.649;  120.100;  924.000;  742.000
927.888;   95.000;  590.000;  564.000
928.127;   74.500;  680.000;  678.000
928.366;  156.100;  842.000;  826.000
928.605;   99.500;  831.000;  737.000
928.844;  471.500; 1451.000; 1393.000
929.083;  764.800;  770.000;  613.000
929.321;  450.700; 1335.000; 1359.000
929.560;  217.300; 1158.000; 1122.000
929.799;   28.800;  574.000;  475.000
930.038;  258.800; 1025.000; 1394.000
930.276;  -27.300;  334.000;  397.000
930.515;   40.600;  827.000;  681.000
930.753;   57.500;  614.000;  589.000
930.992;   59.900;  664.000;  717.000
931.230;   69.800;  847.000;  847.000
931.469;  445.100; 2162.000;  892.000
931.707;  240.600;  840.000;  751.000
931.946;  196.300; 1278.000; 1344.000
932.184;  179.900; 1437.000; 1175.000
932.423;  195.200; 1265.000;  963.000
932.661;  249.000; 1296.000; 1428.000
932.899;   89.900;  987.000;  821.000
933.137;   92.900;  754.000;  564.000
933.376;  321.200; 1664.000; 1335.000
933.614;  391.900; 1759.000; 1196.000
933.852;  184.000; 1357.000; 1171.000
934.090;  343.500; 1722.000; 1747.000
934.328;  300.400; 1252.000; 1457.000
934.566;  205.100; 1431.000; 1110.000
934.804;  274.900; 1263.000; 1309.000
935.042;  751.500; 1861.000; 1850.000
935.280; 2469.600; 2088.000; 2063.000
935.518; 1994.900; 2113.000; 2007.000
935.756;  558.100; 2481.000; 2316.000
935.994;  355.200; 1808.000; 1751.000
936.231;  722.300; 2890.000; 2950.000
936.469;  442.300; 2367.000; 2378.000
936.707;  385.500; 2220.000; 2167.000
936.945;  560.200; 2825.000; 2882.000
937.182;  510.400; 2679.000; 2741.000
937.420;  678.700; 3602.000; 3031.000
937.657;  828.900; 3365.000; 3478.000
937.895;  775.000; 3331.000; 3488.000
938.133;  703.900; 3540.000; 3528.000
938.370;  753.000; 3896.000; 4191.000
938.607;  925.100; 4488.000; 4205.000
938.845; 1263.300; 5587.000; 5549.000
939.082; 1109.600; 5387.000; 5177.000
939.320; 1176.000; 5799.000; 5728.000
939.557; 1432.200; 6549.000; 6491.000
939.794; 1585.400; 7285.000; 7097.000
940.031; 1899.500; 8421.000; 8368.000
940.269; 2175.600; 9552.000; 9107.000
940.506; 2317.200;10901.000;10507.000

