
Integration time [ms]: 100.000
Averaging Nr. [scans]: 40
Smoothing Nr. [pixels]: 0
Data measured with spectrometer [name]: 2101013U2
Wave   ;Sample   ;Dark     ;Reference
[nm]   ;[counts] ;[counts] ;[counts] 

394.013;   39.958; -450.257; -315.536
394.305;  178.356; -461.258; -419.536
394.596; 1574.057; -676.269; -527.514
394.887; 4093.327; -796.268; -654.518
395.178; 1477.389;  145.736;   11.476
395.470;   73.352; -210.263; -356.526
395.761;  135.670;  305.734;  394.479
396.052;  109.883; -545.284; -306.489
396.343;   88.391; -557.276; -454.503
396.634;   45.929; -200.279; -290.497
396.926;    9.549; -618.268; -565.517
397.217;   66.622;   11.725;  -17.504
397.508;   23.941; -366.273; -154.507
397.799;   22.729; -555.279; -571.497
398.090;    2.422; -973.280; -902.495
398.381;   88.468;   11.708;  -11.473
398.672;  -37.055; -585.292; -742.473
398.963;   19.736; -348.279; -373.498
399.254;   70.606;   54.709; -209.475
399.545;  -20.534;-1017.266; -883.520
399.836;   47.003; -407.277; -343.501
400.127;   52.640; -205.295; -209.468
400.418;   36.909; -423.274; -392.506
400.709;   31.457; -359.281; -333.493
401.000;   39.060; -268.291; -309.476
401.290;  100.589;  225.698;  115.545
401.581;   53.437; -166.286; -228.485
401.872;   30.632; -542.298; -486.462
402.163;   44.856; -313.296; -252.467
402.454;   80.781; -123.291; -163.475
402.744;   31.446; -844.297; -813.465
403.035;  226.158; -226.293;  -86.471
403.326;  293.073; -366.292; -384.474
403.617;  304.475;  204.701;  165.539
403.907;  334.065; -593.283; -679.490
404.198; 3512.660; -545.307; -599.446
404.489; 9021.771; -618.283; -588.491
404.779; 2543.043; -618.302; -660.456
405.070;  280.393;  -67.304; -174.451
405.360;  460.010; -259.293; -238.472
405.651;  440.807;  125.699;   98.542
405.942;  166.432;  209.714;  127.516
406.232;   66.449; -432.285; -413.487
406.523;  229.927;  641.706;  758.530
406.813;   28.509; -579.286; -644.484
407.104;  181.767;  261.708;  144.527
407.394;   58.476; -604.299; -591.462
407.685;  125.123;  336.715;  222.513
407.975;   67.594; -400.283; -382.490
408.265;   97.199; -134.289; -190.478
408.556;   53.478; -472.291; -459.475
408.846;  174.753;  474.706;  429.530
409.137;  100.859;   -1.288; -216.480
409.427;   78.174; -193.285; -271.487
409.717;   34.670; -776.273; -692.508
410.007;  132.741;    4.715; -170.486
410.298;   96.443; -360.295; -342.469
410.588;   98.146; -495.285; -510.486
410.878;   48.397; -792.287; -873.482
411.168;  109.535; -481.298; -478.463
411.459;  117.813; -295.283; -242.489
411.749;   72.376; -609.292; -507.474
412.039;   78.507; -755.289; -386.480
412.329;  234.320;   40.722;  132.501
412.619;  220.985;  -62.286; -148.485
412.909;  366.352;  639.711;  594.521
413.199;  300.973; -130.280; -251.495
413.490;  386.241;  521.710;  352.523
413.780;  192.452;-1013.279; -913.496
414.070;  376.043;  -46.276;  235.497
414.360;  397.190; -729.278; -666.498
414.650;  526.392; -726.288; -688.482
414.940;  724.777; -538.280; -441.496
415.230; 1221.289;   50.712;   74.519
415.520; 8333.707;  155.730;   66.486
415.809;33731.556; -305.281; -125.493
416.099;25519.781; -388.277; -229.501
416.389; 7618.756;  435.726;  236.494
416.679; 4445.907;   91.738;   85.473
416.969;  758.177; -527.287; -503.483
417.259;  633.879;  341.721;  171.503
417.549;  865.905;  522.718;  318.508
417.838; 2323.927; -205.268; -147.518
418.128; 8187.672;  650.710;  492.522
418.418; 6727.602; -491.272; -579.509
418.708; 4458.657;    9.726;  -48.506
418.997;17477.652; -474.275; -480.505
419.287;17910.965; -733.273; -790.507
419.577;17586.337; -160.283; -123.489
419.866;56235.479; -588.277; -498.501
420.156;54717.602; -242.270;  -55.513
420.446; 9107.498; -112.263;  -26.526
420.735;  862.670; -376.271; -446.512
421.025;  913.489; 1830.722;  315.502
421.314;  532.367; -203.271; -226.512
421.604;  646.218;   89.732;  233.484
421.893;  412.413; -705.271; -602.511
422.183;  269.923; -487.263; -461.526
422.472;  387.665;  -36.271; -107.511
422.762;  406.948; -416.266; -379.521
423.051;  261.293; -916.276; -916.503
423.341;  302.267; -491.273; -439.507
423.630;  407.780; -121.265;   15.477
423.919;  440.951;   58.725;   49.495
424.209;  461.379;  -31.263;   56.473
424.498;  634.824;   68.732;  161.483
424.787; 1465.881; -535.267; -601.518
425.077; 4277.254;   34.735;   29.478
425.366; 4682.511; -734.262; -744.528
425.655;13476.693;  639.727;  259.493
425.945;34815.615; -313.247; -268.554
426.234;18398.563;  117.741;  300.467
426.523; 7148.869;  -86.259; -350.534
426.812; 9703.943;  107.734;  159.480
427.101;14666.889; -127.269; -323.515
427.390;17322.881;  -55.270;  -86.514
427.680; 2465.743; -624.257; -411.538
427.969;  501.431; -330.255; -301.540
428.258;  348.283; -385.257; -477.536
428.547;  504.007;  449.728;  397.490
428.836;  707.350; -421.253; -398.543
429.125;  988.996; -199.259;  -72.534
429.414;  750.452; -330.251; -294.548
429.703; 4455.727; -231.251; -213.548
429.992;13794.681; -938.250; -828.549
430.281; 8733.064; -397.264; -331.524
430.570;  616.441;  -21.252;   32.454
430.859;  405.444;  279.741;  352.466
431.148;  400.335;  636.752;  631.446
431.437;  307.540;  391.748;  367.454
431.725;  190.260; -544.257; -481.536
432.014;  205.109; -845.253; -756.545
432.303;  404.750; -149.239; -105.569
432.592;  541.097; -460.263; -178.525
432.881; 1398.161; -601.248; -437.554
433.169; 9454.132; -343.255;  -61.540
433.458;19139.291;  445.765;  540.424
433.747; 7501.018; -397.261; -289.529
434.036;  930.797; -275.242; -280.564
434.324; 2866.671; -395.249; -379.551
434.613; 5212.814;   40.757;  159.437
434.902; 1509.039;  333.760;  439.433
435.190;  292.074;   75.761;  295.431
435.479;  160.342;  -52.245;   83.441
435.767;   79.252; -411.244; -427.561
436.056;  209.391; -340.242; -294.563
436.345;  480.416; -372.240; -223.568
436.633;  455.765;   60.750;  383.450
436.922;  193.544;  208.760;  414.432
437.210;  208.154; -194.236;    1.426
437.499;  421.163; -583.235; -432.576
437.787;  523.503; -339.236;  -10.574
438.075;  180.731;   56.761;  162.430
438.364;  206.609;  -44.238;  250.429
438.652;   98.883; -286.226; -138.592
438.941;   74.116;    3.770;  269.415
439.229;  -19.513; -665.252; -466.545
439.517;   31.173; -160.234;  -85.577
439.806;  -20.423; -501.225; -290.595
440.094;  127.782;  377.766;  650.421
440.382;   45.562; -653.233; -302.580
440.670;   47.188; -361.235; -285.576
440.959;   -4.452; -347.223; -170.599
441.247;   39.204; -151.229; -109.587
441.535;   38.121; -266.235;   31.423
441.823;   -4.921; -497.234; -305.578
442.111;  158.084;  173.771;  327.412
442.400;  282.966; -628.245; -335.559
442.688;  478.507; -111.234; -620.579
442.976;  211.328; -786.213; -450.617
443.264;   27.460; -324.224; -364.597
443.552;   62.210; -258.226;   51.408
443.840;  126.720;  602.765;  876.423
444.128;  104.411;  265.767;  269.420
444.416;  -11.113; -694.228; -312.588
444.704;   20.008; -465.219;  -92.605
444.992;   35.938;   -0.226;  240.407
445.280;   12.316; -517.230;  -94.585
445.568;    1.032; -694.212; -396.618
445.856;  140.339; -174.221;  357.398
446.143;  219.329;  -54.220;   -7.604
446.431;  212.292;  -25.228;  625.411
446.719;  165.981;  489.783;  675.391
447.007;  148.835;  481.769;  705.416
447.295;  132.694;  597.777;  871.402
447.583;   83.576; -464.229;  -34.587
447.870;   95.486; -434.221; -202.601
448.158;  233.015; -104.230;  129.415
448.446;  134.005; -800.219; -338.604
448.733;  144.037;   13.776;  269.403
449.021;  176.881;   60.788;  341.382
449.309;  157.899; -296.210;  208.379
449.596;  216.627;  128.783;   59.392
449.884;  192.478; -571.222; -325.600
450.172;  267.223; -756.227; -406.590
450.459;  633.233;  645.786;  780.387
450.747; 3762.350; -411.218; -147.608
451.034;12108.768;  493.772;  889.411
451.322; 9793.936; -413.214; -170.614
451.609;  757.039;  292.777;  508.403
451.897;  866.099; -550.203; -183.634
452.184; 2686.195; -622.223; -400.598
452.472; 2353.150;   97.792;  269.375
452.759;  335.956;  512.781;  864.395
453.047;   73.953; -407.212; -125.617
453.334;   35.615; -732.219; -216.606
453.621;   18.939; -438.214; -161.615
453.909;  104.065;   13.796;  384.368
454.196;   94.194; -299.199; -123.641
454.483;  221.715;  317.798;  540.364
454.771;  131.978; -215.208;  196.374
455.058;   51.832; -316.207;  102.374
455.345;  128.235;   71.807;  344.347
455.632;  131.961; -128.207;  235.373
455.919;   57.296;  -82.196;  182.354
456.207;  -44.551; -774.198; -450.642
456.494;  -17.371; -475.200;  -66.639
456.781;   17.935; -399.202; -198.635
457.068;   60.344; -253.206;  -29.628
457.355;    2.620; -698.206; -401.629
457.642;    2.127; -552.205; -290.630
457.929;   17.649; -778.194; -417.651
458.216;  114.579; -575.212; -354.617
458.503;  383.855; -173.193;  -19.652
458.790;  417.751; -864.208; -630.625
459.077;  376.691;  -77.202;  110.364
459.364; 1178.041; -350.195; -210.649
459.651; 2503.991;  -46.206;  220.372
459.938; 1107.164; -864.209; -665.623
460.225;  123.144;  132.799;  276.363
460.512;  -48.408; -836.197; -688.645
460.799;  121.099;  -32.218;  320.392
461.086;  102.735; -370.200; -251.640
461.372;    9.625; -509.198; -279.642
461.659;   57.697; -165.196;  108.354
461.946;   29.578; -445.193;  -54.651
462.233;  216.132;  842.800;  888.361
462.519;  490.203; -814.201; -464.639
462.806; 1505.818; -768.197; -497.645
463.093; 1274.878; -445.191;  -66.656
463.380;   -2.048; -920.186; -824.664
463.666;   54.120; -259.197;  -18.646
463.953;  113.759; -406.195; -243.648
464.239;  288.109; -173.195;  -77.648
464.526;  411.772;  413.806;  743.350
464.813;  329.291; -565.190; -304.658
465.099;  336.954;  606.807;  607.348
465.386;  262.009;  903.807;  921.348
465.672;   -4.932; -694.197; -522.645
465.959;   25.188; -598.188; -520.662
466.245;   -5.591; -468.193; -359.652
466.532;   55.057; -109.195;   63.352
466.818;   16.526; -357.186; -216.664
467.104;  -23.801; -488.182; -415.672
467.391;  -23.681; -628.189; -459.658
467.677;   31.881; -289.186;    9.335
467.964;  -18.624; -682.189; -471.660
468.250;   53.909; -331.186; -160.665
468.536;   59.820;   90.811;  180.341
468.822;  -15.802; -821.184; -574.668
469.109;  125.045;  351.827;  471.311
469.395;  195.970;  729.808;  787.346
469.681;  218.699;   46.811;  156.341
469.967; 1798.604; -699.188; -382.660
470.254; 3962.889; -494.188; -306.662
470.540; 2483.571; -601.196; -476.646
470.826;  360.863; -488.181; -397.675
471.112;  423.477;  288.816;  113.331
471.398;   94.533; -253.183;  -58.670
471.684;   40.696; -626.177; -447.680
471.970;   24.192; -918.180; -981.675
472.256;   53.694; -521.192; -441.654
472.542;   11.233; -499.171; -434.691
472.828;   15.644; -743.182; -607.672
473.114;   36.110; -380.166; -283.700
473.400;   16.666; -504.175; -293.684
473.686;   37.393; -452.166; -400.701
473.972;   51.558; -230.174; -131.687
474.258;   -6.579; -925.173; -843.689
474.544;  328.461; -183.178;   -2.679
474.830;  512.768;  -65.175;   45.316
475.116;  828.518; -123.190; -196.658
475.401; 1116.295; -558.180; -467.676
475.687;  276.369; -725.180; -718.676
475.973;   -8.221; -673.181; -770.673
476.259;  219.571;  736.825;  764.315
476.544;  529.356; -539.176; -437.682
476.830; 1385.129; -398.172; -322.690
477.116; 1235.804; -430.177; -336.682
477.401;  161.944;  346.820;  358.324
477.687;  -10.184; -289.175; -405.684
477.973;   50.883;   21.819;   28.326
478.258;  -11.358; -448.163; -348.706
478.544;   30.240;   21.815;   61.334
478.829;  -66.585; -818.171; -738.692
479.115;  -33.547; -749.172; -651.690
479.401;  -18.497; -444.174; -449.686
479.686;   58.268; -253.180;  -74.676
479.972;    0.342; -886.178; -776.680
480.257;   57.312; -258.166;  -65.700
480.542;   18.670; -614.170; -469.693
480.828;  239.539; 1288.824; 1392.317
481.113;  -30.739; -464.176; -426.683
481.399;  -20.129; -236.161; -202.711
481.684;  -41.714; -620.166; -462.700
481.969;   27.012; -158.159;  -73.713
482.255;  -13.568; -439.169; -285.695
482.540;    8.793; -569.178; -441.680
482.825;   30.421; -395.187; -404.663
483.110;  134.761;  -85.169; -105.696
483.396;  378.237; -840.157; -652.718
483.681;  760.333;  543.826;  730.313
483.966;  303.929; -696.160; -700.712
484.251;   -0.018; -404.174; -310.687
484.536;   -3.526; -356.165; -378.703
484.822;   32.786; -205.173; -218.687
485.107;  -16.442; -599.152; -502.726
485.392;  116.556;  662.836;  541.296
485.677;   62.923;  354.832;  163.302
485.962;  103.984;  160.843;  270.283
486.247;   84.527;  -14.162;   -8.707
486.532;   68.363; -178.166; -325.701
486.817;  167.089;  381.839;  431.291
487.102;  144.438; -453.154; -514.722
487.387; 1087.190; -637.156; -652.718
487.672; 1980.062; -154.164;  -38.705
487.957; 1195.547; -394.160; -286.711
488.241;  330.328; -290.150; -314.729
488.526; 1215.884; -280.152; -148.726
488.811; 1991.245; -881.177; -818.680
489.096; 1402.716; -666.154; -702.723
489.381;  708.555;    3.847;  162.275
489.666;  646.170; -428.161; -510.710
489.950;  207.994;  558.846;  627.277
490.235;  -32.178; -480.151; -458.728
490.520;  -39.581; -756.161; -723.710
490.804;  -33.908; -827.156; -736.719
491.089;   13.771; -469.149; -299.732
491.374;   40.761; -132.164;  -75.704
491.658;  -11.290; -817.147; -717.735
491.943;  118.014; -657.152; -609.727
492.227;  208.683; -178.155;  -38.721
492.512;   31.184; -294.157; -341.717
492.797;  -59.961; -713.149; -716.731
493.081;  -50.312; -588.147; -598.735
493.366;  -13.979; -751.161; -635.711
493.650;  220.277;  831.859;  917.254
493.935;   64.734; -648.147; -447.734
494.219;  -21.589; -778.142; -687.743
494.503;  -38.017; -585.150; -487.730
494.788;   49.674;   46.842;   74.285
495.072;  133.379;  184.850;  434.271
495.356;  239.000; -463.148; -343.733
495.641;  528.471; -812.146; -736.736
495.925;  475.898; -976.156; -903.719
496.209;   10.146; -599.149; -451.732
496.494;  -43.763; -763.142; -544.744
496.778;   27.313; -364.154; -360.722
497.062;  -41.328; -819.156; -627.719
497.346;   -0.425; -869.160; -640.711
497.631;  179.704;  580.852;  560.266
497.915;   74.084;  -64.145;  175.261
498.199;   28.012; -341.157; -277.718
498.483;   41.107; -562.152; -508.725
498.767;  233.731;  301.850;  300.271
499.051;  294.868; -126.149; -100.732
499.335;   73.791; -693.149; -739.731
499.619;  -36.653; -381.129; -423.767
499.903;    1.656; -272.155;  -65.721
500.187;   30.921; -588.153; -316.724
500.471;   25.689; -796.152; -595.727
500.755;   84.094;   62.839;  -96.710
501.039;    8.107; -270.155; -357.721
501.323;   54.404;  -21.141;  264.254
501.607;   10.318; -447.163; -503.706
501.891;   -7.536; -607.156; -512.718
502.174;  -39.603; -726.144; -585.741
502.458;   60.993;   89.849;  370.273
502.742;   50.157; -180.138; -191.751
503.026;  190.934; -412.147; -254.734
503.310;  319.510; -437.159; -375.713
503.593;  208.711; -464.147; -325.735
503.877;  137.105; -232.133; -156.760
504.161;  182.274;    2.847;  -50.724
504.444;  193.727; -841.158; -710.716
504.728;  770.909; -487.164; -522.704
505.012; 1106.502; -257.150;  -76.729
505.295;  799.121; -417.161; -212.711
505.579;  822.347; -256.156; -496.719
505.862; 1262.804; -555.145; -333.738
506.146; 1266.363; -681.159; -758.714
506.429;  584.139;  568.841;  461.286
506.713;  125.573; -732.151; -667.728
506.996;  475.712;   90.846;  295.278
507.280;  546.204; -633.165; -474.703
507.563;  385.454; -469.155; -261.721
507.847;  175.922; -423.153; -112.724
508.130;  189.722; -665.161; -456.711
508.413;  222.607; -758.167; -577.700
508.697;  413.332; -151.167;   12.300
508.980;  260.924; -422.153; -312.724
509.263;   33.225; -466.155; -450.720
509.547;   59.802; -124.150;   82.271
509.830;   46.699; -172.160;  140.289
510.113;  112.272;  128.844;  298.281
510.396;   51.980; -530.152; -300.725
510.680;   41.681; -818.145; -812.738
510.963;  194.042;  184.846;  180.277
511.246;  111.761; -493.150; -357.730
511.529;  300.637; -482.145;  -83.739
511.812;  626.076; -250.134;   10.241
512.095;  487.345; -740.151; -396.728
512.378;  101.216; -317.147; -245.736
512.661;   74.816; -703.137; -623.753
512.944;   87.814; -750.142; -637.744
513.227;   95.788; -170.137; -171.752
513.510;   43.347; -479.144; -671.741
513.793;   45.134; -485.140; -435.747
514.076;  152.197;  -43.127;  -39.771
514.359;  157.897; -294.149; -135.732
514.642;  140.867; -442.142; -567.744
514.925; 1152.657;  581.860;  561.253
515.208; 1664.947; -498.134; -443.758
515.491; 1062.988; -276.133; -182.761
515.773;  579.776; -410.143; -337.742
516.056; 3346.199;  249.864;  409.246
516.339; 4309.554; -754.136; -652.755
516.622; 2019.158; -518.150; -488.730
516.904;  539.860;  882.857;  975.257
517.187;  210.636; -730.138; -523.752
517.470;  430.233; -568.143; -510.743
517.752;  707.357; -624.136; -470.756
518.035;  588.796; -708.139; -725.749
518.318;  643.754; -799.136; -744.755
518.600; 4046.492; -300.132; -325.762
518.883; 5525.767;  310.858;   88.256
519.165; 2554.303; -585.138; -426.751
519.448;  431.717;  -61.132;  -19.762
519.730;  204.656; -573.126; -415.773
520.013;  239.684;  588.867;  664.240
520.295;  285.728;  -94.134;  -15.759
520.578;  616.208; -335.131; -305.764
520.860;  850.942; -254.132;   56.238
521.143;  612.359; -763.135; -584.756
521.425;  601.621; -251.125; -279.775
521.707; 1017.522; -622.127; -380.771
521.990; 2804.998; -199.127;  167.229
522.272; 3247.586; -116.140;   -4.748
522.554; 1194.177; -237.143; -157.742
522.836;  262.026;  -24.134;   99.241
523.119;  178.457; -496.148; -189.734
523.401;  192.316; -448.130; -314.766
523.683;  156.042; -865.137; -693.753
523.965;  427.409;  408.862;  260.248
524.247;  450.371;   54.878;  170.220
524.529;  324.428; -451.134; -367.759
524.812;  491.268;   -3.130;  191.234
525.094; 1395.933; -773.138; -631.751
525.376; 2193.357; -143.124;   78.223
525.658; 1360.825; -441.136; -339.754
525.940;   77.479; -805.131; -671.764
526.222;   29.480; -188.136;  -88.755
526.504;   61.276; -190.131;   32.237
526.786;   13.531; -960.133; -647.760
527.068;  103.639; -124.123;  -67.778
527.349;    9.296; -865.137; -774.754
527.631;  108.292; -137.132;   22.238
527.913;  242.571; -664.127; -450.771
528.195;  321.563; -761.125; -639.774
528.477;  404.297;  -93.134;  -30.758
528.759;  280.243; -648.130; -522.766
529.040;  154.537; -569.123; -293.778
529.322;   76.666; -235.125;  -10.774
529.604;   80.370;  -47.130;   93.233
529.886;   44.206; -546.126; -302.773
530.167;   78.311;  232.870;  192.235
530.449;   40.965;    1.853;   63.265
530.731;   82.895; -572.122; -459.779
531.012;  146.545; -513.120; -216.784
531.294;  135.042; -118.116;  -43.792
531.575;  187.096;  290.875;  538.225
531.857;  130.741; -548.135; -266.757
532.138;  116.227; -113.141;   40.254
532.420;  118.461;  294.865;  403.244
532.701;   84.584; -722.133; -751.760
532.983;  198.312;  232.867;  182.239
533.264;   43.628; -243.126;  175.228
533.546;  -42.721; -491.136; -508.755
533.827;   17.180;  173.867;   -1.759
534.109;    4.491; -352.135;  -80.757
534.390;   85.347; -725.132; -582.762
534.671;  303.786; -270.135;  -82.756
534.953;  203.640; -751.123; -611.779
535.234;   59.099; -426.117; -255.789
535.515;  -48.595; -891.119; -735.785
535.796;    5.917; -431.128; -193.770
536.078; -103.068;-1050.124; -904.777
536.359;    9.841;  -22.123;    3.221
536.640;  -12.760; -480.125; -197.774
536.921;  164.277;  225.871;  143.232
537.202;  542.154;  -87.138;  -16.751
537.483;  693.207;  251.869;  377.236
537.764;  259.786;   17.870;   98.235
538.045;  -31.129; -543.134; -371.758
538.326;  -12.371; -596.129; -447.768
538.607;   75.124; -686.127; -476.771
538.888;  267.934;   98.879;    5.218
539.169;  314.753; -704.122; -535.781
539.450;  423.600;  236.871;   16.233
539.731;  275.189; -361.121; -182.783
540.012;  142.145;  199.880;  412.216
540.293;   85.925;   82.876;  158.224
540.574;   -8.634; -895.113; -717.796
540.855;  520.687;  435.879;  377.218
541.136;  673.875;   47.878;  139.220
541.416;  386.819; -161.130; -220.766
541.697;  322.652; -274.131; -170.763
541.978; 1685.339; -270.135; -315.757
542.259; 2115.898; -211.127; -236.771
542.539;  983.034; -191.116; -186.790
542.820;  198.121;  461.875;  480.225
543.101;  138.408;  -52.145;  -77.738
543.381;   49.173; -638.127; -591.771
543.662;  368.570;  159.873; -254.771
543.942;  961.418; -751.127; -830.770
544.223; 1654.227;  193.878;  161.219
544.504; 1105.381; -275.124; -182.777
544.784;  893.055; -592.126; -408.773
545.065; 2504.239;  104.884; -254.791
545.345; 2953.180;  227.881;   14.215
545.626; 1930.040;  -14.113; -108.796
545.906; 1411.260;   77.869;   98.235
546.186;  572.636;   92.874;  -95.773
546.467;  307.809;   99.877;  -95.778
546.747;  496.159;  264.884;  327.210
547.027;  568.880;   91.876;  111.223
547.308;  564.917; -376.127; -530.770
547.588;  594.105;  299.871;  371.232
547.868;  254.736;  458.870;  588.235
548.149;  256.323;  609.885;  593.207
548.429;  242.196; -347.127; -299.771
548.709;  359.495; -645.120; -461.784
548.989;  771.517;   84.882;   88.213
549.269; 3338.940;   10.868;  139.239
549.550; 7845.139;  215.877;  117.222
549.830; 6982.237; -758.111; -556.799
550.110; 1376.496; -468.110; -320.801
550.390; 1329.446; -128.122;  -56.779
550.670; 1929.210; -868.114; -783.795
550.950; 1321.737; -509.121; -471.782
551.230;  246.207;  549.879;  460.218
551.510;   36.211; -381.121; -326.782
551.790;   86.330; -173.109; -127.803
552.070;  328.709;  940.877; 1181.223
552.350;  725.760; -492.119; -377.786
552.630;  969.630;   -2.121;   77.219
552.909;  596.014;  181.884;   73.209
553.189;  406.573;  -49.132;   33.237
553.469;  379.285; -703.119; -514.786
553.749;  360.825; -469.127; -357.772
554.029;  284.679;   33.883;  -24.790
554.308;  270.003; -154.115;  -37.794
554.588;  139.765; -196.128; -204.770
554.868;  150.763; -366.121;  -47.782
555.147;  276.499; -114.115;  -46.793
555.427;  959.217; -260.116; -250.792
555.707; 6296.647; -284.115; -200.793
555.986; 7739.916; -719.111; -538.800
556.266; 3997.133;   23.884;   72.210
556.546;  245.311; -888.121; -675.782
556.825;  436.983; -657.114; -556.794
557.105; 2931.188; -125.128;   17.230
557.384; 3442.263;  122.884;  187.209
557.664; 1344.441; -717.116; -508.792
557.943;  231.237; -557.121; -411.782
558.222;  328.370; -345.118; -344.788
558.502;  415.801; -116.115;  -76.793
558.781;  753.646;  194.885;  499.208
559.061;  674.070; -232.118; -227.788
559.340;  476.451;  302.883;  353.211
559.619; 1189.332;   93.884;  148.210
559.899; 1746.028; -239.117; -266.789
560.178; 1538.375; -778.115; -593.793
560.457; 4875.830; -623.117; -562.790
560.736; 6842.717; -472.111; -482.800
561.015; 4521.110; -500.128; -502.769
561.295;  539.404;  180.893;  215.193
561.574;  453.547;  119.885;  116.207
561.853;  697.960;  274.891;  303.197
562.132;  788.403;  -45.114;  182.206
562.411;  673.330;  396.879;  553.219
562.690;  264.245; -592.115; -458.792
562.969;  176.199;  472.888;  630.203
563.248;  562.578; 2966.878; 2487.219
563.527;  453.266; -290.111; -408.800
563.806;  690.171; -650.127; -521.771
564.085;  705.197; -297.105; -206.810
564.364;  445.632; -594.117; -405.790
564.643;  808.006; -276.121; -223.781
564.922; 3017.878;  221.890;  397.198
565.201; 3154.032; -640.109; -700.803
565.479; 1313.044; -297.115; -219.792
565.758;  573.638; -810.128; -712.770
566.037;  776.234; -155.109; -100.803
566.316;  382.963; -286.116;  -28.791
566.595;   78.072;  -17.115;  -12.793
566.873;  112.944; -166.111;  -79.801
567.152;  -26.527; -490.113; -590.797
567.431;   32.484; -113.116;    6.210
567.709;   54.879; -344.107; -212.807
567.988;  488.082; -810.114; -769.794
568.266;  878.497; -160.115;  -68.793
568.545;  659.878; -644.100; -514.819
568.824;  976.718;  160.885;  356.208
569.102;  995.407; -351.114; -235.794
569.381;  436.417; -492.116; -407.792
569.659;  -16.231; -553.113; -553.796
569.938;  121.175; -743.122; -465.780
570.216;  178.187; -225.109; -225.804
570.494;   31.661; -632.114; -572.795
570.773;   39.585;  202.879;  114.218
571.051;   43.913; -373.123; -357.778
571.330;  111.266; -221.113; -174.796
571.608;   99.974; -181.098; -173.823
571.886;  -29.340; -671.111; -581.799
572.164;  -23.387; -739.121; -621.782
572.443;   -2.799; -562.105; -512.811
572.721;   -9.795; -399.117; -289.790
572.999;  -10.377; -280.117; -168.788
573.277;  109.493;  379.894;  620.191
573.555;  477.496;   94.894;   37.190
573.834; 2294.847;  -86.117; -114.788
574.112; 2525.632;  880.893;  811.193
574.390;  794.118; -143.111;  -96.801
574.668;   35.375;  -91.112;  -61.797
574.946;   19.771; -165.106; -187.810
575.224;   21.932;   71.891;  -16.803
575.502;    2.711; -200.116; -204.791
575.780;  -78.424; -767.112; -829.798
576.058;  242.667; 1589.889; 1004.200
576.336;  -19.677; -210.110; -129.801
576.614;  -28.449; -511.112; -340.798
576.891;  151.527; -711.115; -823.794
577.169;  835.571; -158.108; -285.805
577.447;  936.906;  169.893;  202.193
577.725;  376.856;  629.888;  854.201
578.003;   36.379;  -71.112; -371.798
578.280;  158.562; -208.104; -242.812
578.558;  104.976; -450.115; -422.793
578.836;  164.436; -210.114; -145.795
579.114;   91.374; -630.112; -670.797
579.391;   79.999;   -6.117;  -18.789
579.669;  -39.347; -595.114; -704.794
579.947;  288.177; -326.107; -127.806
580.224;  585.202; -692.107; -524.806
580.502;  514.282;  127.893;   76.193
580.779;   36.731;  -42.117;   75.210
581.057;  -55.288; -584.109; -470.804
581.334;  -82.046; -726.102; -695.815
581.612;   50.047;   54.895;  511.190
581.889;   -8.005;  -83.101; -129.818
582.167;  -16.463; -298.099; -190.821
582.444;  -95.386; -845.102; -814.817
582.721;  105.290;  657.899;  715.183
582.999;  101.134; -326.100; -167.821
583.276;  971.418; -812.123; -713.779
583.553; 1242.008; -364.102; -294.816
583.831;  443.733; -607.104; -631.812
584.108;   79.994;  349.892;  174.195
584.385;   46.529; -122.102;  -98.815
584.662;  -28.481; -651.111; -828.801
584.940;   47.943;  204.889;  204.199
585.217;    2.193;  -73.113; -303.796
585.494;   49.629;   71.890;  118.198
585.771;  333.913; -250.109; -354.804
586.048;  802.543; -196.113;  -76.796
586.325;  530.422; -721.110; -773.801
586.602;  135.687;  230.896;  213.188
586.879;   29.330; -499.100; -580.820
587.156;  107.398; -156.105; -331.810
587.433;   10.686; -701.102; -667.817
587.710;  116.002;  152.888;  234.202
587.987;  443.679; -264.105; -236.811
588.264; 1148.804;  315.888;  387.202
588.541; 1940.415;  -61.104;   26.187
588.818; 4036.191;   72.892;  171.196
589.095; 3441.485; -163.104; -174.812
589.371;  574.711; -459.109; -414.804
589.648;   60.932; -581.107; -437.807
589.925;  102.037; -517.114; -621.795
590.202;   88.426; -741.112; -607.798
590.478;  159.856; -166.105;  -73.811
590.755;  410.098; -241.108; -132.806
591.032; 3847.400; -741.110; -699.802
591.308; 5414.122; -732.094; -790.831
591.585; 2819.924; -573.110; -560.802
591.862;  328.963;-1056.102; -950.817
592.138;  150.095; -475.108; -474.805
592.415;  250.138; -486.104; -495.813
592.691; 2158.411;  460.896;  518.188
592.968; 2828.151; -208.098; -123.824
593.244; 1374.984; -695.116; -595.790
593.521;  119.339; -105.102;  -42.817
593.797;   46.897; -810.122; -720.780
594.074;  523.691; -611.096; -588.826
594.350;  970.354;  828.905;  729.172
594.626;  477.194; -303.111; -283.801
594.903;  239.514; -643.101; -645.817
595.179;  278.443;  243.896;  418.187
595.455;   36.108; -136.107; -150.807
595.731;   13.869;  -19.103;  -38.814
596.008;  -23.737; -464.111; -434.800
596.284;   89.833; -187.100; -242.820
596.560;  146.554; -501.093; -493.833
596.836;  340.825; -173.105;  -70.810
597.112;  579.396; -582.108; -437.805
597.388;  456.414;  -49.097;  -48.826
597.665;  159.696;  437.887;  530.203
597.941;  -25.436; -572.089; -658.839
598.217;   59.053; -323.110; -293.802
598.493;  422.240;   61.891; -204.804
598.769;  821.301; -175.100;  -50.819
599.045;  529.099; -490.108; -562.806
599.321;  127.356; -193.100; -261.820
599.597;  263.039; -355.109; -476.804
599.872;  759.190;  409.896;  429.187
600.148;  617.965;  -61.097; -172.826
600.424;  437.905;   91.893;  202.193
600.700;  415.683; -170.107; -280.807
600.976;  243.084; -442.097; -464.825
601.252;  413.860; -226.109; -272.803
601.527;  435.916; -833.104; -840.813
601.803;  270.707; -453.105; -404.812
602.079;  305.376; -124.100; -118.819
602.354;  900.266; -620.092; -531.835
602.630; 1318.368; -140.113; -482.796
602.906; 3506.820; -910.101; -863.818
603.181;10618.685; -627.119; -534.786
603.457; 8928.213;   98.903; -278.826
603.733; 1370.165; -605.120; -626.783
604.008; 1439.747; -245.106; -164.810
604.284; 4811.391; -636.101; -580.817
604.559; 4112.756;   -3.112;  -42.799
604.835;  781.275; -163.105; -225.810
605.110;  702.163; -732.099; -892.821
605.385; 1077.632;  224.907;  267.167
605.661; 1083.158; -625.095; -729.829
605.936; 1987.350; -664.108; -737.806
606.211; 1614.377;  -17.103; -170.815
606.487;  369.581; -329.114; -376.794
606.762;  110.310; -791.119; -745.786
607.037;   21.950; -501.105; -433.810
607.313;  -13.000; -589.096; -574.828
607.588;   35.171; -375.106; -137.810
607.863;   85.170;  -28.101; -143.818
608.138;  254.302;  513.890;  516.198
608.413;  110.867; -576.099; -592.822
608.688;  117.295; -203.108; -267.805
608.964;  358.364; -509.106; -218.809
609.239;  441.822; -107.105; -212.810
609.514;  365.007;  281.895;  240.188
609.789; 1065.037; -187.104; -716.812
610.064; 1358.148; -435.096; -609.827
610.339; 1462.961; -855.109; -799.804
610.614; 1991.982; -131.100; -315.820
610.889; 1067.507;  215.895;  107.188
611.163;  111.833; -407.104; -591.812
611.438;  167.057;   81.886; -167.794
611.713;   53.841; -467.101; -499.817
611.988;  142.143; -144.101; -328.818
612.263;   51.854; -771.102; -717.815
612.538;  309.268;  385.887;  251.204
612.812;  353.258; -832.100; -911.820
613.087;  266.298; -358.098; -338.823
613.362;   -9.967; -497.107; -557.807
613.637;   66.723;  261.897;  138.186
613.911;   21.242; -256.092; -345.835
614.186;  241.156; -249.107; -292.807
614.460; 1191.203; -842.081; -758.854
614.735; 1309.117;  -55.087;  -17.843
615.010;  270.580;   43.912;  -82.841
615.284;  344.820;  360.892;  246.195
615.559;  629.390; -792.092; -955.835
615.833;  456.740;  -76.099;  -87.822
616.108;   30.654; -225.090; -390.837
616.382;  208.119;  274.913;  402.156
616.656;  274.980; -241.090; -232.837
616.931;  807.041; -785.099; -700.822
617.205; 1708.017; -973.104; -979.813
617.480; 1550.344;  -91.125;    6.225
617.754;  298.216; -396.125; -128.774
618.028;   76.806; -369.129; -382.768
618.302;  124.018;   73.892;  -25.805
618.577;   -8.001; -371.103; -518.815
618.851;  -35.819; -399.109; -600.803
619.125;  -25.172; -335.134; -378.759
619.399;   -8.908; -244.104; -374.813
619.673;  -21.132; -330.115; -515.792
619.947;  -26.689; -333.114; -448.795
620.222;   12.595; -198.110; -204.801
620.496;   20.912;  -47.121;  -96.782
620.770;   51.428; -187.122;  -93.781
621.044;  305.248;  323.895;  346.190
621.318; 1165.916; -653.120; -614.783
621.592; 1065.338; -430.121; -409.783
621.866;  657.032; -476.112; -572.799
622.140;   75.861; -207.116; -356.791
622.413;   91.637;  138.889;  112.200
622.687;   -0.784; -746.101; -492.817
622.961;   50.068; -130.108; -143.805
623.235;  -21.862; -633.111; -661.800
623.509;  -75.894; -816.105; -848.811
623.783;   24.903;  -12.107;   48.193
624.056;    6.717; -254.120; -280.783
624.330;   84.650;   63.888;   -3.797
624.604;  119.357; -271.116; -355.790
624.877;  115.401;  180.890;   26.198
625.151;  104.904; -249.114; -238.794
625.425;  -24.356; -150.103; -283.814
625.698;  -40.822; -367.119; -374.785
625.972;  -87.146; -799.110; -765.802
626.245;   90.734;  685.884;  484.210
626.519;  -50.628; -426.120; -340.784
626.792;  -17.142; -192.107; -380.807
627.066;  -72.206; -485.122; -662.779
627.339;  -66.126; -736.110; -663.802
627.613;   45.920;  351.880;  148.216
627.886;   80.131;  187.891; -612.803
628.160;    4.065;  312.880; -161.783
628.433;  -74.028; -695.125; -703.775
628.706;  -55.553; -517.120; -615.784
628.979;   30.055;  296.876;  117.223
629.253;  -35.116; -785.119; -833.786
629.526;  645.628; -334.126; -253.772
629.799;  623.363; -641.123; -479.778
630.072;  326.957; -497.128; -516.769
630.346;   -0.066;-1115.116;-1080.790
630.619;  756.609; -467.107; -545.808
630.892;  959.089;  709.889;  593.200
631.165;  495.317;  790.896;  679.187
631.438;  -14.846;-1092.112;-1055.798
631.711;   63.467;  453.877;  257.221
631.984;  -36.347; -523.117; -624.789
632.257;  -43.076; -636.117; -681.789
632.530;  -39.621; -412.119; -433.785
632.803;   34.102; -109.115;    7.207
633.076;  -63.641; -360.123; -422.777
633.349;   33.637;  173.872;  121.231
633.622;  -38.523; -187.119; -240.785
633.895; -101.983; -903.120; -823.783
634.167;  -48.244; -496.126; -525.773
634.440;   -7.983;  -19.116; -137.792
634.713;   13.808;  -22.119; -120.786
634.986;   86.900;  593.871;  453.233
635.258;  -54.975; -507.115; -597.793
635.531;  129.394;  742.882; -343.788
635.804;  -27.398; -303.117; -318.789
636.077;  -78.963; -830.116; -852.791
636.349;   48.173; -586.115; -474.793
636.622;  453.478; 1695.874; 1392.228
636.894;  409.722; -474.120; -909.784
637.167;  327.346; -836.127; -789.771
637.439;   60.041; -278.128; -213.770
637.712;  -31.595; -312.126; -293.772
637.984;  -75.862; -635.116; -707.791
638.257;  496.410;  515.877;  488.222
638.529;  890.998; -881.125; -924.776
638.802;  395.057; -508.128; -449.769
639.074;  -89.448; -927.122; -952.781
639.346;  -96.282; -942.135; -930.757
639.619;    1.215;  -79.142; -319.744
639.891;    2.169;  -83.122; -168.779
640.163;  -76.454; -689.122; -756.780
640.435;   60.849;  273.878;  103.220
640.708;   25.726;  -72.122; -132.780
640.980;   -5.922; -366.122; -362.781
641.252;  254.205;  -25.121;  -71.781
641.524; 2460.082;  580.879;  573.219
641.796; 2633.834;-1094.121; -907.782
642.068;  500.287; -191.121; -300.782
642.340;  -41.436; -486.121; -566.783
642.613;   45.591;  294.880;  323.217
642.885;  -76.757; -787.120; -878.783
643.157;    0.220; -810.120; -658.784
643.428;   74.798;  170.880;  218.216
643.700;  -66.125; -498.120; -425.784
643.972;  -36.398;  -16.119; -133.785
644.244;  -89.446; -474.119; -559.785
644.516;  -59.344; -250.119; -114.786
644.788;   58.683;  662.881;  548.214
645.060;  -29.139;  -12.119; -124.786
645.332;  -84.287; -525.118; -535.787
645.603;   30.840;  479.882;  342.213
645.875;  -58.583; -334.118; -369.787
646.147;  157.194; 1487.882; 1242.212
646.418;   -3.329; -931.117; -918.788
646.690;  318.149; -714.117; -715.789
646.962;  110.526; -413.117; -451.789
647.233;   -6.347;   15.883;   11.211
647.505;  -98.145; -595.117; -475.790
647.776;   33.707;  328.884;  229.210
648.048;   24.684; -248.116; -418.790
648.320;  -48.863; -752.116; -679.791
648.591; -148.536;-1055.116; -958.791
648.862;  -82.534; -505.116; -577.792
649.134;   22.068;  115.885;  198.208
649.405;  -14.930; -661.115; -618.792
649.677;  -23.102; -475.115; -598.793
649.948;   26.100; -181.115; -296.793
650.219;   17.177;  -37.115; -147.793
650.491;  -77.746; -431.114; -520.794
650.762; -102.794; -705.114; -731.794
651.033;  -77.567; -437.114; -424.795
651.304;  -62.014; -743.114; -728.795
651.576;  -47.862; -680.114; -645.795
651.847;  -52.060; -250.113; -140.796
652.118;  -28.983;  -32.113; -189.796
652.389;  -99.781; -639.113; -722.796
652.660;  -45.879; -147.113;  -89.797
652.931; -129.076; -897.112; -871.797
653.202;  -78.024; -382.112; -541.798
653.473;  -44.497; -633.112; -533.798
653.744;  278.980; -595.112; -590.798
654.015;  263.982; -356.112; -303.799
654.286;  -52.816; -642.111; -663.799
654.557;  -26.788; -586.111; -521.799
654.828; -136.711;-1114.111;-1088.800
655.099;  -71.109; -404.111; -291.800
655.370;  -95.782; -427.111; -543.801
655.641; -118.055; -656.110; -714.801
655.911; -100.452; -618.110; -638.801
656.182;   34.925;  437.890;  387.198
656.453;   87.277;  830.890;  746.198
656.724;  -59.971; -466.110; -426.802
656.994;  -70.169; -553.109; -568.803
657.265;  -75.242; -862.109; -873.803
657.536;  -67.339; -500.109; -377.804
657.806;  -88.562; -561.109; -593.804
658.077; -132.885; -866.109; -950.804
658.347;  -76.383; -523.108; -598.805
658.618; -108.981; -646.108; -694.805
658.888;  -17.904;  -41.108;  112.195
659.159;  -76.751; -432.108; -548.806
659.429;   11.626; -292.108; -349.806
659.700;   64.103; -435.107; -390.807
659.970;   32.155; -370.107; -359.807
660.241;   90.982; -754.107; -921.807
660.511;  792.035; -147.107; -174.808
660.781;  190.312; -793.106; -748.808
661.052;  -29.736; -222.106; -381.808
661.322;  -12.534;   21.894;   -9.809
661.592;   15.068;  257.894;  148.191
661.862;  -70.830; -369.106; -382.810
662.133;  -93.077; -551.105; -502.810
662.403; -125.650; -770.105; -676.810
662.673;  -48.048; -256.105; -213.811
662.943;  -91.521; -612.105; -551.811
663.213;    9.406;  -85.105;  -81.811
663.483;  -73.792; -593.104; -568.812
663.753;  -41.914; -194.104; -152.812
664.023;  -19.012;   68.896;  -32.813
664.293;  -59.860; -319.104; -126.813
664.563; -106.083; -694.104; -648.813
664.833; -109.531; -743.103; -608.814
665.103; -115.079; -730.103; -793.814
665.373; -114.051; -766.103; -806.814
665.643;  -45.099; -863.103; -918.815
665.913;  104.053; -534.103; -714.815
666.182;  273.955; -685.102; -719.816
666.452;  449.982;  -22.102;  -89.816
666.722;   26.460; -724.102; -784.816
666.992; -107.113; -948.102; -921.817
667.261;  -71.811; -824.102; -808.817
667.531;  259.116;  134.899;   45.183
667.801;  810.918; -440.101; -412.818
668.070;  297.420;  714.899;  697.182
668.340;  -75.102; -883.101; -840.819
668.609;  121.650;  588.900;  301.181
668.879;  -66.523; -490.100; -558.819
669.149;  -53.821; -539.100; -516.820
669.418;  -93.719; -698.100; -726.820
669.688;   -6.067; -482.100; -666.820
669.957;  164.211; -423.099; -546.821
670.226;   -3.037; -268.099; -331.821
670.496;  -93.585; -431.099; -635.822
670.765;  -70.783; -418.099; -501.822
671.034; -126.081; -872.099; -828.822
671.304;    6.521;   55.902; -111.823
671.573; -130.126;-1085.098; -957.823
671.842;  162.776; -380.098; -294.823
672.112;  102.003; -692.098; -586.824
672.381;   32.530; -239.098; -214.824
672.650; -112.193;-1005.097;-1021.825
672.919;  -64.565; -631.097; -507.825
673.188;  -83.988; -681.097; -878.825
673.457; -120.186;-1101.097;-1143.826
673.726;  -62.509; -579.096; -646.826
673.995;  -12.157; -533.096; -479.826
674.265;   14.645; -263.096; -333.827
674.534;   48.098; -183.096; -235.827
674.802;   55.825; -618.096; -703.828
675.071; 1484.352; -886.095; -801.828
675.340; 6231.954; -464.095; -339.828
675.609; 2053.281;  103.905;   82.171
675.878;  207.908; -949.095; -893.829
676.147;   74.411;  -26.095;   -8.829
676.416;  142.063; -210.094; -294.830
676.685; 1071.390; 1000.906; -622.830
676.953;  223.192; -603.094; -452.831
677.222;   -2.356; -193.094; -273.831
677.491;  -20.054;  -24.094; -127.831
677.759;   15.599;   11.907;  172.168
678.028;    3.526; -279.093; -222.832
678.297;   14.503;   71.907;  197.168
678.565; -125.370; -898.093; -944.833
678.834;  -42.118; -311.093; -268.833
679.102;  -65.565; -411.092; -391.834
679.371; -127.188; -898.092; -727.834
679.639; -127.536; -797.092; -786.834
679.908; -113.009; -794.092; -724.835
680.176; -153.707; -895.091; -941.835
680.445;  -61.280; -346.091; -352.835
680.713;  -20.752;  -58.091;  -23.836
680.982;  -78.775; -523.091; -525.836
681.250;  -94.823; -578.091; -507.837
681.518;  -86.421; -534.090; -751.837
681.787;    1.831; -204.090; -167.837
682.055;  -31.467; -490.090; -422.838
682.323; -128.639; -993.090; -992.838
682.591;   73.563; -216.090; -538.838
682.859;  168.065;    9.911;  -35.839
683.128;   34.217;  232.911;  497.161
683.396; -160.006;-1102.089;-1122.840
683.664;  -25.203; -241.089;   21.160
683.932;    2.474;  144.911;  -76.840
684.200;  -81.999; -576.088; -320.841
684.468;  -37.222;  -73.088; -124.841
684.736;  -29.245; -214.088; -175.841
685.004; -102.218;-1024.088; -982.842
685.272;    9.285; -880.088; -774.842
685.540;  -37.913; -499.087; -557.843
685.808;  -59.136; -651.087; -682.843
686.076;  -85.659; -894.087; -969.843
686.343;  -23.182; -601.087; -815.844
686.611;   74.470; -195.087; -224.844
686.879;  655.448; -530.086; -553.844
687.147; 4950.975; -483.086; -480.845
687.414; 1440.952;  -12.086; -169.845
687.682;   62.779; -658.086; -757.846
687.950;  471.181;  259.915;  263.154
688.217;   97.708; -792.085; -760.846
688.485;   37.261; -632.085; -636.847
688.753;  834.713;  -11.085; -102.847
689.020;  371.840; -820.085; -851.847
689.288;  -68.583; -853.084; -787.848
689.555;  -13.431; -195.084; -148.848
689.823;  -38.353; -241.084; -345.849
690.090;  -71.151; -546.084; -651.849
690.358; -135.274; -877.084; -897.849
690.625;   25.828;  120.917;   45.150
690.892;  -68.420; -403.083; -369.850
691.160;    5.607;   72.917;  -35.850
691.427;    4.785;  141.917;  130.149
691.694;  -97.713; -855.083; -929.851
691.962; -119.136;-1177.082;-1060.852
692.229;   39.041;  127.918;   56.148
692.496;  130.768;  130.918;  -49.852
692.763;   32.520; -164.082; -201.853
693.031;  -33.927; -739.082; -716.853
693.298;   -0.500; -509.081; -368.853
693.565;  428.052; -155.081; -163.854
693.832; 2045.879;   -5.081;   -9.854
694.099;  286.981; -643.081; -642.855
694.366;  -29.542; -882.081; -896.855
694.633;  -24.339; -920.080; -633.855
694.900;  742.363; 4367.920; -114.856
695.167;  643.440; -214.080; -380.856
695.434;  185.592; -646.080; -623.856
695.701;  236.094;  121.921;  -61.857
695.968;  690.872; -365.079; -361.857
696.234; 1182.149; -415.079; -646.858
696.501;12018.876; -776.079; -614.858
696.768; 6579.178; -554.079; -617.858
697.035;  413.280; -632.078; -667.859
697.302;   59.957; -448.078; -552.859
697.568;   25.610; -458.078; -497.859
697.835;  -18.988; -683.078; -624.860
698.102;  -16.636; -498.078; -407.860
698.368;   88.591;  384.923;  396.139
698.635;  -15.082;  -47.077; -424.861
698.901;    1.445; -240.077; -348.861
699.168;  147.798; -534.077; -456.862
699.435;  140.300;  -72.077;  -13.862
699.701;  -90.123; -868.076; -764.862
699.968;    9.754;  144.924; -441.863
700.234;  -79.669; -783.076; -822.863
700.500;  -44.741; -448.076; -539.864
700.767;   10.961;   -1.075;   26.136
701.033; -102.187;-1015.075; -963.864
701.299;  -34.785; -450.075; -483.865
701.566;  122.017;  950.925;  763.135
701.832;   43.219;  -31.075;  -76.865
702.098;  -83.353;-1054.074;-1034.866
702.365;  -52.076;-1098.074;-1030.866
702.631;   19.901;-1038.074;-1063.867
702.897; 1805.778; -765.074; -676.867
703.163; 3235.580;  348.926;  254.133
703.429;  269.632; -256.073; -273.868
703.695;   -0.865; -796.073; -792.868
703.961;   38.812; -214.073; -210.868
704.227;  -40.811; -630.073; -725.869
704.493;  142.466;  613.927;  510.131
704.759;    2.643; -565.072; -540.870
705.025;   58.620; -203.072; -194.870
705.291;   10.598; -666.072; -562.870
705.557;  212.550;  719.928;   34.129
705.823;   63.127; -742.072; -694.871
706.089;  189.204; -307.071; -326.871
706.355;  422.406; -315.071; -244.872
706.620; 5999.584; -776.071; -729.872
706.886; 9698.261; -309.071; -362.873
707.152; 1055.938; -818.070; -973.873
707.418;   32.590;-1153.070;-1186.873
707.683;   22.692; -550.070; -530.874
707.949;  -24.431; -547.070; -578.874
708.215;   27.747; -129.070; -207.874
708.480;  -17.776; -520.069; -420.875
708.746;  139.076;   68.931;   28.125
709.011;  -51.897; -578.069; -612.876
709.277;  -55.720; -538.069; -543.876
709.542;  -42.793; -428.069; -387.876
709.808;    8.485;  -59.068;   89.123
710.073;  -66.288; -577.068; -695.877
710.339;  -21.861; -242.068; -228.877
710.604;  137.541; -780.068; -845.878
710.869;  501.593; -277.068; -366.878
711.135;  -57.305; -715.067; -628.879
711.400;  -62.377; -507.067; -608.879
711.665;  -49.075; -404.067; -479.879
711.931;  -81.523; -661.067; -677.880
712.196;  -99.521; -876.067; -954.880
712.461;  196.831; -402.066; -490.880
712.726;  301.784; -727.066; -771.881
712.991;  -55.539; -647.066; -664.881
713.256;  -43.512; -350.066; -332.882
713.521;  -39.085; -417.065; -381.882
713.787;  -50.383; -454.065; -472.882
714.052;  -13.406; -214.065; -400.883
714.317;  -58.228;-1045.065; -981.883
714.581; 1181.349; -374.065; -268.883
714.846; 1872.251; -822.064; -888.884
715.111;  170.103;  261.936;  257.116
715.376;  -15.970;  -86.064; -223.885
715.641;    8.632; -365.064; -367.885
715.906;  461.035;   15.936; -551.885
716.171;  195.987;  221.937;  209.114
716.436;   69.814;  -78.063; -104.886
716.700;  -80.109; -818.063; -692.886
716.965; -100.882; -794.063; -807.887
717.230;  -64.005; -339.063; -392.887
717.494;  -22.452;  -40.062; -134.888
717.759;  -66.250; -784.062; -640.888
718.024;    0.177;  269.938;  250.112
718.288;   79.629;  685.938;  395.111
718.553; -131.619; -803.062; -977.889
718.817; -115.641; -883.061; -899.889
719.082;  -29.664; -115.061; -125.890
719.346; -125.237;-1000.061; -947.890
719.611;  -32.160; -300.061; -255.891
719.875;  -76.858; -568.060; -537.891
720.140;  -43.856; -453.060; -603.891
720.404;   85.422; -136.060; -249.892
720.668; 1260.799; -475.060; -411.892
720.933;  550.926;  146.940;  137.108
721.197;  -72.572; -667.059; -600.893
721.461;  -97.970; -851.059; -826.893
721.725;   -3.118;  -21.059; -250.894
721.990;  -47.640; -284.059; -204.894
722.254;  -20.863;  -26.059; -108.894
722.518;  -52.836; -286.058; -442.895
722.782;  -91.709; -743.058; -594.895
723.046;  166.543;  614.942;  570.105
723.310;   20.421;  374.942;  210.104
723.574;  -90.502; -654.058; -614.896
723.838; -102.700; -576.057; -642.897
724.102;  -41.898; -226.057; -239.897
724.366; -129.596;-1032.057; -978.897
724.630;  -73.194; -749.057; -571.898
724.894;  -66.816; -722.057; -514.898
725.158;   -8.139;   38.944; -295.898
725.422;  -56.287; -394.056; -327.899
725.685;  -41.810; -441.056; -349.899
725.949;  -63.283; -566.056; -519.900
726.213;  -38.981; -732.056; -811.900
726.477;  312.347;-1020.055; -933.900
726.740;  249.674; -274.055; -104.901
727.004;  438.051; -384.055; -510.901
727.268; 4073.878; -442.055; -400.901
727.531; 1308.355; -961.055; -775.902
727.795;   -5.868; -713.054; -673.902
728.059;  -37.790; -552.054; -557.903
728.322;  -41.563; -841.054; -669.903
728.586;   93.189; -692.054; -701.903
728.849;  -54.484; -695.053; -756.904
729.112; -105.232; -812.053; -912.904
729.376;  -89.729; -959.053; -905.904
729.639;  -60.627; -536.053; -536.905
729.903;  -97.500; -733.053; -699.905
730.166;  -29.723; -437.052; -399.906
730.429;   -9.021; -317.052; -468.906
730.693;  -52.894; -355.052; -894.906
730.956;  227.184;  810.948;  651.093
731.219; 1031.936; -310.052; -103.907
731.482;  234.488;-1003.051; -894.907
731.745;  248.690; -794.051; -935.908
732.009;   32.092;  -30.051;   50.092
732.272;  -80.706; -904.051; -771.909
732.535;  -18.103; -300.051; -310.909
732.798; -140.626;-1083.050;-1166.909
733.061;  -45.124; -430.050; -456.910
733.324;   30.228;   31.950; -180.910
733.587;   94.130;  290.950;  365.090
733.850;  -51.918; -973.049;-1050.911
734.113;   46.035;   33.951;   32.089
734.376;   47.462; -328.049; -447.912
734.639;  268.664; 1188.951; 1011.088
734.901;  117.541; -180.049; -402.912
735.164;  726.143; -883.048; -837.913
735.427; 1999.771; -166.048; -355.913
735.690;  194.748; -205.048; -234.913
735.952;   25.175; -923.048; -925.914
736.215;   25.277;-1113.048;-1009.914
736.478;  112.779; -771.047; -774.915
736.740;  299.331;   33.953;  129.085
737.003;  895.334; -658.047; -672.915
737.266; 6073.511;  -94.047;   46.084
737.528;  700.038; -682.047; -660.916
737.791;  457.140; -316.046; -327.916
738.053;  973.342;  465.954;  649.083
738.316;12880.744; -162.046; -136.917
738.578;10501.572; -770.046; -736.918
738.841;  623.074; -382.046; -446.918
739.103;  284.276; -875.045; -777.918
739.365;  730.953;   79.955;  -69.919
739.628;   46.355; -884.045; -805.919
739.890;   14.807; -758.045; -710.919
740.152;  -11.665; -692.044; -754.920
740.414;   17.387; -408.044; -359.920
740.677;  -19.936; -785.044; -634.921
740.939;    2.491; -587.044; -487.921
741.201;  444.418; -432.044; -572.921
741.463;  128.021; -689.043; -745.922
741.725;   33.998;  -21.043; -199.922
741.987;   77.475;  220.957;  116.078
742.249;   54.552; -751.043; -859.923
742.511;  395.779; -703.043; -794.923
742.773;   94.181; -546.042; -546.924
743.035;  165.409;  796.958;  533.076
743.297;    5.936; -963.042;-1013.924
743.559; 1076.788; -278.042; -262.925
743.821;  182.065; -735.042; -744.925
744.083;   51.592;  -44.041; -149.925
744.345;  -45.931; -869.041; -892.926
744.607;   53.772;   75.959;  122.074
744.868;  -29.226; -490.041; -554.927
745.130;  -73.074; -994.041;-1008.927
745.392;   76.978;   -1.040;  -44.927
745.653;   27.280; -411.040; -378.928
745.915;  175.333;  896.960;  631.072
746.177;   90.335;   35.960;  -43.928
746.438;   29.612; -428.040; -543.929
746.700;   13.414; -947.039; -988.929
746.961;   61.141; -659.039; -740.930
747.223;  212.818; -190.039;  -74.930
747.484;  181.471; -391.039; -471.930
747.746;  225.673;  -23.038; -106.931
748.007;  218.100; -647.038; -689.931
748.269;  452.502; -468.038; -440.931
748.530;  802.979; -852.038; -638.932
748.791;  407.531; -354.038; -420.932
749.053;  632.784;  286.963;  163.067
749.314;  667.336; -236.037; -169.933
749.575;  788.688; -945.037; -905.933
749.836; 1222.440; -217.037;   86.066
750.098; 3149.817;  -60.037;  -21.934
750.359;49855.994;  414.964;  555.066
750.620;14929.522; -121.036; -220.935
750.881; 1505.599; -585.036; -513.935
751.142; 1912.201; -950.036; -938.936
751.403;21058.403; -789.036; -705.936
751.664;11060.205;-1034.035; -999.936
751.925;  726.258; -175.035; -262.937
752.186;  416.035; -298.035; -278.937
752.447;  232.237; -590.035; -445.937
752.708;  119.964; -532.035; -648.938
752.969;   66.166; -566.034; -576.938
753.230;   44.118; -777.034; -672.939
753.491;   50.746; -650.034; -631.939
753.751;   96.548;  109.966;   19.061
754.012;  132.850;  258.967;  181.060
754.273;   86.377; -174.033;  -71.940
754.534;   66.854; -487.033; -580.940
754.794;  -65.144; -926.033; -911.941
755.055;  171.234; 1051.967;  881.059
755.316;  -15.014; -700.032; -566.942
755.576;   14.888; -606.032; -576.942
755.837;  -30.485; -527.032; -695.942
756.097;    0.042; -530.032; -564.943
756.358;  -49.831; -725.032; -770.943
756.618;   -2.778; -705.031; -641.943
756.879;   31.299; -254.031; -349.944
757.139;  -96.524;-1098.031;-1116.944
757.400;  -28.247; -538.031; -553.945
757.660;   13.655; -365.031; -401.945
757.920;   50.283; -266.030; -228.945
758.181;   27.235; -468.030; -351.946
758.441;  -75.138; -870.030; -809.946
758.701;  -17.911; -308.030; -215.946
758.961;   10.641; -220.030; -278.947
759.222;  -28.457; -574.029; -502.947
759.482;  -60.904; -683.029; -723.948
759.742;  -78.652; -706.029; -547.948
760.002;   13.000;  -83.029; -143.948
760.262;   38.377;   50.972;  182.051
760.522;  -29.821; -498.028; -574.949
760.782;  -27.519; -738.028; -612.949
761.042;  -15.141; -618.028; -573.950
761.302;   67.911;   55.972;  -18.950
761.562;   65.563; -164.027; -154.951
761.822;  162.990; -710.027; -551.951
762.082;  -19.633;-1104.027;-1093.951
762.342;   97.644; -328.027; -403.952
762.601;   85.297; -567.027; -506.952
762.861;  478.249; -281.026; -207.952
763.121;  434.176; -406.026; -411.953
763.381; 6786.503; -499.026; -485.953
763.640; 9007.005; -139.026; -307.954
763.900;  398.433; -242.026; -203.954
764.160;  109.810; -458.025; -491.954
764.419;   14.712; -726.025; -782.955
764.679;  -64.836; -795.025; -726.955
764.939;   -2.209; -124.025; -210.955
765.198;  -65.832; -608.025; -563.956
765.458;  -73.229; -710.024; -612.956
765.717;  -71.877; -454.024; -590.957
765.976;  -49.800; -428.024; -411.957
766.236;  -72.548; -475.024; -610.957
766.495;   18.504;  260.977;   73.042
766.755;  -43.444;-1090.023; -987.958
767.014;   67.659; -594.023; -665.958
767.273;  -36.139; -373.023; -397.959
767.533;  -26.437; -228.023; -307.959
767.792;  -19.810; -151.022; -188.960
768.051;  -31.883; -228.022; -276.960
768.310;  -67.105; -546.022; -650.960
768.569;   -3.278; -161.022;    4.039
768.828;  -18.626; -285.022; -363.961
769.088;  -96.449;-1050.021; -942.961
769.347;  -72.147; -755.021; -599.962
769.606;  -79.195; -876.021; -857.962
769.865; -114.142;-1016.021;-1033.963
770.124;   24.660; -411.021; -336.963
770.383;  -34.413; -778.020; -910.963
770.641;   32.139; -398.020; -400.964
770.900;  -49.134; -953.020; -846.964
771.159;  -32.682; -851.020; -951.964
771.418;   -8.004; -917.020; -779.965
771.677;  159.148; -224.019; -293.965
771.936;  172.350; -794.019; -865.966
772.194; 2016.702; -465.019; -437.966
772.453;12758.179; -213.019; -391.966
772.712;  964.731;  416.982;  329.033
772.970;  142.784;   32.982;   63.033
773.229;  103.336;  -22.018;  102.033
773.488;  -79.887; -814.018; -770.968
773.746;   52.340;  296.982;  335.032
774.005;    0.367;  190.983;  -22.969
774.263;   19.520;  243.983;  177.031
774.522;  -35.603; -422.017; -548.969
774.780;  -75.151; -484.017; -417.970
775.039;  -86.124; -551.017; -531.970
775.297;  -27.572; -135.016; -351.970
775.555;  -93.895; -489.016; -612.971
775.814; -109.142; -618.016; -570.971
776.072; -122.715; -749.016; -740.971
776.330; -100.963; -630.016; -520.972
776.589; -115.886; -703.015; -721.972
776.847; -114.409; -645.015; -624.973
777.105; -170.782;-1016.015;-1032.973
777.363;  -68.104; -459.015; -454.973
777.621; -135.252; -660.015; -717.974
777.879;  -19.475;  -42.014;   32.026
778.138;  -93.948; -554.014; -717.974
778.396;  -96.196; -585.014; -526.975
778.654; -152.444;-1015.014; -970.975
778.912;  -58.666; -269.014; -371.976
779.170; -130.889; -880.013; -803.976
779.427; -141.112; -922.013; -897.976
779.685; -138.535; -880.013; -832.977
779.943;  -47.058; -654.013; -593.977
780.201; -148.505; -964.012; -883.978
780.459; -114.278; -651.012; -610.978
780.717;  -90.601; -440.012; -390.978
780.974;  -99.274; -449.012; -490.979
781.232;  -78.947; -358.012; -338.979
781.490;  -50.970; -551.011; -472.979
781.747;  -95.142; -555.011; -476.980
782.005;   31.435;  462.989;  254.020
782.263; -165.338; -542.011;-1004.981
782.520;  -68.536; -326.011; -501.981
782.778; -142.859;-1013.010;-1051.981
783.035; -148.707; -962.010; -938.982
783.293;  -61.229; -248.010; -206.982
783.550;  -47.627; -134.010; -198.982
783.808; -122.625; -764.010; -776.983
784.065; -151.123; -745.009; -874.983
784.322;  -44.746;   25.991;  -86.984
784.580; -143.144; -915.009; -771.984
784.837; -100.916; -392.009; -466.984
785.094; -121.839; -783.009; -762.985
785.352;  -47.587; -304.008; -404.985
785.609;  -58.935; -934.008; -839.985
785.866;  -80.508; -345.008; -401.986
786.123;  -24.755; -639.008; -583.986
786.380;  -77.553; -665.008; -604.987
786.637;  -34.076; -225.007; -380.987
786.895;   37.426; -456.007; -543.987
787.152;  -39.772; -135.007; -267.988
787.409;  -36.370; -123.007; -225.988
787.666;  -76.017; -299.006; -378.988
787.923;  -97.315; -616.006; -695.989
788.179;  -95.588; -551.006; -584.989
788.436;  -98.386; -585.006; -585.990
788.693;  -27.209;  -92.006;  -87.990
788.950;  224.718; -125.005; -112.990
789.207;  446.746; -381.005; -372.991
789.464;  -45.052; -161.005; -301.991
789.720;   -2.825;  150.995;  110.009
789.977; -166.998;-1003.005; -671.992
790.234;  -19.946;   44.996;  -66.992
790.490; -155.368; -884.004;-1031.993
790.747;  -17.366;  -85.004;   22.007
791.004;   -3.214; -426.004; -348.993
791.260;  -59.237; -430.004; -560.994
791.517;  -82.435; -843.003; -788.994
791.773;  -24.633; -379.003; -342.994
792.030;  -97.430; -596.003; -660.995
792.286;  -91.078; -686.003; -636.995
792.543;  -19.226;  -74.002; -159.995
792.799;  -32.324; -584.002; -382.996
793.055; -149.747;-1179.002;-1210.996
793.312;  -74.195; -827.002; -816.997
793.568;  -61.892; -746.002; -599.997
793.824;   30.885; -226.001; -284.997
794.081;   38.287; -447.001; -508.998
794.337;   95.364; -664.001; -561.998
794.593; 1165.066; -319.001; -271.999
794.849; 7460.093; -746.001; -772.999
795.105;  447.071; -270.000; -261.999
795.361;   49.873; -490.000; -457.000
795.617;  -27.825; -875.000; -945.000
795.873;  -37.275; -360.000; -407.000
796.129;  -36.125; -368.000; -306.000
796.385;  -16.050; -124.000; -156.000
796.641;   67.400;  412.000;  550.000
796.897;  -76.400; -666.000; -635.000
797.153;   63.600;  453.000;  357.000
797.409;  -82.300; -785.000; -868.000
797.665;  -68.575; -625.000; -732.000
797.921;  -61.875; -775.000; -762.000
798.176;  -38.025; -744.000; -747.000
798.432;  -28.225; -824.000; -596.000
798.688;  -54.650;-1174.000;-1078.000
798.943;  109.350; -165.000; -147.000
799.199;   40.250;-1005.000; -959.000
799.455;  255.850;  369.000;  316.000
799.710;  174.350; -813.000; -380.000
799.966;  362.325; -162.000; -160.000
800.221;  564.450; -638.000; -721.000
800.477;11066.925; -743.000; -710.000
800.732;12423.125; -773.000; -800.000
800.988;  727.975;  205.000;  -19.000
801.243; 1470.350; -454.000; -344.000
801.498; 7878.375; -814.000; -739.000
801.754;  542.975; -289.000; -163.000
802.009;  108.400; -257.000; -335.000
802.264;  -27.050; -967.000;-1033.000
802.520;   30.750;  222.000;   -3.000
802.775;  -45.775; -524.000; -359.000
803.030;   62.525;  395.000;  356.000
803.285; -107.950; -840.000; -903.000
803.540;  -36.250; -686.000; -699.000
803.795;    1.100; -648.000; -583.000
804.051;  -25.625; -279.000; -346.000
804.306;    9.300;  168.000;  128.000
804.561;  193.500;  451.000;  362.000
804.816;  130.000;  714.000;  861.000
805.071;   32.875; -185.000; -280.000
805.325;  357.625; -257.000; -427.000
805.580;  -80.350; -841.000; -877.000
805.835;  -10.875; -204.000; -297.000
806.090;  -67.000; -760.000; -676.000
806.345;   -7.925; -344.000; -264.000
806.600;   -0.650; -549.000; -632.000
806.854;  -11.750; -408.000; -538.000
807.109;    0.175; -493.000; -577.000
807.364;   17.775; -407.000; -328.000
807.618;   27.575; -415.000; -381.000
807.873;   97.750; -470.000; -494.000
808.128;  143.050; -257.000; -518.000
808.382;  137.000; -224.000; -332.000
808.637;   99.650; -440.000; -511.000
808.891;  237.575; -257.000; -180.000
809.146;  155.900; -902.000; -794.000
809.400;  337.500; -848.000; -923.000
809.654;  445.100; -779.000; -551.000
809.909;  595.325; -841.000; -927.000
810.163; 7212.825; -813.000; -651.000
810.418;23770.650; -940.000; -861.000
810.672; 1374.200; -685.000; -690.000
810.926;  734.900; -993.000; -973.000
811.180; 1271.375; -439.000; -372.000
811.434;26901.325;  240.000;  135.000
811.689;13937.600; -231.000; -365.000
811.943;  738.350; -936.000; -953.000
812.197;  333.300; -893.000; -671.000
812.451;  131.025; -379.000; -514.000
812.705;  -12.675; -809.000; -619.000
812.959;    5.700; -263.000; -388.000
813.213;   19.650; -283.000; -209.000
813.467;   62.500;  470.000;  253.000
813.721;  -73.750; -764.000; -792.000
813.975; -101.600; -826.000; -877.000
814.229;   49.925;  430.000;  353.000
814.482;  -64.400; -517.000; -566.000
814.736; -103.875; -766.000; -744.000
814.990; -117.575; -779.000; -872.000
815.244;  -21.600; -228.000; -285.000
815.497;  -88.800; -636.000; -601.000
815.751;    1.850; -141.000;   82.000
816.005;  -83.475; -470.000; -586.000
816.258;  -60.600; -510.000; -363.000
816.512; -101.550; -693.000; -610.000
816.766;    9.050;  121.000;  157.000
817.019;   32.350;  148.000;  149.000
817.273;  -97.925;-1000.000; -802.000
817.526;  -36.150; -206.000; -173.000
817.779;   28.550;-1049.000; -960.000
818.033;  -20.750; -693.000; -807.000
818.286; -115.750; -725.000; -792.000
818.540;  -88.775; -403.000; -403.000
818.793;  -62.050; -402.000; -489.000
819.046;  -90.550; -582.000; -520.000
819.299;  -36.225; -157.000; -166.000
819.553; -115.275; -552.000; -592.000
819.806; -148.900;-1016.000; -838.000
820.059;  -51.575; -334.000; -354.000
820.312;   28.500;  152.000;  185.000
820.565;  -17.575;  110.000;  -27.000
820.818;  -30.875;  -59.000; -173.000
821.071; -153.050;-1041.000; -957.000
821.324; -101.950; -536.000; -540.000
821.577; -111.200; -457.000; -483.000
821.830;  -52.975; -270.000; -172.000
822.083; -126.475; -733.000; -288.000
822.336;  -40.900; -261.000; -167.000
822.589; -120.575; -805.000; -688.000
822.842; -130.850; -875.000; -770.000
823.094; -167.375;-1076.000;-1114.000
823.347; -113.075; -925.000; -729.000
823.600;   21.250;  402.000;  187.000
823.853;  -45.975; -311.000; -267.000
824.105;  -54.100; -331.000; -575.000
824.358;  -90.225; -617.000; -716.000
824.611;   38.825;  234.000;   40.000
824.863;  -18.325; -612.000; -591.000
825.116;   61.200;  -33.000;   27.000
825.368;  159.475; -366.000; -372.000
825.621;  251.475; -186.000; -240.000
825.873;  153.050; -704.000; -737.000
826.126;  669.900; -669.000; -641.000
826.378;13927.725; -389.000; -505.000
826.630; 4600.825; -890.000; -898.000
826.883;  123.900; -754.000; -693.000
827.135;   91.050; -279.000; -270.000
827.387;  -86.500; -893.000; -839.000
827.639;  -32.300;  -86.000;   32.000
827.892; -105.875; -742.000; -582.000
828.144; -124.025; -848.000; -804.000
828.396;  -30.500;  104.000;  -80.000
828.648;  -95.700; -440.000; -333.000
828.900; -138.425; -702.000; -795.000
829.152; -105.075; -684.000; -683.000
829.404;  -41.475; -215.000; -267.000
829.656;  -10.650;  321.000;  214.000
829.908;  -18.250;  393.000;  229.000
830.160; -159.425;-1064.000;-1047.000
830.412;  -80.100; -481.000; -430.000
830.664; -125.000; -557.000; -665.000
830.916;  -65.775; -268.000; -206.000
831.167; -169.575;-1073.000; -951.000
831.419; -111.075; -623.000; -566.000
831.671; -148.500; -764.000; -809.000
831.923;  -86.825; -311.000; -447.000
832.174;  -67.100; -273.000; -331.000
832.426; -111.375; -493.000; -582.000
832.678; -174.100;-1043.000;-1091.000
832.929; -151.350; -947.000; -935.000
833.181;  -26.675; -575.000; -677.000
833.432;  -48.400;  -59.000; -186.000
833.684;  -29.100;  112.000;  -27.000
833.935; -106.025; -610.000; -566.000
834.187; -127.550; -829.000; -823.000
834.438;  -43.225;  -58.000;  -25.000
834.689;  -47.300; -255.000; -123.000
834.941;  -46.000; -343.000; -244.000
835.192;  -88.250; -590.000; -533.000
835.443;  -73.900; -419.000; -506.000
835.695;  -14.475;  138.000;  -16.000
835.946;  -86.275; -608.000; -378.000
836.197;  -85.675; -599.000; -622.000
836.448;  -70.625; -528.000; -395.000
836.699;  -45.800; -253.000; -341.000
836.950;    4.550;   72.000;    7.000
837.201; -140.100;-1003.000; -987.000
837.452;  -26.425; -356.000; -170.000
837.703;  -94.450; -791.000; -737.000
837.954;  -23.100; -205.000; -365.000
838.205;  -60.300;-1029.000;-1008.000
838.456;  276.225; -196.000; -282.000
838.707;   47.075; -423.000; -519.000
838.958;   58.425; -634.000; -647.000
839.209;  436.625;   18.000;   40.000
839.460;  187.325; -439.000; -201.000
839.710;  228.075; -135.000; -297.000
839.961;  545.850;  730.000;  612.000
840.212;  450.800; -382.000; -497.000
840.462; 1322.925; -328.000; -277.000
840.713;20732.300; -571.000; -536.000
840.964;10924.575;  -62.000; -143.000
841.214;  731.900; -384.000; -624.000
841.465;  765.800; -214.000; -141.000
841.715;  710.250; -417.000; -380.000
841.966;  903.675; -746.000; -685.000
842.216; 9689.450; -330.000; -431.000
842.466;46634.950; -169.000; -313.000
842.717; 3503.650; -964.000; -952.000
842.967;  455.000; -635.000; -641.000
843.217;  398.025;   20.000;   28.000
843.468;  127.875; -104.000; -132.000
843.718;   12.100; -718.000; -726.000
843.968;  -52.050; -837.000; -765.000
844.218;   71.250; -315.000; -262.000
844.469;  -13.250; -577.000; -561.000
844.719;  -88.975; -537.000; -682.000
844.969;  -71.125; -550.000; -580.000
845.219; -135.025; -814.000; -862.000
845.469;  -57.400; -392.000; -342.000
845.719; -120.150; -792.000; -884.000
845.969;   -4.375;  119.000;  174.000
846.219; -106.125; -738.000; -720.000
846.469;   35.900;  464.000;  432.000
846.718;  -44.700; -115.000;   31.000
846.968; -111.975; -827.000; -827.000
847.218;  -46.300; -224.000; -371.000
847.468;   25.000; -586.000; -555.000
847.718; -137.075; -827.000; -798.000
847.967; -122.475; -826.000; -915.000
848.217;  -81.750; -449.000; -569.000
848.467;  -54.025; -405.000; -376.000
848.716;  -99.900; -708.000; -725.000
848.966;   50.100; -372.000; -358.000
849.215;  -46.275; -428.000; -419.000
849.465;  -76.600; -785.000; -615.000
849.714; -118.850;-1132.000;-1150.000
849.964;  -47.925; -551.000; -613.000
850.213;   -0.750; -393.000; -355.000
850.463;  110.700;  137.000;  340.000
850.712;   31.900; -542.000; -567.000
850.961;   66.550; -739.000; -678.000
851.211;  144.550; -513.000; -504.000
851.460;  260.025; -635.000; -650.000
851.709;  667.150;  -25.000;   18.000
851.958;11485.075; -912.000; -750.000
852.208;18197.500; -859.000; -879.000
852.457;  726.775; -181.000;  -13.000
852.706;  118.025; -791.000; -823.000
852.955;   83.675; -507.000; -528.000
853.204;  -51.675; -521.000; -461.000
853.453;  -56.400; -418.000; -458.000
853.702; -127.575; -660.000; -750.000
853.951;  -85.875; -532.000; -520.000
854.200;  -92.050; -613.000; -562.000
854.449; -123.375; -695.000; -661.000
854.698;  -85.425; -340.000; -279.000
854.946;  -52.975; -181.000; -284.000
855.195; -161.625; -843.000; -868.000
855.444;  -80.325; -395.000; -420.000
855.693; -110.575; -345.000; -432.000
855.941;  -90.425; -387.000; -516.000
856.190;  -50.600; -256.000; -382.000
856.439; -118.725; -652.000; -703.000
856.687;  -54.125;  -99.000;  -72.000
856.936;  -99.900; -621.000; -323.000
857.184; -192.725;-1067.000;-1020.000
857.433; -102.700; -423.000; -512.000
857.681; -156.850; -989.000; -953.000
857.930;  -66.250; -282.000; -433.000
858.178; -167.325; -856.000; -929.000
858.427; -146.250; -802.000; -781.000
858.675; -120.625; -377.000; -544.000
858.923; -114.450; -527.000; -819.000
859.172; -175.175;-1094.000;-1070.000
859.420;  -80.925; -339.000; -239.000
859.668; -133.775; -624.000; -628.000
859.916;  -15.725;  109.000;  115.000
860.164; -104.075; -699.000; -603.000
860.413;  441.350; -878.000; -696.000
860.661;  497.725; -709.000; -577.000
860.909;  -71.375; -339.000; -325.000
861.157;  -93.075; -277.000; -444.000
861.405; -118.525; -534.000; -670.000
861.653;   18.900;  310.000;  310.000
861.901;  304.575; -543.000; -613.000
862.149;  108.875; -801.000; -824.000
862.396;  -70.625; -297.000; -187.000
862.644;  -92.275; -368.000; -347.000
862.892;  -29.650;   98.000;  138.000
863.140; -124.275; -549.000; -530.000
863.388; -157.750; -815.000; -759.000
863.635; -123.200; -642.000; -601.000
863.883;  -17.275;  231.000;  190.000
864.131; -100.900; -288.000; -357.000
864.378; -121.700; -675.000; -540.000
864.626; -103.950; -347.000; -415.000
864.873; -120.625; -556.000; -505.000
865.121; -142.750; -714.000; -799.000
865.368;  -58.075; -173.000;   75.000
865.616;  -42.725;  -33.000;  -40.000
865.863;  -60.600; -462.000; -506.000
866.111; -109.725; -795.000; -824.000
866.358;   51.775; -426.000; -420.000
866.605; 2123.800;  -64.000; -804.000
866.853; 2893.625; -621.000; -537.000
867.100;  -12.350; -728.000; -775.000
867.347;  -87.475; -672.000; -611.000
867.594;  -71.825; -740.000; -714.000
867.841;  145.500;   97.000;   17.000
868.089; -143.475; -746.000; -698.000
868.336; -111.100; -477.000; -420.000
868.583; -138.325; -637.000; -741.000
868.830;  -50.850; -131.000; -170.000
869.077; -155.325; -859.000; -787.000
869.324; -122.975; -502.000; -458.000
869.571; -123.025; -398.000; -430.000
869.818; -120.975; -485.000; -439.000
870.065;  -97.550; -439.000; -513.000
870.311;  -96.300; -456.000; -542.000
870.558; -109.075; -332.000; -311.000
870.805;  -69.500; -320.000; -384.000
871.052; -103.425; -494.000; -369.000
871.298;  -46.675; -204.000; -131.000
871.545;  -74.975; -151.000; -185.000
871.792;  -83.325; -173.000; -222.000
872.038;  -63.825;   43.000; -126.000
872.285; -116.375; -496.000; -387.000
872.532; -106.600; -357.000; -387.000
872.778;   22.200;  556.000;  403.000
873.025;  -89.075; -384.000; -359.000
873.271;   13.825;  501.000;  578.000
873.517;  -17.425; -133.000; -209.000
873.764;   -7.550; -193.000;  -80.000
874.010;  -66.100; -143.000; -230.000
874.257;  -36.150;  123.000;   90.000
874.503; -138.650; -579.000; -479.000
874.749;  -54.275;   31.000;  275.000
874.995;  -73.550;  -80.000;  -20.000
875.242; -107.775; -540.000; -478.000
875.488; -109.450; -414.000; -439.000
875.734;  -57.950; -106.000; -234.000
875.980;  323.675; -872.000;-1032.000
876.226;  679.875; -157.000; -255.000
876.472;    3.400;  343.000;  237.000
876.718;  -50.775;  184.000;  158.000
876.964;  -43.400;   56.000;   55.000
877.210; -132.425; -547.000; -677.000
877.456; -138.375; -630.000; -557.000
877.702; -166.725; -821.000; -832.000
877.948; -113.050; -377.000; -497.000
878.193;   11.200;  361.000;  255.000
878.439;  -77.725; -487.000; -472.000
878.685; -103.700; -272.000; -343.000
878.931; -126.950; -618.000; -676.000
879.176;  -78.500; -201.000; -201.000
879.422; -181.300; -933.000; -820.000
879.668;   49.550;   10.000;   79.000
879.913;  247.525;   53.000;  137.000
880.159;  -39.000; -112.000;  -17.000
880.404;  -39.825; -152.000; -162.000
880.650;  -29.950;   91.000;  141.000
880.895; -161.000; -670.000; -710.000
881.141; -123.175; -454.000; -428.000
881.386; -136.425; -503.000; -658.000
881.631;  -86.500; -311.000; -166.000
881.877;  -27.875;  112.000;  -13.000
882.122; -135.025; -684.000; -600.000
882.367;  -86.950; -136.000; -186.000
882.612;  -61.700;  -80.000; -176.000
882.858; -178.125; -877.000; -823.000
883.103; -100.100; -297.000; -267.000
883.348; -140.700; -759.000; -852.000
883.593; -130.750; -677.000; -602.000
883.838;  -50.475; -311.000;  -24.000
884.083;   63.625;  353.000;  288.000
884.328;  -86.225; -564.000; -545.000
884.573;  -37.500; -196.000; -143.000
884.818;  305.425; -694.000; -531.000
885.063;  405.525; -348.000; -315.000
885.308; -100.100; -475.000; -398.000
885.553;  -14.525;  245.000;  325.000
885.797; -128.000; -545.000; -615.000
886.042;  -59.550;    8.000;   58.000
886.287; -101.675; -253.000; -211.000
886.532;  -49.125;   26.000;  204.000
886.776; -108.400; -407.000; -525.000
887.021; -148.375; -621.000; -574.000
887.265; -155.475; -685.000; -689.000
887.510; -126.375; -557.000; -496.000
887.755;  -96.725; -194.000; -164.000
887.999; -133.550; -552.000; -575.000
888.244;  -54.725;  -58.000;  161.000
888.488;  -12.225;  371.000;  393.000
888.732; -137.825; -368.000; -520.000
888.977; -120.300; -622.000; -567.000
889.221; -145.350; -683.000; -659.000
889.465; -108.500; -422.000; -566.000
889.710;  -74.600;  -56.000; -299.000
889.954;   -1.550;  579.000;  467.000
890.198; -149.775; -584.000; -707.000
890.442; -140.075; -716.000; -712.000
890.687; -170.025; -800.000; -753.000
890.931;  -97.625; -273.000; -210.000
891.175; -138.700; -502.000; -500.000
891.419;  -76.525; -105.000; -110.000
891.663;  -91.175; -239.000; -112.000
891.907; -158.050; -801.000; -545.000
892.151; -166.475; -920.000; -815.000
892.395; -111.875; -274.000; -387.000
892.638;  -25.975;  408.000;  291.000
892.882; -174.300; -780.000; -867.000
893.126;   14.775;  758.000;  558.000
893.370;  -80.100; -167.000; -168.000
893.614; -142.275; -714.000; -715.000
893.857; -103.875; -183.000; -197.000
894.101; -149.400; -527.000; -631.000
894.345;  -55.050;  300.000;  150.000
894.588;    2.000;  569.000;  380.000
894.832;  -84.350; -178.000;  -84.000
895.075;  -78.775;   15.000;  -92.000
895.319; -121.875; -552.000; -420.000
895.563; -112.350; -413.000; -353.000
895.806; -133.550; -628.000; -741.000
896.049;  -52.400; -576.000; -368.000
896.293;  150.175;  527.000;  405.000
896.536;  -42.800; -465.000; -468.000
896.779;  -47.575; -149.000;   -1.000
897.023; -135.825; -751.000; -714.000
897.266;  -20.625;  325.000;  269.000
897.509; -178.125; -900.000; -901.000
897.752;  -34.575;  149.000;  171.000
897.996; -196.000; -972.000; -864.000
898.239;  -49.850;  168.000;  102.000
898.482; -119.525; -431.000; -453.000
898.725;  -20.800;  101.000;   53.000
898.968; -142.600; -609.000; -744.000
899.211; -106.775; -513.000; -361.000
899.454; -101.375; -633.000; -539.000
899.697;  -56.150;   90.000;  -43.000
899.940; -162.550; -761.000; -757.000
900.182; -100.325; -335.000; -405.000
900.425;  -92.450; -150.000; -298.000
900.668;  -20.100;  491.000;  350.000
900.911; -102.925; -292.000; -345.000
901.154;  -43.600;  141.000;   -3.000
901.396; -142.450; -407.000; -412.000
901.639; -141.700; -430.000; -496.000
901.882; -177.275; -790.000; -809.000
902.124;  -84.450;  -29.000; -143.000
902.367; -135.775; -315.000; -361.000
902.609; -128.150; -476.000; -453.000
902.852;  -91.675; -108.000; -260.000
903.094; -117.975; -458.000; -337.000
903.337;  -57.300;  -26.000;   53.000
903.579; -101.300; -228.000; -441.000
903.821; -145.825; -597.000; -744.000
904.064;  -46.625;   85.000;  127.000
904.306;  -94.075; -126.000; -166.000
904.548;  -89.975; -152.000; -366.000
904.790; -104.400; -195.000; -340.000
905.033; -127.825; -625.000; -577.000
905.275; -122.700; -513.000; -524.000
905.517;   66.925;  468.000;  256.000
905.759;  -10.575; -667.000; -761.000
906.001;  -82.875; -322.000; -369.000
906.243;  -45.375; -162.000; -224.000
906.485;  185.325; -265.000; -207.000
906.727;  277.125; -499.000; -542.000
906.969;    4.150;  -30.000; -135.000
907.211;  198.700; -316.000; -382.000
907.453;  467.825; -188.000; -237.000
907.695;   91.500; -158.000; -385.000
907.936;   42.150;  818.000;  706.000
908.178;  -67.850;   92.000; -135.000
908.420;  -73.725; -111.000; -162.000
908.662; -139.875; -633.000; -682.000
908.903;  -72.400; -208.000; -123.000
909.145;  -58.525; -240.000; -305.000
909.386;   11.300;  315.000;  280.000
909.628;   36.450;  363.000;  397.000
909.870;    1.975;   29.000;  264.000
910.111;  -81.050; -809.000; -949.000
910.353;   17.825; -123.000; -161.000
910.594;    4.400; -574.000; -606.000
910.835;   84.500; -265.000; -326.000
911.077;  160.375; -503.000; -604.000
911.318;  309.250; -505.000; -471.000
911.559;  484.025; -577.000; -880.000
911.801; 1310.675; -284.000; -280.000
912.042; 9345.575;  -50.000; -159.000
912.283;28816.100;  404.000;  371.000
912.524; 5626.100; -396.000; -457.000
912.765;  573.925; -193.000;   79.000
913.006;  253.625; -307.000; -338.000
913.247;   89.825; -270.000; -290.000
913.488;    2.100;  -43.000;   30.000
913.729;  -59.750; -373.000; -373.000
913.970;  -48.400;  -96.000; -292.000
914.211;  -53.675; -160.000; -198.000
914.452;  -61.825; -118.000;  -11.000
914.693;   25.050;  510.000;  592.000
914.934;   12.975;  510.000;  440.000
915.175;  -42.925;   53.000;  -95.000
915.415;  -71.625; -137.000;   27.000
915.656;  -72.100;  -28.000;  192.000
915.897;  -84.200; -252.000;  -82.000
916.137;  -66.625;   74.000;   -9.000
916.378; -132.325; -573.000; -517.000
916.619;  -84.725; -159.000;  -63.000
916.859;  -36.150;  303.000;  330.000
917.100;  128.025; 1655.000; 1070.000
917.340;   57.050;  930.000;  728.000
917.581;   58.800;  965.000;  789.000
917.821;    0.600; -171.000;  143.000
918.061;   71.125; -199.000;  -72.000
918.302;  -31.500; -152.000; -211.000
918.542;   -7.650;  -22.000;    3.000
918.782;   57.600;  369.000;  377.000
919.023;  178.500;  360.000;  427.000
919.263; 1896.650; 8131.000;  202.000
919.503; 1700.100; -137.000;  -54.000
919.743;  928.650;  390.000;  266.000
919.983;  485.575; -134.000;  -26.000
920.223;  112.525;  135.000;   14.000
920.463;  186.025;  631.000;  554.000
920.703;  161.550;   84.000;   39.000
920.943;  212.200; -110.000;   90.000
921.183;  309.900; -414.000; -405.000
921.423;  587.825;  307.000;  546.000
921.663;  863.700; -174.000; -257.000
921.903; 1788.400;  237.000;  173.000
922.143; 9233.050;  372.000;  389.000
922.383;38068.375;  158.000;  115.000
922.622;16339.100; -120.000;  -15.000
922.862; 1669.925;  796.000;  785.000
923.102;  605.300;  -51.000;   33.000
923.341;  279.700;   59.000;   74.000
923.581;  113.825;  450.000;  360.000
923.821;   47.225;  301.000;  398.000
924.060;   31.500;  351.000;  193.000
924.300;  -34.575;  -16.000; -128.000
924.539;   -1.925;  584.000;  473.000
924.779;   22.025;  812.000;  597.000
925.018;  -53.925;  247.000;  353.000
925.257;   -8.400;  595.000;  666.000
925.497;  -32.200;  447.000;  412.000
925.736;  -66.400;  -35.000;  102.000
925.975;    5.550;  687.000;  669.000
926.214;   27.350;  907.000;  850.000
926.454;    9.850;  706.000;  757.000
926.693;  -24.000;  419.000;  543.000
926.932;   29.525; 1021.000;  825.000
927.171;   66.875; 1107.000; 1044.000
927.410;   54.750; 1144.000;  967.000
927.649;   24.800;  924.000;  742.000
927.888;   -1.175;  590.000;  564.000
928.127;   11.100;  680.000;  678.000
928.366;   37.350;  842.000;  826.000
928.605;   27.675;  831.000;  737.000
928.844;  268.975; 1451.000; 1393.000
929.083;  798.250;  770.000;  613.000
929.321;  487.225; 1335.000; 1359.000
929.560;  108.275; 1158.000; 1122.000
929.799;  -21.625;  574.000;  475.000
930.038;   82.250; 1025.000; 1394.000
930.276;  -45.975;  334.000;  397.000
930.515;   -0.700;  827.000;  681.000
930.753;  -18.100;  614.000;  589.000
930.992;  -12.900;  664.000;  717.000
931.230;   -4.625;  847.000;  847.000
931.469;  176.075; 2162.000;  892.000
931.707;   60.925;  840.000;  751.000
931.946;   73.425; 1278.000; 1344.000
932.184;   46.750; 1437.000; 1175.000
932.423;   57.250; 1265.000;  963.000
932.661;  111.325; 1296.000; 1428.000
932.899;   58.200;  987.000;  821.000
933.137;   24.225;  754.000;  564.000
933.376;  179.325; 1664.000; 1335.000
933.614;  189.525; 1759.000; 1196.000
933.852;   57.875; 1357.000; 1171.000
934.090;  137.850; 1722.000; 1747.000
934.328;  108.525; 1252.000; 1457.000
934.566;   90.875; 1431.000; 1110.000
934.804;  160.225; 1263.000; 1309.000
935.042;  458.700; 1861.000; 1850.000
935.280; 1881.200; 2088.000; 2063.000
935.518; 2105.775; 2113.000; 2007.000
935.756;  470.450; 2481.000; 2316.000
935.994;  195.225; 1808.000; 1751.000
936.231;  379.350; 2890.000; 2950.000
936.469;  213.000; 2367.000; 2378.000
936.707;  184.200; 2220.000; 2167.000
936.945;  229.800; 2825.000; 2882.000
937.182;  216.225; 2679.000; 2741.000
937.420;  314.850; 3602.000; 3031.000
937.657;  469.350; 3365.000; 3478.000
937.895;  404.675; 3331.000; 3488.000
938.133;  313.875; 3540.000; 3528.000
938.370;  348.800; 3896.000; 4191.000
938.607;  404.225; 4488.000; 4205.000
938.845;  517.150; 5587.000; 5549.000
939.082;  477.975; 5387.000; 5177.000
939.320;  527.050; 5799.000; 5728.000
939.557;  640.975; 6549.000; 6491.000
939.794;  703.525; 7285.000; 7097.000
940.031;  932.400; 8421.000; 8368.000
940.269; 1193.450; 9552.000; 9107.000
940.506; 1154.200;10901.000;10507.000

