
Integration time [ms]: 100.000
Averaging Nr. [scans]: 40
Smoothing Nr. [pixels]: 0
Data measured with spectrometer [name]: 2101013U2
Wave   ;Sample   ;Dark     ;Reference
[nm]   ;[counts] ;[counts] ;[counts] 

394.013;   45.379; -450.257; -315.536
394.305;  172.126; -461.258; -419.536
394.596; 1570.226; -676.269; -527.514
394.887; 4192.771; -796.268; -654.518
395.178; 1491.733;  145.736;   11.476
395.470;   82.547; -210.263; -356.526
395.761;  129.239;  305.734;  394.479
396.052;  108.173; -545.284; -306.489
396.343;   86.759; -557.276; -454.503
396.634;   38.245; -200.279; -290.497
396.926;    5.443; -618.268; -565.517
397.217;   66.014;   11.725;  -17.504
397.508;   12.583; -366.273; -154.507
397.799;   24.320; -555.279; -571.497
398.090;    2.864; -973.280; -902.495
398.381;   76.657;   11.708;  -11.473
398.672;  -15.016; -585.292; -742.473
398.963;   34.653; -348.279; -373.498
399.254;   89.969;   54.709; -209.475
399.545;  -15.515;-1017.266; -883.520
399.836;   28.045; -407.277; -343.501
400.127;   33.503; -205.295; -209.468
400.418;   22.177; -423.274; -392.506
400.709;   33.423; -359.281; -333.493
401.000;   44.549; -268.291; -309.476
401.290;   93.751;  225.698;  115.545
401.581;   58.427; -166.286; -228.485
401.872;   29.344; -542.298; -486.462
402.163;   57.944; -313.296; -252.467
402.454;   88.620; -123.291; -163.475
402.744;   32.233; -844.297; -813.465
403.035;  246.146; -226.293;  -86.471
403.326;  306.987; -366.292; -384.474
403.617;  319.487;  204.701;  165.539
403.907;  358.255; -593.283; -679.490
404.198; 3674.195; -545.307; -599.446
404.489; 9244.286; -618.283; -588.491
404.779; 2600.880; -618.302; -660.456
405.070;  283.904;  -67.304; -174.451
405.360;  485.124; -259.293; -238.472
405.651;  480.644;  125.699;   98.542
405.942;  161.397;  209.714;  127.516
406.232;   81.039; -432.285; -413.487
406.523;  250.115;  641.706;  758.530
406.813;   44.374; -579.286; -644.484
407.104;  200.381;  261.708;  144.527
407.394;   66.914; -604.299; -591.462
407.685;  143.763;  336.715;  222.513
407.975;   59.285; -400.283; -382.490
408.265;  126.463; -134.289; -190.478
408.556;   68.317; -472.291; -459.475
408.846;  161.441;  474.706;  429.530
409.137;  113.198;   -1.288; -216.480
409.427;   81.214; -193.285; -271.487
409.717;   55.362; -776.273; -692.508
410.007;  154.606;    4.715; -170.486
410.298;  114.256; -360.295; -342.469
410.588;  109.361; -495.285; -510.486
410.878;   52.162; -792.287; -873.482
411.168;  129.222; -481.298; -478.463
411.459;  131.603; -295.283; -242.489
411.749;   84.115; -609.292; -507.474
412.039;   83.421; -755.289; -386.480
412.329;  223.562;   40.722;  132.501
412.619;  216.325;  -62.286; -148.485
412.909;  370.641;  639.711;  594.521
413.199;  316.439; -130.280; -251.495
413.490;  399.405;  521.710;  352.523
413.780;  207.819;-1013.279; -913.496
414.070;  398.260;  -46.276;  235.497
414.360;  411.632; -729.278; -666.498
414.650;  536.157; -726.288; -688.482
414.940;  746.043; -538.280; -441.496
415.230; 1253.778;   50.712;   74.519
415.520; 8602.950;  155.730;   66.486
415.809;34815.897; -305.281; -125.493
416.099;26149.598; -388.277; -229.501
416.389; 7877.724;  435.726;  236.494
416.679; 4479.101;   91.738;   85.473
416.969;  782.342; -527.287; -503.483
417.259;  644.746;  341.721;  171.503
417.549;  908.371;  522.718;  318.508
417.838; 2453.671; -205.268; -147.518
418.128; 8408.636;  650.710;  492.522
418.418; 6853.995; -491.272; -579.509
418.708; 4545.949;    9.726;  -48.506
418.997;17992.719; -474.275; -480.505
419.287;18249.782; -733.273; -790.507
419.577;17900.977; -160.283; -123.489
419.866;57296.695; -588.277; -498.501
420.156;55702.845; -242.270;  -55.513
420.446; 9259.792; -112.263;  -26.526
420.735;  891.363; -376.271; -446.512
421.025;  898.181; 1830.722;  315.502
421.314;  554.135; -203.271; -226.512
421.604;  691.762;   89.732;  233.484
421.893;  430.106; -705.271; -602.511
422.183;  292.943; -487.263; -461.526
422.472;  406.408;  -36.271; -107.511
422.762;  407.317; -416.266; -379.521
423.051;  267.260; -916.276; -916.503
423.341;  343.410; -491.273; -439.507
423.630;  418.750; -121.265;   15.477
423.919;  421.768;   58.725;   49.495
424.209;  487.574;  -31.263;   56.473
424.498;  630.867;   68.732;  161.483
424.787; 1508.275; -535.267; -601.518
425.077; 4362.098;   34.735;   29.478
425.366; 4758.031; -734.262; -744.528
425.655;13659.610;  639.727;  259.493
425.945;35236.788; -313.247; -268.554
426.234;18499.609;  117.741;  300.467
426.523; 7308.715;  -86.259; -350.534
426.812; 9959.037;  107.734;  159.480
427.101;15120.632; -127.269; -323.515
427.390;17663.175;  -55.270;  -86.514
427.680; 2503.589; -624.257; -411.538
427.969;  517.227; -330.255; -301.540
428.258;  366.154; -385.257; -477.536
428.547;  525.950;  449.728;  397.490
428.836;  736.222; -421.253; -398.543
429.125; 1027.417; -199.259;  -72.534
429.414;  794.074; -330.251; -294.548
429.703; 4573.024; -231.251; -213.548
429.992;14242.354; -938.250; -828.549
430.281; 8946.159; -397.264; -331.524
430.570;  620.213;  -21.252;   32.454
430.859;  450.064;  279.741;  352.466
431.148;  431.383;  636.752;  631.446
431.437;  322.737;  391.748;  367.454
431.725;  212.406; -544.257; -481.536
432.014;  227.881; -845.253; -756.545
432.303;  439.350; -149.239; -105.569
432.592;  567.817; -460.263; -178.525
432.881; 1459.909; -601.248; -437.554
433.169; 9662.953; -343.255;  -61.540
433.458;19510.516;  445.765;  540.424
433.747; 7604.013; -397.261; -289.529
434.036;  935.171; -275.242; -280.564
434.324; 2963.219; -395.249; -379.551
434.613; 5300.413;   40.757;  159.437
434.902; 1545.088;  333.760;  439.433
435.190;  286.174;   75.761;  295.431
435.479;  183.841;  -52.245;   83.441
435.767;   96.051; -411.244; -427.561
436.056;  219.416; -340.242; -294.563
436.345;  490.891; -372.240; -223.568
436.633;  445.338;   60.750;  383.450
436.922;  209.344;  208.760;  414.432
437.210;  236.204; -194.236;    1.426
437.499;  494.189; -583.235; -432.576
437.787;  578.279; -339.236;  -10.574
438.075;  182.980;   56.761;  162.430
438.364;  219.584;  -44.238;  250.429
438.652;  107.211; -286.226; -138.592
438.941;   88.742;    3.770;  269.415
439.229;   -8.466; -665.252; -466.545
439.517;   39.249; -160.234;  -85.577
439.806;    2.805; -501.225; -290.595
440.094;  125.083;  377.766;  650.421
440.382;   49.238; -653.233; -302.580
440.670;   48.513; -361.235; -285.576
440.959;   -1.524; -347.223; -170.599
441.247;   51.381; -151.229; -109.587
441.535;   59.797; -266.235;   31.423
441.823;    4.680; -497.234; -305.578
442.111;  169.461;  173.771;  327.412
442.400;  302.990; -628.245; -335.559
442.688;  538.908; -111.234; -620.579
442.976;  258.258; -786.213; -450.617
443.264;   52.913; -324.224; -364.597
443.552;   46.637; -258.226;   51.408
443.840;  133.695;  602.765;  876.423
444.128;  107.137;  265.767;  269.420
444.416;    0.714; -694.228; -312.588
444.704;   34.262; -465.219;  -92.605
444.992;   54.166;   -0.226;  240.407
445.280;   15.493; -517.230;  -94.585
445.568;   -0.813; -694.212; -396.618
445.856;  143.443; -174.221;  357.398
446.143;  254.308;  -54.220;   -7.604
446.431;  245.044;  -25.228;  625.411
446.719;  147.411;  489.783;  675.391
447.007;  159.236;  481.769;  705.416
447.295;  163.048;  597.777;  871.402
447.583;   87.078; -464.229;  -34.587
447.870;  112.264; -434.221; -202.601
448.158;  230.591; -104.230;  129.415
448.446;  145.934; -800.219; -338.604
448.733;  146.440;   13.776;  269.403
449.021;  198.562;   60.788;  341.382
449.309;  186.855; -296.210;  208.379
449.596;  227.881;  128.783;   59.392
449.884;  203.506; -571.222; -325.600
450.172;  266.800; -756.227; -406.590
450.459;  642.413;  645.786;  780.387
450.747; 3845.879; -411.218; -147.608
451.034;12353.445;  493.772;  889.411
451.322; 9917.516; -413.214; -170.614
451.609;  725.692;  292.777;  508.403
451.897;  913.082; -550.203; -183.634
452.184; 2771.473; -622.223; -400.598
452.472; 2442.881;   97.792;  269.375
452.759;  360.410;  512.781;  864.395
453.047;   90.359; -407.212; -125.617
453.334;   35.994; -732.219; -216.606
453.621;   47.569; -438.214; -161.615
453.909;   92.147;   13.796;  384.368
454.196;  111.652; -299.199; -123.641
454.483;  233.298;  317.798;  540.364
454.771;  131.435; -215.208;  196.374
455.058;   58.114; -316.207;  102.374
455.345;  148.919;   71.807;  344.347
455.632;  127.543; -128.207;  235.373
455.919;   61.029;  -82.196;  182.354
456.207;  -43.592; -774.198; -450.642
456.494;   13.587; -475.200;  -66.639
456.781;   25.267; -399.202; -198.635
457.068;   60.626; -253.206;  -29.628
457.355;   -0.423; -698.206; -401.629
457.642;   25.709; -552.205; -290.630
457.929;   38.183; -778.194; -417.651
458.216;  122.209; -575.212; -354.617
458.503;  399.214; -173.193;  -19.652
458.790;  422.957; -864.208; -630.625
459.077;  386.273;  -77.202;  110.364
459.364; 1226.700; -350.195; -210.649
459.651; 2607.748;  -46.206;  220.372
459.938; 1124.871; -864.209; -665.623
460.225;  112.177;  132.799;  276.363
460.512;  -31.499; -836.197; -688.645
460.799;  129.153;  -32.218;  320.392
461.086;  103.593; -370.200; -251.640
461.372;   22.958; -509.198; -279.642
461.659;   57.781; -165.196;  108.354
461.946;   36.012; -445.193;  -54.651
462.233;  209.065;  842.800;  888.361
462.519;  491.686; -814.201; -464.639
462.806; 1544.627; -768.197; -497.645
463.093; 1294.287; -445.191;  -66.656
463.380;   -9.387; -920.186; -824.664
463.666;   41.379; -259.197;  -18.646
463.953;  137.844; -406.195; -243.648
464.239;  285.418; -173.195;  -77.648
464.526;  393.382;  413.806;  743.350
464.813;  334.527; -565.190; -304.658
465.099;  340.864;  606.807;  607.348
465.386;  272.118;  903.807;  921.348
465.672;    7.202; -694.197; -522.645
465.959;   53.898; -598.188; -520.662
466.245;   -0.232; -468.193; -359.652
466.532;   65.491; -109.195;   63.352
466.818;   21.812; -357.186; -216.664
467.104;  -11.539; -488.182; -415.672
467.391;  -18.971; -628.189; -459.658
467.677;   38.267; -289.186;    9.335
467.964;  -13.063; -682.189; -471.660
468.250;   36.295; -331.186; -160.665
468.536;   75.005;   90.811;  180.341
468.822;  -10.541; -821.184; -574.668
469.109;  162.009;  351.827;  471.311
469.395;  206.355;  729.808;  787.346
469.681;  228.559;   46.811;  156.341
469.967; 1815.615; -699.188; -382.660
470.254; 4078.849; -494.188; -306.662
470.540; 2517.729; -601.196; -476.646
470.826;  357.050; -488.181; -397.675
471.112;  398.089;  288.816;  113.331
471.398;   99.569; -253.183;  -58.670
471.684;   49.809; -626.177; -447.680
471.970;   34.579; -918.180; -981.675
472.256;   54.304; -521.192; -441.654
472.542;   29.373; -499.171; -434.691
472.828;   26.356; -743.182; -607.672
473.114;   40.825; -380.166; -283.700
473.400;   11.229; -504.175; -293.684
473.686;   46.408; -452.166; -400.701
473.972;   68.622; -230.174; -131.687
474.258;   -9.291; -925.173; -843.689
474.544;  329.749; -183.178;   -2.679
474.830;  511.356;  -65.175;   45.316
475.116;  816.878; -123.190; -196.658
475.401; 1115.107; -558.180; -467.676
475.687;  287.831; -725.180; -718.676
475.973;    8.566; -673.181; -770.673
476.259;  253.034;  736.825;  764.315
476.544;  548.819; -539.176; -437.682
476.830; 1379.493; -398.172; -322.690
477.116; 1192.417; -430.177; -336.682
477.401;  175.706;  346.820;  358.324
477.687;  -11.321; -289.175; -405.684
477.973;   38.220;   21.819;   28.326
478.258;    1.358; -448.163; -348.706
478.544;   38.326;   21.815;   61.334
478.829;  -61.921; -818.171; -738.692
479.115;  -29.608; -749.172; -651.690
479.401;   -6.809; -444.174; -449.686
479.686;   64.855; -253.180;  -74.676
479.972;   -2.170; -886.178; -776.680
480.257;   55.727; -258.166;  -65.700
480.542;   20.734; -614.170; -469.693
480.828;  250.977; 1288.824; 1392.317
481.113;  -23.576; -464.176; -426.683
481.399;   -5.138; -236.161; -202.711
481.684;  -42.198; -620.166; -462.700
481.969;   25.703; -158.159;  -73.713
482.255;   -6.353; -439.169; -285.695
482.540;   10.356; -569.178; -441.680
482.825;   37.407; -395.187; -404.663
483.110;  142.101;  -85.169; -105.696
483.396;  383.379; -840.157; -652.718
483.681;  757.847;  543.826;  730.313
483.966;  312.121; -696.160; -700.712
484.251;   -1.179; -404.174; -310.687
484.536;   13.015; -356.165; -378.703
484.822;   34.724; -205.173; -218.687
485.107;   -0.724; -599.152; -502.726
485.392;  138.846;  662.836;  541.296
485.677;   89.863;  354.832;  163.302
485.962;  115.026;  160.843;  270.283
486.247;  108.318;  -14.162;   -8.707
486.532;   75.254; -178.166; -325.701
486.817;  174.455;  381.839;  431.291
487.102;  156.855; -453.154; -514.722
487.387; 1063.232; -637.156; -652.718
487.672; 1991.803; -154.164;  -38.705
487.957; 1199.314; -394.160; -286.711
488.241;  351.121; -290.150; -314.729
488.526; 1193.252; -280.152; -148.726
488.811; 1979.158; -881.177; -818.680
489.096; 1396.658; -666.154; -702.723
489.381;  724.398;    3.847;  162.275
489.666;  633.937; -428.161; -510.710
489.950;  218.137;  558.846;  627.277
490.235;  -22.385; -480.151; -458.728
490.520;  -29.515; -756.161; -723.710
490.804;  -35.291; -827.156; -736.719
491.089;   26.440; -469.149; -299.732
491.374;   29.576; -132.164;  -75.704
491.658;  -16.121; -817.147; -717.735
491.943;  115.208; -657.152; -609.727
492.227;  228.125; -178.155;  -38.721
492.512;   41.676; -294.157; -341.717
492.797;  -56.442; -713.149; -716.731
493.081;  -26.092; -588.147; -598.735
493.366;  -32.788; -751.161; -635.711
493.650;  232.622;  831.859;  917.254
493.935;   80.178; -648.147; -447.734
494.219;  -27.543; -778.142; -687.743
494.503;  -31.898; -585.150; -487.730
494.788;   52.691;   46.842;   74.285
495.072;  131.498;  184.850;  434.271
495.356;  260.944; -463.148; -343.733
495.641;  532.766; -812.146; -736.736
495.925;  462.840; -976.156; -903.719
496.209;   21.865; -599.149; -451.732
496.494;  -36.718; -763.142; -544.744
496.778;   11.530; -364.154; -360.722
497.062;  -38.210; -819.156; -627.719
497.346;   14.766; -869.160; -640.711
497.631;  182.298;  580.852;  560.266
497.915;   91.053;  -64.145;  175.261
498.199;   37.729; -341.157; -277.718
498.483;   31.550; -562.152; -508.725
498.767;  228.299;  301.850;  300.271
499.051;  269.912; -126.149; -100.732
499.335;   71.460; -693.149; -739.731
499.619;  -29.030; -381.129; -423.767
499.903;   14.523; -272.155;  -65.721
500.187;   32.614; -588.153; -316.724
500.471;   20.482; -796.152; -595.727
500.755;   92.836;   62.839;  -96.710
501.039;    3.224; -270.155; -357.721
501.323;   51.949;  -21.141;  264.254
501.607;   13.383; -447.163; -503.706
501.891;    9.756; -607.156; -512.718
502.174;  -35.383; -726.144; -585.741
502.458;   76.787;   89.849;  370.273
502.742;   54.153; -180.138; -191.751
503.026;  205.578; -412.147; -254.734
503.310;  311.002; -437.159; -375.713
503.593;  215.880; -464.147; -325.735
503.877;  143.877; -232.133; -156.760
504.161;  174.892;    2.847;  -50.724
504.444;  177.443; -841.158; -710.716
504.728;  766.775; -487.164; -522.704
505.012; 1098.245; -257.150;  -76.729
505.295;  815.712; -417.161; -212.711
505.579;  843.714; -256.156; -496.719
505.862; 1238.074; -555.145; -333.738
506.146; 1263.980; -681.159; -758.714
506.429;  578.330;  568.841;  461.286
506.713;  144.092; -732.151; -667.728
506.996;  494.105;   90.846;  295.278
507.280;  571.619; -633.165; -474.703
507.563;  379.272; -469.155; -261.721
507.847;  187.340; -423.153; -112.724
508.130;  174.463; -665.161; -456.711
508.413;  240.722; -758.167; -577.700
508.697;  399.722; -151.167;   12.300
508.980;  270.567; -422.153; -312.724
509.263;   25.667; -466.155; -450.720
509.547;   50.645; -124.150;   82.271
509.830;   51.190; -172.160;  140.289
510.113;   92.039;  128.844;  298.281
510.396;   40.473; -530.152; -300.725
510.680;   48.026; -818.145; -812.738
510.963;  201.360;  184.846;  180.277
511.246;  130.429; -493.150; -357.730
511.529;  292.181; -482.145;  -83.739
511.812;  630.673; -250.134;   10.241
512.095;  489.838; -740.151; -396.728
512.378;   82.835; -317.147; -245.736
512.661;   86.212; -703.137; -623.753
512.944;   79.259; -750.142; -637.744
513.227;   85.634; -170.137; -171.752
513.510;   67.917; -479.144; -671.741
513.793;   41.254; -485.140; -435.747
514.076;  168.370;  -43.127;  -39.771
514.359;  164.541; -294.149; -135.732
514.642;  148.513; -442.142; -567.744
514.925; 1128.953;  581.860;  561.253
515.208; 1655.094; -498.134; -443.758
515.491; 1043.385; -276.133; -182.761
515.773;  577.971; -410.143; -337.742
516.056; 3308.120;  249.864;  409.246
516.339; 4365.825; -754.136; -652.755
516.622; 2040.976; -518.150; -488.730
516.904;  564.305;  882.857;  975.257
517.187;  209.158; -730.138; -523.752
517.470;  430.653; -568.143; -510.743
517.752;  726.428; -624.136; -470.756
518.035;  589.017; -708.139; -725.749
518.318;  602.600; -799.136; -744.755
518.600; 4045.515; -300.132; -325.762
518.883; 5522.787;  310.858;   88.256
519.165; 2517.999; -585.138; -426.751
519.448;  434.614;  -61.132;  -19.762
519.730;  217.329; -573.126; -415.773
520.013;  254.281;  588.867;  664.240
520.295;  283.950;  -94.134;  -15.759
520.578;  642.655; -335.131; -305.764
520.860;  858.314; -254.132;   56.238
521.143;  628.456; -763.135; -584.756
521.425;  587.470; -251.125; -279.775
521.707; 1002.046; -622.127; -380.771
521.990; 2832.146; -199.127;  167.229
522.272; 3242.132; -116.140;   -4.748
522.554; 1192.447; -237.143; -157.742
522.836;  244.872;  -24.134;   99.241
523.119;  192.926; -496.148; -189.734
523.401;  189.188; -448.130; -314.766
523.683;  166.038; -865.137; -693.753
523.965;  421.255;  408.862;  260.248
524.247;  452.121;   54.878;  170.220
524.529;  315.425; -451.134; -367.759
524.812;  475.066;   -3.130;  191.234
525.094; 1404.304; -773.138; -631.751
525.376; 2198.106; -143.124;   78.223
525.658; 1333.672; -441.136; -339.754
525.940;   89.076; -805.131; -671.764
526.222;   32.301; -188.136;  -88.755
526.504;   55.148; -190.131;   32.237
526.786;   25.428; -960.133; -647.760
527.068;  110.613; -124.123;  -67.778
527.349;   -5.157; -865.137; -774.754
527.631;  124.839; -137.132;   22.238
527.913;  221.245; -664.127; -450.771
528.195;  332.812; -761.125; -639.774
528.477;  386.169;  -93.134;  -30.758
528.759;  277.941; -648.130; -522.766
529.040;  147.461; -569.123; -293.778
529.322;   73.590; -235.125;  -10.774
529.604;   93.793;  -47.130;   93.233
529.886;   37.054; -546.126; -302.773
530.167;   73.258;  232.870;  192.235
530.449;   32.334;    1.853;   63.265
530.731;   72.270; -572.122; -459.779
531.012;  139.545; -513.120; -216.784
531.294;  128.842; -118.116;  -43.792
531.575;  189.445;  290.875;  538.225
531.857;  136.563; -548.135; -266.757
532.138;  131.097; -113.141;   40.254
532.420;  111.808;  294.865;  403.244
532.701;   86.456; -722.133; -751.760
532.983;  204.634;  232.867;  182.239
533.264;   50.477; -243.126;  175.228
533.546;  -37.324; -491.136; -508.755
533.827;   34.577;  173.867;   -1.759
534.109;   21.962; -352.135;  -80.757
534.390;  100.194; -725.132; -582.762
534.671;  317.483; -270.135;  -82.756
534.953;  198.015; -751.123; -611.779
535.234;   55.649; -426.117; -255.789
535.515;  -45.845; -891.119; -735.785
535.796;   12.115; -431.128; -193.770
536.078; -101.794;-1050.124; -904.777
536.359;   10.940;  -22.123;    3.221
536.640;  -20.012; -480.125; -197.774
536.921;  176.325;  225.871;  143.232
537.202;  560.200;  -87.138;  -16.751
537.483;  685.704;  251.869;  377.236
537.764;  270.558;   17.870;   98.235
538.045;  -35.582; -543.134; -371.758
538.326;  -27.348; -596.129; -447.768
538.607;   70.897; -686.127; -476.771
538.888;  284.784;   98.879;    5.218
539.169;  317.327; -704.122; -535.781
539.450;  413.948;  236.871;   16.233
539.731;  268.289; -361.121; -182.783
540.012;  167.620;  199.880;  412.216
540.293;   89.274;   82.876;  158.224
540.574;   -8.832; -895.113; -717.796
540.855;  505.812;  435.879;  377.218
541.136;  651.674;   47.878;  139.220
541.416;  383.941; -161.130; -220.766
541.697;  309.049; -274.131; -170.763
541.978; 1699.135; -270.135; -315.757
542.259; 2128.622; -211.127; -236.771
542.539;  965.460; -191.116; -186.790
542.820;  203.820;  461.875;  480.225
543.101;  148.902;  -52.145;  -77.738
543.381;   42.471; -638.127; -591.771
543.662;  352.693;  159.873; -254.771
543.942;  967.491; -751.127; -830.770
544.223; 1677.701;  193.878;  161.219
544.504; 1102.255; -275.124; -182.777
544.784;  907.929; -592.126; -408.773
545.065; 2549.239;  104.884; -254.791
545.345; 2977.605;  227.881;   14.215
545.626; 1958.167;  -14.113; -108.796
545.906; 1428.883;   77.869;   98.235
546.186;  585.734;   92.874;  -95.773
546.467;  319.483;   99.877;  -95.778
546.747;  518.260;  264.884;  327.210
547.027;  573.704;   91.876;  111.223
547.308;  571.465; -376.127; -530.770
547.588;  603.703;  299.871;  371.232
547.868;  259.109;  458.870;  588.235
548.149;  236.449;  609.885;  593.207
548.429;  255.444; -347.127; -299.771
548.709;  387.995; -645.120; -461.784
548.989;  769.317;   84.882;   88.213
549.269; 3296.937;   10.868;  139.239
549.550; 7837.163;  215.877;  117.222
549.830; 7008.588; -758.111; -556.799
550.110; 1367.473; -468.110; -320.801
550.390; 1315.395; -128.122;  -56.779
550.670; 1909.811; -868.114; -783.795
550.950; 1320.812; -509.121; -471.782
551.230;  246.432;  549.879;  460.218
551.510;   23.685; -381.121; -326.782
551.790;   65.082; -173.109; -127.803
552.070;  315.658;  940.877; 1181.223
552.350;  725.435; -492.119; -377.786
552.630;  983.254;   -2.121;   77.219
552.909;  582.140;  181.884;   73.209
553.189;  385.870;  -49.132;   33.237
553.469;  377.310; -703.119; -514.786
553.749;  353.098; -469.127; -357.772
554.029;  288.879;   33.883;  -24.790
554.308;  265.354; -154.115;  -37.794
554.588;  145.414; -196.128; -204.770
554.868;  140.263; -366.121;  -47.782
555.147;  268.025; -114.115;  -46.793
555.427;  960.743; -260.116; -250.792
555.707; 6263.773; -284.115; -200.793
555.986; 7749.442; -719.111; -538.800
556.266; 3949.058;   23.884;   72.210
556.546;  256.860; -888.121; -675.782
556.825;  444.734; -657.114; -556.794
557.105; 2903.361; -125.128;   17.230
557.384; 3410.439;  122.884;  187.209
557.664; 1322.192; -717.116; -508.792
557.943;  235.212; -557.121; -411.782
558.222;  353.571; -345.118; -344.788
558.502;  409.502; -116.115;  -76.793
558.781;  737.146;  194.885;  499.208
559.061;  672.495; -232.118; -227.788
559.340;  452.901;  302.883;  353.211
559.619; 1187.733;   93.884;  148.210
559.899; 1753.654; -239.117; -266.789
560.178; 1536.876; -778.115; -593.793
560.457; 4847.281; -623.117; -562.790
560.736; 6920.494; -472.111; -482.800
561.015; 4549.983; -500.128; -502.769
561.295;  566.681;  180.893;  215.193
561.574;  438.348;  119.885;  116.207
561.853;  702.587;  274.891;  303.197
562.132;  799.779;  -45.114;  182.206
562.411;  677.680;  396.879;  553.219
562.690;  268.946; -592.115; -458.792
562.969;  187.325;  472.888;  630.203
563.248;  554.252; 2966.878; 2487.219
563.527;  477.293; -290.111; -408.800
563.806;  670.194; -650.127; -521.771
564.085;  723.200; -297.105; -206.810
564.364;  428.232; -594.117; -405.790
564.643;  807.805; -276.121; -223.781
564.922; 3022.280;  221.890;  397.198
565.201; 3180.159; -640.109; -700.803
565.479; 1328.320; -297.115; -219.792
565.758;  597.086; -810.128; -712.770
566.037;  778.611; -155.109; -100.803
566.316;  392.264; -286.116;  -28.791
566.595;   76.948;  -17.115;  -12.793
566.873;  124.645; -166.111;  -79.801
567.152;  -30.775; -490.113; -590.797
567.431;   52.409; -113.116;    6.210
567.709;   64.031; -344.107; -212.807
567.988;  468.484; -810.114; -769.794
568.266;  891.173; -160.115;  -68.793
568.545;  661.932; -644.100; -514.819
568.824;  950.419;  160.885;  356.208
569.102;  976.708; -351.114; -235.794
569.381;  427.968; -492.116; -407.792
569.659;  -13.805; -553.113; -553.796
569.938;  110.700; -743.122; -465.780
570.216;  205.314; -225.109; -225.804
570.494;   18.062; -632.114; -572.795
570.773;   36.510;  202.879;  114.218
571.051;   57.287; -373.123; -357.778
571.330;  122.492; -221.113; -174.796
571.608;   99.778; -181.098; -173.823
571.886;  -34.439; -671.111; -581.799
572.164;  -27.862; -739.121; -621.782
572.443;  -12.271; -562.105; -512.811
572.721;  -22.594; -399.117; -289.790
572.999;    2.298; -280.117; -168.788
573.277;  125.521;  379.894;  620.191
573.555;  463.249;   94.894;   37.190
573.834; 2246.222;  -86.117; -114.788
574.112; 2571.584;  880.893;  811.193
574.390;  792.294; -143.111;  -96.801
574.668;   28.426;  -91.112;  -61.797
574.946;   28.699; -165.106; -187.810
575.224;   24.109;   71.891;  -16.803
575.502;   12.036; -200.116; -204.791
575.780;  -57.448; -767.112; -829.798
576.058;  140.068; 1589.889; 1004.200
576.336;   -2.000; -210.110; -129.801
576.614;  -25.897; -511.112; -340.798
576.891;  156.578; -711.115; -823.794
577.169;  817.049; -158.108; -285.805
577.447;  924.834;  169.893;  202.193
577.725;  366.458;  629.888;  854.201
578.003;   36.106;  -71.112; -371.798
578.280;  141.940; -208.104; -242.812
578.558;  117.102; -450.115; -422.793
578.836;  152.612; -210.114; -145.795
579.114;   83.426; -630.112; -670.797
579.391;   78.325;   -6.117;  -18.789
579.669;  -40.496; -595.114; -704.794
579.947;  274.205; -326.107; -127.806
580.224;  578.579; -692.107; -524.806
580.502;  508.985;  127.893;   76.193
580.779;   34.207;  -42.117;   75.210
581.057;  -65.036; -584.109; -470.804
581.334;  -92.192; -726.102; -695.815
581.612;   36.550;   54.895;  511.190
581.889;  -26.951;  -83.101; -129.818
582.167;  -31.309; -298.099; -190.821
582.444;  -89.783; -845.102; -814.817
582.721;  105.043;  657.899;  715.183
582.999;  113.338; -326.100; -167.821
583.276;  922.042; -812.123; -713.779
583.553; 1230.237; -364.102; -294.816
583.831;  439.811; -607.104; -631.812
584.108;   74.746;  349.892;  174.195
584.385;   43.457; -122.102;  -98.815
584.662;  -31.904; -651.111; -828.801
584.940;   49.720;  204.889;  204.199
585.217;    7.470;  -73.113; -303.796
585.494;   47.956;   71.890;  118.198
585.771;  345.790; -250.109; -354.804
586.048;  807.845; -196.113;  -76.796
586.325;  530.974; -721.110; -773.801
586.602;  132.565;  230.896;  213.188
586.879;   41.934; -499.100; -580.820
587.156;  116.451; -156.105; -331.810
587.433;    8.590; -701.102; -667.817
587.710;  115.703;  152.888;  234.202
587.987;  431.482; -264.105; -236.811
588.264; 1186.080;  315.888;  387.202
588.541; 1938.318;  -61.104;   26.187
588.818; 4050.618;   72.892;  171.196
589.095; 3491.788; -163.104; -174.812
589.371;  585.413; -459.109; -414.804
589.648;   63.809; -581.107; -437.807
589.925;   85.038; -517.114; -621.795
590.202;   97.353; -741.112; -607.798
590.478;  146.384; -166.105;  -73.811
590.755;  401.050; -241.108; -132.806
591.032; 3856.502; -741.110; -699.802
591.308; 5483.527; -732.094; -790.831
591.585; 2801.201; -573.110; -560.802
591.862;  337.617;-1056.102; -950.817
592.138;  150.347; -475.108; -474.805
592.415;  247.316; -486.104; -495.813
592.691; 2168.039;  460.896;  518.188
592.968; 2956.556; -208.098; -123.824
593.244; 1417.460; -695.116; -595.790
593.521;  111.067; -105.102;  -42.817
593.797;   44.922; -810.122; -720.780
594.074;  560.146; -611.096; -588.826
594.350;  954.059;  828.905;  729.172
594.626;  494.746; -303.111; -283.801
594.903;  252.118; -643.101; -645.817
595.179;  290.821;  243.896;  418.187
595.455;   37.436; -136.107; -150.807
595.731;    6.273;  -19.103;  -38.814
596.008;  -18.461; -464.111; -434.800
596.284;   88.312; -187.100; -242.820
596.560;  134.085; -501.093; -493.833
596.836;  344.628; -173.105;  -70.810
597.112;  602.998; -582.108; -437.805
597.388;  464.493;  -49.097;  -48.826
597.665;  153.398;  437.887;  530.203
597.941;  -39.080; -572.089; -658.839
598.217;   70.230; -323.110; -293.802
598.493;  419.042;   61.891; -204.804
598.769;  856.955; -175.100;  -50.819
599.045;  536.152; -490.108; -562.806
599.321;  125.635; -193.100; -261.820
599.597;  263.341; -355.109; -476.804
599.872;  742.793;  409.896;  429.187
600.148;  609.595;  -61.097; -172.826
600.424;  455.208;   91.893;  202.193
600.700;  406.460; -170.107; -280.807
600.976;  240.463; -442.097; -464.825
601.252;  431.937; -226.109; -272.803
601.527;  421.769; -833.104; -840.813
601.803;  277.510; -453.105; -404.812
602.079;  291.105; -124.100; -118.819
602.354;  900.472; -620.092; -531.835
602.630; 1308.720; -140.113; -482.796
602.906; 3450.999; -910.101; -863.818
603.181;10715.535; -627.119; -534.786
603.457; 8898.717;   98.903; -278.826
603.733; 1336.740; -605.120; -626.783
604.008; 1437.800; -245.106; -164.810
604.284; 4809.120; -636.101; -580.817
604.559; 4148.908;   -3.112;  -42.799
604.835;  775.503; -163.105; -225.810
605.110;  711.392; -732.099; -892.821
605.385; 1080.188;  224.907;  267.167
605.661; 1053.213; -625.095; -729.829
605.936; 1983.427; -664.108; -737.806
606.211; 1619.681;  -17.103; -170.815
606.487;  378.507; -329.114; -376.794
606.762;  106.835; -791.119; -745.786
607.037;   25.028; -501.105; -433.810
607.313;   -6.920; -589.096; -574.828
607.588;   28.674; -375.106; -137.810
607.863;   99.099;  -28.101; -143.818
608.138;  260.829;  513.890;  516.198
608.413;  115.172; -576.099; -592.822
608.688;  120.472; -203.108; -267.805
608.964;  359.567; -509.106; -218.809
609.239;  427.050; -107.105; -212.810
609.514;  384.310;  281.895;  240.188
609.789; 1069.315; -187.104; -716.812
610.064; 1402.753; -435.096; -609.827
610.339; 1433.713; -855.109; -799.804
610.614; 1961.711; -131.100; -315.820
610.889; 1083.010;  215.895;  107.188
611.163;  115.136; -407.104; -591.812
611.438;  165.083;   81.886; -167.794
611.713;   70.720; -467.101; -499.817
611.988;  110.722; -144.101; -328.818
612.263;   64.758; -771.102; -717.815
612.538;  326.419;  385.887;  251.204
612.812;  353.613; -832.100; -911.820
613.087;  269.253; -358.098; -338.823
613.362;   -7.415; -497.107; -557.807
613.637;   64.126;  261.897;  138.186
613.911;   29.747; -256.092; -345.835
614.186;  230.933; -249.107; -292.807
614.460; 1186.361; -842.081; -758.854
614.735; 1289.499;  -55.087;  -17.843
615.010;  280.911;   43.912;  -82.841
615.284;  356.872;  360.892;  246.195
615.559;  657.521; -792.092; -955.835
615.833;  455.694;  -76.099;  -87.822
616.108;   35.185; -225.090; -390.837
616.382;  195.450;  274.913;  402.156
616.656;  274.536; -241.090; -232.837
616.931;  821.870; -785.099; -700.822
617.205; 1710.570; -973.104; -979.813
617.480; 1563.467;  -91.125;    6.225
617.754;  290.589; -396.125; -128.774
618.028;   78.754; -369.129; -382.768
618.302;  119.595;   73.892;  -25.805
618.577;   -1.747; -371.103; -518.815
618.851;  -40.042; -399.109; -600.803
619.125;  -34.150; -335.134; -378.759
619.399;  -23.505; -244.104; -374.813
619.673;  -10.706; -330.115; -515.792
619.947;  -21.238; -333.114; -448.795
620.222;   16.497; -198.110; -204.801
620.496;   26.012;  -47.121;  -96.782
620.770;   38.577; -187.122;  -93.781
621.044;  299.901;  323.895;  346.190
621.318; 1160.391; -653.120; -614.783
621.592; 1089.638; -430.121; -409.783
621.866;  671.684; -476.112; -572.799
622.140;   70.186; -207.116; -356.791
622.413;   94.464;  138.889;  112.200
622.687;   -4.080; -746.101; -492.817
622.961;   35.045; -130.108; -143.805
623.235;  -22.735; -633.111; -661.800
623.509;  -87.191; -816.105; -848.811
623.783;   23.856;  -12.107;   48.193
624.056;   21.092; -254.120; -280.783
624.330;   72.601;   63.888;   -3.797
624.604;   98.657; -271.116; -355.790
624.877;  121.728;  180.890;   26.198
625.151;  103.780; -249.114; -238.794
625.425;  -20.502; -150.103; -283.814
625.698;  -43.397; -367.119; -374.785
625.972;  -71.219; -799.110; -765.802
626.245;   92.960;  685.884;  484.210
626.519;  -30.353; -426.120; -340.784
626.792;   -6.265; -192.107; -380.807
627.066;  -73.757; -485.122; -662.779
627.339;  -70.874; -736.110; -663.802
627.613;   52.920;  351.880;  148.216
627.886;   77.308;  187.891; -612.803
628.160;   -3.835;  312.880; -161.783
628.433;  -56.879; -695.125; -703.775
628.706;  -70.353; -517.120; -615.784
628.979;   46.679;  296.876;  117.223
629.253;  -47.566; -785.119; -833.786
629.526;  610.752; -334.126; -253.772
629.799;  645.287; -641.123; -479.778
630.072;  316.430; -497.128; -516.769
630.346;    1.635;-1115.116;-1080.790
630.619;  738.886; -467.107; -545.808
630.892;  961.491;  709.889;  593.200
631.165;  483.170;  790.896;  679.187
631.438;  -20.295;-1092.112;-1055.798
631.711;   74.641;  453.877;  257.221
631.984;  -39.246; -523.117; -624.789
632.257;  -26.475; -636.117; -681.789
632.530;  -23.321; -412.119; -433.785
632.803;   33.628; -109.115;    7.207
633.076;  -52.617; -360.123; -422.777
633.349;   28.935;  173.872;  121.231
633.622;  -33.598; -187.119; -240.785
633.895; -101.533; -903.120; -823.783
634.167;  -52.646; -496.126; -525.773
634.440;   -3.058;  -19.116; -137.792
634.713;   -2.417;  -22.119; -120.786
634.986;   88.948;  593.871;  453.233
635.258;  -52.674; -507.115; -597.793
635.531;  100.795;  742.882; -343.788
635.804;  -25.698; -303.117; -318.789
636.077;  -78.312; -830.116; -852.791
636.349;   47.799; -586.115; -474.793
636.622;  445.751; 1695.874; 1392.228
636.894;  419.547; -474.120; -909.784
637.167;  310.269; -836.127; -789.771
637.439;   61.564; -278.128; -213.770
637.712;  -36.147; -312.126; -293.772
637.984;  -70.712; -635.116; -707.791
638.257;  494.784;  515.877;  488.222
638.529;  926.922; -881.125; -924.776
638.802;  392.755; -508.128; -449.769
639.074;  -79.774; -927.122; -952.781
639.346; -100.360; -942.135; -930.757
639.619;    1.961;  -79.142; -319.744
639.891;   -6.931;  -83.122; -168.779
640.163;  -72.454; -689.122; -756.780
640.435;   48.773;  273.878;  103.220
640.708;   17.050;  -72.122; -132.780
640.980;   -5.348; -366.122; -362.781
641.252;  251.230;  -25.121;  -71.781
641.524; 2476.732;  580.879;  573.219
641.796; 2707.034;-1094.121; -907.782
642.068;  498.461; -191.121; -300.782
642.340;  -30.611; -486.121; -566.783
642.613;   46.141;  294.880;  323.217
642.885;  -79.782; -787.120; -878.783
643.157;  -11.155; -810.120; -658.784
643.428;   76.697;  170.880;  218.216
643.700;  -55.425; -498.120; -425.784
643.972;  -35.623;  -16.119; -133.785
644.244;  -70.971; -474.119; -559.785
644.516;  -47.469; -250.119; -114.786
644.788;   52.658;  662.881;  548.214
645.060;  -21.589;  -12.119; -124.786
645.332;  -91.462; -525.118; -535.787
645.603;   40.490;  479.882;  342.213
645.875;  -66.633; -334.118; -369.787
646.147;  165.520; 1487.882; 1242.212
646.418;    4.122; -931.117; -918.788
646.690;  311.324; -714.117; -715.789
646.962;  115.726; -413.117; -451.789
647.233;  -11.147;   15.883;   11.211
647.505;  -98.544; -595.117; -475.790
647.776;   21.133;  328.884;  229.210
648.048;   24.160; -248.116; -418.790
648.320;  -52.338; -752.116; -679.791
648.591; -130.260;-1055.116; -958.791
648.862;  -92.933; -505.116; -577.792
649.134;   13.544;  115.885;  198.208
649.405;  -15.129; -661.115; -618.792
649.677;  -21.352; -475.115; -598.793
649.948;   13.001; -181.115; -296.793
650.219;    9.978;  -37.115; -147.793
650.491;  -83.620; -431.114; -520.794
650.762; -118.418; -705.114; -731.794
651.033;  -73.441; -437.114; -424.795
651.304;  -63.588; -743.114; -728.795
651.576;  -56.586; -680.114; -645.795
651.847;  -45.184; -250.113; -140.796
652.118;  -18.132;  -32.113; -189.796
652.389; -101.854; -639.113; -722.796
652.660;  -43.052; -147.113;  -89.797
652.931; -129.975; -897.112; -871.797
653.202;  -64.023; -382.112; -541.798
653.473;  -55.246; -633.112; -533.798
653.744;  283.107; -595.112; -590.798
654.015;  269.934; -356.112; -303.799
654.286;  -38.089; -642.111; -663.799
654.557;  -26.062; -586.111; -521.799
654.828; -137.334;-1114.111;-1088.800
655.099;  -80.182; -404.111; -291.800
655.370;  -95.355; -427.111; -543.801
655.641; -109.578; -656.110; -714.801
655.911; -100.126; -618.110; -638.801
656.182;   34.452;  437.890;  387.198
656.453;   83.954;  830.890;  746.198
656.724;  -77.319; -466.110; -426.802
656.994;  -81.792; -553.109; -568.803
657.265;  -82.364; -862.109; -873.803
657.536;  -71.737; -500.109; -377.804
657.806;  -90.485; -561.109; -593.804
658.077; -137.158; -866.109; -950.804
658.347;  -73.456; -523.108; -598.805
658.618; -117.528; -646.108; -694.805
658.888;  -27.776;  -41.108;  112.195
659.159;  -75.124; -432.108; -548.806
659.429;   10.828; -292.108; -349.806
659.700;   68.480; -435.107; -390.807
659.970;   34.633; -370.107; -359.807
660.241;   79.060; -754.107; -921.807
660.511;  802.562; -147.107; -174.808
660.781;  212.639; -793.106; -748.808
661.052;  -42.258; -222.106; -381.808
661.322;  -26.831;   21.894;   -9.809
661.592;   -6.404;  257.894;  148.191
661.862;  -70.027; -369.106; -382.810
662.133;  -96.250; -551.105; -502.810
662.403; -108.947; -770.105; -676.810
662.673;  -55.795; -256.105; -213.811
662.943;  -89.618; -612.105; -551.811
663.213;    0.484;  -85.105;  -81.811
663.483;  -76.088; -593.104; -568.812
663.753;  -51.286; -194.104; -152.812
664.023;  -13.559;   68.896;  -32.813
664.293;  -53.757; -319.104; -126.813
664.563; -105.305; -694.104; -648.813
664.833; -124.802; -743.103; -608.814
665.103; -119.125; -730.103; -793.814
665.373;  -96.323; -766.103; -806.814
665.643;  -50.996; -863.103; -918.815
665.913;  105.481; -534.103; -714.815
666.182;  255.984; -685.102; -719.816
666.452;  449.061;  -22.102;  -89.816
666.722;   32.913; -724.102; -784.816
666.992; -108.385; -948.102; -921.817
667.261;  -69.232; -824.102; -808.817
667.531;  279.195;  134.899;   45.183
667.801;  840.897; -440.101; -412.818
668.070;  309.024;  714.899;  697.182
668.340;  -70.474; -883.101; -840.819
668.609;  121.579;  588.900;  301.181
668.879;  -81.094; -490.100; -558.819
669.149;  -52.367; -539.100; -516.820
669.418;  -95.815; -698.100; -726.820
669.688;    2.638; -482.100; -666.820
669.957;  169.440; -423.099; -546.821
670.226;   -1.708; -268.099; -331.821
670.496;  -79.381; -431.099; -635.822
670.765;  -63.779; -418.099; -501.822
671.034; -123.576; -872.099; -828.822
671.304;  -15.099;   55.902; -111.823
671.573; -134.747;-1085.098; -957.823
671.842;  155.880; -380.098; -294.823
672.112;  111.807; -692.098; -586.824
672.381;   28.735; -239.098; -214.824
672.650; -104.013;-1005.097;-1021.825
672.919;  -66.786; -631.097; -507.825
673.188;  -71.334; -681.097; -878.825
673.457; -125.831;-1101.097;-1143.826
673.726;  -59.704; -579.096; -646.826
673.995;  -11.252; -533.096; -479.826
674.265;   20.100; -263.096; -333.827
674.534;   35.827; -183.096; -235.827
674.802;   53.555; -618.096; -703.828
675.071; 1434.707; -886.095; -801.828
675.340; 6198.384; -464.095; -339.828
675.609; 2022.386;  103.905;   82.171
675.878;  199.739; -949.095; -893.829
676.147;   64.966;  -26.095;   -8.829
676.416;  135.668; -210.094; -294.830
676.685; 1071.345; 1000.906; -622.830
676.953;  226.972; -603.094; -452.831
677.222;  -19.400; -193.094; -273.831
677.491;  -16.423;  -24.094; -127.831
677.759;   -2.771;   11.907;  172.168
678.028;   -1.694; -279.093; -222.832
678.297;    8.659;   71.907;  197.168
678.565; -131.839; -898.093; -944.833
678.834;  -49.662; -311.093; -268.833
679.102;  -60.710; -411.092; -391.834
679.371; -136.483; -898.092; -727.834
679.639; -137.955; -797.092; -786.834
679.908; -120.828; -794.092; -724.835
680.176; -151.301; -895.091; -941.835
680.445;  -77.274; -346.091; -352.835
680.713;  -15.122;  -58.091;  -23.836
680.982;  -93.594; -523.091; -525.836
681.250;  -80.967; -578.091; -507.837
681.518;  -98.965; -534.090; -751.837
681.787;    3.462; -204.090; -167.837
682.055;  -46.110; -490.090; -422.838
682.323; -136.033; -993.090; -992.838
682.591;   56.819; -216.090; -538.838
682.859;  176.296;    9.911;  -35.839
683.128;   25.098;  232.911;  497.161
683.396; -147.974;-1102.089;-1122.840
683.664;  -29.372; -241.089;   21.160
683.932;    6.655;  144.911;  -76.840
684.200;  -80.593; -576.088; -320.841
684.468;  -18.815;  -73.088; -124.841
684.736;  -16.238; -214.088; -175.841
685.004;  -94.661;-1024.088; -982.842
685.272;    1.891; -880.088; -774.842
685.540;  -35.082; -499.087; -557.843
685.808;  -51.979; -651.087; -682.843
686.076;  -76.002; -894.087; -969.843
686.343;  -19.725; -601.087; -815.844
686.611;   84.477; -195.087; -224.844
686.879;  613.504; -530.086; -553.844
687.147; 4984.882; -483.086; -480.845
687.414; 1471.759;  -12.086; -169.845
687.682;   63.086; -658.086; -757.846
687.950;  458.463;  259.915;  263.154
688.217;  111.466; -792.085; -760.846
688.485;   48.568; -632.085; -636.847
688.753;  861.445;  -11.085; -102.847
689.020;  383.197; -820.085; -851.847
689.288;  -75.201; -853.084; -787.848
689.555;  -12.098; -195.084; -148.848
689.823;  -38.996; -241.084; -345.849
690.090;  -64.644; -546.084; -651.849
690.358; -132.142; -877.084; -897.849
690.625;   19.736;  120.917;   45.150
690.892;  -66.012; -403.083; -369.850
691.160;   -7.360;   72.917;  -35.850
691.427;   -1.733;  141.917;  130.149
691.694; -121.931; -855.083; -929.851
691.962; -129.978;-1177.082;-1060.852
692.229;   18.099;  127.918;   56.148
692.496;  135.676;  130.918;  -49.852
692.763;   48.603; -164.082; -201.853
693.031;  -49.969; -739.082; -716.853
693.298;   -1.267; -509.081; -368.853
693.565;  434.060; -155.081; -163.854
693.832; 2030.637;   -5.081;   -9.854
694.099;  296.939; -643.081; -642.855
694.366;  -17.458; -882.081; -896.855
694.633;   -2.081; -920.080; -633.855
694.900;  738.546; 4367.920; -114.856
695.167;  637.923; -214.080; -380.856
695.434;  190.275; -646.080; -623.856
695.701;  242.153;  121.921;  -61.857
695.968;  681.380; -365.079; -361.857
696.234; 1182.657; -415.079; -646.858
696.501;12198.859; -776.079; -614.858
696.768; 6865.737; -554.079; -617.858
697.035;  418.114; -632.078; -667.859
697.302;   73.491; -448.078; -552.859
697.568;   39.518; -458.078; -497.859
697.835;  -24.155; -683.078; -624.860
698.102;    8.973; -498.078; -407.860
698.368;   95.775;  384.923;  396.139
698.635;   -8.673;  -47.077; -424.861
698.901;    5.804; -240.077; -348.861
699.168;  134.907; -534.077; -456.862
699.435;  134.934;  -72.077;  -13.862
699.701;  -84.539; -868.076; -764.862
699.968;   23.888;  144.924; -441.863
700.234;  -81.160; -783.076; -822.863
700.500;  -33.332; -448.076; -539.864
700.767;    7.170;   -1.075;   26.136
701.033; -110.428;-1015.075; -963.864
701.299;  -44.126; -450.075; -483.865
701.566;  116.201;  950.925;  763.135
701.832;   24.929;  -31.075;  -76.865
702.098;  -67.619;-1054.074;-1034.866
702.365;  -53.017;-1098.074;-1030.866
702.631;   47.660;-1038.074;-1063.867
702.897; 1776.188; -765.074; -676.867
703.163; 3337.190;  348.926;  254.133
703.429;  251.817; -256.073; -273.868
703.695;    1.994; -796.073; -792.868
703.961;   46.571; -214.073; -210.868
704.227;  -20.626; -630.073; -725.869
704.493;  145.776;  613.927;  510.131
704.759;   17.303; -565.072; -540.870
705.025;   31.880; -203.072; -194.870
705.291;   12.083; -666.072; -562.870
705.557;  214.660;  719.928;   34.129
705.823;   86.412; -742.072; -694.871
706.089;  200.714; -307.071; -326.871
706.355;  442.041; -315.071; -244.872
706.620; 6167.644; -776.071; -729.872
706.886;10210.971; -309.071; -362.873
707.152; 1109.273; -818.070; -973.873
707.418;   35.225;-1153.070;-1186.873
707.683;   24.578; -550.070; -530.874
707.949;  -22.145; -547.070; -578.874
708.215;   13.907; -129.070; -207.874
708.480;   -4.666; -520.069; -420.875
708.746;  155.686;   68.931;   28.125
709.011;  -47.186; -578.069; -612.876
709.277;  -56.659; -538.069; -543.876
709.542;  -41.982; -428.069; -387.876
709.808;    1.270;  -59.068;   89.123
710.073;  -72.028; -577.068; -695.877
710.339;   -7.225; -242.068; -228.877
710.604;  125.652; -780.068; -845.878
710.869;  514.404; -277.068; -366.878
711.135;  -43.119; -715.067; -628.879
711.400;  -68.941; -507.067; -608.879
711.665;  -55.889; -404.067; -479.879
711.931;  -77.762; -661.067; -677.880
712.196;  -96.235; -876.067; -954.880
712.461;  200.542; -402.066; -490.880
712.726;  307.845; -727.066; -771.881
712.991;  -59.853; -647.066; -664.881
713.256;  -44.226; -350.066; -332.882
713.521;  -50.274; -417.065; -381.882
713.787;  -52.721; -454.065; -472.882
714.052;   -0.144; -214.065; -400.883
714.317;  -58.092;-1045.065; -981.883
714.581; 1231.910; -374.065; -268.883
714.846; 2043.262; -822.064; -888.884
715.111;  181.740;  261.936;  257.116
715.376;  -16.558;  -86.064; -223.885
715.641;   14.944; -365.064; -367.885
715.906;  476.996;   15.936; -551.885
716.171;  198.748;  221.937;  209.114
716.436;   87.051;  -78.063; -104.886
716.700;  -81.422; -818.063; -692.886
716.965; -112.970; -794.063; -807.887
717.230;  -66.393; -339.063; -392.887
717.494;   -8.715;  -40.062; -134.888
717.759;  -77.338; -784.062; -640.888
718.024;    5.489;  269.938;  250.112
718.288;   70.291;  685.938;  395.111
718.553; -132.257; -803.062; -977.889
718.817; -124.954; -883.061; -899.889
719.082;  -30.077; -115.061; -125.890
719.346; -127.450;-1000.061; -947.890
719.611;  -34.373; -300.061; -255.891
719.875;  -86.295; -568.060; -537.891
720.140;  -38.818; -453.060; -603.891
720.404;   78.309; -136.060; -249.892
720.668; 1259.361; -475.060; -411.892
720.933;  541.313;  146.940;  137.108
721.197;  -80.009; -667.059; -600.893
721.461; -107.682; -851.059; -826.893
721.725;  -10.830;  -21.059; -250.894
721.990;  -56.003; -284.059; -204.894
722.254;  -28.626;  -26.059; -108.894
722.518;  -58.173; -286.058; -442.895
722.782;  -77.846; -743.058; -594.895
723.046;  151.856;  614.942;  570.105
723.310;   14.833;  374.942;  210.104
723.574;  -82.414; -654.058; -614.896
723.838;  -94.337; -576.057; -642.897
724.102;  -36.485; -226.057; -239.897
724.366; -132.983;-1032.057; -978.897
724.630;  -79.431; -749.057; -571.898
724.894;  -66.678; -722.057; -514.898
725.158;    1.824;   38.944; -295.898
725.422;  -50.724; -394.056; -327.899
725.685;  -37.847; -441.056; -349.899
725.949;  -64.719; -566.056; -519.900
726.213;  -51.092; -732.056; -811.900
726.477;  330.260;-1020.055; -933.900
726.740;  272.462; -274.055; -104.901
727.004;  447.889; -384.055; -510.901
727.268; 4302.292; -442.055; -400.901
727.531; 1434.819; -961.055; -775.902
727.795;    9.946; -713.054; -673.902
728.059;  -26.927; -552.054; -557.903
728.322;  -49.849; -841.054; -669.903
728.586;   92.478; -692.054; -701.903
728.849;  -46.770; -695.053; -756.904
729.112; -100.168; -812.053; -912.904
729.376; -104.366; -959.053; -905.904
729.639;  -60.613; -536.053; -536.905
729.903;  -90.061; -733.053; -699.905
730.166;  -41.684; -437.052; -399.906
730.429;   -4.582; -317.052; -468.906
730.693;  -45.405; -355.052; -894.906
730.956;  220.873;  810.948;  651.093
731.219; 1052.150; -310.052; -103.907
731.482;  241.802;-1003.051; -894.907
731.745;  258.004; -794.051; -935.908
732.009;   41.457;  -30.051;   50.092
732.272;  -86.091; -904.051; -771.909
732.535;  -34.489; -300.051; -310.909
732.798; -132.312;-1083.050;-1166.909
733.061;  -44.635; -430.050; -456.910
733.324;   13.718;   31.950; -180.910
733.587;   72.545;  290.950;  365.090
733.850;  -57.353; -973.049;-1050.911
734.113;   48.924;   33.951;   32.089
734.376;   40.752; -328.049; -447.912
734.639;  254.304; 1188.951; 1011.088
734.901;  117.056; -180.049; -402.912
735.164;  705.708; -883.048; -837.913
735.427; 2048.135; -166.048; -355.913
735.690;  208.863; -205.048; -234.913
735.952;   33.865; -923.048; -925.914
736.215;   32.092;-1113.048;-1009.914
736.478;  103.394; -771.047; -774.915
736.740;  318.471;   33.953;  129.085
737.003;  878.674; -658.047; -672.915
737.266; 6122.476;  -94.047;   46.084
737.528;  740.278; -682.047; -660.916
737.791;  461.880; -316.046; -327.916
738.053;  965.558;  465.954;  649.083
738.316;13049.985; -162.046; -136.917
738.578;11275.337; -770.046; -736.918
738.841;  675.889; -382.046; -446.918
739.103;  316.266; -875.045; -777.918
739.365;  776.894;   79.955;  -69.919
739.628;   61.846; -884.045; -805.919
739.890;   19.598; -758.045; -710.919
740.152;  -13.275; -692.044; -754.920
740.414;   22.253; -408.044; -359.920
740.677;   -5.345; -785.044; -634.921
740.939;  -10.293; -587.044; -487.921
741.201;  418.459; -432.044; -572.921
741.463;  148.361; -689.043; -745.922
741.725;   44.839;  -21.043; -199.922
741.987;   78.066;  220.957;  116.078
742.249;   72.468; -751.043; -859.923
742.511;  378.670; -703.043; -794.923
742.773;   98.523; -546.042; -546.924
743.035;  154.300;  796.958;  533.076
743.297;    9.302; -963.042;-1013.924
743.559; 1081.529; -278.042; -262.925
743.821;  209.331; -735.042; -744.925
744.083;   48.384;  -44.041; -149.925
744.345;  -60.939; -869.041; -892.926
744.607;   57.313;   75.959;  122.074
744.868;  -22.660; -490.041; -554.927
745.130;  -70.458; -994.041;-1008.927
745.392;   75.770;   -1.040;  -44.927
745.653;   19.572; -411.040; -378.928
745.915;  173.249;  896.960;  631.072
746.177;   88.301;   35.960;  -43.928
746.438;   51.479; -428.040; -543.929
746.700;   17.081; -947.039; -988.929
746.961;   69.633; -659.039; -740.930
747.223;  222.460; -190.039;  -74.930
747.484;  180.662; -391.039; -471.930
747.746;  233.165;  -23.038; -106.931
748.007;  215.192; -647.038; -689.931
748.269;  464.144; -468.038; -440.931
748.530;  797.296; -852.038; -638.932
748.791;  427.799; -354.038; -420.932
749.053;  638.876;  286.963;  163.067
749.314;  684.628; -236.037; -169.933
749.575;  808.630; -945.037; -905.933
749.836; 1245.207; -217.037;   86.066
750.098; 3111.335;  -60.037;  -21.934
750.359;49980.862;  414.964;  555.066
750.620;15897.364; -121.036; -220.935
750.881; 1546.916; -585.036; -513.935
751.142; 1938.918; -950.036; -938.936
751.403;21063.071; -789.036; -705.936
751.664;11826.073;-1034.035; -999.936
751.925;  736.375; -175.035; -262.937
752.186;  416.477; -298.035; -278.937
752.447;  241.980; -590.035; -445.937
752.708;  119.957; -532.035; -648.938
752.969;   85.484; -566.034; -576.938
753.230;   55.311; -777.034; -672.939
753.491;   70.838; -650.034; -631.939
753.751;   96.916;  109.966;   19.061
754.012;  127.193;  258.967;  181.060
754.273;  112.070; -174.033;  -71.940
754.534;   64.222; -487.033; -580.940
754.794;  -51.375; -926.033; -911.941
755.055;  152.752; 1051.967;  881.059
755.316;  -16.921; -700.032; -566.942
755.576;   16.656; -606.032; -576.942
755.837;  -16.942; -527.032; -695.942
756.097;  -14.689; -530.032; -564.943
756.358;  -46.137; -725.032; -770.943
756.618;   -6.885; -705.031; -641.943
756.879;   57.567; -254.031; -349.944
757.139;  -81.855;-1098.031;-1116.944
757.400;  -16.828; -538.031; -553.945
757.660;    6.399; -365.031; -401.945
757.920;   40.826; -266.030; -228.945
758.181;   20.703; -468.030; -351.946
758.441;  -68.744; -870.030; -809.946
758.701;  -20.092; -308.030; -215.946
758.961;  -10.540; -220.030; -278.947
759.222;  -15.363; -574.029; -502.947
759.482;  -60.636; -683.029; -723.948
759.742;  -55.708; -706.029; -547.948
760.002;    7.219;  -83.029; -143.948
760.262;   46.921;   50.972;  182.051
760.522;  -26.527; -498.028; -574.949
760.782;  -22.349; -738.028; -612.949
761.042;   -1.847; -618.028; -573.950
761.302;   57.755;   55.972;  -18.950
761.562;   69.707; -164.027; -154.951
761.822;  156.959; -710.027; -551.951
762.082;  -11.188;-1104.027;-1093.951
762.342;   91.289; -328.027; -403.952
762.601;  105.766; -567.027; -506.952
762.861;  456.518; -281.026; -207.952
763.121;  422.671; -406.026; -411.953
763.381; 6435.173; -499.026; -485.953
763.640; 9135.100; -139.026; -307.954
763.900;  378.977; -242.026; -203.954
764.160;  106.629; -458.025; -491.954
764.419;    3.632; -726.025; -782.955
764.679;  -64.216; -795.025; -726.955
764.939;   -7.114; -124.025; -210.955
765.198;  -61.412; -608.025; -563.956
765.458;  -71.510; -710.024; -612.956
765.717;  -58.632; -454.024; -590.957
765.976;  -62.280; -428.024; -411.957
766.236;  -70.728; -475.024; -610.957
766.495;   19.749;  260.977;   73.042
766.755;  -44.673;-1090.023; -987.958
767.014;   68.404; -594.023; -665.958
767.273;  -45.644; -373.023; -397.959
767.533;  -46.567; -228.023; -307.959
767.792;  -33.590; -151.022; -188.960
768.051;  -49.437; -228.022; -276.960
768.310;  -69.935; -546.022; -650.960
768.569;   -7.858; -161.022;    4.039
768.828;  -26.806; -285.022; -363.961
769.088;  -82.253;-1050.021; -942.961
769.347;  -71.101; -755.021; -599.962
769.606; -100.849; -876.021; -857.962
769.865; -107.522;-1016.021;-1033.963
770.124;    3.730; -411.021; -336.963
770.383;  -24.217; -778.020; -910.963
770.641;   29.360; -398.020; -400.964
770.900;  -52.813; -953.020; -846.964
771.159;  -14.036; -851.020; -951.964
771.418;   12.416; -917.020; -779.965
771.677;  130.794; -224.019; -293.965
771.936;  177.471; -794.019; -865.966
772.194; 1955.048; -465.019; -437.966
772.453;13206.250; -213.019; -391.966
772.712; 1045.253;  416.982;  329.033
772.970;  139.005;   32.982;   63.033
773.229;  109.182;  -22.018;  102.033
773.488;  -62.541; -814.018; -770.968
773.746;   65.236;  296.982;  335.032
774.005;   11.089;  190.983;  -22.969
774.263;   18.816;  243.983;  177.031
774.522;  -56.157; -422.017; -548.969
774.780;  -69.680; -484.017; -417.970
775.039;  -86.727; -551.017; -531.970
775.297;  -30.000; -135.016; -351.970
775.555;  -98.548; -489.016; -612.971
775.814; -113.071; -618.016; -570.971
776.072; -115.544; -749.016; -740.971
776.330;  -93.316; -630.016; -520.972
776.589; -112.414; -703.015; -721.972
776.847;  -99.462; -645.015; -624.973
777.105; -155.310;-1016.015;-1032.973
777.363;  -68.082; -459.015; -454.973
777.621; -141.705; -660.015; -717.974
777.879;  -38.203;  -42.014;   32.026
778.138;  -95.001; -554.014; -717.974
778.396; -104.449; -585.014; -526.975
778.654; -157.596;-1015.014; -970.975
778.912;  -68.244; -269.014; -371.976
779.170; -133.742; -880.013; -803.976
779.427; -150.440; -922.013; -897.976
779.685; -123.388; -880.013; -832.977
779.943;  -62.560; -654.013; -593.977
780.201; -149.283; -964.012; -883.978
780.459; -103.931; -651.012; -610.978
780.717;  -81.829; -440.012; -390.978
780.974;  -99.851; -449.012; -490.979
781.232;  -70.349; -358.012; -338.979
781.490;  -48.847; -551.011; -472.979
781.747; -107.620; -555.011; -476.980
782.005;   11.432;  462.989;  254.020
782.263; -159.865; -542.011;-1004.981
782.520;  -82.763; -326.011; -501.981
782.778; -157.661;-1013.010;-1051.981
783.035; -157.409; -962.010; -938.982
783.293;  -58.806; -248.010; -206.982
783.550;  -49.979; -134.010; -198.982
783.808; -119.027; -764.010; -776.983
784.065; -158.175; -745.009; -874.983
784.322;  -48.398;   25.991;  -86.984
784.580; -138.120; -915.009; -771.984
784.837;  -86.893; -392.009; -466.984
785.094; -126.816; -783.009; -762.985
785.352;  -58.539; -304.008; -404.985
785.609;  -75.587; -934.008; -839.985
785.866;  -78.384; -345.008; -401.986
786.123;  -32.657; -639.008; -583.986
786.380;  -85.755; -665.008; -604.987
786.637;  -35.078; -225.007; -380.987
786.895;   19.300; -456.007; -543.987
787.152;  -41.073; -135.007; -267.988
787.409;  -48.296; -123.007; -225.988
787.666;  -69.819; -299.006; -378.988
787.923; -104.142; -616.006; -695.989
788.179;  -90.439; -551.006; -584.989
788.436; -119.762; -585.006; -585.990
788.693;  -33.785;  -92.006;  -87.990
788.950;  199.892; -125.005; -112.990
789.207;  437.945; -381.005; -372.991
789.464;  -49.278; -161.005; -301.991
789.720;  -10.751;  150.995;  110.009
789.977; -163.324;-1003.005; -671.992
790.234;  -23.572;   44.996;  -66.992
790.490; -148.569; -884.004;-1031.993
790.747;  -10.992;  -85.004;   22.007
791.004;   -0.415; -426.004; -348.993
791.260;  -72.113; -430.004; -560.994
791.517;  -76.710; -843.003; -788.994
791.773;  -19.083; -379.003; -342.994
792.030; -103.106; -596.003; -660.995
792.286; -101.004; -686.003; -636.995
792.543;  -17.027;  -74.002; -159.995
792.799;  -46.474; -584.002; -382.996
793.055; -133.547;-1179.002;-1210.996
793.312;  -82.920; -827.002; -816.997
793.568;  -49.593; -746.002; -599.997
793.824;   10.659; -226.001; -284.997
794.081;   35.087; -447.001; -508.998
794.337;   76.714; -664.001; -561.998
794.593; 1059.266; -319.001; -271.999
794.849; 7498.768; -746.001; -772.999
795.105;  481.446; -270.000; -261.999
795.361;   24.623; -490.000; -457.000
795.617;  -27.775; -875.000; -945.000
795.873;  -27.525; -360.000; -407.000
796.129;  -19.625; -368.000; -306.000
796.385;  -19.250; -124.000; -156.000
796.641;   56.950;  412.000;  550.000
796.897;  -59.625; -666.000; -635.000
797.153;   60.675;  453.000;  357.000
797.409;  -87.400; -785.000; -868.000
797.665;  -56.300; -625.000; -732.000
797.921;  -54.825; -775.000; -762.000
798.176;  -38.550; -744.000; -747.000
798.432;  -18.100; -824.000; -596.000
798.688;  -40.950;-1174.000;-1078.000
798.943;  122.825; -165.000; -147.000
799.199;   38.525;-1005.000; -959.000
799.455;  261.125;  369.000;  316.000
799.710;  195.500; -813.000; -380.000
799.966;  396.175; -162.000; -160.000
800.221;  594.950; -638.000; -721.000
800.477;11238.750; -743.000; -710.000
800.732;13694.175; -773.000; -800.000
800.988;  803.075;  205.000;  -19.000
801.243; 1450.400; -454.000; -344.000
801.498; 8275.300; -814.000; -739.000
801.754;  594.800; -289.000; -163.000
802.009;  117.950; -257.000; -335.000
802.264;  -25.725; -967.000;-1033.000
802.520;   40.675;  222.000;   -3.000
802.775;  -38.625; -524.000; -359.000
803.030;   52.775;  395.000;  356.000
803.285; -108.125; -840.000; -903.000
803.540;  -48.075; -686.000; -699.000
803.795;   -6.800; -648.000; -583.000
804.051;  -22.725; -279.000; -346.000
804.306;   18.675;  168.000;  128.000
804.561;  196.100;  451.000;  362.000
804.816;  141.525;  714.000;  861.000
805.071;   14.950; -185.000; -280.000
805.325;  357.775; -257.000; -427.000
805.580;  -74.775; -841.000; -877.000
805.835;   -7.825; -204.000; -297.000
806.090;  -58.375; -760.000; -676.000
806.345;   -6.400; -344.000; -264.000
806.600;   -8.200; -549.000; -632.000
806.854;   -3.500; -408.000; -538.000
807.109;    4.100; -493.000; -577.000
807.364;   28.125; -407.000; -328.000
807.618;   20.175; -415.000; -381.000
807.873;   82.675; -470.000; -494.000
808.128;  122.950; -257.000; -518.000
808.382;  162.125; -224.000; -332.000
808.637;  107.775; -440.000; -511.000
808.891;  213.150; -257.000; -180.000
809.146;  151.925; -902.000; -794.000
809.400;  336.575; -848.000; -923.000
809.654;  412.925; -779.000; -551.000
809.909;  574.900; -841.000; -927.000
810.163; 6713.825; -813.000; -651.000
810.418;24033.500; -940.000; -861.000
810.672; 1480.750; -685.000; -690.000
810.926;  782.125; -993.000; -973.000
811.180; 1306.275; -439.000; -372.000
811.434;27084.675;  240.000;  135.000
811.689;15301.175; -231.000; -365.000
811.943;  784.775; -936.000; -953.000
812.197;  344.300; -893.000; -671.000
812.451;  141.625; -379.000; -514.000
812.705;   -5.275; -809.000; -619.000
812.959;   19.675; -263.000; -388.000
813.213;    2.800; -283.000; -209.000
813.467;   73.575;  470.000;  253.000
813.721;  -86.100; -764.000; -792.000
813.975;  -93.600; -826.000; -877.000
814.229;   53.725;  430.000;  353.000
814.482;  -63.350; -517.000; -566.000
814.736; -124.975; -766.000; -744.000
814.990; -121.750; -779.000; -872.000
815.244;  -43.400; -228.000; -285.000
815.497;  -86.225; -636.000; -601.000
815.751;  -13.175; -141.000;   82.000
816.005;  -84.925; -470.000; -586.000
816.258;  -63.675; -510.000; -363.000
816.512;  -84.750; -693.000; -610.000
816.766;   -0.650;  121.000;  157.000
817.019;   44.925;  148.000;  149.000
817.273;  -92.725;-1000.000; -802.000
817.526;  -21.400; -206.000; -173.000
817.779;    1.500;-1049.000; -960.000
818.033;  -21.250; -693.000; -807.000
818.286; -116.725; -725.000; -792.000
818.540;  -83.425; -403.000; -403.000
818.793;  -59.400; -402.000; -489.000
819.046; -115.100; -582.000; -520.000
819.299;  -38.200; -157.000; -166.000
819.553; -122.850; -552.000; -592.000
819.806; -142.675;-1016.000; -838.000
820.059;  -62.250; -334.000; -354.000
820.312;   30.050;  152.000;  185.000
820.565;   -4.525;  110.000;  -27.000
820.818;  -46.375;  -59.000; -173.000
821.071; -147.550;-1041.000; -957.000
821.324;  -91.650; -536.000; -540.000
821.577; -105.325; -457.000; -483.000
821.830;  -57.075; -270.000; -172.000
822.083; -126.025; -733.000; -288.000
822.336;  -44.450; -261.000; -167.000
822.589; -125.000; -805.000; -688.000
822.842; -137.600; -875.000; -770.000
823.094; -159.750;-1076.000;-1114.000
823.347; -118.150; -925.000; -729.000
823.600;   19.125;  402.000;  187.000
823.853;  -49.500; -311.000; -267.000
824.105;  -68.325; -331.000; -575.000
824.358;  -90.175; -617.000; -716.000
824.611;   33.825;  234.000;   40.000
824.863;  -27.600; -612.000; -591.000
825.116;   67.450;  -33.000;   27.000
825.368;  148.850; -366.000; -372.000
825.621;  252.150; -186.000; -240.000
825.873;  154.125; -704.000; -737.000
826.126;  654.450; -669.000; -641.000
826.378;13994.500; -389.000; -505.000
826.630; 5106.100; -890.000; -898.000
826.883;  145.800; -754.000; -693.000
827.135;   83.200; -279.000; -270.000
827.387;  -86.300; -893.000; -839.000
827.639;  -23.125;  -86.000;   32.000
827.892; -112.400; -742.000; -582.000
828.144; -130.375; -848.000; -804.000
828.396;  -31.350;  104.000;  -80.000
828.648;  -85.700; -440.000; -333.000
828.900; -138.125; -702.000; -795.000
829.152; -112.525; -684.000; -683.000
829.404;  -59.475; -215.000; -267.000
829.656;   -7.325;  321.000;  214.000
829.908;  -18.575;  393.000;  229.000
830.160; -161.525;-1064.000;-1047.000
830.412;  -73.000; -481.000; -430.000
830.664;  -99.925; -557.000; -665.000
830.916;  -79.650; -268.000; -206.000
831.167; -168.500;-1073.000; -951.000
831.419; -100.650; -623.000; -566.000
831.671; -138.300; -764.000; -809.000
831.923;  -91.575; -311.000; -447.000
832.174;  -70.425; -273.000; -331.000
832.426; -106.325; -493.000; -582.000
832.678; -183.550;-1043.000;-1091.000
832.929; -160.625; -947.000; -935.000
833.181;  -29.725; -575.000; -677.000
833.432;  -28.175;  -59.000; -186.000
833.684;  -23.075;  112.000;  -27.000
833.935; -105.100; -610.000; -566.000
834.187; -114.550; -829.000; -823.000
834.438;  -45.475;  -58.000;  -25.000
834.689;  -73.025; -255.000; -123.000
834.941;  -52.100; -343.000; -244.000
835.192;  -85.950; -590.000; -533.000
835.443;  -84.575; -419.000; -506.000
835.695;  -25.850;  138.000;  -16.000
835.946;  -82.400; -608.000; -378.000
836.197; -105.950; -599.000; -622.000
836.448;  -92.800; -528.000; -395.000
836.699;  -48.800; -253.000; -341.000
836.950;   -3.100;   72.000;    7.000
837.201; -132.600;-1003.000; -987.000
837.452;  -47.700; -356.000; -170.000
837.703;  -95.125; -791.000; -737.000
837.954;  -21.500; -205.000; -365.000
838.205;  -54.875;-1029.000;-1008.000
838.456;  273.375; -196.000; -282.000
838.707;   52.700; -423.000; -519.000
838.958;   46.400; -634.000; -647.000
839.209;  407.800;   18.000;   40.000
839.460;  183.050; -439.000; -201.000
839.710;  243.025; -135.000; -297.000
839.961;  533.075;  730.000;  612.000
840.212;  473.225; -382.000; -497.000
840.462; 1308.725; -328.000; -277.000
840.713;20396.825; -571.000; -536.000
840.964;11743.425;  -62.000; -143.000
841.214;  763.650; -384.000; -624.000
841.465;  767.975; -214.000; -141.000
841.715;  696.775; -417.000; -380.000
841.966;  866.025; -746.000; -685.000
842.216; 8852.300; -330.000; -431.000
842.466;45947.825; -169.000; -313.000
842.717; 3837.450; -964.000; -952.000
842.967;  447.425; -635.000; -641.000
843.217;  398.175;   20.000;   28.000
843.468;  114.975; -104.000; -132.000
843.718;   -5.375; -718.000; -726.000
843.968;  -67.025; -837.000; -765.000
844.218;   42.600; -315.000; -262.000
844.469;   13.300; -577.000; -561.000
844.719;  -89.275; -537.000; -682.000
844.969;  -87.975; -550.000; -580.000
845.219; -134.875; -814.000; -862.000
845.469;  -65.650; -392.000; -342.000
845.719; -115.975; -792.000; -884.000
845.969;  -22.575;  119.000;  174.000
846.219; -104.450; -738.000; -720.000
846.469;   29.525;  464.000;  432.000
846.718;  -42.475; -115.000;   31.000
846.968; -126.125; -827.000; -827.000
847.218;  -46.450; -224.000; -371.000
847.468;    2.050; -586.000; -555.000
847.718; -131.525; -827.000; -798.000
847.967; -109.475; -826.000; -915.000
848.217;  -70.725; -449.000; -569.000
848.467;  -53.550; -405.000; -376.000
848.716;  -85.050; -708.000; -725.000
848.966;   36.500; -372.000; -358.000
849.215;  -26.600; -428.000; -419.000
849.465;  -66.275; -785.000; -615.000
849.714; -122.475;-1132.000;-1150.000
849.964;  -43.550; -551.000; -613.000
850.213;   19.650; -393.000; -355.000
850.463;   98.800;  137.000;  340.000
850.712;   38.675; -542.000; -567.000
850.961;   70.650; -739.000; -678.000
851.211;  168.450; -513.000; -504.000
851.460;  267.325; -635.000; -650.000
851.709;  717.700;  -25.000;   18.000
851.958;11318.275; -912.000; -750.000
852.208;19743.550; -859.000; -879.000
852.457;  835.600; -181.000;  -13.000
852.706;  155.425; -791.000; -823.000
852.955;   99.700; -507.000; -528.000
853.204;  -54.200; -521.000; -461.000
853.453;  -67.400; -418.000; -458.000
853.702; -121.725; -660.000; -750.000
853.951; -103.850; -532.000; -520.000
854.200; -106.675; -613.000; -562.000
854.449; -134.600; -695.000; -661.000
854.698;  -99.850; -340.000; -279.000
854.946;  -63.550; -181.000; -284.000
855.195; -139.975; -843.000; -868.000
855.444;  -94.875; -395.000; -420.000
855.693; -112.225; -345.000; -432.000
855.941;  -91.400; -387.000; -516.000
856.190;  -45.175; -256.000; -382.000
856.439; -137.025; -652.000; -703.000
856.687;  -58.400;  -99.000;  -72.000
856.936; -120.675; -621.000; -323.000
857.184; -176.500;-1067.000;-1020.000
857.433;  -93.950; -423.000; -512.000
857.681; -145.075; -989.000; -953.000
857.930;  -67.175; -282.000; -433.000
858.178; -154.000; -856.000; -929.000
858.427; -142.325; -802.000; -781.000
858.675; -122.250; -377.000; -544.000
858.923;  -95.500; -527.000; -819.000
859.172; -173.075;-1094.000;-1070.000
859.420;  -90.525; -339.000; -239.000
859.668; -130.025; -624.000; -628.000
859.916;  -25.950;  109.000;  115.000
860.164;  -92.450; -699.000; -603.000
860.413;  417.500; -878.000; -696.000
860.661;  527.575; -709.000; -577.000
860.909;  -54.400; -339.000; -325.000
861.157;  -92.125; -277.000; -444.000
861.405; -108.400; -534.000; -670.000
861.653;   20.150;  310.000;  310.000
861.901;  271.725; -543.000; -613.000
862.149;  134.450; -801.000; -824.000
862.396;  -67.625; -297.000; -187.000
862.644;  -73.125; -368.000; -347.000
862.892;  -32.575;   98.000;  138.000
863.140; -116.900; -549.000; -530.000
863.388; -147.700; -815.000; -759.000
863.635; -124.400; -642.000; -601.000
863.883;  -23.275;  231.000;  190.000
864.131; -107.825; -288.000; -357.000
864.378; -122.425; -675.000; -540.000
864.626; -110.600; -347.000; -415.000
864.873; -111.800; -556.000; -505.000
865.121; -137.725; -714.000; -799.000
865.368;  -53.450; -173.000;   75.000
865.616;  -39.125;  -33.000;  -40.000
865.863;  -72.600; -462.000; -506.000
866.111;  -90.875; -795.000; -824.000
866.358;   41.475; -426.000; -420.000
866.605; 2176.275;  -64.000; -804.000
866.853; 3185.550; -621.000; -537.000
867.100;   21.700; -728.000; -775.000
867.347;  -93.275; -672.000; -611.000
867.594;  -67.700; -740.000; -714.000
867.841;  153.000;   97.000;   17.000
868.089; -144.200; -746.000; -698.000
868.336; -109.450; -477.000; -420.000
868.583; -143.275; -637.000; -741.000
868.830;  -48.950; -131.000; -170.000
869.077; -165.375; -859.000; -787.000
869.324; -127.250; -502.000; -458.000
869.571; -136.425; -398.000; -430.000
869.818; -112.450; -485.000; -439.000
870.065; -102.575; -439.000; -513.000
870.311;  -97.550; -456.000; -542.000
870.558; -117.200; -332.000; -311.000
870.805;  -88.275; -320.000; -384.000
871.052; -103.075; -494.000; -369.000
871.298;  -46.200; -204.000; -131.000
871.545;  -64.725; -151.000; -185.000
871.792;  -87.075; -173.000; -222.000
872.038;  -74.875;   43.000; -126.000
872.285; -110.800; -496.000; -387.000
872.532;  -90.225; -357.000; -387.000
872.778;   14.025;  556.000;  403.000
873.025;  -97.500; -384.000; -359.000
873.271;   15.475;  501.000;  578.000
873.517;  -30.975; -133.000; -209.000
873.764;    4.875; -193.000;  -80.000
874.010;  -65.525; -143.000; -230.000
874.257;  -41.775;  123.000;   90.000
874.503; -132.625; -579.000; -479.000
874.749;  -75.150;   31.000;  275.000
874.995;  -67.175;  -80.000;  -20.000
875.242; -130.050; -540.000; -478.000
875.488; -102.475; -414.000; -439.000
875.734;  -42.450; -106.000; -234.000
875.980;  284.000; -872.000;-1032.000
876.226;  704.225; -157.000; -255.000
876.472;   11.375;  343.000;  237.000
876.718;  -43.975;  184.000;  158.000
876.964;  -45.400;   56.000;   55.000
877.210; -154.525; -547.000; -677.000
877.456; -130.475; -630.000; -557.000
877.702; -177.150; -821.000; -832.000
877.948; -118.400; -377.000; -497.000
878.193;    8.925;  361.000;  255.000
878.439;  -76.900; -487.000; -472.000
878.685;  -91.075; -272.000; -343.000
878.931; -138.200; -618.000; -676.000
879.176;  -79.050; -201.000; -201.000
879.422; -179.200; -933.000; -820.000
879.668;   37.825;   10.000;   79.000
879.913;  242.700;   53.000;  137.000
880.159;  -44.350; -112.000;  -17.000
880.404;  -48.300; -152.000; -162.000
880.650;  -40.650;   91.000;  141.000
880.895; -158.625; -670.000; -710.000
881.141; -129.900; -454.000; -428.000
881.386; -147.900; -503.000; -658.000
881.631;  -97.875; -311.000; -166.000
881.877;  -31.275;  112.000;  -13.000
882.122; -127.450; -684.000; -600.000
882.367;  -88.225; -136.000; -186.000
882.612;  -71.375;  -80.000; -176.000
882.858; -171.200; -877.000; -823.000
883.103; -104.875; -297.000; -267.000
883.348; -144.975; -759.000; -852.000
883.593; -130.575; -677.000; -602.000
883.838;  -72.950; -311.000;  -24.000
884.083;   52.150;  353.000;  288.000
884.328;  -80.625; -564.000; -545.000
884.573;  -40.625; -196.000; -143.000
884.818;  282.875; -694.000; -531.000
885.063;  418.500; -348.000; -315.000
885.308;  -78.300; -475.000; -398.000
885.553;  -32.925;  245.000;  325.000
885.797; -126.825; -545.000; -615.000
886.042;  -70.625;    8.000;   58.000
886.287;  -91.175; -253.000; -211.000
886.532;  -49.475;   26.000;  204.000
886.776; -103.400; -407.000; -525.000
887.021; -137.625; -621.000; -574.000
887.265; -147.775; -685.000; -689.000
887.510; -135.825; -557.000; -496.000
887.755; -103.300; -194.000; -164.000
887.999; -132.425; -552.000; -575.000
888.244;  -65.600;  -58.000;  161.000
888.488;  -17.725;  371.000;  393.000
888.732; -119.000; -368.000; -520.000
888.977; -128.850; -622.000; -567.000
889.221; -137.525; -683.000; -659.000
889.465; -124.900; -422.000; -566.000
889.710;  -76.700;  -56.000; -299.000
889.954;   -6.300;  579.000;  467.000
890.198; -153.475; -584.000; -707.000
890.442; -138.600; -716.000; -712.000
890.687; -164.875; -800.000; -753.000
890.931;  -96.825; -273.000; -210.000
891.175; -142.225; -502.000; -500.000
891.419;  -89.500; -105.000; -110.000
891.663;  -99.600; -239.000; -112.000
891.907; -162.425; -801.000; -545.000
892.151; -167.325; -920.000; -815.000
892.395; -101.775; -274.000; -387.000
892.638;  -30.550;  408.000;  291.000
892.882; -177.200; -780.000; -867.000
893.126;    3.625;  758.000;  558.000
893.370;  -90.625; -167.000; -168.000
893.614; -154.275; -714.000; -715.000
893.857;  -86.600; -183.000; -197.000
894.101; -143.875; -527.000; -631.000
894.345;  -67.725;  300.000;  150.000
894.588;    8.450;  569.000;  380.000
894.832;  -96.775; -178.000;  -84.000
895.075;  -86.250;   15.000;  -92.000
895.319; -129.800; -552.000; -420.000
895.563; -121.225; -413.000; -353.000
895.806; -141.475; -628.000; -741.000
896.049;  -52.075; -576.000; -368.000
896.293;  151.725;  527.000;  405.000
896.536;  -29.925; -465.000; -468.000
896.779;  -57.250; -149.000;   -1.000
897.023; -119.375; -751.000; -714.000
897.266;  -34.775;  325.000;  269.000
897.509; -171.975; -900.000; -901.000
897.752;  -55.250;  149.000;  171.000
897.996; -177.275; -972.000; -864.000
898.239;  -49.250;  168.000;  102.000
898.482; -117.600; -431.000; -453.000
898.725;  -22.000;  101.000;   53.000
898.968; -137.675; -609.000; -744.000
899.211; -103.150; -513.000; -361.000
899.454; -104.500; -633.000; -539.000
899.697;  -74.425;   90.000;  -43.000
899.940; -169.050; -761.000; -757.000
900.182; -101.375; -335.000; -405.000
900.425;  -95.525; -150.000; -298.000
900.668;  -24.675;  491.000;  350.000
900.911; -115.100; -292.000; -345.000
901.154;  -67.450;  141.000;   -3.000
901.396; -146.175; -407.000; -412.000
901.639; -142.975; -430.000; -496.000
901.882; -183.700; -790.000; -809.000
902.124;  -90.900;  -29.000; -143.000
902.367; -131.100; -315.000; -361.000
902.609; -134.375; -476.000; -453.000
902.852;  -96.825; -108.000; -260.000
903.094; -121.150; -458.000; -337.000
903.337;  -64.100;  -26.000;   53.000
903.579; -124.150; -228.000; -441.000
903.821; -150.750; -597.000; -744.000
904.064;  -58.400;   85.000;  127.000
904.306; -101.775; -126.000; -166.000
904.548; -107.275; -152.000; -366.000
904.790;  -98.550; -195.000; -340.000
905.033; -136.525; -625.000; -577.000
905.275; -122.450; -513.000; -524.000
905.517;   64.500;  468.000;  256.000
905.759;  -12.150; -667.000; -761.000
906.001;  -83.550; -322.000; -369.000
906.243;  -45.925; -162.000; -224.000
906.485;  183.700; -265.000; -207.000
906.727;  280.150; -499.000; -542.000
906.969;  -13.350;  -30.000; -135.000
907.211;  211.250; -316.000; -382.000
907.453;  500.400; -188.000; -237.000
907.695;   96.225; -158.000; -385.000
907.936;   44.950;  818.000;  706.000
908.178;  -56.825;   92.000; -135.000
908.420;  -75.125; -111.000; -162.000
908.662; -124.725; -633.000; -682.000
908.903;  -85.800; -208.000; -123.000
909.145;  -57.150; -240.000; -305.000
909.386;    1.375;  315.000;  280.000
909.628;   29.075;  363.000;  397.000
909.870;   -5.150;   29.000;  264.000
910.111;  -87.900; -809.000; -949.000
910.353;   27.175; -123.000; -161.000
910.594;   24.475; -574.000; -606.000
910.835;   96.475; -265.000; -326.000
911.077;  166.675; -503.000; -604.000
911.318;  301.575; -505.000; -471.000
911.559;  496.925; -577.000; -880.000
911.801; 1256.725; -284.000; -280.000
912.042; 8927.850;  -50.000; -159.000
912.283;28947.000;  404.000;  371.000
912.524; 6122.900; -396.000; -457.000
912.765;  606.325; -193.000;   79.000
913.006;  276.425; -307.000; -338.000
913.247;   79.625; -270.000; -290.000
913.488;   13.625;  -43.000;   30.000
913.729;  -69.425; -373.000; -373.000
913.970;  -47.625;  -96.000; -292.000
914.211;  -72.150; -160.000; -198.000
914.452;  -54.325; -118.000;  -11.000
914.693;   26.925;  510.000;  592.000
914.934;    7.875;  510.000;  440.000
915.175;  -43.625;   53.000;  -95.000
915.415;  -75.775; -137.000;   27.000
915.656;  -52.225;  -28.000;  192.000
915.897;  -93.425; -252.000;  -82.000
916.137;  -77.650;   74.000;   -9.000
916.378; -143.900; -573.000; -517.000
916.619;  -84.375; -159.000;  -63.000
916.859;  -20.450;  303.000;  330.000
917.100;  115.325; 1655.000; 1070.000
917.340;   54.075;  930.000;  728.000
917.581;   54.650;  965.000;  789.000
917.821;   -6.225; -171.000;  143.000
918.061;   71.700; -199.000;  -72.000
918.302;  -44.675; -152.000; -211.000
918.542;    6.250;  -22.000;    3.000
918.782;   62.000;  369.000;  377.000
919.023;  166.075;  360.000;  427.000
919.263; 1875.800; 8131.000;  202.000
919.503; 1787.600; -137.000;  -54.000
919.743;  950.200;  390.000;  266.000
919.983;  519.075; -134.000;  -26.000
920.223;  136.975;  135.000;   14.000
920.463;  194.575;  631.000;  554.000
920.703;  175.350;   84.000;   39.000
920.943;  227.325; -110.000;   90.000
921.183;  316.350; -414.000; -405.000
921.423;  627.650;  307.000;  546.000
921.663;  917.175; -174.000; -257.000
921.903; 1863.325;  237.000;  173.000
922.143; 9490.050;  372.000;  389.000
922.383;40085.800;  158.000;  115.000
922.622;18669.950; -120.000;  -15.000
922.862; 1926.825;  796.000;  785.000
923.102;  682.100;  -51.000;   33.000
923.341;  315.100;   59.000;   74.000
923.581;  138.325;  450.000;  360.000
923.821;   30.450;  301.000;  398.000
924.060;   22.000;  351.000;  193.000
924.300;  -41.275;  -16.000; -128.000
924.539;   -0.250;  584.000;  473.000
924.779;   14.075;  812.000;  597.000
925.018;  -46.025;  247.000;  353.000
925.257;   -5.250;  595.000;  666.000
925.497;  -31.625;  447.000;  412.000
925.736;  -70.400;  -35.000;  102.000
925.975;    0.875;  687.000;  669.000
926.214;   17.275;  907.000;  850.000
926.454;   29.175;  706.000;  757.000
926.693;  -37.175;  419.000;  543.000
926.932;   23.450; 1021.000;  825.000
927.171;   59.500; 1107.000; 1044.000
927.410;   61.750; 1144.000;  967.000
927.649;    9.950;  924.000;  742.000
927.888;   -6.775;  590.000;  564.000
928.127;   -0.500;  680.000;  678.000
928.366;   29.750;  842.000;  826.000
928.605;   59.175;  831.000;  737.000
928.844;  260.500; 1451.000; 1393.000
929.083;  819.275;  770.000;  613.000
929.321;  524.000; 1335.000; 1359.000
929.560;  107.975; 1158.000; 1122.000
929.799;   -9.300;  574.000;  475.000
930.038;   90.250; 1025.000; 1394.000
930.276;  -49.150;  334.000;  397.000
930.515;   15.475;  827.000;  681.000
930.753;  -13.350;  614.000;  589.000
930.992;  -13.400;  664.000;  717.000
931.230;   -6.375;  847.000;  847.000
931.469;  144.875; 2162.000;  892.000
931.707;   60.575;  840.000;  751.000
931.946;   46.975; 1278.000; 1344.000
932.184;   44.175; 1437.000; 1175.000
932.423;   59.500; 1265.000;  963.000
932.661;   82.825; 1296.000; 1428.000
932.899;   40.625;  987.000;  821.000
933.137;   35.925;  754.000;  564.000
933.376;  173.875; 1664.000; 1335.000
933.614;  199.100; 1759.000; 1196.000
933.852;   60.325; 1357.000; 1171.000
934.090;  148.450; 1722.000; 1747.000
934.328;  119.800; 1252.000; 1457.000
934.566;  111.875; 1431.000; 1110.000
934.804;  152.250; 1263.000; 1309.000
935.042;  511.675; 1861.000; 1850.000
935.280; 1950.375; 2088.000; 2063.000
935.518; 2400.325; 2113.000; 2007.000
935.756;  504.400; 2481.000; 2316.000
935.994;  188.700; 1808.000; 1751.000
936.231;  383.575; 2890.000; 2950.000
936.469;  208.800; 2367.000; 2378.000
936.707;  145.400; 2220.000; 2167.000
936.945;  224.675; 2825.000; 2882.000
937.182;  208.125; 2679.000; 2741.000
937.420;  321.500; 3602.000; 3031.000
937.657;  443.400; 3365.000; 3478.000
937.895;  398.300; 3331.000; 3488.000
938.133;  323.875; 3540.000; 3528.000
938.370;  354.975; 3896.000; 4191.000
938.607;  407.375; 4488.000; 4205.000
938.845;  545.575; 5587.000; 5549.000
939.082;  458.875; 5387.000; 5177.000
939.320;  533.975; 5799.000; 5728.000
939.557;  632.875; 6549.000; 6491.000
939.794;  703.800; 7285.000; 7097.000
940.031;  905.675; 8421.000; 8368.000
940.269; 1185.025; 9552.000; 9107.000
940.506; 1137.825;10901.000;10507.000

