
Integration time [ms]: 200.000
Averaging Nr. [scans]: 10
Smoothing Nr. [pixels]: 0
Data measured with spectrometer [name]: 2101013U2
Wave   ;Sample   ;Dark     ;Reference
[nm]   ;[counts] ;[counts] ;[counts] 

394.013;   84.537; -450.257; -315.536
394.305;  400.934; -461.258; -419.536
394.596; 2019.881; -676.269; -527.514
394.887; 4678.906; -796.268; -654.518
395.178; 1866.851;  145.736;   11.476
395.470;  144.168; -210.263; -356.526
395.761;  398.528;  305.734;  394.479
396.052;  598.394; -545.284; -306.489
396.343;  601.998; -557.276; -454.503
396.634;  170.951; -200.279; -290.497
396.926;  144.201; -618.268; -565.517
397.217;  187.005;   11.725;  -17.504
397.508;  113.528; -366.273; -154.507
397.799;   33.151; -555.279; -571.497
398.090;  -36.057; -973.280; -902.495
398.381;  188.082;   11.708;  -11.473
398.672;  -14.816; -585.292; -742.473
398.963;   69.760; -348.279; -373.498
399.254;  202.397;   54.709; -209.475
399.545; -102.377;-1017.266; -883.520
399.836;   86.782; -407.277; -343.501
400.127;   93.547; -205.295; -209.468
400.418;   98.420; -423.274; -392.506
400.709;   69.624; -359.281; -333.493
401.000;   61.303; -268.291; -309.476
401.290;  225.252;  225.698;  115.545
401.581;  144.868; -166.286; -228.485
401.872;   41.205; -542.298; -486.462
402.163;  102.535; -313.296; -252.467
402.454;  159.498; -123.291; -163.475
402.744;   91.522; -844.297; -813.465
403.035;  595.669; -226.293;  -86.471
403.326;  823.588; -366.292; -384.474
403.617;  562.397;  204.701;  165.539
403.907;  403.802; -593.283; -679.490
404.198; 4151.583; -545.307; -599.446
404.489;10675.710; -618.283; -588.491
404.779; 3525.557; -618.302; -660.456
405.070;  411.025;  -67.304; -174.451
405.360;  576.272; -259.293; -238.472
405.651;  655.774;  125.699;   98.542
405.942;  352.861;  209.714;  127.516
406.232;  399.483; -432.285; -413.487
406.523;  812.061;  641.706;  758.530
406.813;  155.164; -579.286; -644.484
407.104;  579.980;  261.708;  144.527
407.394;  259.398; -604.299; -591.462
407.685;  272.781;  336.715;  222.513
407.975;   93.808; -400.283; -382.490
408.265;  176.920; -134.289; -190.478
408.556;  108.594; -472.291; -459.475
408.846;  344.763;  474.706;  429.530
409.137;  170.532;   -1.288; -216.480
409.427;   91.682; -193.285; -271.487
409.717;   42.333; -776.273; -692.508
410.007;  211.873;    4.715; -170.486
410.298;  147.751; -360.295; -342.469
410.588;   89.178; -495.285; -510.486
410.878;   55.949; -792.287; -873.482
411.168;  196.609; -481.298; -478.463
411.459;  194.300; -295.283; -242.489
411.749;   71.192; -609.292; -507.474
412.039;   72.230; -755.289; -386.480
412.329;  365.671;   40.722;  132.501
412.619;  316.165;  -62.286; -148.485
412.909;  617.924;  639.711;  594.521
413.199;  532.043; -130.280; -251.495
413.490;  674.510;  521.710;  352.523
413.780;  204.349;-1013.279; -913.496
414.070;  582.700;  -46.276;  235.497
414.360;  551.065; -729.278; -666.498
414.650;  668.743; -726.288; -688.482
414.940;  916.848; -538.280; -441.496
415.230; 1572.638;   50.712;   74.519
415.520;10663.279;  155.730;   66.486
415.809;40908.623; -305.281; -125.493
416.099;32261.885; -388.277; -229.501
416.389; 8932.017;  435.726;  236.494
416.679; 5350.173;   91.738;   85.473
416.969;  880.956; -527.287; -503.483
417.259; 1000.652;  341.721;  171.503
417.549; 1187.321;  522.718;  318.508
417.838; 2889.005; -205.268; -147.518
418.128; 9393.618;  650.710;  492.522
418.418; 7937.743; -491.272; -579.509
418.708; 5355.417;    9.726;  -48.506
418.997;19940.711; -474.275; -480.505
419.287;20778.827; -733.273; -790.507
419.577;19869.099; -160.283; -123.489
419.866;62200.082; -588.277; -498.501
420.156;63753.473; -242.270;  -55.513
420.446;12252.062; -112.263;  -26.526
420.735; 1433.464; -376.271; -446.512
421.025; 1530.564; 1830.722;  315.502
421.314; 1087.062; -203.271; -226.512
421.604; 2072.694;   89.732;  233.484
421.893; 1195.956; -705.271; -602.511
422.183;  404.462; -487.263; -461.526
422.472;  646.158;  -36.271; -107.511
422.762;  704.231; -416.266; -379.521
423.051;  390.300; -916.276; -916.503
423.341;  492.130; -491.273; -439.507
423.630;  667.640; -121.265;   15.477
423.919;  634.910;   58.725;   49.495
424.209;  640.970;  -31.263;   56.473
424.498;  832.301;   68.732;  161.483
424.787; 1794.010; -535.267; -601.518
425.077; 5583.338;   34.735;   29.478
425.366; 7403.279; -734.262; -744.528
425.655;16610.231;  639.727;  259.493
425.945;36158.971; -313.247; -268.554
426.234;20790.513;  117.741;  300.467
426.523; 8608.920;  -86.259; -350.534
426.812;11941.325;  107.734;  159.480
427.101;17246.388; -127.269; -323.515
427.390;21453.479;  -55.270;  -86.514
427.680; 4618.749; -624.257; -411.538
427.969;  747.566; -330.255; -301.540
428.258;  533.337; -385.257; -477.536
428.547;  902.849;  449.728;  397.490
428.836; 1853.190; -421.253; -398.543
429.125; 2561.723; -199.259;  -72.534
429.414; 1295.924; -330.251; -294.548
429.703; 5340.224; -231.251; -213.548
429.992;15678.729; -938.250; -828.549
430.281;10648.051; -397.264; -331.524
430.570;  997.609;  -21.252;   32.454
430.859;  954.219;  279.741;  352.466
431.148;  792.165;  636.752;  631.446
431.437;  537.409;  391.748;  367.454
431.725;  221.539; -544.257; -481.536
432.014;  149.701; -845.253; -756.545
432.303;  625.477; -149.239; -105.569
432.592;  955.861; -460.263; -178.525
432.881; 1718.866; -601.248; -437.554
433.169;10594.567; -343.255;  -61.540
433.458;20943.928;  445.765;  540.424
433.747; 9040.987; -397.261; -289.529
434.036; 1431.542; -275.242; -280.564
434.324; 3448.447; -395.249; -379.551
434.613; 6089.732;   40.757;  159.437
434.902; 2121.263;  333.760;  439.433
435.190;  834.876;   75.761;  295.431
435.479;  522.505;  -52.245;   83.441
435.767;  168.617; -411.244; -427.561
436.056;  361.535; -340.242; -294.563
436.345;  633.966; -372.240; -223.568
436.633;  694.940;   60.750;  383.450
436.922;  439.070;  208.760;  414.432
437.210;  844.013; -194.236;    1.426
437.499; 2547.025; -583.235; -432.576
437.787; 2799.812; -339.236;  -10.574
438.075;  795.984;   56.761;  162.430
438.364; 1041.988;  -44.238;  250.429
438.652;  666.344; -286.226; -138.592
438.941;  236.690;    3.770;  269.415
439.229;   16.005; -665.252; -466.545
439.517;   54.538; -160.234;  -85.577
439.806;  -52.433; -501.225; -290.595
440.094;  321.149;  377.766;  650.421
440.382;  259.355; -653.233; -302.580
440.670;  270.924; -361.235; -285.576
440.959;   32.393; -347.223; -170.599
441.247;   96.007; -151.229; -109.587
441.535;  119.835; -266.235;   31.423
441.823;   13.245; -497.234; -305.578
442.111;  310.414;  173.771;  327.412
442.400;  714.004; -628.245; -335.559
442.688; 1884.148; -111.234; -620.579
442.976; 1334.324; -786.213; -450.617
443.264;  134.977; -324.224; -364.597
443.552;  129.545; -258.226;   51.408
443.840;  356.633;  602.765;  876.423
444.128;  207.553;  265.767;  269.420
444.416;  -10.182; -694.228; -312.588
444.704;   33.437; -465.219;  -92.605
444.992;  138.650;   -0.226;  240.407
445.280;   65.691; -517.230;  -94.585
445.568;   17.829; -694.212; -396.618
445.856;  479.114; -174.221;  357.398
446.143; 1007.732;  -54.220;   -7.604
446.431;  921.823;  -25.228;  625.411
446.719;  410.766;  489.783;  675.391
447.007;  347.583;  481.769;  705.416
447.295;  335.389;  597.777;  871.402
447.583;  108.104; -464.229;  -34.587
447.870;  226.809; -434.221; -202.601
448.158;  597.689; -104.230;  129.415
448.446;  409.933; -800.219; -338.604
448.733;  309.279;   13.776;  269.403
449.021;  405.729;   60.788;  341.382
449.309;  325.651; -296.210;  208.379
449.596;  385.460;  128.783;   59.392
449.884;  213.099; -571.222; -325.600
450.172;  230.231; -756.227; -406.590
450.459;  793.399;  645.786;  780.387
450.747; 4036.058; -411.218; -147.608
451.034;12617.325;  493.772;  889.411
451.322;10570.804; -413.214; -170.614
451.609;  966.882;  292.777;  508.403
451.897;  995.645; -550.203; -183.634
452.184; 2966.389; -622.223; -400.598
452.472; 2836.783;   97.792;  269.375
452.759;  612.634;  512.781;  864.395
453.047;  189.825; -407.212; -125.617
453.334;  118.046; -732.219; -216.606
453.621;  115.307; -438.214; -161.615
453.909;  222.733;   13.796;  384.368
454.196;  193.100; -299.199; -123.641
454.483;  361.864;  317.798;  540.364
454.771;  225.987; -215.208;  196.374
455.058;   57.292; -316.207;  102.374
455.345;  213.283;   71.807;  344.347
455.632;  187.197; -128.207;  235.373
455.919;   93.334;  -82.196;  182.354
456.207; -116.793; -774.198; -450.642
456.494;   11.982; -475.200;  -66.639
456.781;   -2.642; -399.202; -198.635
457.068;  142.407; -253.206;  -29.628
457.355;  -26.292; -698.206; -401.629
457.642;   -3.483; -552.205; -290.630
457.929;   -1.731; -778.194; -417.651
458.216;  104.626; -575.212; -354.617
458.503;  414.276; -173.193;  -19.652
458.790;  325.584; -864.208; -630.625
459.077;  438.665;  -77.202;  110.364
459.364; 1292.359; -350.195; -210.649
459.651; 2739.804;  -46.206;  220.372
459.938; 1279.870; -864.209; -665.623
460.225;  244.270;  132.799;  276.363
460.512;  -94.570; -836.197; -688.645
460.799;  168.656;  -32.218;  320.392
461.086;   81.089; -370.200; -251.640
461.372;   30.008; -509.198; -279.642
461.659;  194.736; -165.196;  108.354
461.946;   71.774; -445.193;  -54.651
462.233;  448.685;  842.800;  888.361
462.519;  523.281; -814.201; -464.639
462.806; 1611.530; -768.197; -497.645
463.093; 1456.905; -445.191;  -66.656
463.380;  -75.534; -920.186; -824.664
463.666;  106.133; -259.197;  -18.646
463.953;  137.651; -406.195; -243.648
464.239;  310.451; -173.195;  -77.648
464.526;  693.867;  413.806;  743.350
464.813;  495.222; -565.190; -304.658
465.099;  587.176;  606.807;  607.348
465.386;  590.082;  903.807;  921.348
465.672;    3.931; -694.197; -522.645
465.959;   49.649; -598.188; -520.662
466.245;    4.782; -468.193; -359.652
466.532;  200.948; -109.195;   63.352
466.818;  118.266; -357.186; -216.664
467.104;  -35.774; -488.182; -415.672
467.391;  -48.075; -628.189; -459.658
467.677;   83.271; -289.186;    9.335
467.964;   35.335; -682.189; -471.660
468.250;  123.675; -331.186; -160.665
468.536;  213.027;   90.811;  180.341
468.822;  -62.307; -821.184; -574.668
469.109;  322.746;  351.827;  471.311
469.395;  404.696;  729.808;  787.346
469.681;  306.931;   46.811;  156.341
469.967; 2047.438; -699.188; -382.660
470.254; 4370.950; -494.188; -306.662
470.540; 2902.434; -601.196; -476.646
470.826;  424.142; -488.181; -397.675
471.112;  514.198;  288.816;  113.331
471.398;  175.705; -253.183;  -58.670
471.684;   48.784; -626.177; -447.680
471.970;  -37.552; -918.180; -981.675
472.256;   13.395; -521.192; -441.654
472.542;   -0.338; -499.171; -434.691
472.828;  -36.280; -743.182; -607.672
473.114;   27.027; -380.166; -283.700
473.400;    0.709; -504.175; -293.684
473.686;   71.136; -452.166; -400.701
473.972;  126.831; -230.174; -131.687
474.258;  -93.454; -925.173; -843.689
474.544;  368.672; -183.178;   -2.679
474.830;  546.111;  -65.175;   45.316
475.116;  796.124; -123.190; -196.658
475.401; 1058.351; -558.180; -467.676
475.687;  323.650; -725.180; -718.676
475.973;   -4.868; -673.181; -770.673
476.259;  459.315;  736.825;  764.315
476.544;  609.896; -539.176; -437.682
476.830; 1382.056; -398.172; -322.690
477.116; 1202.894; -430.177; -336.682
477.401;  286.751;  346.820;  358.324
477.687;    6.809; -289.175; -405.684
477.973;   92.937;   21.819;   28.326
478.258;   -2.133; -448.163; -348.706
478.544;   96.283;   21.815;   61.334
478.829; -132.230; -818.171; -738.692
479.115; -107.444; -749.172; -651.690
479.401;  -15.776; -444.174; -449.686
479.686;   53.649; -253.180;  -74.676
479.972;  -81.320; -886.178; -776.680
480.257;   64.029; -258.166;  -65.700
480.542;  -17.224; -614.170; -469.693
480.828;  486.707; 1288.824; 1392.317
481.113;  -51.997; -464.176; -426.683
481.399;   -3.798; -236.161; -202.711
481.684;  -89.672; -620.166; -462.700
481.969;   60.622; -158.159;  -73.713
482.255;   -5.108; -439.169; -285.695
482.540;  -40.520; -569.178; -441.680
482.825;   24.959; -395.187; -404.663
483.110;  153.097;  -85.169; -105.696
483.396;  298.154; -840.157; -652.718
483.681;  867.331;  543.826;  730.313
483.966;  223.313; -696.160; -700.712
484.251;   15.929; -404.174; -310.687
484.536;   21.944; -356.165; -378.703
484.822;   31.434; -205.173; -218.687
485.107;  -53.489; -599.152; -502.726
485.392;  286.353;  662.836;  541.296
485.677;  162.612;  354.832;  163.302
485.962;  207.251;  160.843;  270.283
486.247;  160.479;  -14.162;   -8.707
486.532;   57.831; -178.166; -325.701
486.817;  339.494;  381.839;  431.291
487.102;  149.886; -453.154; -514.722
487.387; 1053.257; -637.156; -652.718
487.672; 1878.460; -154.164;  -38.705
487.957; 1202.204; -394.160; -286.711
488.241;  340.936; -290.150; -314.729
488.526; 1232.613; -280.152; -148.726
488.811; 1840.683; -881.177; -818.680
489.096; 1381.090; -666.154; -702.723
489.381;  804.908;    3.847;  162.275
489.666;  609.702; -428.161; -510.710
489.950;  353.494;  558.846;  627.277
490.235;  -59.471; -480.151; -458.728
490.520;  -88.200; -756.161; -723.710
490.804; -126.340; -827.156; -736.719
491.089;  -12.141; -469.149; -299.732
491.374;   68.158; -132.164;  -75.704
491.658;   -7.024; -817.147; -717.735
491.943;  235.520; -657.152; -609.727
492.227;  353.880; -178.155;  -38.721
492.512;   70.850; -294.157; -341.717
492.797; -143.250; -713.149; -716.731
493.081; -109.819; -588.147; -598.735
493.366; -112.697; -751.161; -635.711
493.650;  426.460;  831.859;  917.254
493.935;   24.776; -648.147; -447.734
494.219;  -80.659; -778.142; -687.743
494.503;  -77.257; -585.150; -487.730
494.788;  144.938;   46.842;   74.285
495.072;  214.638;  184.850;  434.271
495.356;  241.664; -463.148; -343.733
495.641;  658.290; -812.146; -736.736
495.925;  602.767; -976.156; -903.719
496.209;   55.359; -599.149; -451.732
496.494;  -88.459; -763.142; -544.744
496.778;   16.986; -364.154; -360.722
497.062; -109.033; -819.156; -627.719
497.346;  -76.493; -869.160; -640.711
497.631;  318.669;  580.852;  560.266
497.915;  164.806;  -64.145;  175.261
498.199;   80.854; -341.157; -277.718
498.483;   30.911; -562.152; -508.725
498.767;  358.040;  301.850;  300.271
499.051;  335.555; -126.149; -100.732
499.335;   35.652; -693.149; -739.731
499.619;  -51.690; -381.129; -423.767
499.903;   48.978; -272.155;  -65.721
500.187;   52.297; -588.153; -316.724
500.471;  -20.382; -796.152; -595.727
500.755;  165.401;   62.839;  -96.710
501.039;   46.678; -270.155; -357.721
501.323;  185.462;  -21.141;  264.254
501.607;   56.167; -447.163; -503.706
501.891;  -41.943; -607.156; -512.718
502.174;  -64.877; -726.144; -585.741
502.458;  173.624;   89.849;  370.273
502.742;   88.998; -180.138; -191.751
503.026;  168.175; -412.147; -254.734
503.310;  283.821; -437.159; -375.713
503.593;  176.577; -464.147; -325.735
503.877;  220.258; -232.133; -156.760
504.161;  268.600;    2.847;  -50.724
504.444;  159.441; -841.158; -710.716
504.728;  712.457; -487.164; -522.704
505.012; 1189.735; -257.150;  -76.729
505.295;  875.202; -417.161; -212.711
505.579;  858.066; -256.156; -496.719
505.862; 1169.801; -555.145; -333.738
506.146; 1184.024; -681.159; -758.714
506.429;  694.725;  568.841;  461.286
506.713;  102.031; -732.151; -667.728
506.996;  533.385;   90.846;  295.278
507.280;  519.450; -633.165; -474.703
507.563;  362.976; -469.155; -261.721
507.847;  149.398; -423.153; -112.724
508.130;  105.403; -665.161; -456.711
508.413;  160.123; -758.167; -577.700
508.697;  411.423; -151.167;   12.300
508.980;  264.100; -422.153; -312.724
509.263;    2.570; -466.155; -450.720
509.547;   58.535; -124.150;   82.271
509.830;  125.107; -172.160;  140.289
510.113;  164.866;  128.844;  298.281
510.396;   28.808; -530.152; -300.725
510.680;  176.103; -818.145; -812.738
510.963;  902.092;  184.846;  180.277
511.246;  655.546; -493.150; -357.730
511.529;  406.010; -482.145;  -83.739
511.812;  575.553; -250.134;   10.241
512.095;  355.526; -740.151; -396.728
512.378;  109.483; -317.147; -245.736
512.661;   37.809; -703.137; -623.753
512.944;   43.644; -750.142; -637.744
513.227;  126.005; -170.137; -171.752
513.510;   -6.277; -479.144; -671.741
513.793;   35.469; -485.140; -435.747
514.076;  218.741;  -43.127;  -39.771
514.359;  169.660; -294.149; -135.732
514.642;  133.448; -442.142; -567.744
514.925; 1266.266;  581.860;  561.253
515.208; 1554.047; -498.134; -443.758
515.491; 1033.868; -276.133; -182.761
515.773;  610.028; -410.143; -337.742
516.056; 3506.219;  249.864;  409.246
516.339; 4429.924; -754.136; -652.755
516.622; 2892.043; -518.150; -488.730
516.904; 1822.538;  882.857;  975.257
517.187;  778.903; -730.138; -523.752
517.470;  595.637; -568.143; -510.743
517.752;  661.829; -624.136; -470.756
518.035;  526.784; -708.139; -725.749
518.318;  581.125; -799.136; -744.755
518.600; 3921.373; -300.132; -325.762
518.883; 5308.547;  310.858;   88.256
519.165; 2616.992; -585.138; -426.751
519.448;  625.972;  -61.132;  -19.762
519.730;  289.552; -573.126; -415.773
520.013;  503.362;  588.867;  664.240
520.295; 1172.455;  -94.134;  -15.759
520.578; 2422.992; -335.131; -305.764
520.860; 2794.873; -254.132;   56.238
521.143; 1510.432; -763.135; -584.756
521.425;  732.571; -251.125; -279.775
521.707; 1046.742; -622.127; -380.771
521.990; 2869.342; -199.127;  167.229
522.272; 3210.671; -116.140;   -4.748
522.554; 1499.229; -237.143; -157.742
522.836;  563.452;  -24.134;   99.241
523.119;  325.273; -496.148; -189.734
523.401;  221.602; -448.130; -314.766
523.683;  127.110; -865.137; -693.753
523.965;  460.700;  408.862;  260.248
524.247;  491.903;   54.878;  170.220
524.529;  310.155; -451.134; -367.759
524.812;  557.205;   -3.130;  191.234
525.094; 1368.299; -773.138; -631.751
525.376; 2145.885; -143.124;   78.223
525.658; 1328.920; -441.136; -339.754
525.940;   15.087; -805.131; -671.764
526.222;   50.026; -188.136;  -88.755
526.504;  174.984; -190.131;   32.237
526.786;  186.859; -960.133; -647.760
527.068;  409.293; -124.123;  -67.778
527.349;  121.715; -865.137; -774.754
527.631;  215.372; -137.132;   22.238
527.913;  142.040; -664.127; -450.771
528.195;  220.361; -761.125; -639.774
528.477;  413.447;  -93.134;  -30.758
528.759;  177.205; -648.130; -522.766
529.040;   72.491; -569.123; -293.778
529.322;   80.065; -235.125;  -10.774
529.604;  184.608;  -47.130;   93.233
529.886;  198.652; -546.126; -302.773
530.167;  211.496;  232.870;  192.235
530.449;  121.883;    1.853;   63.265
530.731;   18.502; -572.122; -459.779
531.012;   87.033; -513.120; -216.784
531.294;  171.191; -118.116;  -43.792
531.575;  270.971;  290.875;  538.225
531.857;   46.540; -548.135; -266.757
532.138;  161.860; -113.141;   40.254
532.420;  278.434;  294.865;  403.244
532.701;  238.262; -722.133; -751.760
532.983;  519.967;  232.867;  182.239
533.264;  191.449; -243.126;  175.228
533.546;  -49.675; -491.136; -508.755
533.827;  116.757;  173.867;   -1.759
534.109;   66.740; -352.135;  -80.757
534.390;  116.378; -725.132; -582.762
534.671;  382.634; -270.135;  -82.756
534.953;  166.795; -751.123; -611.779
535.234;   39.868; -426.117; -255.789
535.515; -169.855; -891.119; -735.785
535.796;   -7.565; -431.128; -193.770
536.078; -216.416;-1050.124; -904.777
536.359;   15.396;  -22.123;    3.221
536.640;  -36.737; -480.125; -197.774
536.921;  247.816;  225.871;  143.232
537.202;  584.394;  -87.138;  -16.751
537.483;  732.491;  251.869;  377.236
537.764;  289.796;   17.870;   98.235
538.045;  -61.154; -543.134; -371.758
538.326;  -66.082; -596.129; -447.768
538.607;  -17.757; -686.127; -476.771
538.888;  300.119;   98.879;    5.218
539.169;  253.111; -704.122; -535.781
539.450;  547.814;  236.871;   16.233
539.731;  305.025; -361.121; -182.783
540.012;  247.833;  199.880;  412.216
540.293;  165.876;   82.876;  158.224
540.574;  -59.479; -895.113; -717.796
540.855;  701.423;  435.879;  377.218
541.136;  830.707;   47.878;  139.220
541.416;  434.306; -161.130; -220.766
541.697;  338.985; -274.131; -170.763
541.978; 1689.437; -270.135; -315.757
542.259; 2051.543; -211.127; -236.771
542.539;  980.482; -191.116; -186.790
542.820;  368.971;  461.875;  480.225
543.101;  174.905;  -52.145;  -77.738
543.381;   13.542; -638.127; -591.771
543.662;  466.139;  159.873; -254.771
543.942;  872.736; -751.127; -830.770
544.223; 1717.110;  193.878;  161.219
544.504; 1094.584; -275.124; -182.777
544.784;  926.252; -592.126; -408.773
545.065; 2662.787;  104.884; -254.791
545.345; 3137.045;  227.881;   14.215
545.626; 2011.120;  -14.113; -108.796
545.906; 1386.695;   77.869;   98.235
546.186;  635.258;   92.874;  -95.773
546.467;  329.688;   99.877;  -95.778
546.747;  546.881;  264.884;  327.210
547.027;  608.482;   91.876;  111.223
547.308;  481.135; -376.127; -530.770
547.588;  687.020;  299.871;  371.232
547.868;  377.997;  458.870;  588.235
548.149;  372.298;  609.885;  593.207
548.429;  213.140; -347.127; -299.771
548.709;  276.032; -645.120; -461.784
548.989;  770.659;   84.882;   88.213
549.269; 3350.570;   10.868;  139.239
549.550; 7565.794;  215.877;  117.222
549.830; 6768.447; -758.111; -556.799
550.110; 1449.158; -468.110; -320.801
550.390; 1275.202; -128.122;  -56.779
550.670; 1753.114; -868.114; -783.795
550.950; 1258.822; -509.121; -471.782
551.230;  356.217;  549.879;  460.218
551.510;    4.721; -381.121; -326.782
551.790;   76.470; -173.109; -127.803
552.070;  539.988;  940.877; 1181.223
552.350;  627.551; -492.119; -377.786
552.630;  891.413;   -2.121;   77.219
552.909;  613.488;  181.884;   73.209
553.189;  378.780;  -49.132;   33.237
553.469;  273.951; -703.119; -514.786
553.749;  284.545; -469.127; -357.772
554.029;  292.275;   33.883;  -24.790
554.308;  238.804; -154.115;  -37.794
554.588;   85.033; -196.128; -204.770
554.868;  115.824; -366.121;  -47.782
555.147;  260.900; -114.115;  -46.793
555.427;  982.091; -260.116; -250.792
555.707; 6191.697; -284.115; -200.793
555.986; 7114.152; -719.111; -538.800
556.266; 4022.179;   23.884;   72.210
556.546;  141.121; -888.121; -675.782
556.825;  371.811; -657.114; -556.794
557.105; 2834.230; -125.128;   17.230
557.384; 3289.686;  122.884;  187.209
557.664; 1259.490; -717.116; -508.792
557.943;  178.123; -557.121; -411.782
558.222;  265.964; -345.118; -344.788
558.502;  422.702; -116.115;  -76.793
558.781;  784.096;  194.885;  499.208
559.061;  650.264; -232.118; -227.788
559.340;  512.571;  302.883;  353.211
559.619; 1163.779;   93.884;  148.210
559.899; 1578.774; -239.117; -266.789
560.178; 1469.201; -778.115; -593.793
560.457; 5115.576; -623.117; -562.790
560.736; 6799.654; -472.111; -482.800
561.015; 4748.627; -500.128; -502.769
561.295;  606.099;  180.893;  215.193
561.574;  578.698;  119.885;  116.207
561.853;  818.176;  274.891;  303.197
562.132;  815.405;  -45.114;  182.206
562.411;  790.514;  396.879;  553.219
562.690;  206.295; -592.115; -458.792
562.969;  326.231;  472.888;  630.203
563.248; 1027.911; 2966.878; 2487.219
563.527;  428.253; -290.111; -408.800
563.806;  581.740; -650.127; -521.771
564.085;  685.022; -297.105; -206.810
564.364;  356.678; -594.117; -405.790
564.643;  785.615; -276.121; -223.781
564.922; 3046.567;  221.890;  397.198
565.201; 2880.072; -640.109; -700.803
565.479; 1315.093; -297.115; -219.792
565.758;  488.630; -810.128; -712.770
566.037;  739.774; -155.109; -100.803
566.316;  377.087; -286.116;  -28.791
566.595;   68.397;  -17.115;  -12.793
566.873;  244.556; -166.111;  -79.801
567.152;  -76.570; -490.113; -590.797
567.431;   55.881; -113.116;    6.210
567.709;   27.800; -344.107; -212.807
567.988;  385.610; -810.114; -769.794
568.266;  816.997; -160.115;  -68.793
568.545;  631.392; -644.100; -514.819
568.824;  957.392;  160.885;  356.208
569.102;  870.910; -351.114; -235.794
569.381;  316.191; -492.116; -407.792
569.659;  -56.575; -553.113; -553.796
569.938;   21.808; -743.122; -465.780
570.216;  222.278; -225.109; -225.804
570.494;  -53.685; -632.114; -572.795
570.773;  123.220;  202.879;  114.218
571.051;   16.292; -373.123; -357.778
571.330;  125.821; -221.113; -174.796
571.608;   77.218; -181.098; -173.823
571.886; -136.156; -671.111; -581.799
572.164; -165.576; -739.121; -621.782
572.443; -119.573; -562.105; -512.811
572.721;  -72.624; -399.117; -289.790
572.999;  -17.133; -280.117; -168.788
573.277;  157.018;  379.894;  620.191
573.555;  518.121;   94.894;   37.190
573.834; 2062.766;  -86.117; -114.788
574.112; 2447.203;  880.893;  811.193
574.390;  774.554; -143.111;  -96.801
574.668;   19.632;  -91.112;  -61.797
574.946;  -51.879; -165.106; -187.810
575.224;   35.272;   71.891;  -16.803
575.502;  -15.417; -200.116; -204.791
575.780; -157.267; -767.112; -829.798
576.058;  308.253; 1589.889; 1004.200
576.336;   -6.039; -210.110; -129.801
576.614; -109.466; -511.112; -340.798
576.891;   42.304; -711.115; -823.794
577.169;  766.890; -158.108; -285.805
577.447;  954.502;  169.893;  202.193
577.725;  518.140;  629.888;  854.201
578.003;   24.137;  -71.112; -371.798
578.280;  152.241; -208.104; -242.812
578.558;   96.802; -450.115; -422.793
578.836;  184.214; -210.114; -145.795
579.114;   69.731; -630.112; -670.797
579.391;  113.969;   -6.117;  -18.789
579.669; -125.695; -595.114; -704.794
579.947;  306.998; -326.107; -127.806
580.224;  439.997; -692.107; -524.806
580.502;  520.203;  127.893;   76.193
580.779;   70.878;  -42.117;   75.210
581.057; -105.221; -584.109; -470.804
581.334; -160.037; -726.102; -695.815
581.612;   93.122;   54.895;  511.190
581.889;  -33.018;  -83.101; -129.818
582.167;  -41.196; -298.099; -190.821
582.444; -183.826; -845.102; -814.817
582.721;  241.175;  657.899;  715.183
582.999;  144.200; -326.100; -167.821
583.276;  835.798; -812.123; -713.779
583.553; 1061.367; -364.102; -294.816
583.831;  344.936; -607.104; -631.812
584.108;  142.487;  349.892;  174.195
584.385;   17.662; -122.102;  -98.815
584.662; -107.744; -651.111; -828.801
584.940;   67.355;  204.889;  204.199
585.217;   19.924;  -73.113; -303.796
585.494;   64.268;   71.890;  118.198
585.771;  350.280; -250.109; -354.804
586.048;  756.624; -196.113;  -76.796
586.325;  477.060; -721.110; -773.801
586.602;  217.341;  230.896;  213.188
586.879;  -47.906; -499.100; -580.820
587.156;   71.924; -156.105; -331.810
587.433;  -75.229; -701.102; -667.817
587.710;  141.935;  152.888;  234.202
587.987;  502.731; -264.105; -236.811
588.264; 1202.837;  315.888;  387.202
588.541; 2175.845;  -61.104;   26.187
588.818; 4053.683;   72.892;  171.196
589.095; 3611.838; -163.104; -174.812
589.371;  575.577; -459.109; -414.804
589.648;   11.003; -581.107; -437.807
589.925;   29.016; -517.114; -621.795
590.202;   41.034; -741.112; -607.798
590.478;  143.634; -166.105;  -73.811
590.755;  457.592; -241.108; -132.806
591.032; 3914.763; -741.110; -699.802
591.308; 5069.578; -732.094; -790.831
591.585; 2771.463; -573.110; -560.802
591.862;  207.174;-1056.102; -950.817
592.138;   76.188; -475.108; -474.805
592.415;  216.442; -486.104; -495.813
592.691; 2404.539;  460.896;  518.188
592.968; 2814.621; -208.098; -123.824
593.244; 1380.581; -695.116; -595.790
593.521;  171.074; -105.102;  -42.817
593.797;  -35.096; -810.122; -720.780
594.074;  516.140; -611.096; -588.826
594.350; 1087.056;  828.905;  729.172
594.626;  478.957; -303.111; -283.801
594.903;  140.775; -643.101; -645.817
595.179;  316.148;  243.896;  418.187
595.455;   18.705; -136.107; -150.807
595.731;   59.350;  -19.103;  -38.814
596.008;  -75.652; -464.111; -434.800
596.284;   52.198; -187.100; -242.820
596.560;   63.887; -501.093; -493.833
596.836;  304.726; -173.105;  -70.810
597.112;  531.390; -582.108; -437.805
597.388;  476.537;  -49.097;  -48.826
597.665;  205.328;  437.887;  530.203
597.941;  -99.869; -572.089; -658.839
598.217;   32.868; -323.110; -293.802
598.493;  439.882;   61.891; -204.804
598.769;  788.389; -175.100;  -50.819
599.045;  485.094; -490.108; -562.806
599.321;  105.896; -193.100; -261.820
599.597;  240.281; -355.109; -476.804
599.872;  809.545;  409.896;  429.187
600.148;  573.839;  -61.097; -172.826
600.424;  521.801;   91.893;  202.193
600.700;  377.104; -170.107; -280.807
600.976;  166.730; -442.097; -464.825
601.252;  428.176; -226.109; -272.803
601.527;  270.046; -833.104; -840.813
601.803;  238.035; -453.105; -404.812
602.079;  326.489; -124.100; -118.819
602.354;  884.402; -620.092; -531.835
602.630; 1240.424; -140.113; -482.796
602.906; 3750.382; -910.101; -863.818
603.181;10085.451; -627.119; -534.786
603.457; 8795.635;   98.903; -278.826
603.733; 1309.026; -605.120; -626.783
604.008; 1606.122; -245.106; -164.810
604.284; 4455.077; -636.101; -580.817
604.559; 4120.640;   -3.112;  -42.799
604.835;  786.126; -163.105; -225.810
605.110;  620.304; -732.099; -892.821
605.385; 1073.991;  224.907;  267.167
605.661; 1014.960; -625.095; -729.829
605.936; 1695.294; -664.108; -737.806
606.211; 1536.560;  -17.103; -170.815
606.487;  301.508; -329.114; -376.794
606.762;   39.251; -791.119; -745.786
607.037;  -49.174; -501.105; -433.810
607.313;  -99.450; -589.096; -574.828
607.588;  -23.179; -375.106; -137.810
607.863;   92.882;  -28.101; -143.818
608.138;  363.266;  513.890;  516.198
608.413;   39.310; -576.099; -592.822
608.688;  112.189; -203.108; -267.805
608.964;  320.913; -509.106; -218.809
609.239;  409.922; -107.105; -212.810
609.514;  464.434;  281.895;  240.188
609.789;  944.441; -187.104; -716.812
610.064; 1278.049; -435.096; -609.827
610.339; 1383.977; -855.109; -799.804
610.614; 1768.597; -131.100; -315.820
610.889; 1056.135;  215.895;  107.188
611.163;   47.436; -407.104; -591.812
611.438;  119.510;   81.886; -167.794
611.713;    3.977; -467.101; -499.817
611.988;  112.080; -144.101; -328.818
612.263;  -49.437; -771.102; -717.815
612.538;  410.223;  385.887;  251.204
612.812;  234.999; -832.100; -911.820
613.087;  203.718; -358.098; -338.823
613.362;  -88.995; -497.107; -557.807
613.637;  103.154;  261.897;  138.186
613.911;    5.003; -256.092; -345.835
614.186;  213.802; -249.107; -292.807
614.460;  971.342; -842.081; -758.854
614.735; 1150.166;  -55.087;  -17.843
615.010;  272.651;   43.912;  -82.841
615.284;  427.788;  360.892;  246.195
615.559;  492.601; -792.092; -955.835
615.833;  468.307;  -76.099;  -87.822
616.108;    6.419; -225.090; -390.837
616.382;  260.168;  274.913;  402.156
616.656;  256.919; -241.090; -232.837
616.931;  769.208; -785.099; -700.822
617.205; 1605.647; -973.104; -979.813
617.480; 1491.568;  -91.125;    6.225
617.754;  263.764; -396.125; -128.774
618.028;   16.621; -369.129; -382.768
618.302;  170.086;   73.892;  -25.805
618.577;  -94.644; -371.103; -518.815
618.851;  -87.329; -399.109; -600.803
619.125;  -70.145; -335.134; -378.759
619.399;  -19.653; -244.104; -374.813
619.673;  -93.007; -330.115; -515.792
619.947;  -93.286; -333.114; -448.795
620.222;   -7.942; -198.110; -204.801
620.496;    1.923;  -47.121;  -96.782
620.770;   39.411; -187.122;  -93.781
621.044;  379.424;  323.895;  346.190
621.318; 1113.927; -653.120; -614.783
621.592;  931.724; -430.121; -409.783
621.866;  544.042; -476.112; -572.799
622.140;   60.883; -207.116; -356.791
622.413;  110.748;  138.889;  112.200
622.687;  -95.823; -746.101; -492.817
622.961;   46.586; -130.108; -143.805
623.235;  -87.551; -633.111; -661.800
623.509; -205.166; -816.105; -848.811
623.783;   28.899;  -12.107;   48.193
624.056;    6.029; -254.120; -280.783
624.330;  123.632;   63.888;   -3.797
624.604;   54.678; -271.116; -355.790
624.877;  144.164;  180.890;   26.198
625.151;   76.506; -249.114; -238.794
625.425;  -20.550; -150.103; -283.814
625.698;  -78.257; -367.119; -374.785
625.972; -175.632; -799.110; -765.802
626.245;  184.981;  685.884;  484.210
626.519;  -77.765; -426.120; -340.784
626.792;  -46.296; -192.107; -380.807
627.066; -129.500; -485.122; -662.779
627.339; -170.938; -736.110; -663.802
627.613;  115.533;  351.880;  148.216
627.886;  127.571;  187.891; -612.803
628.160;  -29.873;  312.880; -161.783
628.433; -157.628; -695.125; -703.775
628.706; -122.565; -517.120; -615.784
628.979;  106.682;  296.876;  117.223
629.253; -152.850; -785.119; -833.786
629.526;  555.949; -334.126; -253.772
629.799;  500.093; -641.123; -479.778
630.072;  240.523; -497.128; -516.769
630.346; -140.419;-1115.116;-1080.790
630.619;  687.606; -467.107; -545.808
630.892;  969.150;  709.889;  593.200
631.165;  579.647;  790.896;  679.187
631.438; -178.463;-1092.112;-1055.798
631.711;  140.197;  453.877;  257.221
631.984;  -69.726; -523.117; -624.789
632.257; -129.731; -636.117; -681.789
632.530;  -67.257; -412.119; -433.785
632.803;   79.503; -109.115;    7.207
633.076;  -79.412; -360.123; -422.777
633.349;   55.529;  173.872;  121.231
633.622;  -64.359; -187.119; -240.785
633.895; -237.971; -903.120; -823.783
634.167;  -93.248; -496.126; -525.773
634.440;   13.891;  -19.116; -137.792
634.713;   33.648;  -22.119; -120.786
634.986;  201.614;  593.871;  453.233
635.258; -129.799; -507.115; -597.793
635.531;  208.563;  742.882; -343.788
635.804;  -22.328; -303.117; -318.789
636.077; -186.715; -830.116; -852.791
636.349;  -17.402; -586.115; -474.793
636.622;  751.748; 1695.874; 1392.228
636.894;  391.835; -474.120; -909.784
637.167;  191.939; -836.127; -789.771
637.439;   58.534; -278.128; -213.770
637.712;  -45.749; -312.126; -293.772
637.984; -127.514; -635.116; -707.791
638.257;  691.088;  515.877;  488.222
638.529;  753.874; -881.125; -924.776
638.802;  331.823; -508.128; -449.769
639.074; -225.791; -927.122; -952.781
639.346; -206.358; -942.135; -930.757
639.619;   22.546;  -79.142; -319.744
639.891;   -9.900;  -83.122; -168.779
640.163; -117.997; -689.122; -756.780
640.435;   96.106;  273.878;  103.220
640.708;   21.808;  -72.122; -132.780
640.980;  -46.789; -366.122; -362.781
641.252;  350.514;  -25.121;  -71.781
641.524; 2800.016;  580.879;  573.219
641.796; 2604.719;-1094.121; -907.782
642.068;  468.622; -191.121; -300.782
642.340; -104.975; -486.121; -566.783
642.613;   96.727;  294.880;  323.217
642.885; -150.570; -787.120; -878.783
643.157; -123.767; -810.120; -658.784
643.428;  139.236;  170.880;  218.216
643.700;  -87.362; -498.120; -425.784
643.972;  -37.959;  -16.119; -133.785
644.244; -145.756; -474.119; -559.785
644.516;  -45.354; -250.119; -114.786
644.788;  183.449;  662.881;  548.214
645.060;   22.752;  -12.119; -124.786
645.332; -143.145; -525.118; -535.787
645.603;  123.357;  479.882;  342.213
645.875; -100.540; -334.118; -369.787
646.147;  405.463; 1487.882; 1242.212
646.418; -136.535; -931.117; -918.788
646.690;  186.368; -714.117; -715.789
646.962;   63.571; -413.117; -451.789
647.233;   12.674;   15.883;   11.211
647.505; -124.024; -595.117; -475.790
647.776;  109.379;  328.884;  229.210
648.048;  -22.318; -248.116; -418.790
648.320; -143.316; -752.116; -679.791
648.591; -257.413;-1055.116; -958.791
648.862; -143.110; -505.116; -577.792
649.134;   57.993;  115.885;  198.208
649.405;  -79.005; -661.115; -618.792
649.677; -110.602; -475.115; -598.793
649.948;   12.101; -181.115; -296.793
650.219;   14.403;  -37.115; -147.793
650.491; -102.294; -431.114; -520.794
650.762; -201.191; -705.114; -731.794
651.033; -131.588; -437.114; -424.795
651.304; -180.186; -743.114; -728.795
651.576;  -95.783; -680.114; -645.795
651.847;  -52.080; -250.113; -140.796
652.118;   -9.278;  -32.113; -189.796
652.389; -184.075; -639.113; -722.796
652.660;   -7.972; -147.113;  -89.797
652.931; -228.869; -897.112; -871.797
653.202; -111.067; -382.112; -541.798
653.473; -107.964; -633.112; -533.798
653.744;  242.339; -595.112; -590.798
654.015;  177.841; -356.112; -303.799
654.286;  -92.556; -642.111; -663.799
654.557;  -86.553; -586.111; -521.799
654.828; -288.850;-1114.111;-1088.800
655.099;  -90.248; -404.111; -291.800
655.370; -130.045; -427.111; -543.801
655.641; -172.442; -656.110; -714.801
655.911; -172.940; -618.110; -638.801
656.182;   92.863;  437.890;  387.198
656.453;  203.266;  830.890;  746.198
656.724; -118.631; -466.110; -426.802
656.994; -143.629; -553.109; -568.803
657.265; -226.026; -862.109; -873.803
657.536; -142.023; -500.109; -377.804
657.806; -157.821; -561.109; -593.804
658.077; -227.918; -866.109; -950.804
658.347; -141.215; -523.108; -598.805
658.618; -172.512; -646.108; -694.805
658.888;    7.090;  -41.108;  112.195
659.159; -134.407; -432.108; -548.806
659.429;    6.696; -292.108; -349.806
659.700;   18.798; -435.107; -390.807
659.970;  -12.599; -370.107; -359.807
660.241;    1.404; -754.107; -921.807
660.511;  750.807; -147.107; -174.808
660.781;  126.709; -793.106; -748.808
661.052;  -54.188; -222.106; -381.808
661.322;   37.715;   21.894;   -9.809
661.592;   59.717;  257.894;  148.191
661.862; -124.080; -369.106; -382.810
662.133; -143.177; -551.105; -502.810
662.403; -189.674; -770.105; -676.810
662.673;  -97.572; -256.105; -213.811
662.943; -172.669; -612.105; -551.811
663.213;   31.634;  -85.105;  -81.811
663.483; -100.963; -593.104; -568.812
663.753;  -81.061; -194.104; -152.812
664.023;   29.342;   68.896;  -32.813
664.293;  -84.055; -319.104; -126.813
664.563; -162.253; -694.104; -648.813
664.833; -224.450; -743.103; -608.814
665.103; -222.147; -730.103; -793.814
665.373; -199.444; -766.103; -806.814
665.643; -168.842; -863.103; -918.815
665.913;   11.361; -534.103; -714.815
666.182;  187.764; -685.102; -719.816
666.452;  394.566;  -22.102;  -89.816
666.722;  -80.431; -724.102; -784.816
666.992; -246.428; -948.102; -921.817
667.261; -147.825; -824.102; -808.817
667.531;  334.977;  134.899;   45.183
667.801;  756.380; -440.101; -412.818
668.070;  439.683;  714.899;  697.182
668.340; -175.715; -883.101; -840.819
668.609;  183.288;  588.900;  301.181
668.879; -117.009; -490.100; -558.819
669.149; -121.506; -539.100; -516.820
669.418; -175.104; -698.100; -726.820
669.688;  -24.001; -482.100; -666.820
669.957;  100.202; -423.099; -546.821
670.226;  -30.496; -268.099; -331.821
670.496; -137.693; -431.099; -635.822
670.765; -103.590; -418.099; -501.822
671.034; -238.187; -872.099; -828.822
671.304;   25.015;   55.902; -111.823
671.573; -267.282;-1085.098; -957.823
671.842;  145.921; -380.098; -294.823
672.112;    8.523; -692.098; -586.824
672.381;   21.226; -239.098; -214.824
672.650; -234.271;-1005.097;-1021.825
672.919; -146.968; -631.097; -507.825
673.188; -121.266; -681.097; -878.825
673.457; -290.363;-1101.097;-1143.826
673.726; -110.060; -579.096; -646.826
673.995;  -86.658; -533.096; -479.826
674.265;  -20.355; -263.096; -333.827
674.534;   54.148; -183.096; -235.827
674.802;    5.051; -618.096; -703.828
675.071; 1609.253; -886.095; -801.828
675.340; 5742.156; -464.095; -339.828
675.609; 2020.459;  103.905;   82.171
675.878;   89.461; -949.095; -893.829
676.147;  107.264;  -26.095;   -8.829
676.416;  199.667; -210.094; -294.830
676.685; 1247.070; 1000.906; -622.830
676.953;  174.072; -603.094; -452.831
677.222;  -65.225; -193.094; -273.831
677.491;   24.478;  -24.094; -127.831
677.759;   24.780;   11.907;  172.168
678.028;  -13.117; -279.093; -222.832
678.297;   41.186;   71.907;  197.168
678.565; -239.011; -898.093; -944.833
678.834;  -66.409; -311.093; -268.833
679.102;  -95.106; -411.092; -391.834
679.371; -243.403; -898.092; -727.834
679.639; -218.501; -797.092; -786.834
679.908; -195.098; -794.092; -724.835
680.176; -270.195; -895.091; -941.835
680.445; -102.892; -346.091; -352.835
680.713;   25.910;  -58.091;  -23.836
680.982; -135.487; -523.091; -525.836
681.250; -172.584; -578.091; -507.837
681.518; -171.282; -534.090; -751.837
681.787;    1.021; -204.090; -167.837
682.055;  -95.576; -490.090; -422.838
682.323; -232.373; -993.090; -992.838
682.591;   94.129; -216.090; -538.838
682.859;  160.032;    9.911;  -35.839
683.128;   88.835;  232.911;  497.161
683.396; -305.363;-1102.089;-1122.840
683.664;  -53.360; -241.089;   21.160
683.932;   32.943;  144.911;  -76.840
684.200; -121.154; -576.088; -320.841
684.468;   13.048;  -73.088; -124.841
684.736;  -33.349; -214.088; -175.841
685.004; -231.046;-1024.088; -982.842
685.272; -143.043; -880.088; -774.842
685.540; -105.841; -499.087; -557.843
685.808; -132.038; -651.087; -682.843
686.076; -194.735; -894.087; -969.843
686.343;  -93.433; -601.087; -815.844
686.611;  106.270; -195.087; -224.844
686.879;  789.873; -530.086; -553.844
687.147; 4895.776; -483.086; -480.845
687.414; 1374.578;  -12.086; -169.845
687.682;    7.781; -658.086; -757.846
687.950;  462.784;  259.915;  263.154
688.217;  -24.214; -792.085; -760.846
688.485;   14.089; -632.085; -636.847
688.753;  751.092;  -11.085; -102.847
689.020;  193.995; -820.085; -851.847
689.288; -183.803; -853.084; -787.848
689.555;   -6.400; -195.084; -148.848
689.823;  -35.997; -241.084; -345.849
690.090; -124.595; -546.084; -651.849
690.358; -248.492; -877.084; -897.849
690.625;   70.111;  120.917;   45.150
690.892;  -97.586; -403.083; -369.850
691.160;   -1.484;   72.917;  -35.850
691.427;   44.819;  141.917;  130.149
691.694; -237.978; -855.083; -929.851
691.962; -271.176;-1177.082;-1060.852
692.229;   67.627;  127.918;   56.148
692.496;  195.830;  130.918;  -49.852
692.763;   91.033; -164.082; -201.853
693.031; -119.465; -739.082; -716.853
693.298;  -59.662; -509.081; -368.853
693.565;  550.041; -155.081; -163.854
693.832; 1854.843;   -5.081;   -9.854
694.099;  225.746; -643.081; -642.855
694.366; -136.251; -882.081; -896.855
694.633;  -80.148; -920.080; -633.855
694.900; 1565.654; 4367.920; -114.856
695.167;  670.457; -214.080; -380.856
695.434;  140.160; -646.080; -623.856
695.701;  354.762;  121.921;  -61.857
695.968;  697.265; -365.079; -361.857
696.234; 1729.668; -415.079; -646.858
696.501;16222.571; -776.079; -614.858
696.768; 7679.773; -554.079; -617.858
697.035;  482.076; -632.078; -667.859
697.302;   95.879; -448.078; -552.859
697.568;   47.281; -458.078; -497.859
697.835;  -57.316; -683.078; -624.860
698.102;  -30.313; -498.078; -407.860
698.368;  206.190;  384.923;  396.139
698.635;  -18.708;  -47.077; -424.861
698.901;   27.295; -240.077; -348.861
699.168;  133.598; -534.077; -456.862
699.435;  194.400;  -72.077;  -13.862
699.701; -235.197; -868.076; -764.862
699.968;  -49.194;  144.924; -441.863
700.234; -174.791; -783.076; -822.863
700.500;  -99.189; -448.076; -539.864
700.767;   60.014;   -1.075;   26.136
701.033; -238.483;-1015.075; -963.864
701.299;  -72.181; -450.075; -483.865
701.566;  293.922;  950.925;  763.135
701.832;  100.725;  -31.075;  -76.865
702.098; -161.272;-1054.074;-1034.866
702.365; -191.070;-1098.074;-1030.866
702.631;  -65.267;-1038.074;-1063.867
702.897; 2058.136; -765.074; -676.867
703.163; 3258.538;  348.926;  254.133
703.429;  276.641; -256.073; -273.868
703.695;  -56.356; -796.073; -792.868
703.961;   71.147; -214.073; -210.868
704.227;  -91.451; -630.073; -725.869
704.493;  284.152;  613.927;  510.131
704.759;    8.255; -565.072; -540.870
705.025;   62.758; -203.072; -194.870
705.291;  -32.640; -666.072; -562.870
705.557;  384.863;  719.928;   34.129
705.823;   51.866; -742.072; -694.871
706.089;  257.368; -307.071; -326.871
706.355;  622.871; -315.071; -244.872
706.620; 8642.574; -776.071; -729.872
706.886;11225.377; -309.071; -362.873
707.152; 1025.979; -818.070; -973.873
707.418;  -45.618;-1153.070;-1186.873
707.683;   21.585; -550.070; -530.874
707.949;  -17.013; -547.070; -578.874
708.215;   61.990; -129.070; -207.874
708.480;   15.493; -520.069; -420.875
708.746;  210.396;   68.931;   28.125
709.011;  -72.702; -578.069; -612.876
709.277; -102.499; -538.069; -543.876
709.542;  -67.596; -428.069; -387.876
709.808;   36.806;  -59.068;   89.123
710.073; -131.991; -577.068; -695.877
710.339;  -28.888; -242.068; -228.877
710.604;  123.415; -780.068; -845.878
710.869;  465.217; -277.068; -366.878
711.135; -110.880; -715.067; -628.879
711.400; -122.377; -507.067; -608.879
711.665; -105.175; -404.067; -479.879
711.931; -169.372; -661.067; -677.880
712.196; -193.469; -876.067; -954.880
712.461;  158.934; -402.066; -490.880
712.726;  170.136; -727.066; -771.881
712.991; -128.461; -647.066; -664.881
713.256;  -57.058; -350.066; -332.882
713.521;  -92.756; -417.065; -381.882
713.787;  -95.253; -454.065; -472.882
714.052;   -5.150; -214.065; -400.883
714.317; -179.947;-1045.065; -981.883
714.581; 1677.055; -374.065; -268.883
714.846; 1935.458; -822.064; -888.884
715.111;  244.261;  261.936;  257.116
715.376;  -20.237;  -86.064; -223.885
715.641;   23.966; -365.064; -367.885
715.906;  468.669;   15.936; -551.885
716.171;  273.172;  221.937;  209.114
716.436;   98.774;  -78.063; -104.886
716.700; -176.923; -818.063; -692.886
716.965; -191.820; -794.063; -807.887
717.230;  -97.118; -339.063; -392.887
717.494;    6.185;  -40.062; -134.888
717.759; -153.412; -784.062; -640.888
718.024;   72.691;  269.938;  250.112
718.288;  180.793;  685.938;  395.111
718.553; -256.504; -803.062; -977.889
718.817; -243.701; -883.061; -899.889
719.082;  -22.199; -115.061; -125.890
719.346; -238.196;-1000.061; -947.890
719.611;  -53.393; -300.061; -255.891
719.875; -138.990; -568.060; -537.891
720.140; -111.988; -453.060; -603.891
720.404;   83.615; -136.060; -249.892
720.668; 1295.018; -475.060; -411.892
720.933;  527.120;  146.940;  137.108
721.197; -163.277; -667.059; -600.893
721.461; -242.374; -851.059; -826.893
721.725;   37.629;  -21.059; -250.894
721.990;  -43.869; -284.059; -204.894
722.254;   20.034;  -26.059; -108.894
722.518;  -80.863; -286.058; -442.895
722.782; -165.561; -743.058; -594.895
723.046;  266.642;  614.942;  570.105
723.310;  121.945;  374.942;  210.104
723.574; -175.652; -654.058; -614.896
723.838; -148.950; -576.057; -642.897
724.102;  -32.247; -226.057; -239.897
724.366; -224.444;-1032.057; -978.897
724.630; -130.242; -749.057; -571.898
724.894; -119.339; -722.057; -514.898
725.158;   39.264;   38.944; -295.898
725.422;  -30.433; -394.056; -327.899
725.685;  -87.631; -441.056; -349.899
725.949; -149.328; -566.056; -519.900
726.213; -114.025; -732.056; -811.900
726.477;  222.678;-1020.055; -933.900
726.740;  206.480; -274.055; -104.901
727.004;  599.383; -384.055; -510.901
727.268; 5028.586; -442.055; -400.901
727.531; 1212.188; -961.055; -775.902
727.795;  -70.809; -713.054; -673.902
728.059;  -66.706; -552.054; -557.903
728.322; -126.703; -841.054; -669.903
728.586;   47.999; -692.054; -701.903
728.849; -131.798; -695.053; -756.904
729.112; -189.295; -812.053; -912.904
729.376; -190.693; -959.053; -905.904
729.639; -117.490; -536.053; -536.905
729.903; -196.787; -733.053; -699.905
730.166;  -67.084; -437.052; -399.906
730.429;   14.118; -317.052; -468.906
730.693;  -92.979; -355.052; -894.906
730.956;  471.524;  810.948;  651.093
731.219; 1038.326; -310.052; -103.907
731.482;  172.129;-1003.051; -894.907
731.745;   94.132; -794.051; -935.908
732.009;  112.435;  -30.051;   50.092
732.272; -158.963; -904.051; -771.909
732.535;  -61.960; -300.051; -310.909
732.798; -288.057;-1083.050;-1166.909
733.061;  -75.655; -430.050; -456.910
733.324;   89.648;   31.950; -180.910
733.587;  178.051;  290.950;  365.090
733.850; -110.746; -973.049;-1050.911
734.113;  129.956;   33.951;   32.089
734.376;   16.359; -328.049; -447.912
734.639;  453.162; 1188.951; 1011.088
734.901;  154.564; -180.049; -402.912
735.164;  797.567; -883.048; -837.913
735.427; 1873.670; -166.048; -355.913
735.690;  212.373; -205.048; -234.913
735.952; -105.825; -923.048; -925.914
736.215;  -89.922;-1113.048;-1009.914
736.478;   63.981; -771.047; -774.915
736.740;  386.283;   33.953;  129.085
737.003; 1254.186; -658.047; -672.915
737.266; 5926.989;  -94.047;   46.084
737.528;  664.392; -682.047; -660.916
737.791;  481.594; -316.046; -327.916
738.053; 1427.497;  465.954;  649.083
738.316;17052.800; -162.046; -136.917
738.578;10537.902; -770.046; -736.918
738.841;  660.005; -382.046; -446.918
739.103;  270.608; -875.045; -777.918
739.365;  775.811;   79.955;  -69.919
739.628;  -26.687; -884.045; -805.919
739.890;  -46.984; -758.045; -710.919
740.152;  -32.681; -692.044; -754.920
740.414;    1.821; -408.044; -359.920
740.677;  -62.376; -785.044; -634.921
740.939;  -76.473; -587.044; -487.921
741.201;  397.930; -432.044; -572.921
741.463;   56.132; -689.043; -745.922
741.725;   84.635;  -21.043; -199.922
741.987;  181.738;  220.957;  116.078
742.249;   -9.160; -751.043; -859.923
742.511;  313.643; -703.043; -794.923
742.773;    0.346; -546.042; -546.924
743.035;  268.949;  796.958;  533.076
743.297;  -76.849; -963.042;-1013.924
743.559; 1195.754; -278.042; -262.925
743.821;   66.757; -735.042; -744.925
744.083;   57.359;  -44.041; -149.925
744.345; -120.838; -869.041; -892.926
744.607;   95.465;   75.959;  122.074
744.868;  -77.332; -490.041; -554.927
745.130; -209.330; -994.041;-1008.927
745.392;  138.973;   -1.040;  -44.927
745.653;    0.176; -411.040; -378.928
745.915;  370.979;  896.960;  631.072
746.177;  116.081;   35.960;  -43.928
746.438;  -19.316; -428.040; -543.929
746.700;  -77.613; -947.039; -988.929
746.961;   39.189; -659.039; -740.930
747.223;  250.092; -190.039;  -74.930
747.484;  166.995; -391.039; -471.930
747.746;  251.798;  -23.038; -106.931
748.007;  165.600; -647.038; -689.931
748.269;  475.203; -468.038; -440.931
748.530;  697.706; -852.038; -638.932
748.791;  414.508; -354.038; -420.932
749.053;  758.211;  286.963;  163.067
749.314;  744.614; -236.037; -169.933
749.575;  753.517; -945.037; -905.933
749.836; 1323.619; -217.037;   86.066
750.098; 4386.522;  -60.037;  -21.934
750.359;53762.925;  414.964;  555.066
750.620;12180.427; -121.036; -220.935
750.881; 1627.330; -585.036; -513.935
751.142; 2171.433; -950.036; -938.936
751.403;26172.336; -789.036; -705.936
751.664; 9823.038;-1034.035; -999.936
751.925;  782.341; -175.035; -262.937
752.186;  513.444; -298.035; -278.937
752.447;  210.246; -590.035; -445.937
752.708;  117.449; -532.035; -648.938
752.969;   26.252; -566.034; -576.938
753.230;   24.755; -777.034; -672.939
753.491;   -2.743; -650.034; -631.939
753.751;  170.060;  109.966;   19.061
754.012;  207.063;  258.967;  181.060
754.273;  150.265; -174.033;  -71.940
754.534;   55.368; -487.033; -580.940
754.794; -127.229; -926.033; -911.941
755.055;  363.774; 1051.967;  881.059
755.316;  -56.624; -700.032; -566.942
755.576;  -54.921; -606.032; -576.942
755.837;  -55.718; -527.032; -695.942
756.097;  -53.916; -530.032; -564.943
756.358;  -91.213; -725.032; -770.943
756.618; -103.510; -705.031; -641.943
756.879;   18.293; -254.031; -349.944
757.139; -227.005;-1098.031;-1116.944
757.400;  -81.902; -538.031; -553.945
757.660;   46.401; -365.031; -401.945
757.920;   87.503; -266.030; -228.945
758.181;    0.106; -468.030; -351.946
758.441; -146.291; -870.030; -809.946
758.701;   12.512; -308.030; -215.946
758.961;   15.714; -220.030; -278.947
759.222;  -62.683; -574.029; -502.947
759.482; -119.180; -683.029; -723.948
759.742; -100.378; -706.029; -547.948
760.002;  100.025;  -83.029; -143.948
760.262;   89.228;   50.972;  182.051
760.522;  -30.269; -498.028; -574.949
760.782;  -51.767; -738.028; -612.949
761.042;  -49.764; -618.028; -573.950
761.302;  128.239;   55.972;  -18.950
761.562;  140.941; -164.027; -154.951
761.822;  139.844; -710.027; -551.951
762.082;  -49.053;-1104.027;-1093.951
762.342;  159.150; -328.027; -403.952
762.601;  158.452; -567.027; -506.952
762.861;  613.155; -281.026; -207.952
763.121;  774.858; -406.026; -411.953
763.381;13712.660; -499.026; -485.953
763.640;12501.563; -139.026; -307.954
763.900;  632.166; -242.026; -203.954
764.160;  185.169; -458.025; -491.954
764.419;   -8.229; -726.025; -782.955
764.679;  -97.326; -795.025; -726.955
764.939;   47.377; -124.025; -210.955
765.198;  -87.221; -608.025; -563.956
765.458; -103.318; -710.024; -612.956
765.717;  -86.015; -454.024; -590.957
765.976;  -60.012; -428.024; -411.957
766.236;  -99.010; -475.024; -610.957
766.495;   58.593;  260.977;   73.042
766.755; -189.704;-1090.023; -987.958
767.014;   15.499; -594.023; -665.958
767.273;  -52.599; -373.023; -397.959
767.533;  -45.396; -228.023; -307.959
767.792;   10.007; -151.022; -188.960
768.051;  -52.791; -228.022; -276.960
768.310; -122.888; -546.022; -650.960
768.569;   52.415; -161.022;    4.039
768.828;   -9.382; -285.022; -363.961
769.088; -197.580;-1050.021; -942.961
769.347; -117.677; -755.021; -599.962
769.606; -171.474; -876.021; -857.962
769.865; -200.372;-1016.021;-1033.963
770.124;   31.631; -411.021; -336.963
770.383;  -78.566; -778.020; -910.963
770.641;   23.837; -398.020; -400.964
770.900;  -92.661; -953.020; -846.964
771.159;  -60.158; -851.020; -951.964
771.418;  -32.255; -917.020; -779.965
771.677;  221.847; -224.019; -293.965
771.936;  233.450; -794.019; -865.966
772.194; 4192.853; -465.019; -437.966
772.453;16300.856; -213.019; -391.966
772.712; 1205.558;  416.982;  329.033
772.970;  261.561;   32.982;   63.033
773.229;  203.164;  -22.018;  102.033
773.488; -134.134; -814.018; -770.968
773.746;  143.069;  296.982;  335.032
774.005;   67.272;  190.983;  -22.969
774.263;   60.275;  243.983;  177.031
774.522; -124.823; -422.017; -548.969
774.780; -119.020; -484.017; -417.970
775.039; -110.317; -551.017; -531.970
775.297;   -5.815; -135.016; -351.970
775.555; -162.212; -489.016; -612.971
775.814; -192.009; -618.016; -570.971
776.072; -225.106; -749.016; -740.971
776.330; -155.104; -630.016; -520.972
776.589; -175.101; -703.015; -721.972
776.847; -195.898; -645.015; -624.973
777.105; -298.096;-1016.015;-1032.973
777.363; -115.993; -459.015; -454.973
777.621; -225.190; -660.015; -717.974
777.879;   40.413;  -42.014;   32.026
778.138; -121.385; -554.014; -717.974
778.396; -139.382; -585.014; -526.975
778.654; -267.879;-1015.014; -970.975
778.912;  -74.777; -269.014; -371.976
779.170; -209.874; -880.013; -803.976
779.427; -253.971; -922.013; -897.976
779.685; -218.668; -880.013; -832.977
779.943; -148.666; -654.013; -593.977
780.201; -245.863; -964.012; -883.978
780.459; -174.760; -651.012; -610.978
780.717; -100.758; -440.012; -390.978
780.974; -138.655; -449.012; -490.979
781.232; -117.952; -358.012; -338.979
781.490; -131.749; -551.011; -472.979
781.747; -150.247; -555.011; -476.980
782.005;   99.656;  462.989;  254.020
782.263; -269.241; -542.011;-1004.981
782.520; -101.439; -326.011; -501.981
782.778; -265.136;-1013.010;-1051.981
783.035; -283.533; -962.010; -938.982
783.293;  -30.030; -248.010; -206.982
783.550;  -40.728; -134.010; -198.982
783.808; -204.725; -764.010; -776.983
784.065; -257.622; -745.009; -874.983
784.322;  -50.820;   25.991;  -86.984
784.580; -220.417; -915.009; -771.984
784.837; -125.014; -392.009; -466.984
785.094; -226.711; -783.009; -762.985
785.352;  -73.209; -304.008; -404.985
785.609; -198.006; -934.008; -839.985
785.866;  -79.003; -345.008; -401.986
786.123;  -68.100; -639.008; -583.986
786.380; -154.798; -665.008; -604.987
786.637;  -39.195; -225.007; -380.987
786.895;  -41.092; -456.007; -543.987
787.152;  -28.590; -135.007; -267.988
787.409;   -1.887; -123.007; -225.988
787.666; -107.184; -299.006; -378.988
787.923; -171.181; -616.006; -695.989
788.179; -130.979; -551.006; -584.989
788.436; -173.276; -585.006; -585.990
788.693;  -15.673;  -92.006;  -87.990
788.950;  304.929; -125.005; -112.990
789.207;  289.432; -381.005; -372.991
789.464;  -28.465; -161.005; -301.991
789.720;    4.438;  150.995;  110.009
789.977; -265.360;-1003.005; -671.992
790.234;    2.743;   44.996;  -66.992
790.490; -225.254; -884.004;-1031.993
790.747;   21.348;  -85.004;   22.007
791.004;  -23.049; -426.004; -348.993
791.260; -131.746; -430.004; -560.994
791.517; -131.143; -843.003; -788.994
791.773;  -50.441; -379.003; -342.994
792.030; -142.238; -596.003; -660.995
792.286; -171.135; -686.003; -636.995
792.543;   45.767;  -74.002; -159.995
792.799;  -63.530; -584.002; -382.996
793.055; -279.527;-1179.002;-1210.996
793.312; -145.224; -827.002; -816.997
793.568;  -71.222; -746.002; -599.997
793.824;   38.381; -226.001; -284.997
794.081;   84.884; -447.001; -508.998
794.337;  130.986; -664.001; -561.998
794.593; 2801.089; -319.001; -271.999
794.849;10403.992; -746.001; -772.999
795.105;  535.595; -270.000; -261.999
795.361;   47.197; -490.000; -457.000
795.617; -104.400; -875.000; -945.000
795.873;  -45.100; -360.000; -407.000
796.129;  -27.500; -368.000; -306.000
796.385;   32.800; -124.000; -156.000
796.641;  197.000;  412.000;  550.000
796.897; -108.600; -666.000; -635.000
797.153;  195.100;  453.000;  357.000
797.409; -135.900; -785.000; -868.000
797.665; -114.900; -625.000; -732.000
797.921; -137.900; -775.000; -762.000
798.176;  -65.200; -744.000; -747.000
798.432; -116.600; -824.000; -596.000
798.688; -127.200;-1174.000;-1078.000
798.943;  162.700; -165.000; -147.000
799.199;  -39.700;-1005.000; -959.000
799.455;  441.600;  369.000;  316.000
799.710;  192.700; -813.000; -380.000
799.966;  495.500; -162.000; -160.000
800.221;  809.300; -638.000; -721.000
800.477;17757.200; -743.000; -710.000
800.732;12299.400; -773.000; -800.000
800.988; 1021.600;  205.000;  -19.000
801.243; 3514.400; -454.000; -344.000
801.498;11755.200; -814.000; -739.000
801.754;  653.500; -289.000; -163.000
802.009;  204.300; -257.000; -335.000
802.264;  -96.900; -967.000;-1033.000
802.520;   98.800;  222.000;   -3.000
802.775;  -60.900; -524.000; -359.000
803.030;  155.800;  395.000;  356.000
803.285; -178.100; -840.000; -903.000
803.540;  -67.500; -686.000; -699.000
803.795;  -62.100; -648.000; -583.000
804.051;  -38.000; -279.000; -346.000
804.306;   93.700;  168.000;  128.000
804.561;  314.400;  451.000;  362.000
804.816;  339.700;  714.000;  861.000
805.071;   65.300; -185.000; -280.000
805.325;  369.400; -257.000; -427.000
805.580; -169.100; -841.000; -877.000
805.835;   39.700; -204.000; -297.000
806.090;  -96.000; -760.000; -676.000
806.345;   10.700; -344.000; -264.000
806.600;  -12.200; -549.000; -632.000
806.854;  -55.800; -408.000; -538.000
807.109;    9.100; -493.000; -577.000
807.364;   58.700; -407.000; -328.000
807.618;   28.600; -415.000; -381.000
807.873;   78.700; -470.000; -494.000
808.128;  218.400; -257.000; -518.000
808.382;  208.800; -224.000; -332.000
808.637;  149.000; -440.000; -511.000
808.891;  378.700; -257.000; -180.000
809.146;  167.900; -902.000; -794.000
809.400;  421.500; -848.000; -923.000
809.654;  566.600; -779.000; -551.000
809.909;  841.400; -841.000; -927.000
810.163;12646.400; -813.000; -651.000
810.418;25291.900; -940.000; -861.000
810.672; 1555.700; -685.000; -690.000
810.926; 1178.400; -993.000; -973.000
811.180; 2677.500; -439.000; -372.000
811.434;55923.000;  240.000;  135.000
811.689;17376.300; -231.000; -365.000
811.943; 1030.800; -936.000; -953.000
812.197;  560.200; -893.000; -671.000
812.451;  239.400; -379.000; -514.000
812.705;  -29.100; -809.000; -619.000
812.959;  -66.300; -263.000; -388.000
813.213;   64.900; -283.000; -209.000
813.467;  180.200;  470.000;  253.000
813.721; -146.200; -764.000; -792.000
813.975; -152.600; -826.000; -877.000
814.229;  154.200;  430.000;  353.000
814.482;  -98.300; -517.000; -566.000
814.736; -180.600; -766.000; -744.000
814.990; -222.100; -779.000; -872.000
815.244;  -47.400; -228.000; -285.000
815.497; -116.500; -636.000; -601.000
815.751;   60.800; -141.000;   82.000
816.005; -112.300; -470.000; -586.000
816.258;  -80.800; -510.000; -363.000
816.512; -163.600; -693.000; -610.000
816.766;   54.700;  121.000;  157.000
817.019;  118.500;  148.000;  149.000
817.273; -171.800;-1000.000; -802.000
817.526;   19.900; -206.000; -173.000
817.779;  -58.700;-1049.000; -960.000
818.033; -143.300; -693.000; -807.000
818.286; -209.200; -725.000; -792.000
818.540; -111.500; -403.000; -403.000
818.793;  -92.600; -402.000; -489.000
819.046; -123.100; -582.000; -520.000
819.299;  -19.000; -157.000; -166.000
819.553; -144.700; -552.000; -592.000
819.806; -273.100;-1016.000; -838.000
820.059;  -63.300; -334.000; -354.000
820.312;  104.700;  152.000;  185.000
820.565;   53.500;  110.000;  -27.000
820.818;  -19.800;  -59.000; -173.000
821.071; -257.500;-1041.000; -957.000
821.324; -134.800; -536.000; -540.000
821.577; -154.900; -457.000; -483.000
821.830;  -51.800; -270.000; -172.000
822.083; -166.000; -733.000; -288.000
822.336;   -9.500; -261.000; -167.000
822.589; -211.700; -805.000; -688.000
822.842; -221.300; -875.000; -770.000
823.094; -305.200;-1076.000;-1114.000
823.347; -203.500; -925.000; -729.000
823.600;   87.700;  402.000;  187.000
823.853;  -42.400; -311.000; -267.000
824.105; -115.600; -331.000; -575.000
824.358; -156.600; -617.000; -716.000
824.611;  102.300;  234.000;   40.000
824.863;  -84.000; -612.000; -591.000
825.116;  145.300;  -33.000;   27.000
825.368;  183.300; -366.000; -372.000
825.621;  240.900; -186.000; -240.000
825.873;   88.100; -704.000; -737.000
826.126; 1112.400; -669.000; -641.000
826.378;18628.800; -389.000; -505.000
826.630; 3313.800; -890.000; -898.000
826.883;   47.200; -754.000; -693.000
827.135;  109.100; -279.000; -270.000
827.387; -193.000; -893.000; -839.000
827.639;   17.800;  -86.000;   32.000
827.892; -169.100; -742.000; -582.000
828.144; -234.100; -848.000; -804.000
828.396;   -9.200;  104.000;  -80.000
828.648; -118.900; -440.000; -333.000
828.900; -244.900; -702.000; -795.000
829.152; -183.200; -684.000; -683.000
829.404;  -61.300; -215.000; -267.000
829.656;   11.300;  321.000;  214.000
829.908;   27.800;  393.000;  229.000
830.160; -283.300;-1064.000;-1047.000
830.412; -139.900; -481.000; -430.000
830.664; -164.500; -557.000; -665.000
830.916;  -70.500; -268.000; -206.000
831.167; -305.700;-1073.000; -951.000
831.419; -175.900; -623.000; -566.000
831.671; -197.100; -764.000; -809.000
831.923;  -95.000; -311.000; -447.000
832.174;  -81.700; -273.000; -331.000
832.426; -181.500; -493.000; -582.000
832.678; -279.100;-1043.000;-1091.000
832.929; -265.300; -947.000; -935.000
833.181;  -79.000; -575.000; -677.000
833.432;  -50.300;  -59.000; -186.000
833.684;   36.700;  112.000;  -27.000
833.935; -173.300; -610.000; -566.000
834.187; -159.600; -829.000; -823.000
834.438;  -20.100;  -58.000;  -25.000
834.689;  -56.800; -255.000; -123.000
834.941;  -58.500; -343.000; -244.000
835.192; -142.200; -590.000; -533.000
835.443; -115.300; -419.000; -506.000
835.695;   41.600;  138.000;  -16.000
835.946; -118.100; -608.000; -378.000
836.197; -139.500; -599.000; -622.000
836.448; -141.700; -528.000; -395.000
836.699;  -56.600; -253.000; -341.000
836.950;   36.700;   72.000;    7.000
837.201; -251.000;-1003.000; -987.000
837.452;  -30.800; -356.000; -170.000
837.703; -163.800; -791.000; -737.000
837.954;  -48.900; -205.000; -365.000
838.205; -147.100;-1029.000;-1008.000
838.456;  274.300; -196.000; -282.000
838.707;   63.900; -423.000; -519.000
838.958;   16.100; -634.000; -647.000
839.209;  478.400;   18.000;   40.000
839.460;  204.000; -439.000; -201.000
839.710;  313.900; -135.000; -297.000
839.961;  783.100;  730.000;  612.000
840.212;  565.500; -382.000; -497.000
840.462; 2091.000; -328.000; -277.000
840.713;30196.300; -571.000; -536.000
840.964; 9083.800;  -62.000; -143.000
841.214;  842.300; -384.000; -624.000
841.465;  951.000; -214.000; -141.000
841.715;  863.800; -417.000; -380.000
841.966; 1117.400; -746.000; -685.000
842.216;18498.100; -330.000; -431.000
842.466;53567.300; -169.000; -313.000
842.717; 2050.900; -964.000; -952.000
842.967;  607.500; -635.000; -641.000
843.217;  515.300;   20.000;   28.000
843.468;  185.600; -104.000; -132.000
843.718;  -31.700; -718.000; -726.000
843.968; -136.400; -837.000; -765.000
844.218;   59.800; -315.000; -262.000
844.469;  -45.900; -577.000; -561.000
844.719; -120.300; -537.000; -682.000
844.969; -144.000; -550.000; -580.000
845.219; -184.200; -814.000; -862.000
845.469;  -96.600; -392.000; -342.000
845.719; -237.700; -792.000; -884.000
845.969;   29.600;  119.000;  174.000
846.219; -164.600; -738.000; -720.000
846.469;   87.600;  464.000;  432.000
846.718;  -26.700; -115.000;   31.000
846.968; -198.000; -827.000; -827.000
847.218;  -49.400; -224.000; -371.000
847.468; -170.000; -586.000; -555.000
847.718; -219.500; -827.000; -798.000
847.967; -211.200; -826.000; -915.000
848.217; -105.700; -449.000; -569.000
848.467;  -47.300; -405.000; -376.000
848.716; -186.000; -708.000; -725.000
848.966;   -3.200; -372.000; -358.000
849.215;  -32.000; -428.000; -419.000
849.465; -149.600; -785.000; -615.000
849.714; -244.600;-1132.000;-1150.000
849.964;  -87.500; -551.000; -613.000
850.213;   -5.900; -393.000; -355.000
850.463;  197.700;  137.000;  340.000
850.712;   13.700; -542.000; -567.000
850.961;   51.200; -739.000; -678.000
851.211;  148.900; -513.000; -504.000
851.460;  258.700; -635.000; -650.000
851.709;  954.000;  -25.000;   18.000
851.958;18504.600; -912.000; -750.000
852.208;17007.300; -859.000; -879.000
852.457;  711.300; -181.000;  -13.000
852.706;  131.600; -791.000; -823.000
852.955;   21.800; -507.000; -528.000
853.204; -111.500; -521.000; -461.000
853.453; -108.900; -418.000; -458.000
853.702; -233.700; -660.000; -750.000
853.951; -168.100; -532.000; -520.000
854.200; -160.200; -613.000; -562.000
854.449; -202.400; -695.000; -661.000
854.698;  -94.700; -340.000; -279.000
854.946;  -78.100; -181.000; -284.000
855.195; -226.800; -843.000; -868.000
855.444; -111.000; -395.000; -420.000
855.693; -160.100; -345.000; -432.000
855.941; -129.800; -387.000; -516.000
856.190;  -24.800; -256.000; -382.000
856.439; -192.200; -652.000; -703.000
856.687;  -29.400;  -99.000;  -72.000
856.936; -171.100; -621.000; -323.000
857.184; -283.800;-1067.000;-1020.000
857.433; -152.200; -423.000; -512.000
857.681; -247.200; -989.000; -953.000
857.930; -108.200; -282.000; -433.000
858.178; -293.800; -856.000; -929.000
858.427; -212.400; -802.000; -781.000
858.675; -159.800; -377.000; -544.000
858.923; -107.400; -527.000; -819.000
859.172; -289.900;-1094.000;-1070.000
859.420; -100.300; -339.000; -239.000
859.668; -195.900; -624.000; -628.000
859.916;   43.400;  109.000;  115.000
860.164; -155.000; -699.000; -603.000
860.413;  572.000; -878.000; -696.000
860.661;  265.800; -709.000; -577.000
860.909;  -90.000; -339.000; -325.000
861.157; -109.600; -277.000; -444.000
861.405; -179.700; -534.000; -670.000
861.653;   72.400;  310.000;  310.000
861.901;  321.400; -543.000; -613.000
862.149;  -41.000; -801.000; -824.000
862.396; -110.200; -297.000; -187.000
862.644; -127.200; -368.000; -347.000
862.892;   -8.900;   98.000;  138.000
863.140; -144.500; -549.000; -530.000
863.388; -250.500; -815.000; -759.000
863.635; -166.200; -642.000; -601.000
863.883;   61.300;  231.000;  190.000
864.131; -123.200; -288.000; -357.000
864.378; -208.900; -675.000; -540.000
864.626; -127.500; -347.000; -415.000
864.873; -179.400; -556.000; -505.000
865.121; -195.700; -714.000; -799.000
865.368;   12.200; -173.000;   75.000
865.616;  -19.900;  -33.000;  -40.000
865.863; -118.800; -462.000; -506.000
866.111; -201.600; -795.000; -824.000
866.358;  115.700; -426.000; -420.000
866.605; 3966.000;  -64.000; -804.000
866.853; 3055.000; -621.000; -537.000
867.100;  -63.200; -728.000; -775.000
867.347; -150.500; -672.000; -611.000
867.594; -106.500; -740.000; -714.000
867.841;  172.700;   97.000;   17.000
868.089; -218.400; -746.000; -698.000
868.336; -154.000; -477.000; -420.000
868.583; -213.900; -637.000; -741.000
868.830;  -13.800; -131.000; -170.000
869.077; -244.900; -859.000; -787.000
869.324; -183.300; -502.000; -458.000
869.571; -201.900; -398.000; -430.000
869.818; -171.000; -485.000; -439.000
870.065; -137.600; -439.000; -513.000
870.311; -166.100; -456.000; -542.000
870.558; -139.000; -332.000; -311.000
870.805; -116.400; -320.000; -384.000
871.052; -129.900; -494.000; -369.000
871.298;  -27.800; -204.000; -131.000
871.545;  -68.000; -151.000; -185.000
871.792; -128.700; -173.000; -222.000
872.038;  -59.200;   43.000; -126.000
872.285; -173.100; -496.000; -387.000
872.532; -111.900; -357.000; -387.000
872.778;   90.000;  556.000;  403.000
873.025; -114.700; -384.000; -359.000
873.271;  129.800;  501.000;  578.000
873.517;   11.500; -133.000; -209.000
873.764;  -44.200; -193.000;  -80.000
874.010;  -67.000; -143.000; -230.000
874.257;  -20.500;  123.000;   90.000
874.503; -191.500; -579.000; -479.000
874.749;  -55.500;   31.000;  275.000
874.995;  -85.900;  -80.000;  -20.000
875.242; -180.600; -540.000; -478.000
875.488; -150.300; -414.000; -439.000
875.734;  -33.300; -106.000; -234.000
875.980;  407.200; -872.000;-1032.000
876.226;  538.100; -157.000; -255.000
876.472;   76.400;  343.000;  237.000
876.718;   -5.900;  184.000;  158.000
876.964;   16.200;   56.000;   55.000
877.210; -230.900; -547.000; -677.000
877.456; -170.600; -630.000; -557.000
877.702; -296.800; -821.000; -832.000
877.948; -128.400; -377.000; -497.000
878.193;   98.900;  361.000;  255.000
878.439;  -98.600; -487.000; -472.000
878.685; -134.400; -272.000; -343.000
878.931; -181.100; -618.000; -676.000
879.176;  -75.200; -201.000; -201.000
879.422; -288.000; -933.000; -820.000
879.668;  209.700;   10.000;   79.000
879.913;  272.700;   53.000;  137.000
880.159;  -42.400; -112.000;  -17.000
880.404;  -28.800; -152.000; -162.000
880.650;  -35.400;   91.000;  141.000
880.895; -248.600; -670.000; -710.000
881.141; -171.500; -454.000; -428.000
881.386; -247.000; -503.000; -658.000
881.631; -126.300; -311.000; -166.000
881.877;   29.300;  112.000;  -13.000
882.122; -228.600; -684.000; -600.000
882.367; -104.500; -136.000; -186.000
882.612;  -63.000;  -80.000; -176.000
882.858; -287.100; -877.000; -823.000
883.103; -131.700; -297.000; -267.000
883.348; -233.100; -759.000; -852.000
883.593; -236.000; -677.000; -602.000
883.838;  -53.800; -311.000;  -24.000
884.083;  134.700;  353.000;  288.000
884.328; -119.200; -564.000; -545.000
884.573;  -24.100; -196.000; -143.000
884.818;  391.800; -694.000; -531.000
885.063;  240.500; -348.000; -315.000
885.308; -119.900; -475.000; -398.000
885.553;   74.300;  245.000;  325.000
885.797; -193.900; -545.000; -615.000
886.042;  -46.000;    8.000;   58.000
886.287;  -85.800; -253.000; -211.000
886.532;  -29.600;   26.000;  204.000
886.776; -120.600; -407.000; -525.000
887.021; -241.400; -621.000; -574.000
887.265; -220.600; -685.000; -689.000
887.510; -212.900; -557.000; -496.000
887.755;  -82.600; -194.000; -164.000
887.999; -194.400; -552.000; -575.000
888.244;  -28.100;  -58.000;  161.000
888.488;   60.100;  371.000;  393.000
888.732; -144.500; -368.000; -520.000
888.977; -184.600; -622.000; -567.000
889.221; -233.300; -683.000; -659.000
889.465; -205.700; -422.000; -566.000
889.710;  -82.400;  -56.000; -299.000
889.954;   71.400;  579.000;  467.000
890.198; -206.700; -584.000; -707.000
890.442; -252.200; -716.000; -712.000
890.687; -232.000; -800.000; -753.000
890.931; -126.000; -273.000; -210.000
891.175; -179.800; -502.000; -500.000
891.419;  -54.200; -105.000; -110.000
891.663;  -89.900; -239.000; -112.000
891.907; -276.800; -801.000; -545.000
892.151; -291.400; -920.000; -815.000
892.395; -186.900; -274.000; -387.000
892.638;   20.400;  408.000;  291.000
892.882; -267.600; -780.000; -867.000
893.126;  120.400;  758.000;  558.000
893.370; -127.700; -167.000; -168.000
893.614; -197.800; -714.000; -715.000
893.857; -134.600; -183.000; -197.000
894.101; -200.500; -527.000; -631.000
894.345;  -29.400;  300.000;  150.000
894.588;  140.600;  569.000;  380.000
894.832;  -79.100; -178.000;  -84.000
895.075;  -78.400;   15.000;  -92.000
895.319; -185.600; -552.000; -420.000
895.563; -168.600; -413.000; -353.000
895.806; -243.300; -628.000; -741.000
896.049;  -33.800; -576.000; -368.000
896.293;  203.800;  527.000;  405.000
896.536; -114.200; -465.000; -468.000
896.779;  -51.700; -149.000;   -1.000
897.023; -219.100; -751.000; -714.000
897.266;   30.500;  325.000;  269.000
897.509; -298.800; -900.000; -901.000
897.752;  -14.700;  149.000;  171.000
897.996; -297.400; -972.000; -864.000
898.239;  -10.500;  168.000;  102.000
898.482; -195.500; -431.000; -453.000
898.725;   -3.400;  101.000;   53.000
898.968; -255.800; -609.000; -744.000
899.211; -158.900; -513.000; -361.000
899.454; -171.400; -633.000; -539.000
899.697;  -25.700;   90.000;  -43.000
899.940; -271.800; -761.000; -757.000
900.182; -128.900; -335.000; -405.000
900.425;  -79.800; -150.000; -298.000
900.668;   36.100;  491.000;  350.000
900.911; -122.500; -292.000; -345.000
901.154;   -8.200;  141.000;   -3.000
901.396; -191.800; -407.000; -412.000
901.639; -198.900; -430.000; -496.000
901.882; -301.100; -790.000; -809.000
902.124; -100.400;  -29.000; -143.000
902.367; -167.700; -315.000; -361.000
902.609; -182.600; -476.000; -453.000
902.852;  -81.500; -108.000; -260.000
903.094; -169.700; -458.000; -337.000
903.337;  -19.500;  -26.000;   53.000
903.579; -158.400; -228.000; -441.000
903.821; -231.000; -597.000; -744.000
904.064;  -48.700;   85.000;  127.000
904.306;  -80.900; -126.000; -166.000
904.548; -118.900; -152.000; -366.000
904.790; -139.400; -195.000; -340.000
905.033; -202.400; -625.000; -577.000
905.275; -184.700; -513.000; -524.000
905.517;  167.200;  468.000;  256.000
905.759; -111.100; -667.000; -761.000
906.001; -126.200; -322.000; -369.000
906.243;  -69.800; -162.000; -224.000
906.485;  254.300; -265.000; -207.000
906.727;  153.500; -499.000; -542.000
906.969;  -14.500;  -30.000; -135.000
907.211;  242.700; -316.000; -382.000
907.453;  496.500; -188.000; -237.000
907.695;    8.800; -158.000; -385.000
907.936;  157.800;  818.000;  706.000
908.178;  -55.500;   92.000; -135.000
908.420;  -72.500; -111.000; -162.000
908.662; -204.500; -633.000; -682.000
908.903; -117.600; -208.000; -123.000
909.145;  -63.500; -240.000; -305.000
909.386;  100.100;  315.000;  280.000
909.628;  149.300;  363.000;  397.000
909.870;   74.000;   29.000;  264.000
910.111; -145.300; -809.000; -949.000
910.353;   67.400; -123.000; -161.000
910.594;   36.800; -574.000; -606.000
910.835;  180.900; -265.000; -326.000
911.077;  300.900; -503.000; -604.000
911.318;  534.000; -505.000; -471.000
911.559;  828.000; -577.000; -880.000
911.801; 2686.300; -284.000; -280.000
912.042;23070.500;  -50.000; -159.000
912.283;47196.400;  404.000;  371.000
912.524; 5628.000; -396.000; -457.000
912.765;  896.300; -193.000;   79.000
913.006;  491.700; -307.000; -338.000
913.247;  119.000; -270.000; -290.000
913.488;   51.600;  -43.000;   30.000
913.729; -128.200; -373.000; -373.000
913.970;  -43.100;  -96.000; -292.000
914.211;  -77.200; -160.000; -198.000
914.452;  -52.400; -118.000;  -11.000
914.693;  128.900;  510.000;  592.000
914.934;  110.500;  510.000;  440.000
915.175;  -64.200;   53.000;  -95.000
915.415;  -72.200; -137.000;   27.000
915.656;  -69.800;  -28.000;  192.000
915.897;  -93.200; -252.000;  -82.000
916.137;  -88.500;   74.000;   -9.000
916.378; -203.900; -573.000; -517.000
916.619; -104.300; -159.000;  -63.000
916.859;   15.900;  303.000;  330.000
917.100;  392.100; 1655.000; 1070.000
917.340;  194.100;  930.000;  728.000
917.581;  165.100;  965.000;  789.000
917.821;    8.700; -171.000;  143.000
918.061;   49.700; -199.000;  -72.000
918.302;  -33.900; -152.000; -211.000
918.542;   -2.100;  -22.000;    3.000
918.782;  140.900;  369.000;  377.000
919.023;  260.600;  360.000;  427.000
919.263; 2806.500; 8131.000;  202.000
919.503; 1673.900; -137.000;  -54.000
919.743; 1125.200;  390.000;  266.000
919.983;  403.100; -134.000;  -26.000
920.223;  191.700;  135.000;   14.000
920.463;  309.700;  631.000;  554.000
920.703;  303.500;   84.000;   39.000
920.943;  295.000; -110.000;   90.000
921.183;  352.800; -414.000; -405.000
921.423;  898.000;  307.000;  546.000
921.663; 1251.700; -174.000; -257.000
921.903; 2866.000;  237.000;  173.000
922.143;17035.400;  372.000;  389.000
922.383;56997.500;  158.000;  115.000
922.622;14629.400; -120.000;  -15.000
922.862; 1849.500;  796.000;  785.000
923.102;  735.400;  -51.000;   33.000
923.341;  325.500;   59.000;   74.000
923.581;  213.000;  450.000;  360.000
923.821;   94.700;  301.000;  398.000
924.060;  108.200;  351.000;  193.000
924.300;  -47.800;  -16.000; -128.000
924.539;   64.800;  584.000;  473.000
924.779;   99.500;  812.000;  597.000
925.018;    4.400;  247.000;  353.000
925.257;   91.300;  595.000;  666.000
925.497;   -1.600;  447.000;  412.000
925.736;  -87.000;  -35.000;  102.000
925.975;   69.200;  687.000;  669.000
926.214;  101.200;  907.000;  850.000
926.454;  158.300;  706.000;  757.000
926.693;  -19.400;  419.000;  543.000
926.932;  155.700; 1021.000;  825.000
927.171;  216.500; 1107.000; 1044.000
927.410;  225.400; 1144.000;  967.000
927.649;  150.100;  924.000;  742.000
927.888;   69.800;  590.000;  564.000
928.127;   81.800;  680.000;  678.000
928.366;  179.700;  842.000;  826.000
928.605;  181.200;  831.000;  737.000
928.844;  535.700; 1451.000; 1393.000
929.083; 1092.800;  770.000;  613.000
929.321;  602.700; 1335.000; 1359.000
929.560;  240.500; 1158.000; 1122.000
929.799;   17.300;  574.000;  475.000
930.038;  250.400; 1025.000; 1394.000
930.276;    3.600;  334.000;  397.000
930.515;   89.600;  827.000;  681.000
930.753;   61.300;  614.000;  589.000
930.992;   24.500;  664.000;  717.000
931.230;   99.500;  847.000;  847.000
931.469;  438.300; 2162.000;  892.000
931.707;  237.900;  840.000;  751.000
931.946;  236.500; 1278.000; 1344.000
932.184;  225.500; 1437.000; 1175.000
932.423;  213.700; 1265.000;  963.000
932.661;  262.400; 1296.000; 1428.000
932.899;  153.500;  987.000;  821.000
933.137;   80.100;  754.000;  564.000
933.376;  387.500; 1664.000; 1335.000
933.614;  413.000; 1759.000; 1196.000
933.852;  163.300; 1357.000; 1171.000
934.090;  342.100; 1722.000; 1747.000
934.328;  276.400; 1252.000; 1457.000
934.566;  224.900; 1431.000; 1110.000
934.804;  318.500; 1263.000; 1309.000
935.042;  885.100; 1861.000; 1850.000
935.280; 3381.800; 2088.000; 2063.000
935.518; 2596.300; 2113.000; 2007.000
935.756;  652.200; 2481.000; 2316.000
935.994;  378.500; 1808.000; 1751.000
936.231;  740.000; 2890.000; 2950.000
936.469;  495.100; 2367.000; 2378.000
936.707;  394.300; 2220.000; 2167.000
936.945;  583.800; 2825.000; 2882.000
937.182;  484.300; 2679.000; 2741.000
937.420;  742.800; 3602.000; 3031.000
937.657;  913.500; 3365.000; 3478.000
937.895;  777.700; 3331.000; 3488.000
938.133;  723.900; 3540.000; 3528.000
938.370;  743.800; 3896.000; 4191.000
938.607;  893.400; 4488.000; 4205.000
938.845; 1211.100; 5587.000; 5549.000
939.082; 1084.500; 5387.000; 5177.000
939.320; 1211.800; 5799.000; 5728.000
939.557; 1397.900; 6549.000; 6491.000
939.794; 1534.800; 7285.000; 7097.000
940.031; 1911.300; 8421.000; 8368.000
940.269; 2323.500; 9552.000; 9107.000
940.506; 2357.400;10901.000;10507.000

