
Integration time [ms]: 100.000
Averaging Nr. [scans]: 40
Smoothing Nr. [pixels]: 0
Data measured with spectrometer [name]: 2101013U2
Wave   ;Sample   ;Dark     ;Reference
[nm]   ;[counts] ;[counts] ;[counts] 

394.013;   78.963; -450.257; -315.536
394.305;  232.110; -461.258; -419.536
394.596; 1028.408; -676.269; -527.514
394.887; 2455.800; -796.268; -654.518
395.178;  965.380;  145.736;   11.476
395.470;   94.166; -210.263; -356.526
395.761;  235.139;  305.734;  394.479
396.052;  343.234; -545.284; -306.489
396.343;  367.053; -557.276; -454.503
396.634;  144.872; -200.279; -290.497
396.926;  178.422; -618.268; -565.517
397.217;  161.058;   11.725;  -17.504
397.508;   87.673; -366.273; -154.507
397.799;   86.747; -555.279; -571.497
398.090;   18.317; -973.280; -902.495
398.381;  168.209;   11.708;  -11.473
398.672;   14.911; -585.292; -742.473
398.963;   81.753; -348.279; -373.498
399.254;  154.070;   54.709; -209.475
399.545;   -4.014;-1017.266; -883.520
399.836;   89.392; -407.277; -343.501
400.127;   67.011; -205.295; -209.468
400.418;   93.043; -423.274; -392.506
400.709;   93.804; -359.281; -333.493
401.000;   74.174; -268.291; -309.476
401.290;  120.423;  225.698;  115.545
401.581;   84.492; -166.286; -228.485
401.872;   29.483; -542.298; -486.462
402.163;   84.503; -313.296; -252.467
402.454;  104.820; -123.291; -163.475
402.744;  111.270; -844.297; -813.465
403.035;  561.576; -226.293;  -86.471
403.326;  749.463; -366.292; -384.474
403.617;  463.528;  204.701;  165.539
403.907;  273.940; -593.283; -679.490
404.198; 2217.427; -545.307; -599.446
404.489; 5875.144; -618.283; -588.491
404.779; 2110.751; -618.302; -660.456
405.070;  245.830;  -67.304; -174.451
405.360;  335.703; -259.293; -238.472
405.651;  384.988;  125.699;   98.542
405.942;  234.237;  209.714;  127.516
406.232;  391.252; -432.285; -413.487
406.523;  627.896;  641.706;  758.530
406.813;  153.339; -579.286; -644.484
407.104;  436.883;  261.708;  144.527
407.394;  281.329; -604.299; -591.462
407.685;  178.726;  336.715;  222.513
407.975;   88.868; -400.283; -382.490
408.265;  145.385; -134.289; -190.478
408.556;   86.342; -472.291; -459.475
408.846;  174.747;  474.706;  429.530
409.137;  110.618;   -1.288; -216.480
409.427;   61.951; -193.285; -271.487
409.717;   57.127; -776.273; -692.508
410.007;  141.320;    4.715; -170.486
410.298;  114.664; -360.295; -342.469
410.588;   81.499; -495.285; -510.486
410.878;   56.479; -792.287; -873.482
411.168;  126.411; -481.298; -478.463
411.459;  135.363; -295.283; -242.489
411.749;   68.641; -609.292; -507.474
412.039;   87.066; -755.289; -386.480
412.329;  221.310;   40.722;  132.501
412.619;  224.390;  -62.286; -148.485
412.909;  415.812;  639.711;  594.521
413.199;  393.017; -130.280; -251.495
413.490;  456.903;  521.710;  352.523
413.780;  151.646;-1013.279; -913.496
414.070;  349.904;  -46.276;  235.497
414.360;  437.632; -729.278; -666.498
414.650;  446.000; -726.288; -688.482
414.940;  514.245; -538.280; -441.496
415.230;  916.847;   50.712;   74.519
415.520; 5801.282;  155.730;   66.486
415.809;22529.728; -305.281; -125.493
416.099;17572.295; -388.277; -229.501
416.389; 4683.266;  435.726;  236.494
416.679; 2766.220;   91.738;   85.473
416.969;  512.458; -527.287; -503.483
417.259;  608.198;  341.721;  171.503
417.549;  697.852;  522.718;  318.508
417.838; 1547.674; -205.268; -147.518
418.128; 4942.208;  650.710;  492.522
418.418; 4221.558; -491.272; -579.509
418.708; 2837.891;    9.726;  -48.506
418.997;10422.112; -474.275; -480.505
419.287;10974.348; -733.273; -790.507
419.577;10056.562; -160.283; -123.489
419.866;33742.418; -588.277; -498.501
420.156;35335.553; -242.270;  -55.513
420.446; 6582.037; -112.263;  -26.526
420.735;  996.172; -376.271; -446.512
421.025;  873.481; 1830.722;  315.502
421.314;  848.921; -203.271; -226.512
421.604; 1969.992;   89.732;  233.484
421.893; 1165.117; -705.271; -602.511
422.183;  253.837; -487.263; -461.526
422.472;  404.193;  -36.271; -107.511
422.762;  488.242; -416.266; -379.521
423.051;  282.280; -916.276; -916.503
423.341;  342.450; -491.273; -439.507
423.630;  473.123; -121.265;   15.477
423.919;  417.336;   58.725;   49.495
424.209;  397.318;  -31.263;   56.473
424.498;  492.247;   68.732;  161.483
424.787; 1045.403; -535.267; -601.518
425.077; 3260.146;   34.735;   29.478
425.366; 5086.798; -734.262; -744.528
425.655; 9268.350;  639.727;  259.493
425.945;18181.201; -313.247; -268.554
426.234;10269.596;  117.741;  300.467
426.523; 4754.476;  -86.259; -350.534
426.812; 6555.763;  107.734;  159.480
427.101; 9415.463; -127.269; -323.515
427.390;12277.632;  -55.270;  -86.514
427.680; 3355.621; -624.257; -411.538
427.969;  557.606; -330.255; -301.540
428.258;  364.137; -385.257; -477.536
428.547;  604.262;  449.728;  397.490
428.836; 1593.222; -421.253; -398.543
429.125; 2293.853; -199.259;  -72.534
429.414;  937.520; -330.251; -294.548
429.703; 2932.220; -231.251; -213.548
429.992; 8600.598; -938.250; -828.549
430.281; 5709.580; -397.264; -331.524
430.570;  652.385;  -21.252;   32.454
430.859;  693.776;  279.741;  352.466
431.148;  512.397;  636.752;  631.446
431.437;  335.735;  391.748;  367.454
431.725;  182.614; -544.257; -481.536
432.014;  127.130; -845.253; -756.545
432.303;  431.522; -149.239; -105.569
432.592;  726.962; -460.263; -178.525
432.881; 1038.198; -601.248; -437.554
433.169; 5545.532; -343.255;  -61.540
433.458;11286.806;  445.765;  540.424
433.747; 4940.154; -397.261; -289.529
434.036; 1049.673; -275.242; -280.564
434.324; 2055.336; -395.249; -379.551
434.613; 3444.992;   40.757;  159.437
434.902; 1278.563;  333.760;  439.433
435.190;  846.771;   75.761;  295.431
435.479;  456.774;  -52.245;   83.441
435.767;  167.907; -411.244; -427.561
436.056;  265.994; -340.242; -294.563
436.345;  402.240; -372.240; -223.568
436.633;  426.981;   60.750;  383.450
436.922;  347.042;  208.760;  414.432
437.210;  915.921; -194.236;    1.426
437.499; 3001.829; -583.235; -432.576
437.787; 3267.420; -339.236;  -10.574
438.075;  794.252;   56.761;  162.430
438.364; 1042.879;  -44.238;  250.429
438.652;  633.058; -286.226; -138.592
438.941;  175.122;    3.770;  269.415
439.229;   31.383; -665.252; -466.545
439.517;   65.337; -160.234;  -85.577
439.806;   24.899; -501.225; -290.595
440.094;  229.970;  377.766;  650.421
440.382;  290.249; -653.233; -302.580
440.670;  301.779; -361.235; -285.576
440.959;   65.791; -347.223; -170.599
441.247;  119.909; -151.229; -109.587
441.535;  161.911; -266.235;   31.423
441.823;   68.142; -497.234; -305.578
442.111;  233.988;  173.771;  327.412
442.400;  747.098; -628.245; -335.559
442.688; 2051.144; -111.234; -620.579
442.976; 1576.753; -786.213; -450.617
443.264;  177.680; -324.224; -364.597
443.552;  131.359; -258.226;   51.408
443.840;  203.134;  602.765;  876.423
444.128;  131.348;  265.767;  269.420
444.416;   23.215; -694.228; -312.588
444.704;   47.895; -465.219;  -92.605
444.992;  121.787;   -0.226;  240.407
445.280;   95.823; -517.230;  -94.585
445.568;   77.531; -694.212; -396.618
445.856;  471.454; -174.221;  357.398
446.143; 1084.517;  -54.220;   -7.604
446.431;  884.369;  -25.228;  625.411
446.719;  295.064;  489.783;  675.391
447.007;  228.892;  481.769;  705.416
447.295;  206.238;  597.777;  871.402
447.583;  117.806; -464.229;  -34.587
447.870;  193.851; -434.221; -202.601
448.158;  532.922; -104.230;  129.415
448.446;  448.468; -800.219; -338.604
448.733;  203.207;   13.776;  269.403
449.021;  300.906;   60.788;  341.382
449.309;  203.371; -296.210;  208.379
449.596;  249.961;  128.783;   59.392
449.884;  179.545; -571.222; -325.600
450.172;  147.499; -756.227; -406.590
450.459;  417.311;  645.786;  780.387
450.747; 2091.084; -411.218; -147.608
451.034; 6633.620;  493.772;  889.411
451.322; 5471.964; -413.214; -170.614
451.609;  518.108;  292.777;  508.403
451.897;  544.458; -550.203; -183.634
452.184; 1579.163; -622.223; -400.598
452.472; 1573.992;   97.792;  269.375
452.759;  366.843;  512.781;  864.395
453.047;  146.029; -407.212; -125.617
453.334;  125.401; -732.219; -216.606
453.621;  127.267; -438.214; -161.615
453.909;  162.250;   13.796;  384.368
454.196;  131.945; -299.199; -123.641
454.483;  250.321;  317.798;  540.364
454.771;  173.220; -215.208;  196.374
455.058;   48.948; -316.207;  102.374
455.345;  121.850;   71.807;  344.347
455.632;   95.951; -128.207;  235.373
455.919;   69.693;  -82.196;  182.354
456.207;  -44.525; -774.198; -450.642
456.494;    5.983; -475.200;  -66.639
456.781;   35.892; -399.202; -198.635
457.068;   84.908; -253.206;  -29.628
457.355;    8.009; -698.206; -401.629
457.642;   16.965; -552.205; -290.630
457.929;   21.816; -778.194; -417.651
458.216;   62.979; -575.212; -354.617
458.503;  212.921; -173.193;  -19.652
458.790;  200.243; -864.208; -630.625
459.077;  268.697;  -77.202;  110.364
459.364;  736.034; -350.195; -210.649
459.651; 1535.231;  -46.206;  220.372
459.938;  749.908; -864.209; -665.623
460.225;  185.375;  132.799;  276.363
460.512;  -24.085; -836.197; -688.645
460.799;  119.183;  -32.218;  320.392
461.086;   91.513; -370.200; -251.640
461.372;   73.425; -509.198; -279.642
461.659;  162.444; -165.196;  108.354
461.946;   97.969; -445.193;  -54.651
462.233;  276.510;  842.800;  888.361
462.519;  332.607; -814.201; -464.639
462.806;  946.965; -768.197; -497.645
463.093;  825.115; -445.191;  -66.656
463.380;   -7.219; -920.186; -824.664
463.666;   58.792; -259.197;  -18.646
463.953;  116.454; -406.195; -243.648
464.239;  192.179; -173.195;  -77.648
464.526;  427.290;  413.806;  743.350
464.813;  385.876; -565.190; -304.658
465.099;  420.270;  606.807;  607.348
465.386;  402.124;  903.807;  921.348
465.672;   57.315; -694.197; -522.645
465.959;   67.519; -598.188; -520.662
466.245;   30.649; -468.193; -359.652
466.532;  126.577; -109.195;   63.352
466.818;  105.530; -357.186; -216.664
467.104;   22.345; -488.182; -415.672
467.391;    1.578; -628.189; -459.658
467.677;   36.434; -289.186;    9.335
467.964;   33.035; -682.189; -471.660
468.250;   80.112; -331.186; -160.665
468.536;  106.754;   90.811;  180.341
468.822;  -20.077; -821.184; -574.668
469.109;  160.125;  351.827;  471.311
469.395;  201.484;  729.808;  787.346
469.681;  219.157;   46.811;  156.341
469.967; 1137.762; -699.188; -382.660
470.254; 2437.545; -494.188; -306.662
470.540; 1559.442; -601.196; -476.646
470.826;  239.456; -488.181; -397.675
471.112;  262.252;  288.816;  113.331
471.398;  108.731; -253.183;  -58.670
471.684;   63.509; -626.177; -447.680
471.970;    6.135; -918.180; -981.675
472.256;   47.358; -521.192; -441.654
472.542;   34.486; -499.171; -434.691
472.828;   24.091; -743.182; -607.672
473.114;   40.754; -380.166; -283.700
473.400;   25.201; -504.175; -293.684
473.686;   57.260; -452.166; -400.701
473.972;   75.165; -230.174; -131.687
474.258;  -35.450; -925.173; -843.689
474.544;  171.126; -183.178;   -2.679
474.830;  256.977;  -65.175;   45.316
475.116;  392.428; -123.190; -196.658
475.401;  570.937; -558.180; -467.676
475.687;  195.111; -725.180; -718.676
475.973;   42.949; -673.181; -770.673
476.259;  275.129;  736.825;  764.315
476.544;  364.392; -539.176; -437.682
476.830;  697.882; -398.172; -322.690
477.116;  564.291; -430.177; -336.682
477.401;  137.387;  346.820;  358.324
477.687;   -2.449; -289.175; -405.684
477.973;   49.428;   21.819;   28.326
478.258;   15.181; -448.163; -348.706
478.544;   68.717;   21.815;   61.334
478.829;  -32.709; -818.171; -738.692
479.115;  -40.543; -749.172; -651.690
479.401;    6.261; -444.174; -449.686
479.686;   42.861; -253.180;  -74.676
479.972;  -18.219; -886.178; -776.680
480.257;   37.056; -258.166;  -65.700
480.542;   14.095; -614.170; -469.693
480.828;  251.124; 1288.824; 1392.317
481.113;  -20.253; -464.176; -426.683
481.399;   14.054; -236.161; -202.711
481.684;  -55.620; -620.166; -462.700
481.969;   23.017; -158.159;  -73.713
482.255;   11.231; -439.169; -285.695
482.540;    2.431; -569.178; -441.680
482.825;    6.176; -395.187; -404.663
483.110;   88.409;  -85.169; -105.696
483.396;  155.064; -840.157; -652.718
483.681;  445.590;  543.826;  730.313
483.966;  124.461; -696.160; -700.712
484.251;   20.789; -404.174; -310.687
484.536;   12.866; -356.165; -378.703
484.822;   16.667; -205.173; -218.687
485.107;  -11.298; -599.152; -502.726
485.392;  129.346;  662.836;  541.296
485.677;   88.094;  354.832;  163.302
485.962;  104.211;  160.843;  270.283
486.247;  115.013;  -14.162;   -8.707
486.532;   48.757; -178.166; -325.701
486.817;  180.149;  381.839;  431.291
487.102;  129.860; -453.154; -514.722
487.387;  554.066; -637.156; -652.718
487.672;  960.176; -154.164;  -38.705
487.957;  625.581; -394.160; -286.711
488.241;  182.143; -290.150; -314.729
488.526;  628.178; -280.152; -148.726
488.811;  979.433; -881.177; -818.680
489.096;  791.012; -666.154; -702.723
489.381;  429.624;    3.847;  162.275
489.666;  313.504; -428.161; -510.710
489.950;  162.040;  558.846;  627.277
490.235;  -18.687; -480.151; -458.728
490.520;  -38.747; -756.161; -723.710
490.804;  -51.557; -827.156; -736.719
491.089;    8.609; -469.149; -299.732
491.374;   46.300; -132.164;  -75.704
491.658;    2.820; -817.147; -717.735
491.943;  193.407; -657.152; -609.727
492.227;  289.531; -178.155;  -38.721
492.512;   75.636; -294.157; -341.717
492.797;  -62.322; -713.149; -716.731
493.081;  -34.752; -588.147; -598.735
493.366;  -33.646; -751.161; -635.711
493.650;  221.950;  831.859;  917.254
493.935;   25.444; -648.147; -447.734
494.219;  -26.962; -778.142; -687.743
494.503;  -44.902; -585.150; -487.730
494.788;   56.378;   46.842;   74.285
495.072;  104.619;  184.850;  434.271
495.356;  165.162; -463.148; -343.733
495.641;  493.304; -812.146; -736.736
495.925;  480.522; -976.156; -903.719
496.209;   54.608; -599.149; -451.732
496.494;  -26.762; -763.142; -544.744
496.778;   28.235; -364.154; -360.722
497.062;  -52.628; -819.156; -627.719
497.346;  -27.043; -869.160; -640.711
497.631;  142.040;  580.852;  560.266
497.915;   83.065;  -64.145;  175.261
498.199;   63.114; -341.157; -277.718
498.483;   49.951; -562.152; -508.725
498.767;  189.996;  301.850;  300.271
499.051;  165.231; -126.149; -100.732
499.335;   20.054; -693.149; -739.731
499.619;  -23.399; -381.129; -423.767
499.903;   41.504; -272.155;  -65.721
500.187;   48.642; -588.153; -316.724
500.471;   35.956; -796.152; -595.727
500.755;  131.053;   62.839;  -96.710
501.039;   42.230; -270.155; -357.721
501.323;  106.552;  -21.141;  264.254
501.607;   61.431; -447.163; -503.706
501.891;   -4.760; -607.156; -512.718
502.174;  -14.049; -726.144; -585.741
502.458;   92.310;   89.849;  370.273
502.742;   55.401; -180.138; -191.751
503.026;   98.294; -412.147; -254.734
503.310;  133.891; -437.159; -375.713
503.593;   96.221; -464.147; -325.735
503.877;  139.341; -232.133; -156.760
504.161;  186.244;    2.847;  -50.724
504.444;  133.105; -841.158; -710.716
504.728;  389.149; -487.164; -522.704
505.012;  628.267; -257.150;  -76.729
505.295;  479.379; -417.161; -212.711
505.579;  472.622; -256.156; -496.719
505.862;  624.936; -555.145; -333.738
506.146;  610.894; -681.159; -758.714
506.429;  366.719;  568.841;  461.286
506.713;   57.290; -732.151; -667.728
506.996;  296.534;   90.846;  295.278
507.280;  296.769; -633.165; -474.703
507.563;  210.628; -469.155; -261.721
507.847;  102.868; -423.153; -112.724
508.130;   77.755; -665.161; -456.711
508.413;   96.776; -758.167; -577.700
508.697;  224.501; -151.167;   12.300
508.980;  139.569; -422.153; -312.724
509.263;   -8.701; -466.155; -450.720
509.547;   29.042; -124.150;   82.271
509.830;   55.332; -172.160;  140.289
510.113;   98.722;  128.844;  298.281
510.396;   32.500; -530.152; -300.725
510.680;  290.462; -818.145; -812.738
510.963;  964.014;  184.846;  180.277
511.246;  864.250; -493.150; -357.730
511.529;  296.217; -482.145;  -83.739
511.812;  326.987; -250.134;   10.241
512.095;  219.437; -740.151; -396.728
512.378;   64.075; -317.147; -245.736
512.661;   30.358; -703.137; -623.753
512.944;   21.265; -750.142; -637.744
513.227;   62.431; -170.137; -171.752
513.510;   28.501; -479.144; -671.741
513.793;   35.531; -485.140; -435.747
514.076;  152.371;  -43.127;  -39.771
514.359;   90.284; -294.149; -135.732
514.642;   86.918; -442.142; -567.744
514.925;  645.355;  581.860;  561.253
515.208;  815.584; -498.134; -443.758
515.491;  550.947; -276.133; -182.761
515.773;  322.254; -410.143; -337.742
516.056; 1747.265;  249.864;  409.246
516.339; 2458.994; -754.136; -652.755
516.622; 2073.198; -518.150; -488.730
516.904; 1714.661;  882.857;  975.257
517.187;  813.854; -730.138; -523.752
517.470;  436.535; -568.143; -510.743
517.752;  364.346; -624.136; -470.756
518.035;  285.742; -708.139; -725.749
518.318;  289.994; -799.136; -744.755
518.600; 1964.376; -300.132; -325.762
518.883; 2716.692;  310.858;   88.256
519.165; 1380.397; -585.138; -426.751
519.448;  419.650;  -61.132;  -19.762
519.730;  237.354; -573.126; -415.773
520.013;  381.218;  588.867;  664.240
520.295; 1190.989;  -94.134;  -15.759
520.578; 2685.463; -335.131; -305.764
520.860; 2895.351; -254.132;   56.238
521.143; 1460.248; -763.135; -584.756
521.425;  514.441; -251.125; -279.775
521.707;  613.072; -622.127; -380.771
521.990; 1521.972; -199.127;  167.229
522.272; 1714.658; -116.140;   -4.748
522.554;  920.130; -237.143; -157.742
522.836;  453.062;  -24.134;   99.241
523.119;  273.168; -496.148; -189.734
523.401;  156.370; -448.130; -314.766
523.683;   72.134; -865.137; -693.753
523.965;  240.102;  408.862;  260.248
524.247;  249.537;   54.878;  170.220
524.529;  169.764; -451.134; -367.759
524.812;  341.572;   -3.130;  191.234
525.094;  721.302; -773.138; -631.751
525.376; 1123.000; -143.124;   78.223
525.658;  686.916; -441.136; -339.754
525.940;   20.785; -805.131; -671.764
526.222;   46.919; -188.136;  -88.755
526.504;  156.558; -190.131;   32.237
526.786;  283.916; -960.133; -647.760
527.068;  427.606; -124.123;  -67.778
527.349;  215.012; -865.137; -774.754
527.631;  152.475; -137.132;   22.238
527.913;  106.646; -664.127; -450.771
528.195;  121.909; -761.125; -639.774
528.477;  222.709;  -93.134;  -30.758
528.759;  110.172; -648.130; -522.766
529.040;   45.055; -569.123; -293.778
529.322;   51.437; -235.125;  -10.774
529.604;  182.924;  -47.130;   93.233
529.886;  197.303; -546.126; -302.773
530.167;  151.641;  232.870;  192.235
530.449;   58.474;    1.853;   63.265
530.731;   17.361; -572.122; -459.779
531.012;   53.907; -513.120; -216.784
531.294;   61.921; -118.116;  -43.792
531.575;  142.466;  290.875;  538.225
531.857;   31.054; -548.135; -266.757
532.138;  111.701; -113.141;   40.254
532.420;  214.875;  294.865;  403.244
532.701;  287.194; -722.133; -751.760
532.983;  433.322;  232.867;  182.239
533.264;  168.626; -243.126;  175.228
533.546;  -21.656; -491.136; -508.755
533.827;   64.990;  173.867;   -1.759
534.109;   85.229; -352.135;  -80.757
534.390;  128.954; -725.132; -582.762
534.671;  243.050; -270.135;  -82.756
534.953;  156.882; -751.123; -611.779
535.234;   25.781; -426.117; -255.789
535.515;  -84.235; -891.119; -735.785
535.796;   -7.183; -431.128; -193.770
536.078; -112.700;-1050.124; -904.777
536.359;    9.608;  -22.123;    3.221
536.640;   -7.639; -480.125; -197.774
536.921;  159.729;  225.871;  143.232
537.202;  346.773;  -87.138;  -16.751
537.483;  413.813;  251.869;  377.236
537.764;  152.391;   17.870;   98.235
538.045;  -34.917; -543.134; -371.758
538.326;  -18.519; -596.129; -447.768
538.607;    2.672; -686.127; -476.771
538.888;  160.023;   98.879;    5.218
539.169;  162.218; -704.122; -535.781
539.450;  314.353;  236.871;   16.233
539.731;  216.302; -361.121; -182.783
540.012;  140.582;  199.880;  412.216
540.293;   98.870;   82.876;  158.224
540.574;   31.941; -895.113; -717.796
540.855;  473.751;  435.879;  377.218
541.136;  538.140;   47.878;  139.220
541.416;  278.548; -161.130; -220.766
541.697;  183.584; -274.131; -170.763
541.978;  873.927; -270.135; -315.757
542.259; 1137.122; -211.127; -236.771
542.539;  529.990; -191.116; -186.790
542.820;  193.741;  461.875;  480.225
543.101;  142.339;  -52.145;  -77.738
543.381;   46.547; -638.127; -591.771
543.662;  260.570;  159.873; -254.771
543.942;  473.118; -751.127; -830.770
544.223;  901.142;  193.878;  161.219
544.504;  575.275; -275.124; -182.777
544.784;  500.328; -592.126; -408.773
545.065; 1481.018;  104.884; -254.791
545.345; 1697.965;  227.881;   14.215
545.626; 1095.515;  -14.113; -108.796
545.906;  745.265;   77.869;   98.235
546.186;  322.108;   92.874;  -95.773
546.467;  166.977;   99.877;  -95.778
546.747;  278.214;  264.884;  327.210
547.027;  316.873;   91.876;  111.223
547.308;  277.692; -376.127; -530.770
547.588;  354.357;  299.871;  371.232
547.868;  190.142;  458.870;  588.235
548.149;  207.126;  609.885;  593.207
548.429;  100.995; -347.127; -299.771
548.709;  153.757; -645.120; -461.784
548.989;  410.400;   84.882;   88.213
549.269; 1745.799;   10.868;  139.239
549.550; 4047.381;  215.877;  117.222
549.830; 3590.008; -758.111; -556.799
550.110;  718.366; -468.110; -320.801
550.390;  694.712; -128.122;  -56.779
550.670;  943.736; -868.114; -783.795
550.950;  698.325; -509.121; -471.782
551.230;  181.721;  549.879;  460.218
551.510;  -21.976; -381.121; -326.782
551.790;   48.923; -173.109; -127.803
552.070;  239.177;  940.877; 1181.223
552.350;  344.469; -492.119; -377.786
552.630;  473.819;   -2.121;   77.219
552.909;  305.219;  181.884;   73.209
553.189;  205.730;  -49.132;   33.237
553.469;  136.819; -703.119; -514.786
553.749;  139.924; -469.127; -357.772
554.029;  133.560;   33.883;  -24.790
554.308;  110.005; -154.115;  -37.794
554.588;   60.766; -196.128; -204.770
554.868;   45.051; -366.121;  -47.782
555.147;  117.302; -114.115;  -46.793
555.427;  483.771; -260.116; -250.792
555.707; 3226.800; -284.115; -200.793
555.986; 3858.111; -719.111; -538.800
556.266; 2062.513;   23.884;   72.210
556.546;   79.149; -888.121; -675.782
556.825;  199.659; -657.114; -556.794
557.105; 1472.764; -125.128;   17.230
557.384; 1732.293;  122.884;  187.209
557.664;  654.820; -717.116; -508.792
557.943;  102.250; -557.121; -411.782
558.222;  149.728; -345.118; -344.788
558.502;  233.928; -116.115;  -76.793
558.781;  433.124;  194.885;  499.208
559.061;  340.653; -232.118; -227.788
559.340;  243.783;  302.883;  353.211
559.619;  577.863;   93.884;  148.210
559.899;  819.959; -239.117; -266.789
560.178;  783.853; -778.115; -593.793
560.457; 2582.461; -623.117; -562.790
560.736; 3600.088; -472.111; -482.800
561.015; 2401.937; -500.128; -502.769
561.295;  355.768;  180.893;  215.193
561.574;  317.975;  119.885;  116.207
561.853;  463.803;  274.891;  303.197
562.132;  423.455;  -45.114;  182.206
562.411;  378.395;  396.879;  553.219
562.690;   98.874; -592.115; -458.792
562.969;  148.597;  472.888;  630.203
563.248;  475.167; 2966.878; 2487.219
563.527;  212.137; -290.111; -408.800
563.806;  293.095; -650.127; -521.771
564.085;  355.658; -297.105; -206.810
564.364;  174.962; -594.117; -405.790
564.643;  414.945; -276.121; -223.781
564.922; 1541.147;  221.890;  397.198
565.201; 1526.325; -640.109; -700.803
565.479;  675.497; -297.115; -219.792
565.758;  260.339; -810.128; -712.770
566.037;  392.276; -155.109; -100.803
566.316;  194.193; -286.116;  -28.791
566.595;   26.625;  -17.115;  -12.793
566.873;   88.464; -166.111;  -79.801
567.152;  -64.703; -490.113; -590.797
567.431;    0.814; -113.116;    6.210
567.709;   -3.632; -344.107; -212.807
567.988;  210.109; -810.114; -769.794
568.266;  434.625; -160.115;  -68.793
568.545;  335.704; -644.100; -514.819
568.824;  486.897;  160.885;  356.208
569.102;  433.933; -351.114; -235.794
569.381;  164.596; -492.116; -407.792
569.659;  -51.307; -553.113; -553.796
569.938;    7.341; -743.122; -465.780
570.216;   95.554; -225.109; -225.804
570.494;  -29.688; -632.114; -572.795
570.773;   54.249;  202.879;  114.218
571.051;   -4.920; -373.123; -357.778
571.330;   42.916; -221.113; -174.796
571.608;   29.722; -181.098; -173.823
571.886;  -68.569; -671.111; -581.799
572.164;  -72.574; -739.121; -621.782
572.443;  -50.813; -562.105; -512.811
572.721;  -30.814; -399.117; -289.790
572.999;  -20.970; -280.117; -168.788
573.277;   86.180;  379.894;  620.191
573.555;  231.482;   94.894;   37.190
573.834; 1083.679;  -86.117; -114.788
574.112; 1285.795;  880.893;  811.193
574.390;  400.813; -143.111;  -96.801
574.668;   13.748;  -91.112;  -61.797
574.946;   -6.943; -165.106; -187.810
575.224;   15.750;   71.891;  -16.803
575.502;  -20.259; -200.116; -204.791
575.780;  -87.851; -767.112; -829.798
576.058;  210.437; 1589.889; 1004.200
576.336;  -17.907; -210.110; -129.801
576.614;  -51.376; -511.112; -340.798
576.891;   30.654; -711.115; -823.794
577.169;  392.487; -158.108; -285.805
577.447;  480.320;  169.893;  202.193
577.725;  238.179;  629.888;  854.201
578.003;   23.027;  -71.112; -371.798
578.280;   91.595; -208.104; -242.812
578.558;   69.428; -450.115; -422.793
578.836;  139.136; -210.114; -145.795
579.114;   65.598; -630.112; -670.797
579.391;   80.706;   -6.117;  -18.789
579.669;  -73.545; -595.114; -704.794
579.947;  150.092; -326.107; -127.806
580.224;  254.792; -692.107; -524.806
580.502;  273.721;  127.893;   76.193
580.779;   23.412;  -42.117;   75.210
581.057;  -71.671; -584.109; -470.804
581.334;  -82.065; -726.102; -695.815
581.612;   30.883;   54.895;  511.190
581.889;  -19.827;  -83.101; -129.818
582.167;  -43.988; -298.099; -190.821
582.444;  -86.932; -845.102; -814.817
582.721;   99.669;  657.899;  715.183
582.999;   51.985; -326.100; -167.821
583.276;  405.834; -812.123; -713.779
583.553;  559.263; -364.102; -294.816
583.831;  171.267; -607.104; -631.812
584.108;   61.785;  349.892;  174.195
584.385;   -8.815; -122.102;  -98.815
584.662;  -70.086; -651.111; -828.801
584.940;   26.089;  204.889;  204.199
585.217;   -8.757;  -73.113; -303.796
585.494;   36.722;   71.890;  118.198
585.771;  176.330; -250.109; -354.804
586.048;  442.593; -196.113;  -76.796
586.325;  272.792; -721.110; -773.801
586.602;   75.371;  230.896;  213.188
586.879;  -22.119; -499.100; -580.820
587.156;   37.659; -156.105; -331.810
587.433;  -44.309; -701.102; -667.817
587.710;   55.875;  152.888;  234.202
587.987;  259.564; -264.105; -236.811
588.264;  709.102;  315.888;  387.202
588.541; 1201.948;  -61.104;   26.187
588.818; 2358.532;   72.892;  171.196
589.095; 2019.269; -163.104; -174.812
589.371;  333.978; -459.109; -414.804
589.648;    0.270; -581.107; -437.807
589.925;   14.212; -517.114; -621.795
590.202;    0.250; -741.112; -607.798
590.478;   75.941; -166.105;  -73.811
590.755;  207.363; -241.108; -132.806
591.032; 2048.144; -741.110; -699.802
591.308; 2815.537; -732.094; -790.831
591.585; 1449.119; -573.110; -560.802
591.862;   86.842;-1056.102; -950.817
592.138;   32.086; -475.108; -474.805
592.415;  113.572; -486.104; -495.813
592.691; 1278.819;  460.896;  518.188
592.968; 1624.174; -208.098; -123.824
593.244;  766.539; -695.116; -595.790
593.521;   73.568; -105.102;  -42.817
593.797;  -47.137; -810.122; -720.780
594.074;  262.161; -611.096; -588.826
594.350;  590.947;  828.905;  729.172
594.626;  248.540; -303.111; -283.801
594.903;   67.143; -643.101; -645.817
595.179;  172.150;  243.896;  418.187
595.455;   28.022; -136.107; -150.807
595.731;   21.727;  -19.103;  -38.814
596.008;  -43.816; -464.111; -434.800
596.284;   29.984; -187.100; -242.820
596.560;   27.768; -501.093; -493.833
596.836;  170.186; -173.105;  -70.810
597.112;  265.461; -582.108; -437.805
597.388;  252.559;  -49.097;  -48.826
597.665;   88.220;  437.887;  530.203
597.941;  -58.953; -572.089; -658.839
598.217;   10.947; -323.110; -293.802
598.493;  212.406;   61.891; -204.804
598.769;  428.153; -175.100;  -50.819
599.045;  236.864; -490.108; -562.806
599.321;   41.833; -193.100; -261.820
599.597;  100.281; -355.109; -476.804
599.872;  400.773;  409.896;  429.187
600.148;  287.961;  -61.097; -172.826
600.424;  246.469;   91.893;  202.193
600.700;  203.696; -170.107; -280.807
600.976;   69.255; -442.097; -464.825
601.252;  202.127; -226.109; -272.803
601.527;  139.374; -833.104; -840.813
601.803;  114.392; -453.105; -404.812
602.079;  157.053; -124.100; -118.819
602.354;  473.403; -620.092; -531.835
602.630;  685.093; -140.113; -482.796
602.906; 1967.573; -910.101; -863.818
603.181; 5593.494; -627.119; -534.786
603.457; 4749.634;   98.903; -278.826
603.733;  667.878; -605.120; -626.783
604.008;  829.408; -245.106; -164.810
604.284; 2616.545; -636.101; -580.817
604.559; 2277.029;   -3.112;  -42.799
604.835;  394.211; -163.105; -225.810
605.110;  327.838; -732.099; -892.821
605.385;  575.371;  224.907;  267.167
605.661;  527.625; -625.095; -729.829
605.936;  942.515; -664.108; -737.806
606.211;  813.308;  -17.103; -170.815
606.487;  160.457; -329.114; -376.794
606.762;   -3.631; -791.119; -745.786
607.037;  -45.939; -501.105; -433.810
607.313;  -61.356; -589.096; -574.828
607.588;  -19.992; -375.106; -137.810
607.863;   19.173;  -28.101; -143.818
608.138;  173.271;  513.890;  516.198
608.413;    0.667; -576.099; -592.822
608.688;   27.911; -203.108; -267.805
608.964;  152.552; -509.106; -218.809
609.239;  200.683; -107.105; -212.810
609.514;  208.691;  281.895;  240.188
609.789;  560.196; -187.104; -716.812
610.064;  726.117; -435.096; -609.827
610.339;  689.128; -855.109; -799.804
610.614;  953.908; -131.100; -315.820
610.889;  537.066;  215.895;  107.188
611.163;   26.967; -407.104; -591.812
611.438;   58.409;   81.886; -167.794
611.713;   -3.655; -467.101; -499.817
611.988;   28.347; -144.101; -328.818
612.263;  -46.215; -771.102; -717.815
612.538;  185.892;  385.887;  251.204
612.812;  117.284; -832.100; -911.820
613.087;   91.247; -358.098; -338.823
613.362;  -56.553; -497.107; -557.807
613.637;   43.405;  261.897;  138.186
613.911;   -6.822; -256.092; -345.835
614.186;   71.995; -249.107; -292.807
614.460;  519.896; -842.081; -758.854
614.735;  632.720;  -55.087;  -17.843
615.010;  146.185;   43.912;  -82.841
615.284;  230.560;  360.892;  246.195
615.559;  291.852; -792.092; -955.835
615.833;  233.690;  -76.099;  -87.822
616.108;    3.314; -225.090; -390.837
616.382;  126.347;  274.913;  402.156
616.656;  130.539; -241.090; -232.837
616.931;  408.390; -785.099; -700.822
617.205;  872.500; -973.104; -979.813
617.480;  817.414;  -91.125;    6.225
617.754;  125.612; -396.125; -128.774
618.028;   -5.242; -369.129; -382.768
618.302;   60.434;   73.892;  -25.805
618.577;  -50.819; -371.103; -518.815
618.851;  -68.676; -399.109; -600.803
619.125;  -70.661; -335.134; -378.759
619.399;  -38.950; -244.104; -374.813
619.673;  -53.778; -330.115; -515.792
619.947;  -41.314; -333.114; -448.795
620.222;  -29.735; -198.110; -204.801
620.496;    7.751;  -47.121;  -96.782
620.770;   19.167; -187.122;  -93.781
621.044;  186.109;  323.895;  346.190
621.318;  624.478; -653.120; -614.783
621.592;  542.626; -430.121; -409.783
621.866;  277.955; -476.112; -572.799
622.140;   19.741; -207.116; -356.791
622.413;   46.709;  138.889;  112.200
622.687;  -44.605; -746.101; -492.817
622.961;   -2.366; -130.108; -143.805
623.235;  -62.915; -633.111; -661.800
623.509; -108.609; -816.105; -848.811
623.783;   21.518;  -12.107;   48.193
624.056;  -24.095; -254.120; -280.783
624.330;   37.798;   63.888;   -3.797
624.604;   31.037; -271.116; -355.790
624.877;   64.945;  180.890;   26.198
625.151;   28.756; -249.114; -238.794
625.425;  -35.623; -150.103; -283.814
625.698;  -60.361; -367.119; -374.785
625.972;  -87.228; -799.110; -765.802
626.245;   80.039;  685.884;  484.210
626.519;  -59.266; -426.120; -340.784
626.792;  -40.604; -192.107; -380.807
627.066;  -89.965; -485.122; -662.779
627.339;  -97.357; -736.110; -663.802
627.613;   47.057;  351.880;  148.216
627.886;  -71.126;  187.891; -612.803
628.160;  -12.572;  312.880; -161.783
628.433; -107.208; -695.125; -703.775
628.706;  -89.891; -517.120; -615.784
628.979;   23.573;  296.876;  117.223
629.253;  -92.456; -785.119; -833.786
629.526;  284.252; -334.126; -253.772
629.799;  250.805; -641.123; -479.778
630.072;  114.459; -497.128; -516.769
630.346;  -71.886;-1115.116;-1080.790
630.619;  364.097; -467.107; -545.808
630.892;  523.585;  709.889;  593.200
631.165;  295.400;  790.896;  679.187
631.438;  -96.598;-1092.112;-1055.798
631.711;   39.233;  453.877;  257.221
631.984;  -68.590; -523.117; -624.789
632.257;  -78.819; -636.117; -681.789
632.530;  -49.186; -412.119; -433.785
632.803;   25.579; -109.115;    7.207
633.076;  -62.273; -360.123; -422.777
633.349;   16.488;  173.872;  121.231
633.622;  -34.012; -187.119; -240.785
633.895; -128.696; -903.120; -823.783
634.167;  -58.421; -496.126; -525.773
634.440;  -10.404;  -19.116; -137.792
634.713;    1.592;  -22.119; -120.786
634.986;   71.978;  593.871;  453.233
635.258;  -82.348; -507.115; -597.793
635.531;   93.102;  742.882; -343.788
635.804;  -13.092; -303.117; -318.789
636.077;  -95.633; -830.116; -852.791
636.349;  -17.474; -586.115; -474.793
636.622;  366.676; 1695.874; 1392.228
636.894;  187.434; -474.120; -909.784
637.167;  111.245; -836.127; -789.771
637.439;   17.091; -278.128; -213.770
637.712;  -52.372; -312.126; -293.772
637.984;  -76.433; -635.116; -707.791
638.257;  346.928;  515.877;  488.222
638.529;  494.818; -881.125; -924.776
638.802;  218.109; -508.128; -449.769
639.074; -117.808; -927.122; -952.781
639.346; -124.345; -942.135; -930.757
639.619;    7.916;  -79.142; -319.744
639.891;    0.560;  -83.122; -168.779
640.163;  -78.538; -689.122; -756.780
640.435;   42.339;  273.878;  103.220
640.708;    3.966;  -72.122; -132.780
640.980;  -36.307; -366.122; -362.781
641.252;  190.195;  -25.121;  -71.781
641.524; 1651.671;  580.879;  573.219
641.796; 1641.623;-1094.121; -907.782
642.068;  291.900; -191.121; -300.782
642.340;  -53.348; -486.121; -566.783
642.613;   26.379;  294.880;  323.217
642.885; -101.595; -787.120; -878.783
643.157;  -50.193; -810.120; -658.784
643.428;   61.434;  170.880;  218.216
643.700;  -84.464; -498.120; -425.784
643.972;  -31.762;  -16.119; -133.785
644.244;  -92.111; -474.119; -559.785
644.516;  -47.759; -250.119; -114.786
644.788;   60.143;  662.881;  548.214
645.060;  -28.030;  -12.119; -124.786
645.332; -106.278; -525.118; -535.787
645.603;   42.898;  479.882;  342.213
645.875;  -83.425; -334.118; -369.787
646.147;  165.727; 1487.882; 1242.212
646.418;  -86.596; -931.117; -918.788
646.690;   89.031; -714.117; -715.789
646.962;   14.332; -413.117; -451.789
647.233;   -5.416;   15.883;   11.211
647.505;  -97.889; -595.117; -475.790
647.776;   10.463;  328.884;  229.210
648.048;  -26.635; -248.116; -418.790
648.320;  -89.833; -752.116; -679.791
648.591; -159.432;-1055.116; -958.791
648.862;  -80.455; -505.116; -577.792
649.134;    5.022;  115.885;  198.208
649.405;  -59.451; -661.115; -618.792
649.677;  -56.249; -475.115; -598.793
649.948;    0.777; -181.115; -296.793
650.219;   -8.471;  -37.115; -147.793
650.491;  -67.044; -431.114; -520.794
650.762; -111.667; -705.114; -731.794
651.033;  -89.115; -437.114; -424.795
651.304;  -96.789; -743.114; -728.795
651.576;  -71.837; -680.114; -645.795
651.847;  -39.160; -250.113; -140.796
652.118;  -13.183;  -32.113; -189.796
652.389; -107.106; -639.113; -722.796
652.660;  -42.530; -147.113;  -89.797
652.931; -150.753; -897.112; -871.797
653.202;  -95.151; -382.112; -541.798
653.473;  -70.024; -633.112; -533.798
653.744;  133.753; -595.112; -590.798
654.015;  114.229; -356.112; -303.799
654.286;  -64.219; -642.111; -663.799
654.557;  -60.842; -586.111; -521.799
654.828; -159.490;-1114.111;-1088.800
655.099;  -83.888; -404.111; -291.800
655.370;  -88.887; -427.111; -543.801
655.641; -134.185; -656.110; -714.801
655.911;  -97.958; -618.110; -638.801
656.182;   56.694;  437.890;  387.198
656.453;  106.496;  830.890;  746.198
656.724;  -81.827; -466.110; -426.802
656.994;  -88.851; -553.109; -568.803
657.265; -127.824; -862.109; -873.803
657.536;  -83.472; -500.109; -377.804
657.806;  -99.370; -561.109; -593.804
658.077; -144.043; -866.109; -950.804
658.347;  -87.192; -523.108; -598.805
658.618; -104.015; -646.108; -694.805
658.888;   -8.888;  -41.108;  112.195
659.159;  -67.536; -432.108; -548.806
659.429;  -16.859; -292.108; -349.806
659.700;   11.717; -435.107; -390.807
659.970;  -17.681; -370.107; -359.807
660.241;    7.771; -754.107; -921.807
660.511;  423.748; -147.107; -174.808
660.781;   68.300; -793.106; -748.808
661.052;  -46.474; -222.106; -381.808
661.322;  -21.372;   21.894;   -9.809
661.592;   22.455;  257.894;  148.191
661.862;  -70.593; -369.106; -382.810
662.133;  -93.466; -551.105; -502.810
662.403; -115.340; -770.105; -676.810
662.673;  -69.763; -256.105; -213.811
662.943; -111.161; -612.105; -551.811
663.213;  -18.559;  -85.105;  -81.811
663.483;  -77.357; -593.104; -568.812
663.753;  -38.755; -194.104; -152.812
664.023;    3.221;   68.896;  -32.813
664.293;  -62.802; -319.104; -126.813
664.563; -102.900; -694.104; -648.813
664.833; -133.323; -743.103; -608.814
665.103; -135.696; -730.103; -793.814
665.373; -120.120; -766.103; -806.814
665.643;  -86.943; -863.103; -918.815
665.913;   23.284; -534.103; -714.815
666.182;  121.036; -685.102; -719.816
666.452;  218.913;  -22.102;  -89.816
666.722;  -42.261; -724.102; -784.816
666.992; -142.609; -948.102; -921.817
667.261;  -85.557; -824.102; -808.817
667.531;  210.195;  134.899;   45.183
667.801;  528.447; -440.101; -412.818
668.070;  233.048;  714.899;  697.182
668.340;  -97.375; -883.101; -840.819
668.609;   89.527;  588.900;  301.181
668.879;  -84.171; -490.100; -558.819
669.149;  -92.419; -539.100; -516.820
669.418;  -88.968; -698.100; -726.820
669.688;  -36.941; -482.100; -666.820
669.957;   35.361; -423.099; -546.821
670.226;  -28.387; -268.099; -331.821
670.496;  -96.160; -431.099; -635.822
670.765;  -78.633; -418.099; -501.822
671.034; -136.107; -872.099; -828.822
671.304;  -26.405;   55.902; -111.823
671.573; -147.478;-1085.098; -957.823
671.842;   44.799; -380.098; -294.823
672.112;    2.751; -692.098; -586.824
672.381;   -5.423; -239.098; -214.824
672.650; -131.196;-1005.097;-1021.825
672.919;  -98.919; -631.097; -507.825
673.188;  -89.117; -681.097; -878.825
673.457; -149.615;-1101.097;-1143.826
673.726;  -82.339; -579.096; -646.826
673.995;  -47.762; -533.096; -479.826
674.265;  -25.860; -263.096; -333.827
674.534;    0.267; -183.096; -235.827
674.802;   -0.056; -618.096; -703.828
675.071;  849.745; -886.095; -801.828
675.340; 3266.172; -464.095; -339.828
675.609; 1082.224;  103.905;   82.171
675.878;   42.451; -949.095; -893.829
676.147;   25.228;  -26.095;   -8.829
676.416;   71.054; -210.094; -294.830
676.685;  644.656; 1000.906; -622.830
676.953;   77.608; -603.094; -452.831
677.222;  -34.490; -193.094; -273.831
677.491;  -28.913;  -24.094; -127.831
677.759;   -7.436;   11.907;  172.168
678.028;  -26.260; -279.093; -222.832
678.297;    8.617;   71.907;  197.168
678.565; -140.106; -898.093; -944.833
678.834;  -55.304; -311.093; -268.833
679.102;  -67.152; -411.092; -391.834
679.371; -142.551; -898.092; -727.834
679.639; -132.524; -797.092; -786.834
679.908; -118.872; -794.092; -724.835
680.176; -153.295; -895.091; -941.835
680.445;  -73.868; -346.091; -352.835
680.713;   -6.692;  -58.091;  -23.836
680.982;  -92.115; -523.091; -525.836
681.250; -115.138; -578.091; -507.837
681.518;  -98.936; -534.090; -751.837
681.787;  -24.234; -204.090; -167.837
682.055;  -72.808; -490.090; -422.838
682.323; -144.356; -993.090; -992.838
682.591;   15.496; -216.090; -538.838
682.859;   64.548;    9.911;  -35.839
683.128;   12.350;  232.911;  497.161
683.396; -158.949;-1102.089;-1122.840
683.664;  -43.497; -241.089;   21.160
683.932;    5.205;  144.911;  -76.840
684.200;  -82.568; -576.088; -320.841
684.468;  -23.841;  -73.088; -124.841
684.736;  -34.040; -214.088; -175.841
685.004; -130.338;-1024.088; -982.842
685.272;  -70.736; -880.088; -774.842
685.540;  -72.384; -499.087; -557.843
685.808;  -91.757; -651.087; -682.843
686.076; -113.105; -894.087; -969.843
686.343;  -79.779; -601.087; -815.844
686.611;   38.123; -195.087; -224.844
686.879;  404.400; -530.086; -553.844
687.147; 2801.677; -483.086; -480.845
687.414;  771.879;  -12.086; -169.845
687.682;  -23.870; -658.086; -757.846
687.950;  273.407;  259.915;  263.154
688.217;  -11.166; -792.085; -760.846
688.485;  -33.389; -632.085; -636.847
688.753;  441.663;  -11.085; -102.847
689.020;  100.739; -820.085; -851.847
689.288;  -99.634; -853.084; -787.848
689.555;  -32.457; -195.084; -148.848
689.823;  -43.480; -241.084; -345.849
690.090;  -98.678; -546.084; -651.849
690.358; -150.927; -877.084; -897.849
690.625;    7.600;  120.917;   45.150
690.892;  -69.798; -403.083; -369.850
691.160;  -27.746;   72.917;  -35.850
691.427;   10.281;  141.917;  130.149
691.694; -132.668; -855.083; -929.851
691.962; -129.491;-1177.082;-1060.852
692.229;   10.361;  127.918;   56.148
692.496;   74.263;  130.918;  -49.852
692.763;    2.815; -164.082; -201.853
693.031;  -73.158; -739.082; -716.853
693.298;  -42.532; -509.081; -368.853
693.565;  269.720; -155.081; -163.854
693.832; 1052.597;   -5.081;   -9.854
694.099;  114.799; -643.081; -642.855
694.366;  -45.449; -882.081; -896.855
694.633;  -48.198; -920.080; -633.855
694.900;  758.379; 4367.920; -114.856
695.167;  378.256; -214.080; -380.856
695.434;   75.408; -646.080; -623.856
695.701;  187.335;  121.921;  -61.857
695.968;  414.086; -365.079; -361.857
696.234;  998.138; -415.079; -646.858
696.501;10470.765; -776.079; -614.858
696.768; 5194.392; -554.079; -617.858
697.035;  303.419; -632.078; -667.859
697.302;   38.195; -448.078; -552.859
697.568;   10.622; -458.078; -497.859
697.835;  -27.926; -683.078; -624.860
698.102;  -18.924; -498.078; -407.860
698.368;   83.153;  384.923;  396.139
698.635;  -40.346;  -47.077; -424.861
698.901;  -24.344; -240.077; -348.861
699.168;   39.358; -534.077; -456.862
699.435;   52.385;  -72.077;  -13.862
699.701; -121.988; -868.076; -764.862
699.968;  -54.686;  144.924; -441.863
700.234; -109.960; -783.076; -822.863
700.500;  -59.958; -448.076; -539.864
700.767;   -3.906;   -1.075;   26.136
701.033; -129.154;-1015.075; -963.864
701.299;  -59.977; -450.075; -483.865
701.566;  133.899;  950.925;  763.135
701.832;   28.851;  -31.075;  -76.865
702.098; -101.922;-1054.074;-1034.866
702.365;  -95.845;-1098.074;-1030.866
702.631;  -33.443;-1038.074;-1063.867
702.897; 1280.758; -765.074; -676.867
703.163; 2035.835;  348.926;  254.133
703.429;  138.262; -256.073; -273.868
703.695;  -22.336; -796.073; -792.868
703.961;   19.116; -214.073; -210.868
704.227;  -57.608; -630.073; -725.869
704.493;  129.219;  613.927;  510.131
704.759;  -30.604; -565.072; -540.870
705.025;   22.648; -203.072; -194.870
705.291;  -12.500; -666.072; -562.870
705.557;  194.101;  719.928;   34.129
705.823;   52.628; -742.072; -694.871
706.089;  157.055; -307.071; -326.871
706.355;  386.057; -315.071; -244.872
706.620; 6133.584; -776.071; -729.872
706.886; 7995.386; -309.071; -362.873
707.152;  707.937; -818.070; -973.873
707.418;  -15.211;-1153.070;-1186.873
707.683;    1.616; -550.070; -530.874
707.949;  -33.557; -547.070; -578.874
708.215;    1.570; -129.070; -207.874
708.480;   -9.804; -520.069; -420.875
708.746;   82.348;   68.931;   28.125
709.011;  -52.075; -578.069; -612.876
709.277;  -78.073; -538.069; -543.876
709.542;  -41.846; -428.069; -387.876
709.808;   -9.245;  -59.068;   89.123
710.073;  -91.018; -577.068; -695.877
710.339;  -19.866; -242.068; -228.877
710.604;   74.836; -780.068; -845.878
710.869;  286.388; -277.068; -366.878
711.135;  -65.561; -715.067; -628.879
711.400;  -78.309; -507.067; -608.879
711.665;  -57.607; -404.067; -479.879
711.931;  -90.955; -661.067; -677.880
712.196; -126.778; -876.067; -954.880
712.461;   83.198; -402.066; -490.880
712.726;  107.300; -727.066; -771.881
712.991;  -92.773; -647.066; -664.881
713.256;  -33.321; -350.066; -332.882
713.521;  -57.819; -417.065; -381.882
713.787;  -56.218; -454.065; -472.882
714.052;  -22.666; -214.065; -400.883
714.317;  -93.889;-1045.065; -981.883
714.581; 1135.763; -374.065; -268.883
714.846; 1491.990; -822.064; -888.884
715.111;  143.492;  261.936;  257.116
715.376;   -9.357;  -86.064; -223.885
715.641;  -10.005; -365.064; -367.885
715.906;  261.047;   15.936; -551.885
716.171;  124.499;  221.937;  209.114
716.436;   29.726;  -78.063; -104.886
716.700; -103.773; -818.063; -692.886
716.965; -111.046; -794.063; -807.887
717.230;  -82.169; -339.063; -392.887
717.494;  -29.642;  -40.062; -134.888
717.759;  -86.715; -784.062; -640.888
718.024;    2.336;  269.938;  250.112
718.288;   62.088;  685.938;  395.111
718.553; -140.935; -803.062; -977.889
718.817; -140.908; -883.061; -899.889
719.082;  -19.006; -115.061; -125.890
719.346; -138.930;-1000.061; -947.890
719.611;  -45.728; -300.061; -255.891
719.875; -107.151; -568.060; -537.891
720.140;  -59.349; -453.060; -603.891
720.404;   34.078; -136.060; -249.892
720.668;  708.979; -475.060; -411.892
720.933;  269.581;  146.940;  137.108
721.197;  -98.892; -667.059; -600.893
721.461; -135.390; -851.059; -826.893
721.725;  -12.263;  -21.059; -250.894
721.990;  -61.986; -284.059; -204.894
722.254;  -17.135;  -26.059; -108.894
722.518;  -63.258; -286.058; -442.895
722.782;  -99.456; -743.058; -594.895
723.046;  112.621;  614.942;  570.105
723.310;   26.773;  374.942;  210.104
723.574; -105.001; -654.058; -614.896
723.838; -113.099; -576.057; -642.897
724.102;  -40.747; -226.057; -239.897
724.366; -127.820;-1032.057; -978.897
724.630; -122.068; -749.057; -571.898
724.894;  -61.592; -722.057; -514.898
725.158;  -19.815;   38.944; -295.898
725.422;  -51.163; -394.056; -327.899
725.685;  -66.761; -441.056; -349.899
725.949;  -70.559; -566.056; -519.900
726.213;  -79.508; -732.056; -811.900
726.477;  144.344;-1020.055; -933.900
726.740;  120.721; -274.055; -104.901
727.004;  336.448; -384.055; -510.901
727.268; 3464.175; -442.055; -400.901
727.531;  919.476; -961.055; -775.902
727.795;  -46.797; -713.054; -673.902
728.059;  -62.820; -552.054; -557.903
728.322;  -73.093; -841.054; -669.903
728.586;    8.059; -692.054; -701.903
728.849; -101.789; -695.053; -756.904
729.112; -113.688; -812.053; -912.904
729.376; -131.536; -959.053; -905.904
729.639;  -67.584; -536.053; -536.905
729.903; -102.207; -733.053; -699.905
730.166;  -50.730; -437.052; -399.906
730.429;  -15.954; -317.052; -468.906
730.693;  -68.502; -355.052; -894.906
730.956;  186.925;  810.948;  651.093
731.219;  642.802; -310.052; -103.907
731.482;   77.104;-1003.051; -894.907
731.745;   70.455; -794.051; -935.908
732.009;   16.932;  -30.051;   50.092
732.272; -106.041; -904.051; -771.909
732.535;  -54.089; -300.051; -310.909
732.798; -149.187;-1083.050;-1166.909
733.061;  -60.386; -430.050; -456.910
733.324;   -1.384;   31.950; -180.910
733.587;   58.543;  290.950;  365.090
733.850;  -80.630; -973.049;-1050.911
734.113;   35.272;   33.951;   32.089
734.376;    7.673; -328.049; -447.912
734.639;  195.875; 1188.951; 1011.088
734.901;   59.327; -180.049; -402.912
735.164;  456.254; -883.048; -837.913
735.427; 1152.981; -166.048; -355.913
735.690;  116.133; -205.048; -234.913
735.952;  -38.716; -923.048; -925.914
736.215;  -45.964;-1113.048;-1009.914
736.478;   23.188; -771.047; -774.915
736.740;  203.565;   33.953;  129.085
737.003;  638.542; -658.047; -672.915
737.266; 3551.168;  -94.047;   46.084
737.528;  382.620; -682.047; -660.916
737.791;  311.997; -316.046; -327.916
738.053;  823.599;  465.954;  649.083
738.316;11025.576; -162.046; -136.917
738.578; 7309.377; -770.046; -736.918
738.841;  431.079; -382.046; -446.918
739.103;  185.056; -875.045; -777.918
739.365;  473.858;   79.955;  -69.919
739.628;  -10.990; -884.045; -805.919
739.890;  -26.464; -758.045; -710.919
740.152;  -46.712; -692.044; -754.920
740.414;  -27.360; -408.044; -359.920
740.677;  -49.083; -785.044; -634.921
740.939;  -47.881; -587.044; -487.921
741.201;  237.720; -432.044; -572.921
741.463;    8.747; -689.043; -745.922
741.725;    7.449;  -21.043; -199.922
741.987;   51.001;  220.957;  116.078
742.249;  -13.222; -751.043; -859.923
742.511;  179.429; -703.043; -794.923
742.773;   13.881; -546.042; -546.924
743.035;  130.233;  796.958;  533.076
743.297;  -56.715; -963.042;-1013.924
743.559;  666.162; -278.042; -262.925
743.821;   38.964; -735.042; -744.925
744.083;    3.115;  -44.041; -149.925
744.345;  -86.983; -869.041; -892.926
744.607;   32.094;   75.959;  122.074
744.868;  -55.079; -490.041; -554.927
745.130; -108.402; -994.041;-1008.927
745.392;   40.774;   -1.040;  -44.927
745.653;  -27.649; -411.040; -378.928
745.915;  163.678;  896.960;  631.072
746.177;   53.205;   35.960;  -43.928
746.438;   -0.768; -428.040; -543.929
746.700;  -56.242; -947.039; -988.929
746.961;    6.935; -659.039; -740.930
747.223;  130.812; -190.039;  -74.930
747.484;   83.039; -391.039; -471.930
747.746;  133.466;  -23.038; -106.931
748.007;   94.442; -647.038; -689.931
748.269;  278.919; -468.038; -440.931
748.530;  432.046; -852.038; -638.932
748.791;  225.848; -354.038; -420.932
749.053;  415.825;  286.963;  163.067
749.314;  440.376; -236.037; -169.933
749.575;  479.353; -945.037; -905.933
749.836;  791.280; -217.037;   86.066
750.098; 2399.582;  -60.037;  -21.934
750.359;34537.934;  414.964;  555.066
750.620; 8330.986; -121.036; -220.935
750.881;  970.137; -585.036; -513.935
751.142; 1286.464; -950.036; -938.936
751.403;16682.291; -789.036; -705.936
751.664; 6979.268;-1034.035; -999.936
751.925;  468.795; -175.035; -262.937
752.186;  267.871; -298.035; -278.937
752.447;  130.448; -590.035; -445.937
752.708;   51.825; -532.035; -648.938
752.969;   -2.248; -566.034; -576.938
753.230;   -5.021; -777.034; -672.939
753.491;  -17.345; -650.034; -631.939
753.751;   63.532;  109.966;   19.061
754.012;   79.059;  258.967;  181.060
754.273;   50.436; -174.033;  -71.940
754.534;   -8.512; -487.033; -580.940
754.794;  -89.786; -926.033; -911.941
755.055;  150.566; 1051.967;  881.059
755.316;  -42.832; -700.032; -566.942
755.576;  -45.555; -606.032; -576.942
755.837;  -35.778; -527.032; -695.942
756.097;  -41.927; -530.032; -564.943
756.358;  -77.275; -725.032; -770.943
756.618;  -41.298; -705.031; -641.943
756.879;    2.004; -254.031; -349.944
757.139; -110.094;-1098.031;-1116.944
757.400;  -52.042; -538.031; -553.945
757.660;  -34.116; -365.031; -401.945
757.920;   10.661; -266.030; -228.945
758.181;  -19.662; -468.030; -351.946
758.441;  -87.685; -870.030; -809.946
758.701;  -42.608; -308.030; -215.946
758.961;   -7.182; -220.030; -278.947
759.222;  -49.905; -574.029; -502.947
759.482;  -73.978; -683.029; -723.948
759.742; -105.351; -706.029; -547.948
760.002;    4.326;  -83.029; -143.948
760.262;   22.727;   50.972;  182.051
760.522;  -28.546; -498.028; -574.949
760.782;  -43.894; -738.028; -612.949
761.042;  -35.917; -618.028; -573.950
761.302;   48.910;   55.972;  -18.950
761.562;   58.811; -164.027; -154.951
761.822;   54.988; -710.027; -551.951
762.082;  -37.010;-1104.027;-1093.951
762.342;   65.167; -328.027; -403.952
762.601;   67.394; -567.027; -506.952
762.861;  321.620; -281.026; -207.952
763.121;  399.172; -406.026; -411.953
763.381; 7478.424; -499.026; -485.953
763.640; 7699.176; -139.026; -307.954
763.900;  335.928; -242.026; -203.954
764.160;   74.405; -458.025; -491.954
764.419;  -24.119; -726.025; -782.955
764.679;  -82.342; -795.025; -726.955
764.939;   -6.165; -124.025; -210.955
765.198;  -87.438; -608.025; -563.956
765.458;  -86.311; -710.024; -612.956
765.717;  -70.535; -454.024; -590.957
765.976;  -60.083; -428.024; -411.957
766.236;  -78.206; -475.024; -610.957
766.495;   18.646;  260.977;   73.042
766.755; -107.652;-1090.023; -987.958
767.014;   -8.426; -594.023; -665.958
767.273;  -56.199; -373.023; -397.959
767.533;  -34.322; -228.023; -307.959
767.792;  -33.170; -151.022; -188.960
768.051;  -44.818; -228.022; -276.960
768.310;  -79.992; -546.022; -650.960
768.569;  -11.640; -161.022;    4.039
768.828;  -28.638; -285.022; -363.961
769.088; -117.386;-1050.021; -942.961
769.347;  -67.984; -755.021; -599.962
769.606; -103.958; -876.021; -857.962
769.865; -118.656;-1016.021;-1033.963
770.124;    7.596; -411.021; -336.963
770.383;  -54.102; -778.020; -910.963
770.641;  -16.275; -398.020; -400.964
770.900;  -60.799; -953.020; -846.964
771.159;  -44.622; -851.020; -951.964
771.418;  -19.495; -917.020; -779.965
771.677;  124.307; -224.019; -293.965
771.936;  140.534; -794.019; -865.966
772.194; 2561.286; -465.019; -437.966
772.453;11456.712; -213.019; -391.966
772.712;  774.039;  416.982;  329.033
772.970;  116.441;   32.982;   63.033
773.229;   89.043;  -22.018;  102.033
773.488;  -85.205; -814.018; -770.968
773.746;   68.446;  296.982;  335.032
774.005;    7.673;  190.983;  -22.969
774.263;   15.050;  243.983;  177.031
774.522;  -77.523; -422.017; -548.969
774.780;  -83.921; -484.017; -417.970
775.039;  -95.845; -551.017; -531.970
775.297;  -24.943; -135.016; -351.970
775.555;  -90.666; -489.016; -612.971
775.814; -117.189; -618.016; -570.971
776.072; -121.037; -749.016; -740.971
776.330; -114.286; -630.016; -520.972
776.589; -127.734; -703.015; -721.972
776.847; -125.432; -645.015; -624.973
777.105; -164.355;-1016.015;-1032.973
777.363;  -77.203; -459.015; -454.973
777.621; -140.227; -660.015; -717.974
777.879;  -28.575;  -42.014;   32.026
778.138;  -95.823; -554.014; -717.974
778.396;  -93.796; -585.014; -526.975
778.654; -167.519;-1015.014; -970.975
778.912;  -64.117; -269.014; -371.976
779.170; -126.066; -880.013; -803.976
779.427; -155.489; -922.013; -897.976
779.685; -136.337; -880.013; -832.977
779.943;  -94.635; -654.013; -593.977
780.201; -149.483; -964.012; -883.978
780.459; -130.882; -651.012; -610.978
780.717;  -84.305; -440.012; -390.978
780.974; -103.153; -449.012; -490.979
781.232;  -72.151; -358.012; -338.979
781.490;  -87.724; -551.011; -472.979
781.747;  -96.098; -555.011; -476.980
782.005;   17.104;  462.989;  254.020
782.263; -172.494; -542.011;-1004.981
782.520;  -90.017; -326.011; -501.981
782.778; -167.665;-1013.010;-1051.981
783.035; -168.239; -962.010; -938.982
783.293;  -65.887; -248.010; -206.982
783.550;  -67.285; -134.010; -198.982
783.808; -128.058; -764.010; -776.983
784.065; -167.281; -745.009; -874.983
784.322;  -44.980;   25.991;  -86.984
784.580; -141.253; -915.009; -771.984
784.837;  -99.051; -392.009; -466.984
785.094; -130.374; -783.009; -762.985
785.352;  -67.397; -304.008; -404.985
785.609; -118.570; -934.008; -839.985
785.866;  -77.519; -345.008; -401.986
786.123;  -86.142; -639.008; -583.986
786.380; -108.140; -665.008; -604.987
786.637;  -47.413; -225.007; -380.987
786.895;  -37.186; -456.007; -543.987
787.152;  -44.610; -135.007; -267.988
787.409;  -36.208; -123.007; -225.988
787.666;  -78.181; -299.006; -378.988
787.923; -106.129; -616.006; -695.989
788.179; -105.852; -551.006; -584.989
788.436; -116.176; -585.006; -585.990
788.693;  -38.974;  -92.006;  -87.990
788.950;  109.078; -125.005; -112.990
789.207;  162.555; -381.005; -372.991
789.464;  -49.818; -161.005; -301.991
789.720;   -9.517;  150.995;  110.009
789.977; -171.940;-1003.005; -671.992
790.234;  -31.613;   44.996;  -66.992
790.490; -155.911; -884.004;-1031.993
790.747;  -15.559;  -85.004;   22.007
791.004;  -31.783; -426.004; -348.993
791.260;  -73.681; -430.004; -560.994
791.517;  -94.879; -843.003; -788.994
791.773;  -51.052; -379.003; -342.994
792.030; -107.350; -596.003; -660.995
792.286; -104.898; -686.003; -636.995
792.543;   -8.872;  -74.002; -159.995
792.799;  -63.620; -584.002; -382.996
793.055; -157.168;-1179.002;-1210.996
793.312; -104.941; -827.002; -816.997
793.568;  -41.039; -746.002; -599.997
793.824;    9.212; -226.001; -284.997
794.081;   19.789; -447.001; -508.998
794.337;   45.416; -664.001; -561.998
794.593; 1349.918; -319.001; -271.999
794.849; 6183.595; -746.001; -772.999
795.105;  303.396; -270.000; -261.999
795.361;    7.873; -490.000; -457.000
795.617;  -72.000; -875.000; -945.000
795.873;  -60.625; -360.000; -407.000
796.129;  -35.450; -368.000; -306.000
796.385;  -25.450; -124.000; -156.000
796.641;   83.975;  412.000;  550.000
796.897;  -68.800; -666.000; -635.000
797.153;   68.275;  453.000;  357.000
797.409; -100.500; -785.000; -868.000
797.665;  -66.825; -625.000; -732.000
797.921;  -73.250; -775.000; -762.000
798.176;  -51.725; -744.000; -747.000
798.432;  -60.250; -824.000; -596.000
798.688;  -74.625;-1174.000;-1078.000
798.943;   96.000; -165.000; -147.000
799.199;    2.775;-1005.000; -959.000
799.455;  247.950;  369.000;  316.000
799.710;  148.725; -813.000; -380.000
799.966;  301.625; -162.000; -160.000
800.221;  512.400; -638.000; -721.000
800.477;10917.625; -743.000; -710.000
800.732; 9026.325; -773.000; -800.000
800.988;  667.025;  205.000;  -19.000
801.243; 2151.750; -454.000; -344.000
801.498; 8732.350; -814.000; -739.000
801.754;  471.425; -289.000; -163.000
802.009;   80.175; -257.000; -335.000
802.264;  -43.200; -967.000;-1033.000
802.520;   29.825;  222.000;   -3.000
802.775;  -33.225; -524.000; -359.000
803.030;   60.250;  395.000;  356.000
803.285; -121.225; -840.000; -903.000
803.540;  -64.350; -686.000; -699.000
803.795;  -58.825; -648.000; -583.000
804.051;  -32.600; -279.000; -346.000
804.306;   34.975;  168.000;  128.000
804.561;  138.450;  451.000;  362.000
804.816;  137.225;  714.000;  861.000
805.071;    3.250; -185.000; -280.000
805.325;  187.975; -257.000; -427.000
805.580; -110.225; -841.000; -877.000
805.835;  -13.900; -204.000; -297.000
806.090;  -85.475; -760.000; -676.000
806.345;  -12.700; -344.000; -264.000
806.600;  -32.950; -549.000; -632.000
806.854;  -26.925; -408.000; -538.000
807.109;   -8.300; -493.000; -577.000
807.364;    9.200; -407.000; -328.000
807.618;  -17.300; -415.000; -381.000
807.873;   45.000; -470.000; -494.000
808.128;   83.925; -257.000; -518.000
808.382;  103.450; -224.000; -332.000
808.637;   68.375; -440.000; -511.000
808.891;  196.900; -257.000; -180.000
809.146;   73.350; -902.000; -794.000
809.400;  247.575; -848.000; -923.000
809.654;  312.150; -779.000; -551.000
809.909;  458.425; -841.000; -927.000
810.163; 6425.800; -813.000; -651.000
810.418;15425.225; -940.000; -861.000
810.672;  963.450; -685.000; -690.000
810.926;  704.075; -993.000; -973.000
811.180; 1435.175; -439.000; -372.000
811.434;32715.500;  240.000;  135.000
811.689;12070.825; -231.000; -365.000
811.943;  605.725; -936.000; -953.000
812.197;  313.575; -893.000; -671.000
812.451;  116.100; -379.000; -514.000
812.705;  -37.375; -809.000; -619.000
812.959;   10.800; -263.000; -388.000
813.213;    0.250; -283.000; -209.000
813.467;   83.800;  470.000;  253.000
813.721; -115.650; -764.000; -792.000
813.975; -107.650; -826.000; -877.000
814.229;   38.800;  430.000;  353.000
814.482;  -67.675; -517.000; -566.000
814.736; -113.425; -766.000; -744.000
814.990; -117.850; -779.000; -872.000
815.244;  -60.825; -228.000; -285.000
815.497;  -94.325; -636.000; -601.000
815.751;  -18.400; -141.000;   82.000
816.005;  -89.175; -470.000; -586.000
816.258;  -62.050; -510.000; -363.000
816.512; -108.425; -693.000; -610.000
816.766;  -11.075;  121.000;  157.000
817.019;   31.550;  148.000;  149.000
817.273; -130.675;-1000.000; -802.000
817.526;  -33.900; -206.000; -173.000
817.779;  -71.850;-1049.000; -960.000
818.033;  -83.475; -693.000; -807.000
818.286; -124.725; -725.000; -792.000
818.540;  -73.075; -403.000; -403.000
818.793;  -77.225; -402.000; -489.000
819.046; -103.825; -582.000; -520.000
819.299;  -39.125; -157.000; -166.000
819.553; -103.100; -552.000; -592.000
819.806; -171.425;-1016.000; -838.000
820.059;  -66.225; -334.000; -354.000
820.312;    8.700;  152.000;  185.000
820.565;  -13.550;  110.000;  -27.000
820.818;  -54.075;  -59.000; -173.000
821.071; -171.500;-1041.000; -957.000
821.324; -108.575; -536.000; -540.000
821.577; -102.250; -457.000; -483.000
821.830;  -67.600; -270.000; -172.000
822.083; -121.075; -733.000; -288.000
822.336;  -38.925; -261.000; -167.000
822.589; -130.650; -805.000; -688.000
822.842; -149.825; -875.000; -770.000
823.094; -187.075;-1076.000;-1114.000
823.347; -132.975; -925.000; -729.000
823.600;    5.550;  402.000;  187.000
823.853;  -54.550; -311.000; -267.000
824.105;  -63.025; -331.000; -575.000
824.358; -109.525; -617.000; -716.000
824.611;   18.550;  234.000;   40.000
824.863;  -54.475; -612.000; -591.000
825.116;   38.875;  -33.000;   27.000
825.368;   49.825; -366.000; -372.000
825.621;  150.600; -186.000; -240.000
825.873;   68.075; -704.000; -737.000
826.126;  608.925; -669.000; -641.000
826.378;11719.725; -389.000; -505.000
826.630; 2626.300; -890.000; -898.000
826.883;   39.200; -754.000; -693.000
827.135;   38.275; -279.000; -270.000
827.387; -106.875; -893.000; -839.000
827.639;  -32.500;  -86.000;   32.000
827.892; -133.150; -742.000; -582.000
828.144; -132.600; -848.000; -804.000
828.396;  -31.925;  104.000;  -80.000
828.648;  -97.350; -440.000; -333.000
828.900; -137.400; -702.000; -795.000
829.152; -119.225; -684.000; -683.000
829.404;  -70.400; -215.000; -267.000
829.656;    4.950;  321.000;  214.000
829.908;  -16.850;  393.000;  229.000
830.160; -175.100;-1064.000;-1047.000
830.412; -104.775; -481.000; -430.000
830.664; -117.200; -557.000; -665.000
830.916;  -76.600; -268.000; -206.000
831.167; -175.075;-1073.000; -951.000
831.419; -114.475; -623.000; -566.000
831.671; -151.850; -764.000; -809.000
831.923; -106.950; -311.000; -447.000
832.174;  -73.175; -273.000; -331.000
832.426; -124.000; -493.000; -582.000
832.678; -184.300;-1043.000;-1091.000
832.929; -166.850; -947.000; -935.000
833.181;  -73.600; -575.000; -677.000
833.432;  -62.100;  -59.000; -186.000
833.684;   -9.125;  112.000;  -27.000
833.935; -122.050; -610.000; -566.000
834.187; -119.350; -829.000; -823.000
834.438;  -60.675;  -58.000;  -25.000
834.689;  -57.750; -255.000; -123.000
834.941;  -64.625; -343.000; -244.000
835.192;  -96.200; -590.000; -533.000
835.443; -106.650; -419.000; -506.000
835.695;   -4.900;  138.000;  -16.000
835.946; -111.750; -608.000; -378.000
836.197; -102.050; -599.000; -622.000
836.448;  -90.325; -528.000; -395.000
836.699;  -52.000; -253.000; -341.000
836.950;   -8.950;   72.000;    7.000
837.201; -142.350;-1003.000; -987.000
837.452;  -53.400; -356.000; -170.000
837.703; -115.500; -791.000; -737.000
837.954;  -27.925; -205.000; -365.000
838.205;  -92.350;-1029.000;-1008.000
838.456;  150.450; -196.000; -282.000
838.707;   -1.550; -423.000; -519.000
838.958;    0.475; -634.000; -647.000
839.209;  254.925;   18.000;   40.000
839.460;  107.725; -439.000; -201.000
839.710;  166.050; -135.000; -297.000
839.961;  401.975;  730.000;  612.000
840.212;  329.500; -382.000; -497.000
840.462; 1146.250; -328.000; -277.000
840.713;18272.475; -571.000; -536.000
840.964; 6775.975;  -62.000; -143.000
841.214;  463.825; -384.000; -624.000
841.465;  499.875; -214.000; -141.000
841.715;  443.100; -417.000; -380.000
841.966;  579.300; -746.000; -685.000
842.216; 8575.150; -330.000; -431.000
842.466;30434.875; -169.000; -313.000
842.717; 1548.725; -964.000; -952.000
842.967;  246.525; -635.000; -641.000
843.217;  250.200;   20.000;   28.000
843.468;   47.550; -104.000; -132.000
843.718;  -45.150; -718.000; -726.000
843.968; -115.125; -837.000; -765.000
844.218;   -1.025; -315.000; -262.000
844.469;  -58.100; -577.000; -561.000
844.719;  -96.775; -537.000; -682.000
844.969; -105.400; -550.000; -580.000
845.219; -135.425; -814.000; -862.000
845.469;  -94.275; -392.000; -342.000
845.719; -127.125; -792.000; -884.000
845.969;  -17.525;  119.000;  174.000
846.219; -126.800; -738.000; -720.000
846.469;   16.750;  464.000;  432.000
846.718;  -53.975; -115.000;   31.000
846.968; -130.375; -827.000; -827.000
847.218;  -50.575; -224.000; -371.000
847.468;    3.800; -586.000; -555.000
847.718; -138.575; -827.000; -798.000
847.967; -139.950; -826.000; -915.000
848.217;  -84.875; -449.000; -569.000
848.467;  -69.450; -405.000; -376.000
848.716; -103.375; -708.000; -725.000
848.966;   -8.700; -372.000; -358.000
849.215;  -70.575; -428.000; -419.000
849.465; -108.300; -785.000; -615.000
849.714; -153.125;-1132.000;-1150.000
849.964;  -65.775; -551.000; -613.000
850.213;  -22.950; -393.000; -355.000
850.463;   76.900;  137.000;  340.000
850.712;    3.325; -542.000; -567.000
850.961;   20.775; -739.000; -678.000
851.211;  113.275; -513.000; -504.000
851.460;  155.275; -635.000; -650.000
851.709;  579.725;  -25.000;   18.000
851.958;10751.100; -912.000; -750.000
852.208;12209.700; -859.000; -879.000
852.457;  435.650; -181.000;  -13.000
852.706;   69.425; -791.000; -823.000
852.955;   -1.750; -507.000; -528.000
853.204;  -72.300; -521.000; -461.000
853.453;  -93.750; -418.000; -458.000
853.702; -135.925; -660.000; -750.000
853.951; -114.200; -532.000; -520.000
854.200; -122.025; -613.000; -562.000
854.449; -134.500; -695.000; -661.000
854.698;  -91.625; -340.000; -279.000
854.946;  -66.000; -181.000; -284.000
855.195; -143.875; -843.000; -868.000
855.444; -100.875; -395.000; -420.000
855.693; -122.300; -345.000; -432.000
855.941; -101.500; -387.000; -516.000
856.190;  -59.050; -256.000; -382.000
856.439; -114.900; -652.000; -703.000
856.687;  -63.125;  -99.000;  -72.000
856.936; -124.775; -621.000; -323.000
857.184; -181.400;-1067.000;-1020.000
857.433; -108.300; -423.000; -512.000
857.681; -173.125; -989.000; -953.000
857.930;  -81.200; -282.000; -433.000
858.178; -173.725; -856.000; -929.000
858.427; -153.725; -802.000; -781.000
858.675; -114.600; -377.000; -544.000
858.923; -115.000; -527.000; -819.000
859.172; -185.575;-1094.000;-1070.000
859.420;  -90.075; -339.000; -239.000
859.668; -144.925; -624.000; -628.000
859.916;  -22.550;  109.000;  115.000
860.164; -110.725; -699.000; -603.000
860.413;  223.150; -878.000; -696.000
860.661;  158.525; -709.000; -577.000
860.909;  -95.025; -339.000; -325.000
861.157;  -86.250; -277.000; -444.000
861.405; -115.550; -534.000; -670.000
861.653;    8.325;  310.000;  310.000
861.901;  139.375; -543.000; -613.000
862.149;  -37.525; -801.000; -824.000
862.396;  -74.550; -297.000; -187.000
862.644; -100.750; -368.000; -347.000
862.892;  -27.650;   98.000;  138.000
863.140; -121.100; -549.000; -530.000
863.388; -149.475; -815.000; -759.000
863.635; -123.025; -642.000; -601.000
863.883;  -16.125;  231.000;  190.000
864.131; -100.500; -288.000; -357.000
864.378; -149.550; -675.000; -540.000
864.626;  -93.100; -347.000; -415.000
864.873; -112.500; -556.000; -505.000
865.121; -140.325; -714.000; -799.000
865.368;  -37.850; -173.000;   75.000
865.616;  -19.050;  -33.000;  -40.000
865.863;  -69.650; -462.000; -506.000
866.111;  -85.675; -795.000; -824.000
866.358;   56.125; -426.000; -420.000
866.605; 2757.000;  -64.000; -804.000
866.853; 2600.250; -621.000; -537.000
867.100;  -21.400; -728.000; -775.000
867.347;  -94.300; -672.000; -611.000
867.594;  -86.725; -740.000; -714.000
867.841;   70.700;   97.000;   17.000
868.089; -145.425; -746.000; -698.000
868.336;  -98.750; -477.000; -420.000
868.583; -145.400; -637.000; -741.000
868.830;  -53.050; -131.000; -170.000
869.077; -159.075; -859.000; -787.000
869.324; -116.200; -502.000; -458.000
869.571; -135.975; -398.000; -430.000
869.818; -129.250; -485.000; -439.000
870.065;  -97.925; -439.000; -513.000
870.311; -103.525; -456.000; -542.000
870.558; -106.875; -332.000; -311.000
870.805;  -86.425; -320.000; -384.000
871.052;  -98.200; -494.000; -369.000
871.298;  -51.600; -204.000; -131.000
871.545;  -73.025; -151.000; -185.000
871.792;  -87.200; -173.000; -222.000
872.038;  -59.500;   43.000; -126.000
872.285; -144.800; -496.000; -387.000
872.532;  -95.875; -357.000; -387.000
872.778;    3.025;  556.000;  403.000
873.025;  -88.125; -384.000; -359.000
873.271;   12.325;  501.000;  578.000
873.517;  -24.725; -133.000; -209.000
873.764;  -51.300; -193.000;  -80.000
874.010;  -67.050; -143.000; -230.000
874.257;  -52.750;  123.000;   90.000
874.503; -137.775; -579.000; -479.000
874.749;  -73.475;   31.000;  275.000
874.995;  -63.775;  -80.000;  -20.000
875.242; -131.450; -540.000; -478.000
875.488; -110.475; -414.000; -439.000
875.734;  -63.925; -106.000; -234.000
875.980;  143.925; -872.000;-1032.000
876.226;  276.425; -157.000; -255.000
876.472;   12.275;  343.000;  237.000
876.718;  -47.350;  184.000;  158.000
876.964;  -40.700;   56.000;   55.000
877.210; -164.925; -547.000; -677.000
877.456; -149.750; -630.000; -557.000
877.702; -179.650; -821.000; -832.000
877.948; -126.825; -377.000; -497.000
878.193;   12.500;  361.000;  255.000
878.439;  -99.225; -487.000; -472.000
878.685;  -99.375; -272.000; -343.000
878.931; -129.700; -618.000; -676.000
879.176;  -79.000; -201.000; -201.000
879.422; -167.425; -933.000; -820.000
879.668;   58.650;   10.000;   79.000
879.913;  110.675;   53.000;  137.000
880.159;  -60.500; -112.000;  -17.000
880.404;  -53.225; -152.000; -162.000
880.650;  -48.600;   91.000;  141.000
880.895; -157.800; -670.000; -710.000
881.141; -136.875; -454.000; -428.000
881.386; -147.375; -503.000; -658.000
881.631;  -90.375; -311.000; -166.000
881.877;  -32.150;  112.000;  -13.000
882.122; -125.350; -684.000; -600.000
882.367;  -85.275; -136.000; -186.000
882.612;  -79.425;  -80.000; -176.000
882.858; -172.750; -877.000; -823.000
883.103; -113.025; -297.000; -267.000
883.348; -157.100; -759.000; -852.000
883.593; -155.275; -677.000; -602.000
883.838;  -50.725; -311.000;  -24.000
884.083;   20.825;  353.000;  288.000
884.328; -102.650; -564.000; -545.000
884.573;  -62.550; -196.000; -143.000
884.818;  163.350; -694.000; -531.000
885.063;  130.875; -348.000; -315.000
885.308; -110.875; -475.000; -398.000
885.553;  -11.750;  245.000;  325.000
885.797; -126.075; -545.000; -615.000
886.042;  -55.150;    8.000;   58.000
886.287;  -75.550; -253.000; -211.000
886.532;  -56.775;   26.000;  204.000
886.776;  -98.125; -407.000; -525.000
887.021; -145.450; -621.000; -574.000
887.265; -161.775; -685.000; -689.000
887.510; -141.600; -557.000; -496.000
887.755;  -80.500; -194.000; -164.000
887.999; -132.400; -552.000; -575.000
888.244;  -51.750;  -58.000;  161.000
888.488;   -6.375;  371.000;  393.000
888.732; -143.325; -368.000; -520.000
888.977; -139.450; -622.000; -567.000
889.221; -157.000; -683.000; -659.000
889.465; -117.950; -422.000; -566.000
889.710;  -78.225;  -56.000; -299.000
889.954;    3.950;  579.000;  467.000
890.198; -155.875; -584.000; -707.000
890.442; -154.050; -716.000; -712.000
890.687; -155.475; -800.000; -753.000
890.931;  -90.225; -273.000; -210.000
891.175; -133.950; -502.000; -500.000
891.419;  -72.250; -105.000; -110.000
891.663;  -90.100; -239.000; -112.000
891.907; -170.375; -801.000; -545.000
892.151; -185.125; -920.000; -815.000
892.395; -112.625; -274.000; -387.000
892.638;  -18.950;  408.000;  291.000
892.882; -185.050; -780.000; -867.000
893.126;   28.500;  758.000;  558.000
893.370;  -94.750; -167.000; -168.000
893.614; -151.050; -714.000; -715.000
893.857; -104.100; -183.000; -197.000
894.101; -143.475; -527.000; -631.000
894.345;  -70.525;  300.000;  150.000
894.588;   23.825;  569.000;  380.000
894.832;  -99.050; -178.000;  -84.000
895.075;  -77.325;   15.000;  -92.000
895.319; -136.825; -552.000; -420.000
895.563; -119.225; -413.000; -353.000
895.806; -158.200; -628.000; -741.000
896.049;  -76.475; -576.000; -368.000
896.293;   70.925;  527.000;  405.000
896.536;  -92.700; -465.000; -468.000
896.779;  -84.750; -149.000;   -1.000
897.023; -151.475; -751.000; -714.000
897.266;  -37.600;  325.000;  269.000
897.509; -177.475; -900.000; -901.000
897.752;  -46.950;  149.000;  171.000
897.996; -192.975; -972.000; -864.000
898.239;  -34.850;  168.000;  102.000
898.482; -120.475; -431.000; -453.000
898.725;  -42.225;  101.000;   53.000
898.968; -163.100; -609.000; -744.000
899.211; -115.425; -513.000; -361.000
899.454; -130.775; -633.000; -539.000
899.697;  -88.700;   90.000;  -43.000
899.940; -163.675; -761.000; -757.000
900.182; -104.050; -335.000; -405.000
900.425;  -94.650; -150.000; -298.000
900.668;  -18.475;  491.000;  350.000
900.911; -110.525; -292.000; -345.000
901.154;  -53.200;  141.000;   -3.000
901.396; -129.100; -407.000; -412.000
901.639; -148.775; -430.000; -496.000
901.882; -185.350; -790.000; -809.000
902.124;  -75.800;  -29.000; -143.000
902.367; -119.800; -315.000; -361.000
902.609; -147.225; -476.000; -453.000
902.852;  -90.725; -108.000; -260.000
903.094; -137.300; -458.000; -337.000
903.337;  -52.575;  -26.000;   53.000
903.579; -111.150; -228.000; -441.000
903.821; -154.725; -597.000; -744.000
904.064;  -61.175;   85.000;  127.000
904.306;  -93.350; -126.000; -166.000
904.548; -108.575; -152.000; -366.000
904.790; -100.750; -195.000; -340.000
905.033; -132.425; -625.000; -577.000
905.275; -129.350; -513.000; -524.000
905.517;   23.500;  468.000;  256.000
905.759;  -84.150; -667.000; -761.000
906.001;  -94.625; -322.000; -369.000
906.243;  -75.575; -162.000; -224.000
906.485;   93.675; -265.000; -207.000
906.727;   70.325; -499.000; -542.000
906.969;  -40.825;  -30.000; -135.000
907.211;   74.000; -316.000; -382.000
907.453;  203.725; -188.000; -237.000
907.695;   -8.075; -158.000; -385.000
907.936;   43.500;  818.000;  706.000
908.178;  -58.175;   92.000; -135.000
908.420;  -75.875; -111.000; -162.000
908.662; -143.650; -633.000; -682.000
908.903;  -90.150; -208.000; -123.000
909.145;  -61.375; -240.000; -305.000
909.386;   -6.525;  315.000;  280.000
909.628;   35.100;  363.000;  397.000
909.870;  -13.125;   29.000;  264.000
910.111; -101.375; -809.000; -949.000
910.353;   20.400; -123.000; -161.000
910.594;   -6.975; -574.000; -606.000
910.835;   76.325; -265.000; -326.000
911.077;  147.875; -503.000; -604.000
911.318;  274.600; -505.000; -471.000
911.559;  449.125; -577.000; -880.000
911.801; 1344.950; -284.000; -280.000
912.042;10722.400;  -50.000; -159.000
912.283;26175.175;  404.000;  371.000
912.524; 3747.175; -396.000; -457.000
912.765;  458.975; -193.000;   79.000
913.006;  244.100; -307.000; -338.000
913.247;   32.175; -270.000; -290.000
913.488;  -15.900;  -43.000;   30.000
913.729;  -94.875; -373.000; -373.000
913.970;  -70.800;  -96.000; -292.000
914.211;  -79.100; -160.000; -198.000
914.452;  -56.550; -118.000;  -11.000
914.693;    4.250;  510.000;  592.000
914.934;   10.800;  510.000;  440.000
915.175;  -69.925;   53.000;  -95.000
915.415;  -78.950; -137.000;   27.000
915.656;  -73.925;  -28.000;  192.000
915.897;  -98.000; -252.000;  -82.000
916.137;  -67.575;   74.000;   -9.000
916.378; -134.075; -573.000; -517.000
916.619;  -93.200; -159.000;  -63.000
916.859;  -25.400;  303.000;  330.000
917.100;  127.050; 1655.000; 1070.000
917.340;   38.550;  930.000;  728.000
917.581;   39.375;  965.000;  789.000
917.821;  -36.325; -171.000;  143.000
918.061;    8.550; -199.000;  -72.000
918.302;  -55.725; -152.000; -211.000
918.542;  -36.475;  -22.000;    3.000
918.782;   32.425;  369.000;  377.000
919.023;  130.300;  360.000;  427.000
919.263; 1759.025; 8131.000;  202.000
919.503; 1013.075; -137.000;  -54.000
919.743;  545.625;  390.000;  266.000
919.983;  209.225; -134.000;  -26.000
920.223;   77.850;  135.000;   14.000
920.463;  159.550;  631.000;  554.000
920.703;  145.650;   84.000;   39.000
920.943;  165.850; -110.000;   90.000
921.183;  246.425; -414.000; -405.000
921.423;  519.050;  307.000;  546.000
921.663;  767.600; -174.000; -257.000
921.903; 1647.125;  237.000;  173.000
922.143; 9466.375;  372.000;  389.000
922.383;35402.700;  158.000;  115.000
922.622;11113.650; -120.000;  -15.000
922.862; 1203.400;  796.000;  785.000
923.102;  475.775;  -51.000;   33.000
923.341;  183.475;   59.000;   74.000
923.581;   88.750;  450.000;  360.000
923.821;   28.125;  301.000;  398.000
924.060;   -0.025;  351.000;  193.000
924.300;  -64.100;  -16.000; -128.000
924.539;   -7.150;  584.000;  473.000
924.779;   20.375;  812.000;  597.000
925.018;  -49.975;  247.000;  353.000
925.257;   -0.325;  595.000;  666.000
925.497;  -39.725;  447.000;  412.000
925.736;  -81.850;  -35.000;  102.000
925.975;   14.275;  687.000;  669.000
926.214;   28.075;  907.000;  850.000
926.454;   30.725;  706.000;  757.000
926.693;  -33.075;  419.000;  543.000
926.932;   44.250; 1021.000;  825.000
927.171;   57.925; 1107.000; 1044.000
927.410;   59.125; 1144.000;  967.000
927.649;   22.125;  924.000;  742.000
927.888;   -1.425;  590.000;  564.000
928.127;    1.300;  680.000;  678.000
928.366;   13.575;  842.000;  826.000
928.605;   37.600;  831.000;  737.000
928.844;  242.750; 1451.000; 1393.000
929.083;  587.825;  770.000;  613.000
929.321;  301.850; 1335.000; 1359.000
929.560;   83.975; 1158.000; 1122.000
929.799;  -27.275;  574.000;  475.000
930.038;   65.575; 1025.000; 1394.000
930.276;  -55.375;  334.000;  397.000
930.515;    3.600;  827.000;  681.000
930.753;  -14.850;  614.000;  589.000
930.992;  -20.850;  664.000;  717.000
931.230;    9.550;  847.000;  847.000
931.469;  176.475; 2162.000;  892.000
931.707;   69.125;  840.000;  751.000
931.946;   73.425; 1278.000; 1344.000
932.184;   56.725; 1437.000; 1175.000
932.423;   37.575; 1265.000;  963.000
932.661;   83.050; 1296.000; 1428.000
932.899;   17.650;  987.000;  821.000
933.137;   13.350;  754.000;  564.000
933.376;  124.900; 1664.000; 1335.000
933.614;  157.850; 1759.000; 1196.000
933.852;   57.150; 1357.000; 1171.000
934.090;  148.050; 1722.000; 1747.000
934.328;  104.225; 1252.000; 1457.000
934.566;  116.950; 1431.000; 1110.000
934.804;  160.250; 1263.000; 1309.000
935.042;  546.250; 1861.000; 1850.000
935.280; 2200.050; 2088.000; 2063.000
935.518; 1963.050; 2113.000; 2007.000
935.756;  390.200; 2481.000; 2316.000
935.994;  176.625; 1808.000; 1751.000
936.231;  329.650; 2890.000; 2950.000
936.469;  197.300; 2367.000; 2378.000
936.707;  162.300; 2220.000; 2167.000
936.945;  242.625; 2825.000; 2882.000
937.182;  198.950; 2679.000; 2741.000
937.420;  321.950; 3602.000; 3031.000
937.657;  403.075; 3365.000; 3478.000
937.895;  331.075; 3331.000; 3488.000
938.133;  325.000; 3540.000; 3528.000
938.370;  361.625; 3896.000; 4191.000
938.607;  409.225; 4488.000; 4205.000
938.845;  556.400; 5587.000; 5549.000
939.082;  483.775; 5387.000; 5177.000
939.320;  564.500; 5799.000; 5728.000
939.557;  636.550; 6549.000; 6491.000
939.794;  744.100; 7285.000; 7097.000
940.031;  920.325; 8421.000; 8368.000
940.269; 1091.175; 9552.000; 9107.000
940.506; 1091.525;10901.000;10507.000

