
Integration time [ms]: 200.000
Averaging Nr. [scans]: 10
Smoothing Nr. [pixels]: 0
Data measured with spectrometer [name]: 2101013U2
Wave   ;Sample   ;Dark     ;Reference
[nm]   ;[counts] ;[counts] ;[counts] 

394.013;   60.371; -450.257; -315.536
394.305;  299.668; -461.258; -419.536
394.596; 1577.520; -676.269; -527.514
394.887; 3793.144; -796.268; -654.518
395.178; 1546.988;  145.736;   11.476
395.470;   92.904; -210.263; -356.526
395.761;  332.965;  305.734;  394.479
396.052;  511.541; -545.284; -306.489
396.343;  462.341; -557.276; -454.503
396.634;  110.396; -200.279; -290.497
396.926;   96.640; -618.268; -565.517
397.217;  139.147;   11.725;  -17.504
397.508;    6.470; -366.273; -154.507
397.799;   -9.604; -555.279; -571.497
398.090;  -60.312; -973.280; -902.495
398.381;  183.234;   11.708;  -11.473
398.672;  -68.665; -585.292; -742.473
398.963;   49.505; -348.279; -373.498
399.254;  132.848;   54.709; -209.475
399.545; -135.739;-1017.266; -883.520
399.836;   59.525; -407.277; -343.501
400.127;   63.100; -205.295; -209.468
400.418;   67.762; -423.274; -392.506
400.709;   51.670; -359.281; -333.493
401.000;   47.354; -268.291; -309.476
401.290;  148.809;  225.698;  115.545
401.581;   85.916; -166.286; -228.485
401.872;    4.060; -542.298; -486.462
402.163;   57.789; -313.296; -252.467
402.454;  126.249; -123.291; -163.475
402.744;   19.576; -844.297; -813.465
403.035;  511.821; -226.293;  -86.471
403.326;  728.339; -366.292; -384.474
403.617;  547.351;  204.701;  165.539
403.907;  311.349; -593.283; -679.490
404.198; 3435.743; -545.307; -599.446
404.489; 8665.756; -618.283; -588.491
404.779; 2870.514; -618.302; -660.456
405.070;  346.583;  -67.304; -174.451
405.360;  455.424; -259.293; -238.472
405.651;  571.730;  125.699;   98.542
405.942;  289.709;  209.714;  127.516
406.232;  304.130; -432.285; -413.487
406.523;  715.714;  641.706;  758.530
406.813;   76.513; -579.286; -644.484
407.104;  492.632;  261.708;  144.527
407.394;  173.953; -604.299; -591.462
407.685;  248.729;  336.715;  222.513
407.975;   23.854; -400.283; -382.490
408.265;  203.270; -134.289; -190.478
408.556;   30.345; -472.291; -459.475
408.846;  328.815;  474.706;  429.530
409.137;  111.982;   -1.288; -216.480
409.427;   66.730; -193.285; -271.487
409.717;   -4.425; -776.273; -692.508
410.007;  217.921;    4.715; -170.486
410.298;  111.603; -360.295; -342.469
410.588;   71.126; -495.285; -510.486
410.878;  -16.302; -792.287; -873.482
411.168;  145.163; -481.298; -478.463
411.459;  149.146; -295.283; -242.489
411.749;   66.443; -609.292; -507.474
412.039;    7.279; -755.289; -386.480
412.329;  308.715;   40.722;  132.501
412.619;  251.513;  -62.286; -148.485
412.909;  551.374;  639.711;  594.521
413.199;  451.788; -130.280; -251.495
413.490;  580.260;  521.710;  352.523
413.780;  115.494;-1013.279; -913.496
414.070;  468.242;  -46.276;  235.497
414.360;  444.310; -729.278; -666.498
414.650;  484.492; -726.288; -688.482
414.940;  699.293; -538.280; -441.496
415.230; 1309.788;   50.712;   74.519
415.520; 8820.619;  155.730;   66.486
415.809;33590.269; -305.281; -125.493
416.099;26814.129; -388.277; -229.501
416.389; 7597.359;  435.726;  236.494
416.679; 4547.209;   91.738;   85.473
416.969;  741.604; -527.287; -503.483
417.259;  868.797;  341.721;  171.503
417.549; 1025.167;  522.718;  318.508
417.838; 2436.143; -205.268; -147.518
418.128; 7769.468;  650.710;  492.522
418.418; 6492.084; -491.272; -579.509
418.708; 4559.959;    9.726;  -48.506
418.997;16540.253; -474.275; -480.505
419.287;17298.169; -733.273; -790.507
419.577;16697.845; -160.283; -123.489
419.866;53378.626; -588.277; -498.501
420.156;54207.713; -242.270;  -55.513
420.446;10337.198; -112.263;  -26.526
420.735; 1159.605; -376.271; -446.512
421.025; 1406.109; 1830.722;  315.502
421.314;  930.002; -203.271; -226.512
421.604; 1782.133;   89.732;  233.484
421.893; 1007.397; -705.271; -602.511
422.183;  305.199; -487.263; -461.526
422.472;  548.499;  -36.271; -107.511
422.762;  585.769; -416.266; -379.521
423.051;  255.743; -916.276; -916.503
423.341;  399.072; -491.273; -439.507
423.630;  573.278; -121.265;   15.477
423.919;  514.452;   58.725;   49.495
424.209;  523.306;  -31.263;   56.473
424.498;  741.140;   68.732;  161.483
424.787; 1511.549; -535.267; -601.518
425.077; 4520.876;   34.735;   29.478
425.366; 6251.414; -734.262; -744.528
425.655;14203.973;  639.727;  259.493
425.945;30683.999; -313.247; -268.554
426.234;17793.047;  117.741;  300.467
426.523; 7134.554;  -86.259; -350.534
426.812; 9838.063;  107.734;  159.480
427.101;14774.028; -127.269; -323.515
427.390;18103.619;  -55.270;  -86.514
427.680; 3918.982; -624.257; -411.538
427.969;  637.598; -330.255; -301.540
428.258;  420.471; -385.257; -477.536
428.547;  789.190;  449.728;  397.490
428.836; 1589.321; -421.253; -398.543
429.125; 2217.157; -199.259;  -72.534
429.414; 1091.654; -330.251; -294.548
429.703; 4542.354; -231.251; -213.548
429.992;13112.859; -938.250; -828.549
430.281; 8887.288; -397.264; -331.524
430.570;  868.440;  -21.252;   32.454
430.859;  784.354;  279.741;  352.466
431.148;  730.993;  636.752;  631.446
431.437;  480.139;  391.748;  367.454
431.725;  181.273; -544.257; -481.536
432.014;  112.232; -845.253; -756.545
432.303;  478.201; -149.239; -105.569
432.592;  760.998; -460.263; -178.525
432.881; 1448.795; -601.248; -437.554
433.169; 9055.599; -343.255;  -61.540
433.458;17697.250;  445.765;  540.424
433.747; 7555.022; -397.261; -289.529
434.036; 1181.867; -275.242; -280.564
434.324; 2929.177; -395.249; -379.551
434.613; 5040.958;   40.757;  159.437
434.902; 1761.287;  333.760;  439.433
435.190;  718.400;   75.761;  295.431
435.479;  434.332;  -52.245;   83.441
435.767;  109.643; -411.244; -427.561
436.056;  228.461; -340.242; -294.563
436.345;  530.091; -372.240; -223.568
436.633;  590.170;   60.750;  383.450
436.922;  382.594;  208.760;  414.432
437.210;  704.736; -194.236;    1.426
437.499; 2082.647; -583.235; -432.576
437.787; 2317.635; -339.236;  -10.574
438.075;  680.808;   56.761;  162.430
438.364;  782.611;  -44.238;  250.429
438.652;  457.561; -286.226; -138.592
438.941;  197.810;    3.770;  269.415
439.229;  -33.164; -665.252; -466.545
439.517;   62.159; -160.234;  -85.577
439.806;  -41.816; -501.225; -290.595
440.094;  291.170;  377.766;  650.421
440.382;  178.476; -653.233; -302.580
440.670;  224.047; -361.235; -285.576
440.959;   -2.791; -347.223; -170.599
441.247;   79.026; -151.229; -109.587
441.535;  124.857; -266.235;   31.423
441.823;   20.966; -497.234; -305.578
442.111;  286.632;  173.771;  327.412
442.400;  585.931; -628.245; -335.559
442.688; 1646.469; -111.234; -620.579
442.976; 1054.434; -786.213; -450.617
443.264;  101.193; -324.224; -364.597
443.552;  127.863; -258.226;   51.408
443.840;  299.655;  602.765;  876.423
444.128;  193.974;  265.767;  269.420
444.416;  -51.864; -694.228; -312.588
444.704;   -1.249; -465.219;  -92.605
444.992;   87.667;   -0.226;  240.407
445.280;   65.311; -517.230;  -94.585
445.568;  -15.961; -694.212; -396.618
445.856;  450.828; -174.221;  357.398
446.143;  908.246;  -54.220;   -7.604
446.431;  817.541;  -25.228;  625.411
446.719;  335.879;  489.783;  675.391
447.007;  323.603;  481.769;  705.416
447.295;  274.204;  597.777;  871.402
447.583;  118.923; -464.229;  -34.587
447.870;  161.924; -434.221; -202.601
448.158;  527.509; -104.230;  129.415
448.446;  329.147; -800.219; -338.604
448.733;  239.495;   13.776;  269.403
449.021;  357.939;   60.788;  341.382
449.309;  234.860; -296.210;  208.379
449.596;  299.773;  128.783;   59.392
449.884;  170.814; -571.222; -325.600
450.172;  141.349; -756.227; -406.590
450.459;  662.910;  645.786;  780.387
450.747; 3577.271; -411.218; -147.608
451.034;10994.743;  493.772;  889.411
451.322; 9030.215; -413.214; -170.614
451.609;  830.297;  292.777;  508.403
451.897;  869.150; -550.203; -183.634
452.184; 2460.605; -622.223; -400.598
452.472; 2440.291;   97.792;  269.375
452.759;  572.448;  512.781;  864.395
453.047;  185.435; -407.212; -125.617
453.334;  103.659; -732.219; -216.606
453.621;   90.018; -438.214; -161.615
453.909;  196.539;   13.796;  384.368
454.196;  168.004; -299.199; -123.641
454.483;  316.969;  317.798;  540.364
454.771;  205.395; -215.208;  196.374
455.058;   61.300; -316.207;  102.374
455.345;  225.683;   71.807;  344.347
455.632;  151.704; -128.207;  235.373
455.919;   83.436;  -82.196;  182.354
456.207; -119.590; -774.198; -450.642
456.494;  -49.714; -475.200;  -66.639
456.781;  -19.537; -399.202; -198.635
457.068;   66.314; -253.206;  -29.628
457.355;  -60.885; -698.206; -401.629
457.642;  -11.777; -552.205; -290.630
457.929;  -20.630; -778.194; -417.651
458.216;   90.736; -575.212; -354.617
458.503;  363.376; -173.193;  -19.652
458.790;  299.092; -864.208; -630.625
459.077;  398.270;  -77.202;  110.364
459.364; 1177.560; -350.195; -210.649
459.651; 2395.811;  -46.206;  220.372
459.938; 1086.778; -864.209; -665.623
460.225;  241.974;  132.799;  276.363
460.512; -145.868; -836.197; -688.645
460.799;  182.969;  -32.218;  320.392
461.086;   78.293; -370.200; -251.640
461.372;    2.211; -509.198; -279.642
461.659;  155.038; -165.196;  108.354
461.946;   98.974; -445.193;  -54.651
462.233;  384.389;  842.800;  888.361
462.519;  482.785; -814.201; -464.639
462.806; 1357.932; -768.197; -497.645
463.093; 1198.604; -445.191;  -66.656
463.380;  -90.437; -920.186; -824.664
463.666;  114.135; -259.197;  -18.646
463.953;  141.652; -406.195; -243.648
464.239;  269.552; -173.195;  -77.648
464.526;  603.368;  413.806;  743.350
464.813;  405.921; -565.190; -304.658
465.099;  580.976;  606.807;  607.348
465.386;  572.081;  903.807;  921.348
465.672;  -14.767; -694.197; -522.645
465.959;   -3.354; -598.188; -520.662
466.245;  -19.518; -468.193; -359.652
466.532;  163.749; -109.195;   63.352
466.818;   79.363; -357.186; -216.664
467.104;    2.920; -488.182; -415.672
467.391;  -50.577; -628.189; -459.658
467.677;   43.468; -289.186;    9.335
467.964;  -24.667; -682.189; -471.660
468.250;   85.972; -331.186; -160.665
468.536;  138.325;   90.811;  180.341
468.822;  -85.011; -821.184; -574.668
469.109;  234.735;  351.827;  471.311
469.395;  370.195;  729.808;  787.346
469.681;  280.729;   46.811;  156.341
469.967; 1896.136; -699.188; -382.660
470.254; 3736.847; -494.188; -306.662
470.540; 2536.536; -601.196; -476.646
470.826;  379.036; -488.181; -397.675
471.112;  503.994;  288.816;  113.331
471.398;  187.200; -253.183;  -58.670
471.684;   20.776; -626.177; -447.680
471.970;  -49.959; -918.180; -981.675
472.256;   69.294; -521.192; -441.654
472.542;   -6.649; -499.171; -434.691
472.828;   -9.886; -743.182; -607.672
473.114;   31.513; -380.166; -283.700
473.400;  -15.600; -504.175; -293.684
473.686;   11.822; -452.166; -400.701
473.972;  122.821; -230.174; -131.687
474.258; -114.164; -925.173; -843.689
474.544;  353.365; -183.178;   -2.679
474.830;  513.802;  -65.175;   45.316
475.116;  816.523; -123.190; -196.658
475.401;  928.245; -558.180; -467.676
475.687;  268.343; -725.180; -718.676
475.973;  -82.374; -673.181; -770.673
476.259;  422.305;  736.825;  764.315
476.544;  514.688; -539.176; -437.682
476.830; 1224.645; -398.172; -322.690
477.116; 1069.286; -430.177; -336.682
477.401;  280.144;  346.820;  358.324
477.687;  -51.800; -289.175; -405.684
477.973;   71.331;   21.819;   28.326
478.258;  -34.949; -448.163; -348.706
478.544;   51.779;   21.815;   61.334
478.829; -122.741; -818.171; -738.692
479.115; -115.355; -749.172; -651.690
479.401;  -29.186; -444.174; -449.686
479.686;   67.942; -253.180;  -74.676
479.972;  -82.828; -886.178; -776.680
480.257;   45.015; -258.166;  -65.700
480.542;   -4.036; -614.170; -469.693
480.828;  454.798; 1288.824; 1392.317
481.113; -105.906; -464.176; -426.683
481.399;  -12.814; -236.161; -202.711
481.684; -114.285; -620.166; -462.700
481.969;   70.705; -158.159;  -73.713
482.255;  -32.820; -439.169; -285.695
482.540;  -18.528; -569.178; -441.680
482.825;  -11.544; -395.187; -404.663
483.110;  179.284;  -85.169; -105.696
483.396;  286.336; -840.157; -652.718
483.681;  815.221;  543.826;  730.313
483.966;  226.896; -696.160; -700.712
484.251;   13.420; -404.174; -310.687
484.536;   31.530; -356.165; -378.703
484.822;   56.224; -205.173; -218.687
485.107;  -59.210; -599.152; -502.726
485.392;  266.338;  662.836;  541.296
485.677;  154.498;  354.832;  163.302
485.962;  204.532;  160.843;  270.283
486.247;  153.063;  -14.162;   -8.707
486.532;   78.517; -178.166; -325.701
486.817;  312.377;  381.839;  431.291
487.102;  132.566; -453.154; -514.722
487.387; 1045.538; -637.156; -652.718
487.672; 1761.145; -154.164;  -38.705
487.957; 1167.888; -394.160; -286.711
488.241;  320.214; -290.150; -314.729
488.526; 1165.292; -280.152; -148.726
488.811; 1752.175; -881.177; -818.680
489.096; 1360.670; -666.154; -702.723
489.381;  774.687;    3.847;  162.275
489.666;  599.885; -428.161; -510.710
489.950;  352.974;  558.846;  627.277
490.235;  -90.093; -480.151; -458.728
490.520;  -66.616; -756.161; -723.710
490.804; -116.259; -827.156; -736.719
491.089;   35.336; -469.149; -299.732
491.374;   53.743; -132.164;  -75.704
491.658;  -29.347; -817.147; -717.735
491.943;  172.998; -657.152; -609.727
492.227;  331.560; -178.155;  -38.721
492.512;   32.631; -294.157; -341.717
492.797; -143.372; -713.149; -716.731
493.081; -108.843; -588.147; -598.735
493.366;  -99.714; -751.161; -635.711
493.650;  351.833;  831.859;  917.254
493.935;   23.852; -648.147; -447.734
494.219;  -86.086; -778.142; -687.743
494.503;  -94.579; -585.150; -487.730
494.788;   54.719;   46.842;   74.285
495.072;  196.516;  184.850;  434.271
495.356;  252.541; -463.148; -343.733
495.641;  661.466; -812.146; -736.736
495.925;  558.648; -976.156; -903.719
496.209;   20.136; -599.149; -451.732
496.494; -141.085; -763.142; -544.744
496.778;   22.666; -364.154; -360.722
497.062; -125.253; -819.156; -627.719
497.346;  -64.110; -869.160; -640.711
497.631;  252.646;  580.852;  560.266
497.915;  160.881;  -64.145;  175.261
498.199;   67.636; -341.157; -277.718
498.483;   34.290; -562.152; -508.725
498.767;  306.717;  301.850;  300.271
499.051;  293.032; -126.149; -100.732
499.335;   24.930; -693.149; -739.731
499.619;  -65.023; -381.129; -423.767
499.903;   29.458; -272.155;  -65.721
500.187;   31.076; -588.153; -316.724
500.471;   -9.003; -796.152; -595.727
500.755;  172.784;   62.839;  -96.710
501.039;   21.959; -270.155; -357.721
501.323;  140.235;  -21.141;  264.254
501.607;   25.752; -447.163; -503.706
501.891;  -43.062; -607.156; -512.718
502.174;  -98.903; -726.144; -585.741
502.458;  147.203;   89.849;  370.273
502.742;   98.169; -180.138; -191.751
503.026;  204.251; -412.147; -254.734
503.310;  241.803; -437.159; -375.713
503.593;  186.854; -464.147; -325.735
503.877;  208.927; -232.133; -156.760
504.161;  258.380;    2.847;  -50.724
504.444;  138.623; -841.158; -710.716
504.728;  710.342; -487.164; -522.704
505.012; 1071.113; -257.150;  -76.729
505.295;  829.186; -417.161; -212.711
505.579;  795.347; -256.156; -496.719
505.862; 1171.276; -555.145; -333.738
506.146; 1093.607; -681.159; -758.714
506.429;  733.307;  568.841;  461.286
506.713;   53.309; -732.151; -667.728
506.996;  539.365;   90.846;  295.278
507.280;  499.335; -633.165; -474.703
507.563;  332.256; -469.155; -261.721
507.847;  149.777; -423.153; -112.724
508.130;  169.287; -665.161; -456.711
508.413;  182.709; -758.167; -577.700
508.697;  417.509; -151.167;   12.300
508.980;  237.579; -422.153; -312.724
509.263;  -20.049; -466.155; -450.720
509.547;   41.713; -124.150;   82.271
509.830;  100.490; -172.160;  140.289
510.113;  141.647;  128.844;  298.281
510.396;   17.287; -530.152; -300.725
510.680;  167.178; -818.145; -812.738
510.963;  796.972;  184.846;  180.277
511.246;  595.524; -493.150; -357.730
511.529;  372.485; -482.145;  -83.739
511.812;  603.522; -250.134;   10.241
512.095;  432.505; -740.151; -396.728
512.378;  131.460; -317.147; -245.736
512.661;   33.580; -703.137; -623.753
512.944;    3.217; -750.142; -637.744
513.227;  104.476; -170.137; -171.752
513.510;   10.597; -479.144; -671.741
513.793;   31.341; -485.140; -435.747
514.076;  201.707;  -43.127;  -39.771
514.359;  192.537; -294.149; -135.732
514.642;  100.322; -442.142; -567.744
514.925; 1302.439;  581.860;  561.253
515.208; 1512.017; -498.134; -443.758
515.491; 1005.537; -276.133; -182.761
515.773;  629.302; -410.143; -337.742
516.056; 3401.189;  249.864;  409.246
516.339; 4046.495; -754.136; -652.755
516.622; 2671.820; -518.150; -488.730
516.904; 1684.812;  882.857;  975.257
517.187;  654.674; -730.138; -523.752
517.470;  560.311; -568.143; -510.743
517.752;  637.299; -624.136; -470.756
518.035;  518.456; -708.139; -725.749
518.318;  594.595; -799.136; -744.755
518.600; 3801.842; -300.132; -325.762
518.883; 5005.821;  310.858;   88.256
519.165; 2466.564; -585.138; -426.751
519.448;  561.141;  -61.132;  -19.762
519.730;  247.618; -573.126; -415.773
520.013;  496.731;  588.867;  664.240
520.295; 1046.124;  -94.134;  -15.759
520.578; 2219.660; -335.131; -305.764
520.860; 2590.241; -254.132;   56.238
521.143; 1343.302; -763.135; -584.756
521.425;  720.836; -251.125; -279.775
521.707; 1085.007; -622.127; -380.771
521.990; 2838.608; -199.127;  167.229
522.272; 3073.344; -116.140;   -4.748
522.554; 1429.103; -237.143; -157.742
522.836;  473.421;  -24.134;   99.241
523.119;  326.150; -496.148; -189.734
523.401;  245.270; -448.130; -314.766
523.683;  107.981; -865.137; -693.753
523.965;  500.971;  408.862;  260.248
524.247;  433.766;   54.878;  170.220
524.529;  309.424; -451.134; -367.759
524.812;  601.372;   -3.130;  191.234
525.094; 1387.770; -773.138; -631.751
525.376; 2051.149; -143.124;   78.223
525.658; 1277.891; -441.136; -339.754
525.940;    7.655; -805.131; -671.764
526.222;   44.096; -188.136;  -88.755
526.504;  169.452; -190.131;   32.237
526.786;  171.528; -960.133; -647.760
527.068;  364.657; -124.123;  -67.778
527.349;  116.386; -865.137; -774.754
527.631;  199.941; -137.132;   22.238
527.913;  168.606; -664.127; -450.771
528.195;  225.726; -761.125; -639.774
528.477;  422.317;  -93.134;  -30.758
528.759;  189.372; -648.130; -522.766
529.040;   67.655; -569.123; -293.778
529.322;  102.430; -235.125;  -10.774
529.604;  219.475;  -47.130;   93.233
529.886;  124.117; -546.126; -302.773
530.167;  244.763;  232.870;  192.235
530.449;   72.459;    1.853;   63.265
530.731;   40.765; -572.122; -459.779
531.012;   90.695; -513.120; -216.784
531.294;  130.651; -118.116;  -43.792
531.575;  295.336;  290.875;  538.225
531.857;  103.410; -548.135; -266.757
532.138;  220.333; -113.141;   40.254
532.420;  297.504;  294.865;  403.244
532.701;  230.331; -722.133; -751.760
532.983;  528.135;  232.867;  182.239
533.264;  169.114; -243.126;  175.228
533.546;  -70.204; -491.136; -508.755
533.827;   64.826;  173.867;   -1.759
534.109;   72.810; -352.135;  -80.757
534.390;   96.247; -725.132; -582.762
534.671;  374.204; -270.135;  -82.756
534.953;  170.759; -751.123; -611.779
535.234;   23.929; -426.117; -255.789
535.515; -169.393; -891.119; -735.785
535.796;  -31.999; -431.128; -193.770
536.078; -228.551;-1050.124; -904.777
536.359;   29.760;  -22.123;    3.221
536.640;  -36.672; -480.125; -197.774
536.921;  296.283;  225.871;  143.232
537.202;  593.766;  -87.138;  -16.751
537.483;  714.859;  251.869;  377.236
537.764;  320.063;   17.870;   98.235
538.045;  -76.884; -543.134; -371.758
538.326;  -49.115; -596.129; -447.768
538.607;    1.009; -686.127; -476.771
538.888;  304.682;   98.879;    5.218
539.169;  265.874; -704.122; -535.781
539.450;  532.381;  236.871;   16.233
539.731;  337.688; -361.121; -182.783
540.012;  254.695;  199.880;  412.216
540.293;  145.141;   82.876;  158.224
540.574;  -30.920; -895.113; -717.796
540.855;  740.385;  435.879;  377.218
541.136;  764.570;   47.878;  139.220
541.416;  374.173; -161.130; -220.766
541.697;  309.253; -274.131; -170.763
541.978; 1631.107; -270.135; -315.757
542.259; 1938.708; -211.127; -236.771
542.539;  972.242; -191.116; -186.790
542.820;  306.235;  461.875;  480.225
543.101;  189.780;  -52.145;  -77.738
543.381;  -40.692; -638.127; -591.771
543.662;  457.305;  159.873; -254.771
543.942;  869.702; -751.127; -830.770
544.223; 1639.273;  193.878;  161.219
544.504; 1083.148; -275.124; -182.777
544.784;  950.217; -592.126; -408.773
545.065; 2465.447;  104.884; -254.791
545.345; 2879.907;  227.881;   14.215
545.626; 2022.479;  -14.113; -108.796
545.906; 1376.463;   77.869;   98.235
546.186;  602.524;   92.874;  -95.773
546.467;  334.452;   99.877;  -95.778
546.747;  534.742;  264.884;  327.210
547.027;  623.646;   91.876;  111.223
547.308;  499.501; -376.127; -530.770
547.588;  636.786;  299.871;  371.232
547.868;  357.464;  458.870;  588.235
548.149;  389.758;  609.885;  593.207
548.429;  190.406; -347.127; -299.771
548.709;  267.194; -645.120; -461.784
548.989;  784.821;   84.882;   88.213
549.269; 3464.539;   10.868;  139.239
549.550; 7338.158;  215.877;  117.222
549.830; 6527.205; -758.111; -556.799
550.110; 1376.015; -468.110; -320.801
550.390; 1347.666; -128.122;  -56.779
550.670; 1695.273; -868.114; -783.795
550.950; 1257.285; -509.121; -471.782
551.230;  363.680;  549.879;  460.218
551.510;   19.683; -381.121; -326.782
551.790;   36.427; -173.109; -127.803
552.070;  506.352;  940.877; 1181.223
552.350;  627.713; -492.119; -377.786
552.630;  867.476;   -2.121;   77.219
552.909;  621.348;  181.884;   73.209
553.189;  418.148;  -49.132;   33.237
553.469;  311.312; -703.119; -514.786
553.749;  320.110; -469.127; -357.772
554.029;  279.335;   33.883;  -24.790
554.308;  242.164; -154.115;  -37.794
554.588;   93.699; -196.128; -204.770
554.868;  124.586; -366.121;  -47.782
555.147;  249.560; -114.115;  -46.793
555.427; 1013.451; -260.116; -250.792
555.707; 6215.457; -284.115; -200.793
555.986; 6880.209; -719.111; -538.800
556.266; 3951.240;   23.884;   72.210
556.546;  141.483; -888.121; -675.782
556.825;  359.170; -657.114; -556.794
557.105; 2936.096; -125.128;   17.230
557.384; 3085.446;  122.884;  187.209
557.664; 1247.350; -717.116; -508.792
557.943;  188.985; -557.121; -411.782
558.222;  269.725; -345.118; -344.788
558.502;  511.262; -116.115;  -76.793
558.781;  819.055;  194.885;  499.208
559.061;  602.525; -232.118; -227.788
559.340;  557.232;  302.883;  353.211
559.619; 1201.440;   93.884;  148.210
559.899; 1555.534; -239.117; -266.789
560.178; 1465.861; -778.115; -593.793
560.457; 5246.237; -623.117; -562.790
560.736; 6396.311; -472.111; -482.800
561.015; 4518.793; -500.128; -502.769
561.295;  616.755;  180.893;  215.193
561.574;  524.857;  119.885;  116.207
561.853;  791.733;  274.891;  303.197
562.132;  836.265;  -45.114;  182.206
562.411;  701.577;  396.879;  553.219
562.690;  248.155; -592.115; -458.792
562.969;  305.889;  472.888;  630.203
563.248; 1042.774; 2966.878; 2487.219
563.527;  424.010; -290.111; -408.800
563.806;  614.506; -650.127; -521.771
564.085;  647.377; -297.105; -206.810
564.364;  386.939; -594.117; -405.790
564.643;  825.877; -276.121; -223.781
564.922; 3002.124;  221.890;  397.198
565.201; 2713.529; -640.109; -700.803
565.479; 1310.853; -297.115; -219.792
565.758;  458.897; -810.128; -712.770
566.037;  706.331; -155.109; -100.803
566.316;  391.847; -286.116;  -28.791
566.595;   95.257;  -17.115;  -12.793
566.873;  191.013; -166.111;  -79.801
567.152;  -99.012; -490.113; -590.797
567.431;  -36.959; -113.116;    6.210
567.709;   37.155; -344.107; -212.807
567.988;  427.770; -810.114; -769.794
568.266;  819.657; -160.115;  -68.793
568.545;  585.644; -644.100; -514.819
568.824; 1042.952;  160.885;  356.208
569.102;  872.269; -351.114; -235.794
569.381;  364.451; -492.116; -407.792
569.659;  -80.117; -553.113; -553.796
569.938;   48.571; -743.122; -465.780
570.216;  161.935; -225.109; -225.804
570.494;  -23.526; -632.114; -572.795
570.773;   89.483;  202.879;  114.218
571.051;    8.756; -373.123; -357.778
571.330;  112.980; -221.113; -174.796
571.608;   87.169; -181.098; -173.823
571.886; -113.498; -671.111; -581.799
572.164; -127.614; -739.121; -621.782
572.443; -106.818; -562.105; -512.811
572.721;  -71.763; -399.117; -289.790
572.999;  -34.272; -280.117; -168.788
573.277;  226.073;  379.894;  620.191
573.555;  544.576;   94.894;   37.190
573.834; 2135.527;  -86.117; -114.788
574.112; 2411.759;  880.893;  811.193
574.390;  796.312; -143.111;  -96.801
574.668;  -16.110;  -91.112;  -61.797
574.946;   -0.224; -165.106; -187.810
575.224;   43.329;   71.891;  -16.803
575.502;    0.643; -200.116; -204.791
575.780; -171.008; -767.112; -829.798
576.058;  392.910; 1589.889; 1004.200
576.336;  -32.682; -210.110; -129.801
576.614;  -81.308; -511.112; -340.798
576.891;   74.963; -711.115; -823.794
577.169;  767.946; -158.108; -285.805
577.447;  912.658;  169.893;  202.193
577.725;  508.698;  629.888;  854.201
578.003;   23.695;  -71.112; -371.798
578.280;  151.895; -208.104; -242.812
578.558;   63.162; -450.115; -422.793
578.836;  194.873; -210.114; -145.795
579.114;   36.590; -630.112; -670.797
579.391;  131.930;   -6.117;  -18.789
579.669; -148.536; -595.114; -704.794
579.947;  275.153; -326.107; -127.806
580.224;  419.453; -692.107; -524.806
580.502;  541.959;  127.893;   76.193
580.779;   40.138;  -42.117;   75.210
581.057; -108.865; -584.109; -470.804
581.334; -189.384; -726.102; -695.815
581.612;  110.177;   54.895;  511.190
581.889;  -33.665;  -83.101; -129.818
582.167;  -51.945; -298.099; -190.821
582.444; -190.973; -845.102; -814.817
582.721;  232.928;  657.899;  715.183
582.999;   98.751; -326.100; -167.821
583.276;  767.362; -812.123; -713.779
583.553; 1049.920; -364.102; -294.816
583.831;  357.290; -607.104; -631.812
584.108;  135.943;  349.892;  174.195
584.385;   11.015; -122.102;  -98.815
584.662; -118.786; -651.111; -828.801
584.940;   89.312;  204.889;  204.199
585.217;  -34.317;  -73.113; -303.796
585.494;   74.125;   71.890;  118.198
585.771;  341.136; -250.109; -354.804
586.048;  724.582; -196.113;  -76.796
586.325;  469.317; -721.110; -773.801
586.602;  172.395;  230.896;  213.188
586.879;  -62.254; -499.100; -580.820
587.156;   74.478; -156.105; -331.810
587.433;  -59.976; -701.102; -667.817
587.710;  139.193;  152.888;  234.202
587.987;  445.886; -264.105; -236.811
588.264; 1191.495;  315.888;  387.202
588.541; 2117.999;  -61.104;   26.187
588.818; 3957.139;   72.892;  171.196
589.095; 3347.892; -163.104; -174.812
589.371;  592.733; -459.109; -414.804
589.648;   15.159; -581.107; -437.807
589.925;   45.875; -517.114; -621.795
590.202;   -5.708; -741.112; -607.798
590.478;  188.488; -166.105;  -73.811
590.755;  469.148; -241.108; -132.806
591.032; 3993.520; -741.110; -699.802
591.308; 4966.526; -732.094; -790.831
591.585; 2794.420; -573.110; -560.802
591.862;  185.026;-1056.102; -950.817
592.138;   77.044; -475.108; -474.805
592.415;  246.396; -486.104; -495.813
592.691; 2379.393;  460.896;  518.188
592.968; 2761.072; -208.098; -123.824
593.244; 1331.941; -695.116; -595.790
593.521;  107.227; -105.102;  -42.817
593.797;  -32.433; -810.122; -720.780
594.074;  471.890; -611.096; -588.826
594.350; 1036.706;  828.905;  729.172
594.626;  442.014; -303.111; -283.801
594.903;  112.128; -643.101; -645.817
595.179;  326.102;  243.896;  418.187
595.455;   22.160; -136.107; -150.807
595.731;   49.204;  -19.103;  -38.814
596.008;  -43.794; -464.111; -434.800
596.284;   46.050; -187.100; -242.820
596.560;   67.635; -501.093; -493.833
596.836;  326.581; -173.105;  -70.810
597.112;  518.746; -582.108; -437.805
597.388;  425.387;  -49.097;  -48.826
597.665;  234.786;  437.887;  530.203
597.941; -116.223; -572.089; -658.839
598.217;   45.225; -323.110; -293.802
598.493;  413.638;   61.891; -204.804
598.769;  764.841; -175.100;  -50.819
599.045;  404.250; -490.108; -562.806
599.321;   97.948; -193.100; -261.820
599.597;  244.137; -355.109; -476.804
599.872;  820.599;  409.896;  429.187
600.148;  571.189;  -61.097; -172.826
600.424;  461.957;   91.893;  202.193
600.700;  353.660; -170.107; -280.807
600.976;  179.181; -442.097; -464.825
601.252;  403.232; -226.109; -272.803
601.527;  295.300; -833.104; -840.813
601.803;  232.889; -453.105; -404.812
602.079;  307.241; -124.100; -118.819
602.354;  892.149; -620.092; -531.835
602.630; 1228.383; -140.113; -482.796
602.906; 3901.135; -910.101; -863.818
603.181; 9880.812; -627.119; -534.786
603.457; 8415.286;   98.903; -278.826
603.733; 1302.689; -605.120; -626.783
604.008; 1644.577; -245.106; -164.810
604.284; 4453.829; -636.101; -580.817
604.559; 3934.098;   -3.112;  -42.799
604.835;  767.581; -163.105; -225.810
605.110;  609.056; -732.099; -892.821
605.385; 1071.939;  224.907;  267.167
605.661; 1026.309; -625.095; -729.829
605.936; 1712.050; -664.108; -737.806
606.211; 1504.013;  -17.103; -170.815
606.487;  327.867; -329.114; -376.794
606.762;  -11.687; -791.119; -745.786
607.037;   -4.419; -501.105; -433.810
607.313;  -48.200; -589.096; -574.828
607.588;   21.976; -375.106; -137.810
607.863;  118.634;  -28.101; -143.818
608.138;  312.623;  513.890;  516.198
608.413;   35.761; -576.099; -592.822
608.688;  107.345; -203.108; -267.805
608.964;  311.868; -509.106; -218.809
609.239;  369.577; -107.105; -212.810
609.514;  451.288;  281.895;  240.188
609.789;  972.195; -187.104; -716.812
610.064; 1247.898; -435.096; -609.827
610.339; 1366.333; -855.109; -799.804
610.614; 1687.149; -131.100; -315.820
610.889; 1078.189;  215.895;  107.188
611.163;   27.790; -407.104; -591.812
611.438;  104.069;   81.886; -167.794
611.713;  -12.170; -467.101; -499.817
611.988;   70.533; -144.101; -328.818
612.263;  -93.184; -771.102; -717.815
612.538;  407.882;  385.887;  251.204
612.812;  214.451; -832.100; -911.820
613.087;  223.269; -358.098; -338.823
613.362; -106.740; -497.107; -557.807
613.637;  107.508;  261.897;  138.186
613.911;  -24.850; -256.092; -345.835
614.186;  225.558; -249.107; -292.807
614.460;  985.584; -842.081; -758.854
614.735; 1180.211;  -55.087;  -17.843
615.010;  286.396;   43.912;  -82.841
615.284;  442.044;  360.892;  246.195
615.559;  449.649; -792.092; -955.835
615.833;  460.759;  -76.099;  -87.822
616.108;    3.966; -225.090; -390.837
616.382;  325.513;  274.913;  402.156
616.656;  265.466; -241.090; -232.837
616.931;  732.859; -785.099; -700.822
617.205; 1568.801; -973.104; -979.813
617.480; 1519.833;  -91.125;    6.225
617.754;  239.329; -396.125; -128.774
618.028;   13.387; -369.129; -382.768
618.302;  150.742;   73.892;  -25.805
618.577;  -85.990; -371.103; -518.815
618.851; -107.172; -399.109; -600.803
619.125;  -44.376; -335.134; -378.759
619.399;  -41.299; -244.104; -374.813
619.673;  -48.848; -330.115; -515.792
619.947;  -57.127; -333.114; -448.795
620.222;    0.415; -198.110; -204.801
620.496;   32.186;  -47.121;  -96.782
620.770;   36.974; -187.122;  -93.781
621.044;  382.778;  323.895;  346.190
621.318; 1119.190; -653.120; -614.783
621.592;  961.887; -430.121; -409.783
621.866;  530.200; -476.112; -572.799
622.140;   48.943; -207.116; -356.791
622.413;  165.505;  138.889;  112.200
622.687;  -58.170; -746.101; -492.817
622.961;   57.542; -130.108; -143.805
623.235;  -96.393; -633.111; -661.800
623.509; -194.012; -816.105; -848.811
623.783;   37.154;  -12.107;   48.193
624.056;  -13.309; -254.120; -280.783
624.330;  108.390;   63.888;   -3.797
624.604;  100.839; -271.116; -355.790
624.877;  188.121;  180.890;   26.198
625.151;   85.466; -249.114; -238.794
625.425;  -48.496; -150.103; -283.814
625.698;  -86.595; -367.119; -374.785
625.972; -163.675; -799.110; -765.802
626.245;  204.441;  685.884;  484.210
626.519;  -60.503; -426.120; -340.784
626.792;    6.960; -192.107; -380.807
627.066; -165.136; -485.122; -662.779
627.339; -179.481; -736.110; -663.802
627.613;  119.095;  351.880;  148.216
627.886;  119.227;  187.891; -612.803
628.160;   -2.511;  312.880; -161.783
628.433; -155.563; -695.125; -703.775
628.706; -113.303; -517.120; -615.784
628.979;  104.446;  296.876;  117.223
629.253; -174.889; -785.119; -833.786
629.526;  570.515; -334.126; -253.772
629.799;  513.556; -641.123; -479.778
630.072;  209.890; -497.128; -516.769
630.346; -137.458;-1115.116;-1080.790
630.619;  706.961; -467.107; -545.808
630.892;  961.008;  709.889;  593.200
631.165;  610.101;  790.896;  679.187
631.438; -175.805;-1092.112;-1055.798
631.711;  127.361;  453.877;  257.221
631.984;  -96.565; -523.117; -624.789
632.257; -101.470; -636.117; -681.789
632.530;  -64.495; -412.119; -433.785
632.803;   86.863; -109.115;    7.207
633.076; -117.948; -360.123; -422.777
633.349;   27.795;  173.872;  121.231
633.622;  -20.497; -187.119; -240.785
633.895; -238.009; -903.120; -823.783
634.167; -121.182; -496.126; -525.773
634.440;   18.450;  -19.116; -137.792
634.713;   18.810;  -22.119; -120.786
634.986;  210.481;  593.871;  453.233
635.258; -127.140; -507.115; -597.793
635.531;  222.724;  742.882; -343.788
635.804;  -64.667; -303.117; -318.789
636.077; -181.455; -830.116; -852.791
636.349;  -32.842; -586.115; -474.793
636.622;  774.514; 1695.874; 1392.228
636.894;  353.097; -474.120; -909.784
637.167;  185.905; -836.127; -789.771
637.439;   39.600; -278.128; -213.770
637.712;  -61.384; -312.126; -293.772
637.984; -156.254; -635.116; -707.791
638.257;  677.752;  515.877;  488.222
638.529;  774.838; -881.125; -924.776
638.802;  384.089; -508.128; -449.769
639.074; -199.227; -927.122; -952.781
639.346; -226.188; -942.135; -930.757
639.619;   22.619;  -79.142; -319.744
639.891;    6.664;  -83.122; -168.779
640.163; -144.434; -689.122; -756.780
640.435;   93.069;  273.878;  103.220
640.708;   50.972;  -72.122; -132.780
640.980;  -54.926; -366.122; -362.781
641.252;  342.777;  -25.121;  -71.781
641.524; 2696.079;  580.879;  573.219
641.796; 2451.282;-1094.121; -907.782
642.068;  470.285; -191.121; -300.782
642.340;  -88.213; -486.121; -566.783
642.613;  132.890;  294.880;  323.217
642.885; -176.008; -787.120; -878.783
643.157; -100.305; -810.120; -658.784
643.428;  142.098;  170.880;  218.216
643.700;  -91.200; -498.120; -425.784
643.972;  -38.897;  -16.119; -133.785
644.244; -143.895; -474.119; -559.785
644.516;  -74.592; -250.119; -114.786
644.788;  180.711;  662.881;  548.214
645.060;    4.213;  -12.119; -124.786
645.332; -148.684; -525.118; -535.787
645.603;  142.718;  479.882;  342.213
645.875; -131.679; -334.118; -369.787
646.147;  378.824; 1487.882; 1242.212
646.418; -116.974; -931.117; -918.788
646.690;  207.129; -714.117; -715.789
646.962;   90.532; -413.117; -451.789
647.233;   43.334;   15.883;   11.211
647.505; -145.463; -595.117; -475.790
647.776;   74.039;  328.884;  229.210
648.048;    3.342; -248.116; -418.790
648.320; -141.255; -752.116; -679.791
648.591; -261.353;-1055.116; -958.791
648.862; -148.850; -505.116; -577.792
649.134;  106.752;  115.885;  198.208
649.405; -116.145; -661.115; -618.792
649.677;  -93.942; -475.115; -598.793
649.948;   14.460; -181.115; -296.793
650.219;   26.463;  -37.115; -147.793
650.491; -125.335; -431.114; -520.794
650.762; -214.732; -705.114; -731.794
651.033; -127.629; -437.114; -424.795
651.304; -186.627; -743.114; -728.795
651.576; -128.524; -680.114; -645.795
651.847;  -14.422; -250.113; -140.796
652.118;   -7.219;  -32.113; -189.796
652.389; -166.216; -639.113; -722.796
652.660;  -34.114; -147.113;  -89.797
652.931; -262.411; -897.112; -871.797
653.202; -132.808; -382.112; -541.798
653.473; -101.706; -633.112; -533.798
653.744;  206.597; -595.112; -590.798
654.015;  183.499; -356.112; -303.799
654.286; -114.298; -642.111; -663.799
654.557;  -87.695; -586.111; -521.799
654.828; -295.893;-1114.111;-1088.800
655.099; -121.490; -404.111; -291.800
655.370; -183.488; -427.111; -543.801
655.641; -186.985; -656.110; -714.801
655.911; -160.982; -618.110; -638.801
656.182;  144.120;  437.890;  387.198
656.453;  232.123;  830.890;  746.198
656.724; -133.875; -466.110; -426.802
656.994; -115.372; -553.109; -568.803
657.265; -175.769; -862.109; -873.803
657.536; -123.867; -500.109; -377.804
657.806; -153.264; -561.109; -593.804
658.077; -218.862; -866.109; -950.804
658.347; -118.559; -523.108; -598.805
658.618; -196.356; -646.108; -694.805
658.888;  -14.654;  -41.108;  112.195
659.159; -107.651; -432.108; -548.806
659.429;  -13.848; -292.108; -349.806
659.700;  -17.446; -435.107; -390.807
659.970;   30.657; -370.107; -359.807
660.241;   15.759; -754.107; -921.807
660.511;  725.062; -147.107; -174.808
660.781;   85.565; -793.106; -748.808
661.052;  -65.833; -222.106; -381.808
661.322;  -23.230;   21.894;   -9.809
661.592;   50.072;  257.894;  148.191
661.862;  -96.925; -369.106; -382.810
662.133; -165.022; -551.105; -502.810
662.403; -222.920; -770.105; -676.810
662.673;  -90.717; -256.105; -213.811
662.943; -161.915; -612.105; -551.811
663.213;   -3.912;  -85.105;  -81.811
663.483; -126.209; -593.104; -568.812
663.753;  -74.507; -194.104; -152.812
664.023;   19.896;   68.896;  -32.813
664.293;  -79.902; -319.104; -126.813
664.563; -180.899; -694.104; -648.813
664.833; -199.996; -743.103; -608.814
665.103; -238.094; -730.103; -793.814
665.373; -181.891; -766.103; -806.814
665.643; -154.589; -863.103; -918.815
665.913;   55.314; -534.103; -714.815
666.182;  157.217; -685.102; -719.816
666.452;  423.119;  -22.102;  -89.816
666.722;  -74.878; -724.102; -784.816
666.992; -232.575; -948.102; -921.817
667.261; -163.473; -824.102; -808.817
667.531;  315.730;  134.899;   45.183
667.801;  722.532; -440.101; -412.818
668.070;  414.435;  714.899;  697.182
668.340; -167.962; -883.101; -840.819
668.609;  221.040;  588.900;  301.181
668.879; -117.057; -490.100; -558.819
669.149;  -96.555; -539.100; -516.820
669.418; -195.852; -698.100; -726.820
669.688;  -35.949; -482.100; -666.820
669.957;   98.453; -423.099; -546.821
670.226;  -21.244; -268.099; -331.821
670.496; -166.342; -431.099; -635.822
670.765; -102.039; -418.099; -501.822
671.034; -221.336; -872.099; -828.822
671.304;   29.266;   55.902; -111.823
671.573; -253.331;-1085.098; -957.823
671.842;  111.471; -380.098; -294.823
672.112;   -9.826; -692.098; -586.824
672.381;   33.177; -239.098; -214.824
672.650; -249.121;-1005.097;-1021.825
672.919; -158.718; -631.097; -507.825
673.188; -154.915; -681.097; -878.825
673.457; -265.513;-1101.097;-1143.826
673.726; -143.610; -579.096; -646.826
673.995;  -92.208; -533.096; -479.826
674.265;  -35.005; -263.096; -333.827
674.534;   40.198; -183.096; -235.827
674.802;  -25.400; -618.096; -703.828
675.071; 1617.103; -886.095; -801.828
675.340; 5556.205; -464.095; -339.828
675.609; 1968.608;  103.905;   82.171
675.878;   82.311; -949.095; -893.829
676.147;   83.313;  -26.095;   -8.829
676.416;  155.116; -210.094; -294.830
676.685; 1170.418; 1000.906; -622.830
676.953;  143.221; -603.094; -452.831
677.222;  -26.276; -193.094; -273.831
677.491;   -9.174;  -24.094; -127.831
677.759;   35.129;   11.907;  172.168
678.028;   15.431; -279.093; -222.832
678.297;   24.434;   71.907;  197.168
678.565; -264.663; -898.093; -944.833
678.834;  -53.761; -311.093; -268.833
679.102; -112.758; -411.092; -391.834
679.371; -261.055; -898.092; -727.834
679.639; -225.153; -797.092; -786.834
679.908; -219.950; -794.092; -724.835
680.176; -249.148; -895.091; -941.835
680.445;  -98.045; -346.091; -352.835
680.713;   -8.442;  -58.091;  -23.836
680.982; -132.540; -523.091; -525.836
681.250; -151.037; -578.091; -507.837
681.518; -181.635; -534.090; -751.837
681.787;    5.568; -204.090; -167.837
682.055;  -80.529; -490.090; -422.838
682.323; -246.727; -993.090; -992.838
682.591;   98.076; -216.090; -538.838
682.859;  191.078;    9.911;  -35.839
683.128;   96.781;  232.911;  497.161
683.396; -293.216;-1102.089;-1122.840
683.664;  -27.114; -241.089;   21.160
683.932;   33.889;  144.911;  -76.840
684.200; -133.409; -576.088; -320.841
684.468;  -27.606;  -73.088; -124.841
684.736;  -14.203; -214.088; -175.841
685.004; -237.801;-1024.088; -982.842
685.272; -127.598; -880.088; -774.842
685.540; -112.795; -499.087; -557.843
685.808; -120.593; -651.087; -682.843
686.076; -185.490; -894.087; -969.843
686.343;  -78.288; -601.087; -815.844
686.611;  105.515; -195.087; -224.844
686.879;  762.418; -530.086; -553.844
687.147; 4817.020; -483.086; -480.845
687.414; 1376.223;  -12.086; -169.845
687.682;   11.125; -658.086; -757.846
687.950;  524.928;  259.915;  263.154
688.217;   21.731; -792.085; -760.846
688.485;  -26.667; -632.085; -636.847
688.753;  792.236;  -11.085; -102.847
689.020;  218.138; -820.085; -851.847
689.288; -169.659; -853.084; -787.848
689.555;   -5.356; -195.084; -148.848
689.823;  -63.054; -241.084; -345.849
690.090; -113.151; -546.084; -651.849
690.358; -261.449; -877.084; -897.849
690.625;   54.154;  120.917;   45.150
690.892; -123.543; -403.083; -369.850
691.160;   21.659;   72.917;  -35.850
691.427;   61.462;  141.917;  130.149
691.694; -239.935; -855.083; -929.851
691.962; -262.433;-1177.082;-1060.852
692.229;  104.570;  127.918;   56.148
692.496;  137.572;  130.918;  -49.852
692.763;   54.775; -164.082; -201.853
693.031; -132.622; -739.082; -716.853
693.298;  -70.020; -509.081; -368.853
693.565;  558.583; -155.081; -163.854
693.832; 1827.585;   -5.081;   -9.854
694.099;  156.988; -643.081; -642.855
694.366; -130.509; -882.081; -896.855
694.633; -105.007; -920.080; -633.855
694.900; 1512.296; 4367.920; -114.856
695.167;  643.098; -214.080; -380.856
695.434;  191.301; -646.080; -623.856
695.701;  328.304;  121.921;  -61.857
695.968;  649.606; -365.079; -361.857
696.234; 1637.809; -415.079; -646.858
696.501;15040.711; -776.079; -614.858
696.768; 7322.114; -554.079; -617.858
697.035;  458.817; -632.078; -667.859
697.302;   50.219; -448.078; -552.859
697.568;    9.122; -458.078; -497.859
697.835;  -61.376; -683.078; -624.860
698.102;   -6.773; -498.078; -407.860
698.368;  199.430;  384.923;  396.139
698.635;  -40.068;  -47.077; -424.861
698.901;   11.735; -240.077; -348.861
699.168;  122.338; -534.077; -456.862
699.435;  166.340;  -72.077;  -13.862
699.701; -210.857; -868.076; -764.862
699.968;  -75.255;  144.924; -441.863
700.234; -151.952; -783.076; -822.863
700.500;  -70.449; -448.076; -539.864
700.767;   51.053;   -1.075;   26.136
701.033; -232.444;-1015.075; -963.864
701.299;  -65.142; -450.075; -483.865
701.566;  294.161;  950.925;  763.135
701.832;   82.864;  -31.075;  -76.865
702.098; -197.134;-1054.074;-1034.866
702.365; -169.631;-1098.074;-1030.866
702.631;  -62.529;-1038.074;-1063.867
702.897; 2086.574; -765.074; -676.867
703.163; 3120.877;  348.926;  254.133
703.429;  256.379; -256.073; -273.868
703.695;  -92.018; -796.073; -792.868
703.961;   66.984; -214.073; -210.868
704.227;  -94.513; -630.073; -725.869
704.493;  263.890;  613.927;  510.131
704.759;  -19.308; -565.072; -540.870
705.025;   48.895; -203.072; -194.870
705.291;   -9.202; -666.072; -562.870
705.557;  415.400;  719.928;   34.129
705.823;   16.003; -742.072; -694.871
706.089;  206.505; -307.071; -326.871
706.355;  551.608; -315.071; -244.872
706.620; 8262.511; -776.071; -729.872
706.886;10876.513; -309.071; -362.873
707.152; 1006.716; -818.070; -973.873
707.418;  -99.082;-1153.070;-1186.873
707.683;    9.721; -550.070; -530.874
707.949;  -70.376; -547.070; -578.874
708.215;   63.026; -129.070; -207.874
708.480;   -6.171; -520.069; -420.875
708.746;  199.931;   68.931;   28.125
709.011;  -89.666; -578.069; -612.876
709.277;  -91.063; -538.069; -543.876
709.542;  -36.561; -428.069; -387.876
709.808;   45.342;  -59.068;   89.123
710.073; -138.856; -577.068; -695.877
710.339;   -2.653; -242.068; -228.877
710.604;   85.750; -780.068; -845.878
710.869;  447.052; -277.068; -366.878
711.135; -116.445; -715.067; -628.879
711.400; -139.242; -507.067; -608.879
711.665;  -98.840; -404.067; -479.879
711.931; -122.237; -661.067; -677.880
712.196; -194.535; -876.067; -954.880
712.461;  226.968; -402.066; -490.880
712.726;  150.471; -727.066; -771.881
712.991; -129.027; -647.066; -664.881
713.256;  -70.324; -350.066; -332.882
713.521;  -71.922; -417.065; -381.882
713.787; -100.619; -454.065; -472.882
714.052;  -21.216; -214.065; -400.883
714.317; -177.814;-1045.065; -981.883
714.581; 1466.589; -374.065; -268.883
714.846; 1806.991; -822.064; -888.884
715.111;  278.194;  261.936;  257.116
715.376;  -12.803;  -86.064; -223.885
715.641;  -18.301; -365.064; -367.885
715.906;  408.902;   15.936; -551.885
716.171;  270.004;  221.937;  209.114
716.436;   54.707;  -78.063; -104.886
716.700; -154.790; -818.063; -692.886
716.965; -203.088; -794.063; -807.887
717.230;  -82.085; -339.063; -392.887
717.494;  -13.782;  -40.062; -134.888
717.759; -163.480; -784.062; -640.888
718.024;   55.223;  269.938;  250.112
718.288;  198.525;  685.938;  395.111
718.553; -262.972; -803.062; -977.889
718.817; -223.169; -883.061; -899.889
719.082;    0.833; -115.061; -125.890
719.346; -191.864;-1000.061; -947.890
719.611;  -33.262; -300.061; -255.891
719.875; -158.359; -568.060; -537.891
720.140;  -94.756; -453.060; -603.891
720.404;  115.746; -136.060; -249.892
720.668; 1224.349; -475.060; -411.892
720.933;  491.951;  146.940;  137.108
721.197; -143.246; -667.059; -600.893
721.461; -232.743; -851.059; -826.893
721.725;   10.859;  -21.059; -250.894
721.990;  -21.438; -284.059; -204.894
722.254;  -32.836;  -26.059; -108.894
722.518;  -95.733; -286.058; -442.895
722.782; -156.530; -743.058; -594.895
723.046;  288.572;  614.942;  570.105
723.310;  105.175;  374.942;  210.104
723.574; -115.823; -654.058; -614.896
723.838; -145.520; -576.057; -642.897
724.102;  -55.117; -226.057; -239.897
724.366; -256.515;-1032.057; -978.897
724.630; -156.612; -749.057; -571.898
724.894; -132.109; -722.057; -514.898
725.158;   25.093;   38.944; -295.898
725.422;  -71.104; -394.056; -327.899
725.685; -111.402; -441.056; -349.899
725.949; -143.099; -566.056; -519.900
726.213; -114.796; -732.056; -811.900
726.477;  227.106;-1020.055; -933.900
726.740;  248.309; -274.055; -104.901
727.004;  550.411; -384.055; -510.901
727.268; 4591.514; -442.055; -400.901
727.531; 1167.717; -961.055; -775.902
727.795;  -61.381; -713.054; -673.902
728.059; -109.078; -552.054; -557.903
728.322; -130.576; -841.054; -669.903
728.586;   32.927; -692.054; -701.903
728.849; -132.770; -695.053; -756.904
729.112; -200.468; -812.053; -912.904
729.376; -202.865; -959.053; -905.904
729.639; -116.663; -536.053; -536.905
729.903; -170.660; -733.053; -699.905
730.166;  -42.457; -437.052; -399.906
730.429;   -3.255; -317.052; -468.906
730.693; -100.552; -355.052; -894.906
730.956;  432.651;  810.948;  651.093
731.219; 1018.353; -310.052; -103.907
731.482;  168.756;-1003.051; -894.907
731.745;   99.258; -794.051; -935.908
732.009;   74.961;  -30.051;   50.092
732.272; -166.436; -904.051; -771.909
732.535;  -31.734; -300.051; -310.909
732.798; -255.731;-1083.050;-1166.909
733.061;  -87.729; -430.050; -456.910
733.324;   59.074;   31.950; -180.910
733.587;  194.077;  290.950;  365.090
733.850; -101.921; -973.049;-1050.911
734.113;  114.982;   33.951;   32.089
734.376;   30.584; -328.049; -447.912
734.639;  479.787; 1188.951; 1011.088
734.901;  115.590; -180.049; -402.912
735.164;  820.092; -883.048; -837.913
735.427; 1867.995; -166.048; -355.913
735.690;  203.497; -205.048; -234.913
735.952;  -96.700; -923.048; -925.914
736.215;  -73.297;-1113.048;-1009.914
736.478;   36.405; -771.047; -774.915
736.740;  406.408;   33.953;  129.085
737.003; 1179.111; -658.047; -672.915
737.266; 5900.213;  -94.047;   46.084
737.528;  600.316; -682.047; -660.916
737.791;  467.318; -316.046; -327.916
738.053; 1354.921;  465.954;  649.083
738.316;16132.724; -162.046; -136.917
738.578;10046.626; -770.046; -736.918
738.841;  640.629; -382.046; -446.918
739.103;  291.731; -875.045; -777.918
739.365;  777.734;   79.955;  -69.919
739.628;  -26.063; -884.045; -805.919
739.890;  -26.161; -758.045; -710.919
740.152;  -65.358; -692.044; -754.920
740.414;    7.244; -408.044; -359.920
740.677;  -76.853; -785.044; -634.921
740.939;  -84.950; -587.044; -487.921
741.201;  419.152; -432.044; -572.921
741.463;    8.055; -689.043; -745.922
741.725;   59.157;  -21.043; -199.922
741.987;  137.860;  220.957;  116.078
742.249;    6.863; -751.043; -859.923
742.511;  347.865; -703.043; -794.923
742.773;   -1.032; -546.042; -546.924
743.035;  283.971;  796.958;  533.076
743.297;  -90.327; -963.042;-1013.924
743.559; 1105.376; -278.042; -262.925
743.821;   54.078; -735.042; -744.925
744.083;   42.181;  -44.041; -149.925
744.345; -156.516; -869.041; -892.926
744.607;  128.486;   75.959;  122.074
744.868;  -74.211; -490.041; -554.927
745.130; -172.709; -994.041;-1008.927
745.392;   88.894;   -1.040;  -44.927
745.653;   20.497; -411.040; -378.928
745.915;  330.499;  896.960;  631.072
746.177;  142.302;   35.960;  -43.928
746.438;   18.504; -428.040; -543.929
746.700; -120.793; -947.039; -988.929
746.961;    0.310; -659.039; -740.930
747.223;  209.312; -190.039;  -74.930
747.484;  128.915; -391.039; -471.930
747.746;  240.117;  -23.038; -106.931
748.007;  137.820; -647.038; -689.931
748.269;  501.523; -468.038; -440.931
748.530;  674.725; -852.038; -638.932
748.791;  398.928; -354.038; -420.932
749.053;  767.031;  286.963;  163.067
749.314;  744.233; -236.037; -169.933
749.575;  780.736; -945.037; -905.933
749.836; 1327.538; -217.037;   86.066
750.098; 4332.741;  -60.037;  -21.934
750.359;53039.844;  414.964;  555.066
750.620;12694.846; -121.036; -220.935
750.881; 1577.049; -585.036; -513.935
751.142; 2163.651; -950.036; -938.936
751.403;25455.754; -789.036; -705.936
751.664; 9887.257;-1034.035; -999.936
751.925;  823.059; -175.035; -262.937
752.186;  463.462; -298.035; -278.937
752.447;  238.964; -590.035; -445.937
752.708;  111.867; -532.035; -648.938
752.969;    8.870; -566.034; -576.938
753.230;    7.372; -777.034; -672.939
753.491;   32.875; -650.034; -631.939
753.751;  159.177;  109.966;   19.061
754.012;  240.480;  258.967;  181.060
754.273;  141.483; -174.033;  -71.940
754.534;   49.585; -487.033; -580.940
754.794; -155.612; -926.033; -911.941
755.055;  369.990; 1051.967;  881.059
755.316;  -57.907; -700.032; -566.942
755.576;   -9.404; -606.032; -576.942
755.837;  -42.002; -527.032; -695.942
756.097;  -66.799; -530.032; -564.943
756.358; -127.396; -725.032; -770.943
756.618;  -60.994; -705.031; -641.943
756.879;   29.909; -254.031; -349.944
757.139; -231.789;-1098.031;-1116.944
757.400;  -91.486; -538.031; -553.945
757.660;    6.717; -365.031; -401.945
757.920;   66.819; -266.030; -228.945
758.181;   -9.778; -468.030; -351.946
758.441; -155.876; -870.030; -809.946
758.701;    4.727; -308.030; -215.946
758.961;  -19.470; -220.030; -278.947
759.222;  -45.468; -574.029; -502.947
759.482; -140.365; -683.029; -723.948
759.742; -130.163; -706.029; -547.948
760.002;   71.140;  -83.029; -143.948
760.262;  108.743;   50.972;  182.051
760.522;  -33.555; -498.028; -574.949
760.782;  -70.352; -738.028; -612.949
761.042;  -43.350; -618.028; -573.950
761.302;  131.753;   55.972;  -18.950
761.562;  137.956; -164.027; -154.951
761.822;  170.258; -710.027; -551.951
762.082;  -92.239;-1104.027;-1093.951
762.342;  167.764; -328.027; -403.952
762.601;  149.666; -567.027; -506.952
762.861;  626.569; -281.026; -207.952
763.121;  719.471; -406.026; -411.953
763.381;12700.974; -499.026; -485.953
763.640;12110.777; -139.026; -307.954
763.900;  654.879; -242.026; -203.954
764.160;  179.382; -458.025; -491.954
764.419;  -57.116; -726.025; -782.955
764.679;  -96.313; -795.025; -726.955
764.939;   15.390; -124.025; -210.955
765.198;  -79.908; -608.025; -563.956
765.458; -122.505; -710.024; -612.956
765.717; -144.003; -454.024; -590.957
765.976;  -74.500; -428.024; -411.957
766.236; -105.997; -475.024; -610.957
766.495;   96.105;  260.977;   73.042
766.755; -168.692;-1090.023; -987.958
767.014;   27.110; -594.023; -665.958
767.273;  -61.687; -373.023; -397.959
767.533;  -16.184; -228.023; -307.959
767.792;  -10.182; -151.022; -188.960
768.051;  -86.379; -228.022; -276.960
768.310; -103.376; -546.022; -650.960
768.569;   84.026; -161.022;    4.039
768.828;  -22.471; -285.022; -363.961
769.088; -161.869;-1050.021; -942.961
769.347; -147.166; -755.021; -599.962
769.606; -163.563; -876.021; -857.962
769.865; -218.561;-1016.021;-1033.963
770.124;    7.342; -411.021; -336.963
770.383;  -81.356; -778.020; -910.963
770.641;   29.047; -398.020; -400.964
770.900; -119.150; -953.020; -846.964
771.159;  -79.748; -851.020; -951.964
771.418;  -49.545; -917.020; -779.965
771.677;  237.257; -224.019; -293.965
771.936;  188.760; -794.019; -865.966
772.194; 3763.163; -465.019; -437.966
772.453;15568.665; -213.019; -391.966
772.712; 1234.968;  416.982;  329.033
772.970;  251.270;   32.982;   63.033
773.229;  202.173;  -22.018;  102.033
773.488; -102.624; -814.018; -770.968
773.746;  184.978;  296.982;  335.032
774.005;   68.281;  190.983;  -22.969
774.263;   84.484;  243.983;  177.031
774.522; -141.414; -422.017; -548.969
774.780; -117.411; -484.017; -417.970
775.039; -155.109; -551.017; -531.970
775.297;   -0.406; -135.016; -351.970
775.555; -142.803; -489.016; -612.971
775.814; -196.801; -618.016; -570.971
776.072; -178.498; -749.016; -740.971
776.330; -142.296; -630.016; -520.972
776.589; -201.393; -703.015; -721.972
776.847; -203.290; -645.015; -624.973
777.105; -277.888;-1016.015;-1032.973
777.363; -107.685; -459.015; -454.973
777.621; -224.383; -660.015; -717.974
777.879;   13.420;  -42.014;   32.026
778.138; -162.277; -554.014; -717.974
778.396; -140.075; -585.014; -526.975
778.654; -268.172;-1015.014; -970.975
778.912; -107.770; -269.014; -371.976
779.170; -203.467; -880.013; -803.976
779.427; -255.164; -922.013; -897.976
779.685; -206.162; -880.013; -832.977
779.943; -146.159; -654.013; -593.977
780.201; -274.656; -964.012; -883.978
780.459; -163.954; -651.012; -610.978
780.717; -111.051; -440.012; -390.978
780.974; -152.049; -449.012; -490.979
781.232;  -80.246; -358.012; -338.979
781.490; -143.743; -551.011; -472.979
781.747; -147.341; -555.011; -476.980
782.005;   98.062;  462.989;  254.020
782.263; -280.036; -542.011;-1004.981
782.520;  -93.633; -326.011; -501.981
782.778; -262.630;-1013.010;-1051.981
783.035; -275.928; -962.010; -938.982
783.293;  -71.525; -248.010; -206.982
783.550;  -21.523; -134.010; -198.982
783.808; -208.420; -764.010; -776.983
784.065; -229.317; -745.009; -874.983
784.322;  -31.415;   25.991;  -86.984
784.580; -213.512; -915.009; -771.984
784.837; -143.810; -392.009; -466.984
785.094; -198.007; -783.009; -762.985
785.352;  -88.604; -304.008; -404.985
785.609; -157.702; -934.008; -839.985
785.866;  -96.899; -345.008; -401.986
786.123;  -92.397; -639.008; -583.986
786.380; -160.094; -665.008; -604.987
786.637;  -29.991; -225.007; -380.987
786.895;  -49.089; -456.007; -543.987
787.152;   -8.286; -135.007; -267.988
787.409;  -18.883; -123.007; -225.988
787.666; -111.681; -299.006; -378.988
787.923; -163.278; -616.006; -695.989
788.179; -156.476; -551.006; -584.989
788.436; -164.673; -585.006; -585.990
788.693;    3.530;  -92.006;  -87.990
788.950;  288.332; -125.005; -112.990
789.207;  284.135; -381.005; -372.991
789.464;  -40.063; -161.005; -301.991
789.720;   63.240;  150.995;  110.009
789.977; -272.257;-1003.005; -671.992
790.234;   20.945;   44.996;  -66.992
790.490; -248.652; -884.004;-1031.993
790.747;   24.250;  -85.004;   22.007
791.004;  -42.047; -426.004; -348.993
791.260; -102.044; -430.004; -560.994
791.517; -141.642; -843.003; -788.994
791.773;  -48.939; -379.003; -342.994
792.030; -193.537; -596.003; -660.995
792.286; -123.634; -686.003; -636.995
792.543;   33.169;  -74.002; -159.995
792.799;  -66.129; -584.002; -382.996
793.055; -278.626;-1179.002;-1210.996
793.312; -145.923; -827.002; -816.997
793.568; -118.121; -746.002; -599.997
793.824;   35.682; -226.001; -284.997
794.081;   56.684; -447.001; -508.998
794.337;  140.487; -664.001; -561.998
794.593; 2597.490; -319.001; -271.999
794.849;10125.292; -746.001; -772.999
795.105;  540.895; -270.000; -261.999
795.361;   58.597; -490.000; -457.000
795.617; -108.300; -875.000; -945.000
795.873;  -80.500; -360.000; -407.000
796.129;  -52.800; -368.000; -306.000
796.385;   26.800; -124.000; -156.000
796.641;  178.900;  412.000;  550.000
796.897; -112.100; -666.000; -635.000
797.153;  175.400;  453.000;  357.000
797.409; -161.600; -785.000; -868.000
797.665;  -99.400; -625.000; -732.000
797.921; -127.300; -775.000; -762.000
798.176;  -97.600; -744.000; -747.000
798.432;  -90.300; -824.000; -596.000
798.688; -152.300;-1174.000;-1078.000
798.943;  156.800; -165.000; -147.000
799.199;  -61.500;-1005.000; -959.000
799.455;  430.000;  369.000;  316.000
799.710;  175.100; -813.000; -380.000
799.966;  469.500; -162.000; -160.000
800.221;  685.500; -638.000; -721.000
800.477;16167.700; -743.000; -710.000
800.732;11553.300; -773.000; -800.000
800.988; 1015.000;  205.000;  -19.000
801.243; 3237.700; -454.000; -344.000
801.498;11005.100; -814.000; -739.000
801.754;  690.300; -289.000; -163.000
802.009;  170.800; -257.000; -335.000
802.264;  -98.300; -967.000;-1033.000
802.520;   56.800;  222.000;   -3.000
802.775;  -38.700; -524.000; -359.000
803.030;  184.800;  395.000;  356.000
803.285; -187.600; -840.000; -903.000
803.540; -108.800; -686.000; -699.000
803.795;  -74.100; -648.000; -583.000
804.051;    6.600; -279.000; -346.000
804.306;   79.700;  168.000;  128.000
804.561;  307.900;  451.000;  362.000
804.816;  339.100;  714.000;  861.000
805.071;   71.000; -185.000; -280.000
805.325;  350.200; -257.000; -427.000
805.580; -164.300; -841.000; -877.000
805.835;   17.600; -204.000; -297.000
806.090; -121.700; -760.000; -676.000
806.345;   16.300; -344.000; -264.000
806.600;   28.400; -549.000; -632.000
806.854;  -12.900; -408.000; -538.000
807.109;   29.900; -493.000; -577.000
807.364;   46.400; -407.000; -328.000
807.618;   36.400; -415.000; -381.000
807.873;   81.500; -470.000; -494.000
808.128;  164.200; -257.000; -518.000
808.382;  186.400; -224.000; -332.000
808.637;  153.200; -440.000; -511.000
808.891;  320.900; -257.000; -180.000
809.146;  144.600; -902.000; -794.000
809.400;  424.000; -848.000; -923.000
809.654;  488.700; -779.000; -551.000
809.909;  759.600; -841.000; -927.000
810.163;11992.300; -813.000; -651.000
810.418;24800.600; -940.000; -861.000
810.672; 1582.200; -685.000; -690.000
810.926; 1145.200; -993.000; -973.000
811.180; 2414.100; -439.000; -372.000
811.434;50840.300;  240.000;  135.000
811.689;16726.000; -231.000; -365.000
811.943;  922.500; -936.000; -953.000
812.197;  535.700; -893.000; -671.000
812.451;  191.300; -379.000; -514.000
812.705;  -28.900; -809.000; -619.000
812.959;   21.900; -263.000; -388.000
813.213;   29.400; -283.000; -209.000
813.467;  223.700;  470.000;  253.000
813.721; -157.500; -764.000; -792.000
813.975; -195.700; -826.000; -877.000
814.229;  125.400;  430.000;  353.000
814.482; -101.200; -517.000; -566.000
814.736; -177.300; -766.000; -744.000
814.990; -223.100; -779.000; -872.000
815.244;  -41.300; -228.000; -285.000
815.497;  -92.300; -636.000; -601.000
815.751;   19.200; -141.000;   82.000
816.005; -127.000; -470.000; -586.000
816.258;  -42.900; -510.000; -363.000
816.512; -152.800; -693.000; -610.000
816.766;  105.000;  121.000;  157.000
817.019;   97.200;  148.000;  149.000
817.273; -189.100;-1000.000; -802.000
817.526;  -14.300; -206.000; -173.000
817.779;  -55.500;-1049.000; -960.000
818.033; -137.400; -693.000; -807.000
818.286; -174.900; -725.000; -792.000
818.540; -105.500; -403.000; -403.000
818.793; -108.400; -402.000; -489.000
819.046; -144.700; -582.000; -520.000
819.299;  -10.100; -157.000; -166.000
819.553; -142.400; -552.000; -592.000
819.806; -232.200;-1016.000; -838.000
820.059;  -94.000; -334.000; -354.000
820.312;   77.700;  152.000;  185.000
820.565;   34.200;  110.000;  -27.000
820.818;  -68.200;  -59.000; -173.000
821.071; -258.500;-1041.000; -957.000
821.324; -120.600; -536.000; -540.000
821.577; -146.000; -457.000; -483.000
821.830;  -75.300; -270.000; -172.000
822.083; -219.900; -733.000; -288.000
822.336;  -37.900; -261.000; -167.000
822.589; -226.200; -805.000; -688.000
822.842; -239.400; -875.000; -770.000
823.094; -328.200;-1076.000;-1114.000
823.347; -214.800; -925.000; -729.000
823.600;  107.400;  402.000;  187.000
823.853;  -19.300; -311.000; -267.000
824.105;  -84.900; -331.000; -575.000
824.358; -176.100; -617.000; -716.000
824.611;   66.900;  234.000;   40.000
824.863;  -87.900; -612.000; -591.000
825.116;  141.900;  -33.000;   27.000
825.368;  167.200; -366.000; -372.000
825.621;  256.600; -186.000; -240.000
825.873;  103.600; -704.000; -737.000
826.126;  992.300; -669.000; -641.000
826.378;17704.700; -389.000; -505.000
826.630; 3343.300; -890.000; -898.000
826.883;   40.100; -754.000; -693.000
827.135;   86.300; -279.000; -270.000
827.387; -184.700; -893.000; -839.000
827.639;   -8.200;  -86.000;   32.000
827.892; -196.400; -742.000; -582.000
828.144; -228.400; -848.000; -804.000
828.396;   23.800;  104.000;  -80.000
828.648; -148.000; -440.000; -333.000
828.900; -187.300; -702.000; -795.000
829.152; -164.700; -684.000; -683.000
829.404;  -48.800; -215.000; -267.000
829.656;   49.400;  321.000;  214.000
829.908;   40.600;  393.000;  229.000
830.160; -287.900;-1064.000;-1047.000
830.412; -108.900; -481.000; -430.000
830.664; -194.500; -557.000; -665.000
830.916;  -77.800; -268.000; -206.000
831.167; -298.000;-1073.000; -951.000
831.419; -168.400; -623.000; -566.000
831.671; -220.600; -764.000; -809.000
831.923;  -96.000; -311.000; -447.000
832.174;  -97.600; -273.000; -331.000
832.426; -164.900; -493.000; -582.000
832.678; -314.100;-1043.000;-1091.000
832.929; -265.500; -947.000; -935.000
833.181;  -97.200; -575.000; -677.000
833.432;  -62.800;  -59.000; -186.000
833.684;   12.200;  112.000;  -27.000
833.935; -140.900; -610.000; -566.000
834.187; -194.900; -829.000; -823.000
834.438;  -29.600;  -58.000;  -25.000
834.689;  -40.600; -255.000; -123.000
834.941;  -26.500; -343.000; -244.000
835.192; -140.400; -590.000; -533.000
835.443;  -91.400; -419.000; -506.000
835.695;   29.800;  138.000;  -16.000
835.946; -119.000; -608.000; -378.000
836.197; -143.400; -599.000; -622.000
836.448; -112.200; -528.000; -395.000
836.699;  -75.200; -253.000; -341.000
836.950;   66.800;   72.000;    7.000
837.201; -248.500;-1003.000; -987.000
837.452;  -60.500; -356.000; -170.000
837.703; -206.100; -791.000; -737.000
837.954;  -14.800; -205.000; -365.000
838.205; -139.400;-1029.000;-1008.000
838.456;  326.000; -196.000; -282.000
838.707;   36.000; -423.000; -519.000
838.958;   16.200; -634.000; -647.000
839.209;  480.000;   18.000;   40.000
839.460;  215.600; -439.000; -201.000
839.710;  304.400; -135.000; -297.000
839.961;  734.300;  730.000;  612.000
840.212;  531.800; -382.000; -497.000
840.462; 1890.700; -328.000; -277.000
840.713;28525.100; -571.000; -536.000
840.964; 9256.900;  -62.000; -143.000
841.214;  826.200; -384.000; -624.000
841.465;  926.300; -214.000; -141.000
841.715;  794.100; -417.000; -380.000
841.966; 1140.900; -746.000; -685.000
842.216;17309.900; -330.000; -431.000
842.466;51768.500; -169.000; -313.000
842.717; 2232.600; -964.000; -952.000
842.967;  573.000; -635.000; -641.000
843.217;  455.200;   20.000;   28.000
843.468;  153.400; -104.000; -132.000
843.718;  -42.800; -718.000; -726.000
843.968; -117.200; -837.000; -765.000
844.218;   54.900; -315.000; -262.000
844.469;  -76.500; -577.000; -561.000
844.719; -140.900; -537.000; -682.000
844.969; -110.900; -550.000; -580.000
845.219; -249.900; -814.000; -862.000
845.469;  -67.200; -392.000; -342.000
845.719; -228.900; -792.000; -884.000
845.969;   56.400;  119.000;  174.000
846.219; -172.100; -738.000; -720.000
846.469;  134.200;  464.000;  432.000
846.718;  -39.000; -115.000;   31.000
846.968; -217.300; -827.000; -827.000
847.218;  -31.300; -224.000; -371.000
847.468; -120.600; -586.000; -555.000
847.718; -235.100; -827.000; -798.000
847.967; -225.300; -826.000; -915.000
848.217; -115.000; -449.000; -569.000
848.467;  -78.000; -405.000; -376.000
848.716; -165.000; -708.000; -725.000
848.966;   19.700; -372.000; -358.000
849.215;  -91.100; -428.000; -419.000
849.465; -126.900; -785.000; -615.000
849.714; -244.600;-1132.000;-1150.000
849.964; -106.600; -551.000; -613.000
850.213;  -23.200; -393.000; -355.000
850.463;  208.700;  137.000;  340.000
850.712;  -17.700; -542.000; -567.000
850.961;   25.200; -739.000; -678.000
851.211;  129.300; -513.000; -504.000
851.460;  211.000; -635.000; -650.000
851.709;  859.400;  -25.000;   18.000
851.958;16935.200; -912.000; -750.000
852.208;16545.500; -859.000; -879.000
852.457;  662.100; -181.000;  -13.000
852.706;   89.000; -791.000; -823.000
852.955;    9.700; -507.000; -528.000
853.204;  -74.500; -521.000; -461.000
853.453;  -97.100; -418.000; -458.000
853.702; -211.700; -660.000; -750.000
853.951; -140.800; -532.000; -520.000
854.200; -168.200; -613.000; -562.000
854.449; -200.200; -695.000; -661.000
854.698; -148.400; -340.000; -279.000
854.946;  -47.400; -181.000; -284.000
855.195; -258.600; -843.000; -868.000
855.444; -112.200; -395.000; -420.000
855.693; -198.200; -345.000; -432.000
855.941; -134.200; -387.000; -516.000
856.190;  -88.000; -256.000; -382.000
856.439; -189.700; -652.000; -703.000
856.687;  -15.900;  -99.000;  -72.000
856.936; -169.200; -621.000; -323.000
857.184; -303.900;-1067.000;-1020.000
857.433; -148.800; -423.000; -512.000
857.681; -246.400; -989.000; -953.000
857.930;  -71.400; -282.000; -433.000
858.178; -261.900; -856.000; -929.000
858.427; -221.700; -802.000; -781.000
858.675; -184.500; -377.000; -544.000
858.923; -154.400; -527.000; -819.000
859.172; -311.100;-1094.000;-1070.000
859.420; -135.600; -339.000; -239.000
859.668; -209.000; -624.000; -628.000
859.916;   12.000;  109.000;  115.000
860.164; -149.700; -699.000; -603.000
860.413;  499.300; -878.000; -696.000
860.661;  285.700; -709.000; -577.000
860.909; -109.900; -339.000; -325.000
861.157; -105.300; -277.000; -444.000
861.405; -203.300; -534.000; -670.000
861.653;   80.700;  310.000;  310.000
861.901;  330.400; -543.000; -613.000
862.149;  -34.200; -801.000; -824.000
862.396;  -76.100; -297.000; -187.000
862.644; -129.100; -368.000; -347.000
862.892;   21.400;   98.000;  138.000
863.140; -187.700; -549.000; -530.000
863.388; -249.200; -815.000; -759.000
863.635; -180.800; -642.000; -601.000
863.883;   46.400;  231.000;  190.000
864.131; -130.200; -288.000; -357.000
864.378; -222.000; -675.000; -540.000
864.626; -161.500; -347.000; -415.000
864.873; -193.000; -556.000; -505.000
865.121; -220.700; -714.000; -799.000
865.368;  -32.200; -173.000;   75.000
865.616;  -30.400;  -33.000;  -40.000
865.863; -100.800; -462.000; -506.000
866.111; -240.000; -795.000; -824.000
866.358;   65.900; -426.000; -420.000
866.605; 3663.500;  -64.000; -804.000
866.853; 2920.500; -621.000; -537.000
867.100; -105.500; -728.000; -775.000
867.347; -151.600; -672.000; -611.000
867.594; -120.000; -740.000; -714.000
867.841;  190.300;   97.000;   17.000
868.089; -237.200; -746.000; -698.000
868.336; -129.100; -477.000; -420.000
868.583; -234.300; -637.000; -741.000
868.830;  -35.800; -131.000; -170.000
869.077; -263.500; -859.000; -787.000
869.324; -188.400; -502.000; -458.000
869.571; -170.100; -398.000; -430.000
869.818; -167.900; -485.000; -439.000
870.065; -132.600; -439.000; -513.000
870.311; -161.900; -456.000; -542.000
870.558; -154.200; -332.000; -311.000
870.805;  -75.400; -320.000; -384.000
871.052; -142.300; -494.000; -369.000
871.298;  -32.000; -204.000; -131.000
871.545;  -50.900; -151.000; -185.000
871.792; -127.600; -173.000; -222.000
872.038;  -43.200;   43.000; -126.000
872.285; -157.000; -496.000; -387.000
872.532; -132.500; -357.000; -387.000
872.778;  118.200;  556.000;  403.000
873.025;  -94.400; -384.000; -359.000
873.271;  143.500;  501.000;  578.000
873.517;    5.700; -133.000; -209.000
873.764;    0.600; -193.000;  -80.000
874.010;  -56.700; -143.000; -230.000
874.257;  -20.700;  123.000;   90.000
874.503; -206.500; -579.000; -479.000
874.749;  -38.400;   31.000;  275.000
874.995;  -54.000;  -80.000;  -20.000
875.242; -171.100; -540.000; -478.000
875.488; -139.900; -414.000; -439.000
875.734;  -74.500; -106.000; -234.000
875.980;  339.600; -872.000;-1032.000
876.226;  536.900; -157.000; -255.000
876.472;   49.500;  343.000;  237.000
876.718;    3.100;  184.000;  158.000
876.964;  -27.200;   56.000;   55.000
877.210; -187.200; -547.000; -677.000
877.456; -199.500; -630.000; -557.000
877.702; -284.600; -821.000; -832.000
877.948; -143.000; -377.000; -497.000
878.193;  121.100;  361.000;  255.000
878.439; -130.300; -487.000; -472.000
878.685; -119.100; -272.000; -343.000
878.931; -206.400; -618.000; -676.000
879.176;  -99.700; -201.000; -201.000
879.422; -288.300; -933.000; -820.000
879.668;  144.500;   10.000;   79.000
879.913;  248.400;   53.000;  137.000
880.159;  -57.000; -112.000;  -17.000
880.404;  -48.400; -152.000; -162.000
880.650;   -4.900;   91.000;  141.000
880.895; -277.800; -670.000; -710.000
881.141; -170.400; -454.000; -428.000
881.386; -211.000; -503.000; -658.000
881.631; -111.700; -311.000; -166.000
881.877;   -0.700;  112.000;  -13.000
882.122; -237.400; -684.000; -600.000
882.367; -109.000; -136.000; -186.000
882.612;  -68.200;  -80.000; -176.000
882.858; -279.100; -877.000; -823.000
883.103; -124.700; -297.000; -267.000
883.348; -241.900; -759.000; -852.000
883.593; -211.100; -677.000; -602.000
883.838;  -43.400; -311.000;  -24.000
884.083;  100.000;  353.000;  288.000
884.328; -135.600; -564.000; -545.000
884.573;  -37.900; -196.000; -143.000
884.818;  406.300; -694.000; -531.000
885.063;  249.600; -348.000; -315.000
885.308; -149.200; -475.000; -398.000
885.553;   69.400;  245.000;  325.000
885.797; -209.200; -545.000; -615.000
886.042;  -40.600;    8.000;   58.000
886.287; -101.900; -253.000; -211.000
886.532;  -28.300;   26.000;  204.000
886.776; -142.800; -407.000; -525.000
887.021; -208.800; -621.000; -574.000
887.265; -238.000; -685.000; -689.000
887.510; -222.300; -557.000; -496.000
887.755; -101.600; -194.000; -164.000
887.999; -191.600; -552.000; -575.000
888.244;  -62.400;  -58.000;  161.000
888.488;   73.400;  371.000;  393.000
888.732; -173.600; -368.000; -520.000
888.977; -187.700; -622.000; -567.000
889.221; -255.600; -683.000; -659.000
889.465; -174.200; -422.000; -566.000
889.710; -109.200;  -56.000; -299.000
889.954;   90.000;  579.000;  467.000
890.198; -232.800; -584.000; -707.000
890.442; -225.900; -716.000; -712.000
890.687; -284.000; -800.000; -753.000
890.931; -124.600; -273.000; -210.000
891.175; -214.700; -502.000; -500.000
891.419;  -79.100; -105.000; -110.000
891.663; -111.400; -239.000; -112.000
891.907; -261.800; -801.000; -545.000
892.151; -270.100; -920.000; -815.000
892.395; -151.800; -274.000; -387.000
892.638;   14.600;  408.000;  291.000
892.882; -283.400; -780.000; -867.000
893.126;   96.900;  758.000;  558.000
893.370;  -95.900; -167.000; -168.000
893.614; -251.200; -714.000; -715.000
893.857; -121.900; -183.000; -197.000
894.101; -191.100; -527.000; -631.000
894.345;  -15.200;  300.000;  150.000
894.588;  133.100;  569.000;  380.000
894.832;  -89.700; -178.000;  -84.000
895.075;  -62.400;   15.000;  -92.000
895.319; -175.300; -552.000; -420.000
895.563; -169.500; -413.000; -353.000
895.806; -223.600; -628.000; -741.000
896.049;  -59.700; -576.000; -368.000
896.293;  228.100;  527.000;  405.000
896.536; -106.500; -465.000; -468.000
896.779;  -41.000; -149.000;   -1.000
897.023; -226.300; -751.000; -714.000
897.266;   19.000;  325.000;  269.000
897.509; -283.700; -900.000; -901.000
897.752;  -29.300;  149.000;  171.000
897.996; -295.900; -972.000; -864.000
898.239;  -20.000;  168.000;  102.000
898.482; -163.200; -431.000; -453.000
898.725;   21.800;  101.000;   53.000
898.968; -257.700; -609.000; -744.000
899.211; -162.900; -513.000; -361.000
899.454; -204.700; -633.000; -539.000
899.697;  -67.900;   90.000;  -43.000
899.940; -252.300; -761.000; -757.000
900.182; -110.900; -335.000; -405.000
900.425; -115.300; -150.000; -298.000
900.668;   68.300;  491.000;  350.000
900.911; -147.300; -292.000; -345.000
901.154;  -26.700;  141.000;   -3.000
901.396; -206.100; -407.000; -412.000
901.639; -176.300; -430.000; -496.000
901.882; -289.600; -790.000; -809.000
902.124;  -89.800;  -29.000; -143.000
902.367; -151.500; -315.000; -361.000
902.609; -205.400; -476.000; -453.000
902.852; -106.000; -108.000; -260.000
903.094; -140.300; -458.000; -337.000
903.337;  -39.800;  -26.000;   53.000
903.579; -118.000; -228.000; -441.000
903.821; -237.400; -597.000; -744.000
904.064;   -3.400;   85.000;  127.000
904.306;  -84.200; -126.000; -166.000
904.548; -120.000; -152.000; -366.000
904.790; -119.800; -195.000; -340.000
905.033; -179.100; -625.000; -577.000
905.275; -186.100; -513.000; -524.000
905.517;  116.700;  468.000;  256.000
905.759; -106.100; -667.000; -761.000
906.001; -138.500; -322.000; -369.000
906.243;  -56.300; -162.000; -224.000
906.485;  279.700; -265.000; -207.000
906.727;  149.900; -499.000; -542.000
906.969;  -19.500;  -30.000; -135.000
907.211;  217.000; -316.000; -382.000
907.453;  473.200; -188.000; -237.000
907.695;   37.700; -158.000; -385.000
907.936;  145.700;  818.000;  706.000
908.178;  -56.700;   92.000; -135.000
908.420;  -74.100; -111.000; -162.000
908.662; -225.300; -633.000; -682.000
908.903;  -74.300; -208.000; -123.000
909.145;  -69.200; -240.000; -305.000
909.386;   84.500;  315.000;  280.000
909.628;  147.700;  363.000;  397.000
909.870;   93.500;   29.000;  264.000
910.111; -174.100; -809.000; -949.000
910.353;   63.600; -123.000; -161.000
910.594;   14.000; -574.000; -606.000
910.835;  166.400; -265.000; -326.000
911.077;  260.300; -503.000; -604.000
911.318;  521.300; -505.000; -471.000
911.559;  764.100; -577.000; -880.000
911.801; 2502.500; -284.000; -280.000
912.042;21089.100;  -50.000; -159.000
912.283;45534.300;  404.000;  371.000
912.524; 5764.400; -396.000; -457.000
912.765;  892.200; -193.000;   79.000
913.006;  506.700; -307.000; -338.000
913.247;  133.800; -270.000; -290.000
913.488;   48.800;  -43.000;   30.000
913.729;  -67.700; -373.000; -373.000
913.970;  -58.100;  -96.000; -292.000
914.211;  -79.300; -160.000; -198.000
914.452;  -69.000; -118.000;  -11.000
914.693;  100.500;  510.000;  592.000
914.934;  102.700;  510.000;  440.000
915.175;  -52.400;   53.000;  -95.000
915.415;  -59.700; -137.000;   27.000
915.656;  -64.000;  -28.000;  192.000
915.897; -131.400; -252.000;  -82.000
916.137;  -44.000;   74.000;   -9.000
916.378; -192.600; -573.000; -517.000
916.619; -119.800; -159.000;  -63.000
916.859;    2.800;  303.000;  330.000
917.100;  369.700; 1655.000; 1070.000
917.340;  185.700;  930.000;  728.000
917.581;  137.300;  965.000;  789.000
917.821;  -20.000; -171.000;  143.000
918.061;   69.000; -199.000;  -72.000
918.302;  -76.100; -152.000; -211.000
918.542;    8.700;  -22.000;    3.000
918.782;  123.500;  369.000;  377.000
919.023;  309.100;  360.000;  427.000
919.263; 3528.400; 8131.000;  202.000
919.503; 1718.400; -137.000;  -54.000
919.743; 1125.000;  390.000;  266.000
919.983;  406.700; -134.000;  -26.000
920.223;  120.100;  135.000;   14.000
920.463;  312.900;  631.000;  554.000
920.703;  225.900;   84.000;   39.000
920.943;  240.400; -110.000;   90.000
921.183;  346.100; -414.000; -405.000
921.423;  871.000;  307.000;  546.000
921.663; 1110.900; -174.000; -257.000
921.903; 2574.300;  237.000;  173.000
922.143;15361.300;  372.000;  389.000
922.383;53464.400;  158.000;  115.000
922.622;14673.200; -120.000;  -15.000
922.862; 1800.000;  796.000;  785.000
923.102;  705.000;  -51.000;   33.000
923.341;  332.200;   59.000;   74.000
923.581;  176.900;  450.000;  360.000
923.821;  123.800;  301.000;  398.000
924.060;   87.800;  351.000;  193.000
924.300;  -25.700;  -16.000; -128.000
924.539;   37.200;  584.000;  473.000
924.779;  114.800;  812.000;  597.000
925.018;   10.600;  247.000;  353.000
925.257;   97.800;  595.000;  666.000
925.497;    6.000;  447.000;  412.000
925.736;  -74.800;  -35.000;  102.000
925.975;   80.700;  687.000;  669.000
926.214;  154.200;  907.000;  850.000
926.454;  137.700;  706.000;  757.000
926.693;   22.400;  419.000;  543.000
926.932;  199.000; 1021.000;  825.000
927.171;  230.900; 1107.000; 1044.000
927.410;  193.400; 1144.000;  967.000
927.649;  147.200;  924.000;  742.000
927.888;   68.000;  590.000;  564.000
928.127;   73.000;  680.000;  678.000
928.366;  140.300;  842.000;  826.000
928.605;  165.900;  831.000;  737.000
928.844;  515.000; 1451.000; 1393.000
929.083; 1110.700;  770.000;  613.000
929.321;  562.500; 1335.000; 1359.000
929.560;  284.900; 1158.000; 1122.000
929.799;    9.100;  574.000;  475.000
930.038;  281.100; 1025.000; 1394.000
930.276;  -44.200;  334.000;  397.000
930.515;   73.700;  827.000;  681.000
930.753;   43.300;  614.000;  589.000
930.992;   43.900;  664.000;  717.000
931.230;   69.800;  847.000;  847.000
931.469;  464.700; 2162.000;  892.000
931.707;  234.600;  840.000;  751.000
931.946;  226.600; 1278.000; 1344.000
932.184;  202.100; 1437.000; 1175.000
932.423;  196.300; 1265.000;  963.000
932.661;  288.700; 1296.000; 1428.000
932.899;  119.900;  987.000;  821.000
933.137;   61.000;  754.000;  564.000
933.376;  363.900; 1664.000; 1335.000
933.614;  387.000; 1759.000; 1196.000
933.852;  221.000; 1357.000; 1171.000
934.090;  339.300; 1722.000; 1747.000
934.328;  287.100; 1252.000; 1457.000
934.566;  273.100; 1431.000; 1110.000
934.804;  327.800; 1263.000; 1309.000
935.042;  868.300; 1861.000; 1850.000
935.280; 3126.700; 2088.000; 2063.000
935.518; 2524.600; 2113.000; 2007.000
935.756;  647.100; 2481.000; 2316.000
935.994;  398.300; 1808.000; 1751.000
936.231;  746.800; 2890.000; 2950.000
936.469;  441.000; 2367.000; 2378.000
936.707;  388.100; 2220.000; 2167.000
936.945;  540.200; 2825.000; 2882.000
937.182;  528.700; 2679.000; 2741.000
937.420;  716.900; 3602.000; 3031.000
937.657;  897.400; 3365.000; 3478.000
937.895;  789.200; 3331.000; 3488.000
938.133;  728.900; 3540.000; 3528.000
938.370;  771.600; 3896.000; 4191.000
938.607;  898.500; 4488.000; 4205.000
938.845; 1231.800; 5587.000; 5549.000
939.082; 1112.900; 5387.000; 5177.000
939.320; 1157.700; 5799.000; 5728.000
939.557; 1363.400; 6549.000; 6491.000
939.794; 1533.000; 7285.000; 7097.000
940.031; 1924.400; 8421.000; 8368.000
940.269; 2278.500; 9552.000; 9107.000
940.506; 2338.100;10901.000;10507.000

