
Integration time [ms]: 100.000
Averaging Nr. [scans]: 40
Smoothing Nr. [pixels]: 0
Data measured with spectrometer [name]: 2101013U2
Wave   ;Sample   ;Dark     ;Reference
[nm]   ;[counts] ;[counts] ;[counts] 

394.013;   63.649; -450.257; -315.536
394.305;  187.622; -461.258; -419.536
394.596; 1088.668; -676.269; -527.514
394.887; 2735.335; -796.268; -654.518
395.178; 1058.191;  145.736;   11.476
395.470;   81.527; -210.263; -356.526
395.761;  198.675;  305.734;  394.479
396.052;  276.967; -545.284; -306.489
396.343;  268.687; -557.276; -454.503
396.634;  125.031; -200.279; -290.497
396.926;  122.057; -618.268; -565.517
397.217;  131.542;   11.725;  -17.504
397.508;   60.458; -366.273; -154.507
397.799;   47.031; -555.279; -571.497
398.090;    2.075; -973.280; -902.495
398.381;  127.116;   11.708;  -11.473
398.672;   -8.283; -585.292; -742.473
398.963;   43.237; -348.279; -373.498
399.254;  115.751;   54.709; -209.475
399.545;  -49.803;-1017.266; -883.520
399.836;   71.176; -407.277; -343.501
400.127;   63.992; -205.295; -209.468
400.418;   67.302; -423.274; -392.506
400.709;   67.737; -359.281; -333.493
401.000;   65.280; -268.291; -309.476
401.290;  110.103;  225.698;  115.545
401.581;   83.324; -166.286; -228.485
401.872;   18.764; -542.298; -486.462
402.163;   58.435; -313.296; -252.467
402.454;  113.077; -123.291; -163.475
402.744;   80.726; -844.297; -813.465
403.035;  448.082; -226.293;  -86.471
403.326;  564.545; -366.292; -384.474
403.617;  400.308;  204.701;  165.539
403.907;  261.598; -593.283; -679.490
404.198; 2417.057; -545.307; -599.446
404.489; 6307.953; -618.283; -588.491
404.779; 2159.207; -618.302; -660.456
405.070;  228.485;  -67.304; -174.451
405.360;  350.559; -259.293; -238.472
405.651;  373.243;  125.699;   98.542
405.942;  195.920;  209.714;  127.516
406.232;  278.634; -432.285; -413.487
406.523;  501.927;  641.706;  758.530
406.813;   99.872; -579.286; -644.484
407.104;  350.215;  261.708;  144.527
407.394;  183.585; -604.299; -591.462
407.685;  146.233;  336.715;  222.513
407.975;   82.001; -400.283; -382.490
408.265;  117.742; -134.289; -190.478
408.556;   72.624; -472.291; -459.475
408.846;  170.053;  474.706;  429.530
409.137;   96.375;   -1.288; -216.480
409.427;   52.559; -193.285; -271.487
409.717;   42.036; -776.273; -692.508
410.007;  142.478;    4.715; -170.486
410.298;   90.795; -360.295; -342.469
410.588;   73.531; -495.285; -510.486
410.878;   32.136; -792.287; -873.482
411.168;  133.141; -481.298; -478.463
411.459;  120.171; -295.283; -242.489
411.749;   75.173; -609.292; -507.474
412.039;   58.648; -755.289; -386.480
412.329;  207.569;   40.722;  132.501
412.619;  192.647;  -62.286; -148.485
412.909;  381.520;  639.711;  594.521
413.199;  340.800; -130.280; -251.495
413.490;  423.535;  521.710;  352.523
413.780;  141.754;-1013.279; -913.496
414.070;  336.563;  -46.276;  235.497
414.360;  367.565; -729.278; -666.498
414.650;  424.332; -726.288; -688.482
414.940;  544.004; -538.280; -441.496
415.230;  930.554;   50.712;   74.519
415.520; 6146.767;  155.730;   66.486
415.809;23988.887; -305.281; -125.493
416.099;18780.529; -388.277; -229.501
416.389; 5208.150;  435.726;  236.494
416.679; 3087.681;   91.738;   85.473
416.969;  546.866; -527.287; -503.483
417.259;  588.931;  341.721;  171.503
417.549;  706.835;  522.718;  318.508
417.838; 1650.885; -205.268; -147.518
418.128; 5471.965;  650.710;  492.522
418.418; 4648.843; -491.272; -579.509
418.708; 3148.875;    9.726;  -48.506
418.997;11642.771; -474.275; -480.505
419.287;12287.657; -733.273; -790.507
419.577;11530.820; -160.283; -123.489
419.866;37937.977; -588.277; -498.501
420.156;39148.738; -242.270;  -55.513
420.446; 7160.848; -112.263;  -26.526
420.735;  881.157; -376.271; -446.512
421.025;  846.589; 1830.722;  315.502
421.314;  691.405; -203.271; -226.512
421.604; 1478.402;   89.732;  233.484
421.893;  863.852; -705.271; -602.511
422.183;  245.823; -487.263; -461.526
422.472;  386.703;  -36.271; -107.511
422.762;  448.178; -416.266; -379.521
423.051;  254.514; -916.276; -916.503
423.341;  339.359; -491.273; -439.507
423.630;  431.709; -121.265;   15.477
423.919;  383.645;   58.725;   49.495
424.209;  377.504;  -31.263;   56.473
424.498;  517.157;   68.732;  161.483
424.787; 1118.138; -535.267; -601.518
425.077; 3397.007;   34.735;   29.478
425.366; 4824.785; -734.262; -744.528
425.655;10032.560;  639.727;  259.493
425.945;21588.265; -313.247; -268.554
426.234;12262.083;  117.741;  300.467
426.523; 5081.888;  -86.259; -350.534
426.812; 7043.948;  107.734;  159.480
427.101;10254.174; -127.269; -323.515
427.390;13117.142;  -55.270;  -86.514
427.680; 3018.733; -624.257; -411.538
427.969;  493.869; -330.255; -301.540
428.258;  335.549; -385.257; -477.536
428.547;  551.647;  449.728;  397.490
428.836; 1281.910; -421.253; -398.543
429.125; 1851.690; -199.259;  -72.534
429.414;  841.458; -330.251; -294.548
429.703; 3129.958; -231.251; -213.548
429.992; 9410.186; -938.250; -828.549
430.281; 6206.091; -397.264; -331.524
430.570;  600.498;  -21.252;   32.454
430.859;  556.987;  279.741;  352.466
431.148;  445.661;  636.752;  631.446
431.437;  302.398;  391.748;  367.454
431.725;  168.926; -544.257; -481.536
432.014;  138.142; -845.253; -756.545
432.303;  396.712; -149.239; -105.569
432.592;  620.648; -460.263; -178.525
432.881; 1081.937; -601.248; -437.554
433.169; 6219.444; -343.255;  -61.540
433.458;12639.521;  445.765;  540.424
433.747; 5357.990; -397.261; -289.529
434.036;  920.738; -275.242; -280.564
434.324; 2104.724; -395.249; -379.551
434.613; 3650.231;   40.757;  159.437
434.902; 1226.327;  333.760;  439.433
435.190;  579.886;   75.761;  295.431
435.479;  315.638;  -52.245;   83.441
435.767;  118.346; -411.244; -427.561
436.056;  238.683; -340.242; -294.563
436.345;  380.129; -372.240; -223.568
436.633;  379.494;   60.750;  383.450
436.922;  278.307;  208.760;  414.432
437.210;  628.636; -194.236;    1.426
437.499; 1962.269; -583.235; -432.576
437.787; 2200.410; -339.236;  -10.574
438.075;  553.591;   56.761;  162.430
438.364;  737.419;  -44.238;  250.429
438.652;  457.824; -286.226; -138.592
438.941;  141.088;    3.770;  269.415
439.229;    6.145; -665.252; -466.545
439.517;   35.502; -160.234;  -85.577
439.806;   -3.285; -501.225; -290.595
440.094;  187.110;  377.766;  650.421
440.382;  178.239; -653.233; -302.580
440.670;  218.144; -361.235; -285.576
440.959;   39.483; -347.223; -170.599
441.247;   79.950; -151.229; -109.587
441.535;  108.926; -266.235;   31.423
441.823;   43.607; -497.234; -305.578
442.111;  186.854;  173.771;  327.412
442.400;  532.562; -628.245; -335.559
442.688; 1440.810; -111.234; -620.579
442.976; 1041.771; -786.213; -450.617
443.264;  104.347; -324.224; -364.597
443.552;  110.526; -258.226;   51.408
443.840;  186.200;  602.765;  876.423
444.128;  122.813;  265.767;  269.420
444.416;    9.482; -694.228; -312.588
444.704;   16.438; -465.219;  -92.605
444.992;  100.903;   -0.226;  240.407
445.280;   53.839; -517.230;  -94.585
445.568;   35.250; -694.212; -396.618
445.856;  352.997; -174.221;  357.398
446.143;  786.309;  -54.220;   -7.604
446.431;  647.535;  -25.228;  625.411
446.719;  261.832;  489.783;  675.391
447.007;  202.433;  481.769;  705.416
447.295;  188.580;  597.777;  871.402
447.583;   82.647; -464.229;  -34.587
447.870;  173.744; -434.221; -202.601
448.158;  438.888; -104.230;  129.415
448.446;  326.635; -800.219; -338.604
448.733;  182.498;   13.776;  269.403
449.021;  267.300;   60.788;  341.382
449.309;  180.215; -296.210;  208.379
449.596;  229.053;  128.783;   59.392
449.884;  166.587; -571.222; -325.600
450.172;  174.541; -756.227; -406.590
450.459;  445.304;  645.786;  780.387
450.747; 2380.977; -411.218; -147.608
451.034; 7660.786;  493.772;  889.411
451.322; 6384.708; -413.214; -170.614
451.609;  555.900;  292.777;  508.403
451.897;  593.028; -550.203; -183.634
452.184; 1827.530; -622.223; -400.598
452.472; 1714.011;   97.792;  269.375
452.759;  354.336;  512.781;  864.395
453.047;  115.797; -407.212; -125.617
453.334;   78.194; -732.219; -216.606
453.621;   72.435; -438.214; -161.615
453.909;  117.520;   13.796;  384.368
454.196;  123.391; -299.199; -123.641
454.483;  214.941;  317.798;  540.364
454.771;  138.889; -215.208;  196.374
455.058;   45.643; -316.207;  102.374
455.345;  105.071;   71.807;  344.347
455.632;   85.571; -128.207;  235.373
455.919;   49.388;  -82.196;  182.354
456.207;  -75.130; -774.198; -450.642
456.494;  -13.172; -475.200;  -66.639
456.781;   13.837; -399.202; -198.635
457.068;   61.702; -253.206;  -29.628
457.355;    0.079; -698.206; -401.629
457.642;  -10.541; -552.205; -290.630
457.929;    3.712; -778.194; -417.651
458.216;   81.022; -575.212; -354.617
458.503;  236.942; -173.193;  -19.652
458.790;  227.662; -864.208; -630.625
459.077;  258.867;  -77.202;  110.364
459.364;  813.930; -350.195; -210.649
459.651; 1696.150;  -46.206;  220.372
459.938;  778.627; -864.209; -665.623
460.225;  157.020;  132.799;  276.363
460.512;  -42.039; -836.197; -688.645
460.799;   97.226;  -32.218;  320.392
461.086;   61.108; -370.200; -251.640
461.372;   47.871; -509.198; -279.642
461.659;  111.440; -165.196;  108.354
461.946;   57.666; -445.193;  -54.651
462.233;  254.106;  842.800;  888.361
462.519;  356.727; -814.201; -464.639
462.806; 1034.286; -768.197; -497.645
463.093;  882.261; -445.191;  -66.656
463.380;  -20.372; -920.186; -824.664
463.666;   52.263; -259.197;  -18.646
463.953;   96.750; -406.195; -243.648
464.239;  202.175; -173.195;  -77.648
464.526;  402.161;  413.806;  743.350
464.813;  360.698; -565.190; -304.658
465.099;  373.392;  606.807;  607.348
465.386;  339.446;  903.807;  921.348
465.672;   39.086; -694.197; -522.645
465.959;   17.166; -598.188; -520.662
466.245;   11.946; -468.193; -359.652
466.532;   95.473; -109.195;   63.352
466.818;   78.803; -357.186; -216.664
467.104;   -6.032; -488.182; -415.672
467.391;   -9.125; -628.189; -459.658
467.677;   23.681; -289.186;    9.335
467.964;    6.232; -682.189; -471.660
468.250;   47.509; -331.186; -160.665
468.536;   93.301;   90.811;  180.341
468.822;  -40.454; -821.184; -574.668
469.109;  149.750;  351.827;  471.311
469.395;  193.580;  729.808;  787.346
469.681;  206.329;   46.811;  156.341
469.967; 1233.509; -699.188; -382.660
470.254; 2731.842; -494.188; -306.662
470.540; 1754.238; -601.196; -476.646
470.826;  258.704; -488.181; -397.675
471.112;  301.225;  288.816;  113.331
471.398;   94.654; -253.183;  -58.670
471.684;   37.658; -626.177; -447.680
471.970;   -4.417; -918.180; -981.675
472.256;   41.679; -521.192; -441.654
472.542;    9.061; -499.171; -434.691
472.828;   -1.936; -743.182; -607.672
473.114;   33.579; -380.166; -283.700
473.400;   18.325; -504.175; -293.684
473.686;   34.411; -452.166; -400.701
473.972;   60.039; -230.174; -131.687
474.258;  -20.825; -925.173; -843.689
474.544;  192.125; -183.178;   -2.679
474.830;  304.426;  -65.175;   45.316
475.116;  496.500; -123.190; -196.658
475.401;  670.861; -558.180; -467.676
475.687;  204.710; -725.180; -718.676
475.973;    4.397; -673.181; -770.673
476.259;  246.503;  736.825;  764.315
476.544;  372.141; -539.176; -437.682
476.830;  835.707; -398.172; -322.690
477.116;  732.290; -430.177; -336.682
477.401;  137.010;  346.820;  358.324
477.687;   -5.875; -289.175; -405.684
477.973;   23.376;   21.819;   28.326
478.258;   -6.394; -448.163; -348.706
478.544;   61.814;   21.815;   61.334
478.829;  -60.984; -818.171; -738.692
479.115;  -34.469; -749.172; -651.690
479.401;    7.610; -444.174; -449.686
479.686;   29.209; -253.180;  -74.676
479.972;  -27.295; -886.178; -776.680
480.257;   47.356; -258.166;  -65.700
480.542;    4.395; -614.170; -469.693
480.828;  244.073; 1288.824; 1392.317
481.113;  -34.879; -464.176; -426.683
481.399;   -7.945; -236.161; -202.711
481.684;  -50.695; -620.166; -462.700
481.969;   19.819; -158.159;  -73.713
482.255;   -1.794; -439.169; -285.695
482.540;   -6.920; -569.178; -441.680
482.825;    7.723; -395.187; -404.663
483.110;   95.984;  -85.169; -105.696
483.396;  185.141; -840.157; -652.718
483.681;  497.814;  543.826;  730.313
483.966;  158.063; -696.160; -700.712
484.251;   -4.512; -404.174; -310.687
484.536;    0.716; -356.165; -378.703
484.822;    4.691; -205.173; -218.687
485.107;  -32.321; -599.152; -502.726
485.392;  133.947;  662.836;  541.296
485.677;   78.844;  354.832;  163.302
485.962;  108.538;  160.843;  270.283
486.247;  101.164;  -14.162;   -8.707
486.532;   38.507; -178.166; -325.701
486.817;  165.950;  381.839;  431.291
487.102;  123.387; -453.154; -514.722
487.387;  664.692; -637.156; -652.718
487.672; 1157.327; -154.164;  -38.705
487.957;  766.457; -394.160; -286.711
488.241;  212.521; -290.150; -314.729
488.526;  754.305; -280.152; -148.726
488.811; 1189.407; -881.177; -818.680
489.096;  936.265; -666.154; -702.723
489.381;  494.927;    3.847;  162.275
489.666;  363.980; -428.161; -510.710
489.950;  188.868;  558.846;  627.277
490.235;  -44.309; -480.151; -458.728
490.520;  -40.271; -756.161; -723.710
490.804;  -42.481; -827.156; -736.719
491.089;   -3.413; -469.149; -299.732
491.374;   44.426; -132.164;  -75.704
491.658;   -1.377; -817.147; -717.735
491.943;  166.285; -657.152; -609.727
492.227;  255.183; -178.155;  -38.721
492.512;   52.988; -294.157; -341.717
492.797;  -62.769; -713.149; -716.731
493.081;  -44.124; -588.147; -598.735
493.366;  -53.519; -751.161; -635.711
493.650;  215.980;  831.859;  917.254
493.935;   37.898; -648.147; -447.734
494.219;  -30.108; -778.142; -687.743
494.503;  -36.849; -585.150; -487.730
494.788;   40.154;   46.842;   74.285
495.072;  112.522;  184.850;  434.271
495.356;  173.440; -463.148; -343.733
495.641;  476.033; -812.146; -736.736
495.925;  428.174; -976.156; -903.719
496.209;   38.736; -599.149; -451.732
496.494;  -34.983; -763.142; -544.744
496.778;    9.637; -364.154; -360.722
497.062;  -49.026; -819.156; -627.719
497.346;  -36.041; -869.160; -640.711
497.631;  147.294;  580.852;  560.266
497.915;   75.043;  -64.145;  175.261
498.199;   55.016; -341.157; -277.718
498.483;   37.479; -562.152; -508.725
498.767;  184.348;  301.850;  300.271
499.051;  185.359; -126.149; -100.732
499.335;   26.082; -693.149; -739.731
499.619;  -28.319; -381.129; -423.767
499.903;   33.431; -272.155;  -65.721
500.187;   33.719; -588.153; -316.724
500.471;   20.384; -796.152; -595.727
500.755;  119.879;   62.839;  -96.710
501.039;   35.507; -270.155; -357.721
501.323;   95.506;  -21.141;  264.254
501.607;   35.157; -447.163; -503.706
501.891;   -2.808; -607.156; -512.718
502.174;  -21.545; -726.144; -585.741
502.458;   66.113;   89.849;  370.273
502.742;   52.955; -180.138; -191.751
503.026;  106.747; -412.147; -254.734
503.310;  171.668; -437.159; -375.713
503.593;  126.449; -464.147; -325.735
503.877;  116.496; -232.133; -156.760
504.161;  176.372;    2.847;  -50.724
504.444;  144.357; -841.158; -710.716
504.728;  463.875; -487.164; -522.704
505.012;  721.745; -257.150;  -76.729
505.295;  557.055; -417.161; -212.711
505.579;  534.474; -256.156; -496.719
505.862;  752.965; -555.145; -333.738
506.146;  739.445; -681.159; -758.714
506.429;  406.521;  568.841;  461.286
506.713;   70.642; -732.151; -667.728
506.996;  330.286;   90.846;  295.278
507.280;  335.120; -633.165; -474.703
507.563;  262.855; -469.155; -261.721
507.847;  105.620; -423.153; -112.724
508.130;   96.231; -665.161; -456.711
508.413;  114.326; -758.167; -577.700
508.697;  246.477; -151.167;   12.300
508.980;  163.621; -422.153; -312.724
509.263;    2.351; -466.155; -450.720
509.547;   36.720; -124.150;   82.271
509.830;   64.008; -172.160;  140.289
510.113;   85.774;  128.844;  298.281
510.396;   34.852; -530.152; -300.725
510.680;  175.391; -818.145; -812.738
510.963;  631.791;  184.846;  180.277
511.246;  529.503; -493.150; -357.730
511.529;  280.446; -482.145;  -83.739
511.812;  383.367; -250.134;   10.241
512.095;  260.989; -740.151; -396.728
512.378;   79.853; -317.147; -245.736
512.661;   21.663; -703.137; -623.753
512.944;   31.744; -750.142; -637.744
513.227;   67.335; -170.137; -171.752
513.510;   38.704; -479.144; -671.741
513.793;   35.061; -485.140; -435.747
514.076;  132.077;  -43.127;  -39.771
514.359;  117.812; -294.149; -135.732
514.642;   92.647; -442.142; -567.744
514.925;  763.034;  581.860;  561.253
515.208;  980.614; -498.134; -443.758
515.491;  665.103; -276.133; -182.761
515.773;  383.408; -410.143; -337.742
516.056; 2113.894;  249.864;  409.246
516.339; 2829.198; -754.136; -652.755
516.622; 1947.825; -518.150; -488.730
516.904; 1309.465;  882.857;  975.257
517.187;  599.734; -730.138; -523.752
517.470;  424.189; -568.143; -510.743
517.752;  439.301; -624.136; -470.756
518.035;  353.296; -708.139; -725.749
518.318;  363.298; -799.136; -744.755
518.600; 2436.831; -300.132; -325.762
518.883; 3370.121;  310.858;   88.256
519.165; 1651.677; -585.138; -426.751
519.448;  409.981;  -61.132;  -19.762
519.730;  213.610; -573.126; -415.773
520.013;  321.824;  588.867;  664.240
520.295;  869.944;  -94.134;  -15.759
520.578; 1919.444; -335.131; -305.764
520.860; 2175.306; -254.132;   56.238
521.143; 1139.178; -763.135; -584.756
521.425;  487.098; -251.125; -279.775
521.707;  704.303; -622.127; -380.771
521.990; 1789.203; -199.127;  167.229
522.272; 2036.162; -116.140;   -4.748
522.554;  941.984; -237.143; -157.742
522.836;  392.342;  -24.134;   99.241
523.119;  220.446; -496.148; -189.734
523.401;  161.851; -448.130; -314.766
523.683;  115.463; -865.137; -693.753
523.965;  295.307;  408.862;  260.248
524.247;  267.569;   54.878;  170.220
524.529;  197.819; -451.134; -367.759
524.812;  369.978;   -3.130;  191.234
525.094;  857.781; -773.138; -631.751
525.376; 1375.132; -143.124;   78.223
525.658;  851.696; -441.136; -339.754
525.940;   50.466; -805.131; -671.764
526.222;   33.349; -188.136;  -88.755
526.504;  136.289; -190.131;   32.237
526.786;  181.347; -960.133; -647.760
527.068;  331.613; -124.123;  -67.778
527.349;  133.342; -865.137; -774.754
527.631;  141.056; -137.132;   22.238
527.913;  144.077; -664.127; -450.771
528.195;  179.116; -761.125; -639.774
528.477;  242.864;  -93.134;  -30.758
528.759;  148.653; -648.130; -522.766
529.040;   73.661; -569.123; -293.778
529.322;   57.119; -235.125;  -10.774
529.604;  141.555;  -47.130;   93.233
529.886;  143.760; -546.126; -302.773
530.167;  141.772;  232.870;  192.235
530.449;   69.177;    1.853;   63.265
530.731;   29.843; -572.122; -459.779
531.012;   84.214; -513.120; -216.784
531.294;   74.529; -118.116;  -43.792
531.575;  153.898;  290.875;  538.225
531.857;   53.384; -548.135; -266.757
532.138;  106.405; -113.141;   40.254
532.420;  182.780;  294.865;  403.244
532.701;  229.099; -722.133; -751.760
532.983;  336.777;  232.867;  182.239
533.264;  122.858; -243.126;  175.228
533.546;  -26.901; -491.136; -508.755
533.827;   47.995;  173.867;   -1.759
534.109;   43.459; -352.135;  -80.757
534.390;  100.085; -725.132; -582.762
534.671;  250.030; -270.135;  -82.756
534.953;  141.239; -751.123; -611.779
535.234;   13.439; -426.117; -255.789
535.515;  -72.352; -891.119; -735.785
535.796;  -32.327; -431.128; -193.770
536.078; -113.893;-1050.124; -904.777
536.359;    4.115;  -22.123;    3.221
536.640;  -12.008; -480.125; -197.774
536.921;  167.660;  225.871;  143.232
537.202;  385.003;  -87.138;  -16.751
537.483;  450.519;  251.869;  377.236
537.764;  183.497;   17.870;   98.235
538.045;  -55.787; -543.134; -371.758
538.326;  -22.063; -596.129; -447.768
538.607;   14.554; -686.127; -476.771
538.888;  175.655;   98.879;    5.218
539.169;  197.325; -704.122; -535.781
539.450;  337.284;  236.871;   16.233
539.731;  219.609; -361.121; -182.783
540.012;  150.139;  199.880;  412.216
540.293;   96.576;   82.876;  158.224
540.574;    1.324; -895.113; -717.796
540.855;  465.783;  435.879;  377.218
541.136;  541.872;   47.878;  139.220
541.416;  284.228; -161.130; -220.766
541.697;  206.289; -274.131; -170.763
541.978; 1042.982; -270.135; -315.757
542.259; 1320.878; -211.127; -236.771
542.539;  648.172; -191.116; -186.790
542.820;  201.922;  461.875;  480.225
543.101;  141.468;  -52.145;  -77.738
543.381;   35.478; -638.127; -591.771
543.662;  260.651;  159.873; -254.771
543.942;  585.099; -751.127; -830.770
544.223; 1055.549;  193.878;  161.219
544.504;  690.931; -275.124; -182.777
544.784;  586.609; -592.126; -408.773
545.065; 1670.676;  104.884; -254.791
545.345; 1976.623;  227.881;   14.215
545.626; 1307.074;  -14.113; -108.796
545.906;  878.596;   77.869;   98.235
546.186;  375.914;   92.874;  -95.773
546.467;  209.759;   99.877;  -95.778
546.747;  342.997;  264.884;  327.210
547.027;  384.555;   91.876;  111.223
547.308;  340.523; -376.127; -530.770
547.588;  390.163;  299.871;  371.232
547.868;  208.872;  458.870;  588.235
548.149;  202.009;  609.885;  593.207
548.429;  129.427; -347.127; -299.771
548.709;  186.939; -645.120; -461.784
548.989;  484.482;   84.882;   88.213
549.269; 2165.679;   10.868;  139.239
549.550; 4845.838;  215.877;  117.222
549.830; 4356.367; -758.111; -556.799
550.110;  880.674; -468.110; -320.801
550.390;  824.094; -128.122;  -56.779
550.670; 1130.819; -868.114; -783.795
550.950;  814.432; -509.121; -471.782
551.230;  199.029;  549.879;  460.218
551.510;   -2.419; -381.121; -326.782
551.790;   34.057; -173.109; -127.803
552.070;  280.209;  940.877; 1181.223
552.350;  398.427; -492.119; -377.786
552.630;  570.151;   -2.121;   77.219
552.909;  377.977;  181.884;   73.209
553.189;  238.211;  -49.132;   33.237
553.469;  191.076; -703.119; -514.786
553.749;  197.055; -469.127; -357.772
554.029;  178.168;   33.883;  -24.790
554.308;  156.763; -154.115;  -37.794
554.588;   52.447; -196.128; -204.770
554.868;   65.908; -366.121;  -47.782
555.147;  163.410; -114.115;  -46.793
555.427;  611.879; -260.116; -250.792
555.707; 3931.133; -284.115; -200.793
555.986; 4721.995; -719.111; -538.800
556.266; 2489.696;   23.884;   72.210
556.546;  119.731; -888.121; -675.782
556.825;  277.042; -657.114; -556.794
557.105; 1804.220; -125.128;   17.230
557.384; 2102.075;  122.884;  187.209
557.664;  801.553; -717.116; -508.792
557.943;  124.282; -557.121; -411.782
558.222;  178.861; -345.118; -344.788
558.502;  280.836; -116.115;  -76.793
558.781;  484.232;  194.885;  499.208
559.061;  407.285; -232.118; -227.788
559.340;  314.215;  302.883;  353.211
559.619;  724.196;   93.884;  148.210
559.899; 1030.092; -239.117; -266.789
560.178;  939.336; -778.115; -593.793
560.457; 3178.519; -623.117; -562.790
560.736; 4410.796; -472.111; -482.800
561.015; 2980.493; -500.128; -502.769
561.295;  400.027;  180.893;  215.193
561.574;  346.108;  119.885;  116.207
561.853;  509.836;  274.891;  303.197
562.132;  509.088;  -45.114;  182.206
562.411;  448.777;  396.879;  553.219
562.690;  143.182; -592.115; -458.792
562.969;  142.856;  472.888;  630.203
563.248;  518.349; 2966.878; 2487.219
563.527;  286.796; -290.111; -408.800
563.806;  387.252; -650.127; -521.771
564.085;  410.942; -297.105; -206.810
564.364;  237.770; -594.117; -405.790
564.643;  509.127; -276.121; -223.781
564.922; 1891.130;  221.890;  397.198
565.201; 1926.184; -640.109; -700.803
565.479;  840.080; -297.115; -219.792
565.758;  323.220; -810.128; -712.770
566.037;  479.335; -155.109; -100.803
566.316;  243.851; -286.116;  -28.791
566.595;   40.408;  -17.115;  -12.793
566.873;  112.848; -166.111;  -79.801
567.152;  -59.970; -490.113; -590.797
567.431;    6.472; -113.116;    6.210
567.709;   16.102; -344.107; -212.807
567.988;  265.792; -810.114; -769.794
568.266;  526.308; -160.115;  -68.793
568.545;  383.815; -644.100; -514.819
568.824;  576.030;  160.885;  356.208
569.102;  559.517; -351.114; -235.794
569.381;  242.604; -492.116; -407.792
569.659;  -38.348; -553.113; -553.796
569.938;   41.748; -743.122; -465.780
570.216;  109.213; -225.109; -225.804
570.494;  -28.130; -632.114; -572.795
570.773;   48.431;  202.879;  114.218
571.051;   -0.163; -373.123; -357.778
571.330;   57.824; -221.113; -174.796
571.608;   37.883; -181.098; -173.823
571.886;  -64.010; -671.111; -581.799
572.164;  -69.817; -739.121; -621.782
572.443;  -49.179; -562.105; -512.811
572.721;  -29.756; -399.117; -289.790
572.999;  -24.238; -280.117; -168.788
573.277;   94.265;  379.894;  620.191
573.555;  299.317;   94.894;   37.190
573.834; 1374.587;  -86.117; -114.788
574.112; 1573.355;  880.893;  811.193
574.390;  478.147; -143.111;  -96.801
574.668;    7.181;  -91.112;  -61.797
574.946;  -28.233; -165.106; -187.810
575.224;   19.159;   71.891;  -16.803
575.502;  -19.801; -200.116; -204.791
575.780;  -77.967; -767.112; -829.798
576.058;  100.971; 1589.889; 1004.200
576.336;  -17.399; -210.110; -129.801
576.614;  -54.217; -511.112; -340.798
576.891;   59.487; -711.115; -823.794
577.169;  496.146; -158.108; -285.805
577.447;  567.029;  169.893;  202.193
577.725;  274.212;  629.888;  854.201
578.003;   11.735;  -71.112; -371.798
578.280;   77.505; -208.104; -242.812
578.558;   60.461; -450.115; -422.793
578.836;  128.045; -210.114; -145.795
579.114;   44.431; -630.112; -670.797
579.391;   74.764;   -6.117;  -18.789
579.669;  -71.712; -595.114; -704.794
579.947;  173.676; -326.107; -127.806
580.224;  327.226; -692.107; -524.806
580.502;  326.830;  127.893;   76.193
580.779;   29.045;  -42.117;   75.210
581.057;  -79.112; -584.109; -470.804
581.334; -101.630; -726.102; -695.815
581.612;   41.968;   54.895;  511.190
581.889;  -26.142;  -83.101; -129.818
582.167;  -43.152; -298.099; -190.821
582.444; -105.022; -845.102; -814.817
582.721;  114.904;  657.899;  715.183
582.999;   41.795; -326.100; -167.821
583.276;  532.141; -812.123; -713.779
583.553;  711.673; -364.102; -294.816
583.831;  242.627; -607.104; -631.812
584.108;   57.144;  349.892;  174.195
584.385;    0.394; -122.102;  -98.815
584.662;  -72.327; -651.111; -828.801
584.940;   24.947;  204.889;  204.199
585.217;   -7.024;  -73.113; -303.796
585.494;   36.556;   71.890;  118.198
585.771;  210.064; -250.109; -354.804
586.048;  499.951; -196.113;  -76.796
586.325;  322.275; -721.110; -773.801
586.602;  100.755;  230.896;  213.188
586.879;  -32.159; -499.100; -580.820
587.156;   40.943; -156.105; -331.810
587.433;  -43.074; -701.102; -667.817
587.710;   80.083;  152.888;  234.202
587.987;  302.399; -264.105; -236.811
588.264;  805.960;  315.888;  387.202
588.541; 1366.933;  -61.104;   26.187
588.818; 2664.391;   72.892;  171.196
589.095; 2330.053; -163.104; -174.812
589.371;  372.587; -459.109; -414.804
589.648;   28.155; -581.107; -437.807
589.925;   27.271; -517.114; -621.795
590.202;    5.408; -741.112; -607.798
590.478;   86.051; -166.105;  -73.811
590.755;  289.572; -241.108; -132.806
591.032; 2508.203; -741.110; -699.802
591.308; 3406.573; -732.094; -790.831
591.585; 1795.452; -573.110; -560.802
591.862;  144.427;-1056.102; -950.817
592.138;   68.420; -475.108; -474.805
592.415;  158.081; -486.104; -495.813
592.691; 1486.779;  460.896;  518.188
592.968; 1903.834; -208.098; -123.824
593.244;  921.347; -695.116; -595.790
593.521;   74.178; -105.102;  -42.817
593.797;   -7.380; -810.122; -720.780
594.074;  320.772; -611.096; -588.826
594.350;  670.983;  828.905;  729.172
594.626;  307.923; -303.111; -283.801
594.903;  111.428; -643.101; -645.817
595.179;  183.885;  243.896;  418.187
595.455;   14.756; -136.107; -150.807
595.731;    4.512;  -19.103;  -38.814
596.008;  -49.633; -464.111; -434.800
596.284;   55.044; -187.100; -242.820
596.560;   46.304; -501.093; -493.833
596.836;  196.945; -173.105;  -70.810
597.112;  329.820; -582.108; -437.805
597.388;  297.945;  -49.097;  -48.826
597.665;  120.904;  437.887;  530.203
597.941;  -54.066; -572.089; -658.839
598.217;   17.156; -323.110; -293.802
598.493;  265.190;   61.891; -204.804
598.769;  510.088; -175.100;  -50.819
599.045;  305.748; -490.108; -562.806
599.321;   52.743; -193.100; -261.820
599.597;  142.040; -355.109; -476.804
599.872;  473.283;  409.896;  429.187
600.148;  366.572;  -61.097; -172.826
600.424;  281.353;   91.893;  202.193
600.700;  238.880; -170.107; -280.807
600.976;  121.241; -442.097; -464.825
601.252;  254.936; -226.109; -272.803
601.527;  204.034; -833.104; -840.813
601.803;  153.251; -453.105; -404.812
602.079;  189.463; -124.100; -118.819
602.354;  583.789; -620.092; -531.835
602.630;  821.351; -140.113; -482.796
602.906; 2367.908; -910.101; -863.818
603.181; 6654.402; -627.119; -534.786
603.457; 5705.844;   98.903; -278.826
603.733;  825.010; -605.120; -626.783
604.008;  978.392; -245.106; -164.810
604.284; 3050.630; -636.101; -580.817
604.559; 2601.737;   -3.112;  -42.799
604.835;  501.020; -163.105; -225.810
605.110;  401.223; -732.099; -892.821
605.385;  693.707;  224.907;  267.167
605.661;  657.711; -625.095; -729.829
605.936; 1158.199; -664.108; -737.806
606.211;  994.918;  -17.103; -170.815
606.487;  203.140; -329.114; -376.794
606.762;   13.452; -791.119; -745.786
607.037;  -19.405; -501.105; -433.810
607.313;  -49.471; -589.096; -574.828
607.588;   -6.758; -375.106; -137.810
607.863;   49.108;  -28.101; -143.818
608.138;  180.379;  513.890;  516.198
608.413;   26.652; -576.099; -592.822
608.688;   45.420; -203.108; -267.805
608.964;  207.536; -509.106; -218.809
609.239;  256.168; -107.105; -212.810
609.514;  265.201;  281.895;  240.188
609.789;  653.005; -187.104; -716.812
610.064;  866.453; -435.096; -609.827
610.339;  895.662; -855.109; -799.804
610.614; 1154.293; -131.100; -315.820
610.889;  668.151;  215.895;  107.188
611.163;   39.127; -407.104; -591.812
611.438;   71.942;   81.886; -167.794
611.713;    7.630; -467.101; -499.817
611.988;   49.607; -144.101; -328.818
612.263;  -25.780; -771.102; -717.815
612.538;  225.251;  385.887;  251.204
612.812;  170.295; -832.100; -911.820
613.087;  125.682; -358.098; -338.823
613.362;  -60.744; -497.107; -557.807
613.637;   37.164;  261.897;  138.186
613.911;   -0.810; -256.092; -345.835
614.186;  129.579; -249.107; -292.807
614.460;  660.509; -842.081; -758.854
614.735;  778.557;  -55.087;  -17.843
615.010;  170.472;   43.912;  -82.841
615.284;  254.719;  360.892;  246.195
615.559;  380.964; -792.092; -955.835
615.833;  301.325;  -76.099;  -87.822
616.108;    7.126; -225.090; -390.837
616.382;  146.384;  274.913;  402.156
616.656;  159.426; -241.090; -232.837
616.931;  510.251; -785.099; -700.822
617.205; 1070.734; -973.104; -979.813
617.480;  958.071;  -91.125;    6.225
617.754;  175.618; -396.125; -128.774
618.028;   15.264; -369.129; -382.768
618.302;   74.693;   73.892;  -25.805
618.577;  -56.434; -371.103; -518.815
618.851;  -46.267; -399.109; -600.803
619.125;  -38.456; -335.134; -378.759
619.399;  -27.240; -244.104; -374.813
619.673;  -54.170; -330.115; -515.792
619.947;  -58.230; -333.114; -448.795
620.222;   -4.551; -198.110; -204.801
620.496;    5.408;  -47.121;  -96.782
620.770;   11.599; -187.122;  -93.781
621.044;  219.818;  323.895;  346.190
621.318;  747.736; -653.120; -614.783
621.592;  654.858; -430.121; -409.783
621.866;  359.363; -476.112; -572.799
622.140;   34.848; -207.116; -356.791
622.413;   56.642;  138.889;  112.200
622.687;  -40.045; -746.101; -492.817
622.961;   19.443; -130.108; -143.805
623.235;  -58.307; -633.111; -661.800
623.509; -109.175; -816.105; -848.811
623.783;    8.527;  -12.107;   48.193
624.056;  -18.363; -254.120; -280.783
624.330;   51.306;   63.888;   -3.797
624.604;   49.420; -271.116; -355.790
624.877;   61.103;  180.890;   26.198
625.151;   39.364; -249.114; -238.794
625.425;  -20.089; -150.103; -283.814
625.698;  -66.804; -367.119; -374.785
625.972;  -87.844; -799.110; -765.802
626.245;   80.122;  685.884;  484.210
626.519;  -57.859; -426.120; -340.784
626.792;  -23.395; -192.107; -380.807
627.066;  -85.333; -485.122; -662.779
627.339; -103.498; -736.110; -663.802
627.613;   49.464;  351.880;  148.216
627.886;  -69.217;  187.891; -612.803
628.160;  -11.015;  312.880; -161.783
628.433;  -95.152; -695.125; -703.775
628.706;  -78.934; -517.120; -615.784
628.979;   31.630;  296.876;  117.223
629.253;  -88.224; -785.119; -833.786
629.526;  383.783; -334.126; -253.772
629.799;  346.912; -641.123; -479.778
630.072;  164.740; -497.128; -516.769
630.346;  -67.603;-1115.116;-1080.790
630.619;  451.381; -467.107; -545.808
630.892;  627.769;  709.889;  593.200
631.165;  337.059;  790.896;  679.187
631.438;  -78.090;-1092.112;-1055.798
631.711;   55.640;  453.877;  257.221
631.984;  -52.808; -523.117; -624.789
632.257;  -81.161; -636.117; -681.789
632.530;  -56.879; -412.119; -433.785
632.803;   20.512; -109.115;    7.207
633.076;  -69.866; -360.123; -422.777
633.349;   -3.006;  173.872;  121.231
633.622;  -43.305; -187.119; -240.785
633.895; -135.263; -903.120; -823.783
634.167;  -67.915; -496.126; -525.773
634.440;   -8.847;  -19.116; -137.792
634.713;   -9.850;  -22.119; -120.786
634.986;   78.484;  593.871;  453.233
635.258;  -83.815; -507.115; -597.793
635.531;   95.685;  742.882; -343.788
635.804;  -23.134; -303.117; -318.789
636.077;  -92.725; -830.116; -852.791
636.349;   -8.616; -586.115; -474.793
636.622;  380.957; 1695.874; 1392.228
636.894;  232.091; -474.120; -909.784
637.167;  156.626; -836.127; -789.771
637.439;   28.072; -278.128; -213.770
637.712;  -52.891; -312.126; -293.772
637.984;  -72.100; -635.116; -707.791
638.257;  396.834;  515.877;  488.222
638.529;  556.924; -881.125; -924.776
638.802;  242.565; -508.128; -449.769
639.074; -108.701; -927.122; -952.781
639.346; -133.640; -942.135; -930.757
639.619;    1.795;  -79.142; -319.744
639.891;   -0.858;  -83.122; -168.779
640.163;  -75.831; -689.122; -756.780
640.435;   18.396;  273.878;  103.220
640.708;   11.848;  -72.122; -132.780
640.980;  -36.700; -366.122; -362.781
641.252;  204.127;  -25.121;  -71.781
641.524; 1807.703;  580.879;  573.219
641.796; 1827.630;-1094.121; -907.782
642.068;  327.482; -191.121; -300.782
642.340;  -69.316; -486.121; -566.783
642.613;   36.111;  294.880;  323.217
642.885;  -90.837; -787.120; -878.783
643.157;  -60.011; -810.120; -658.784
643.428;   65.741;  170.880;  218.216
643.700;  -67.282; -498.120; -425.784
643.972;  -31.205;  -16.119; -133.785
644.244;  -95.928; -474.119; -559.785
644.516;  -54.026; -250.119; -114.786
644.788;   55.625;  662.881;  548.214
645.060;  -18.673;  -12.119; -124.786
645.332; -105.721; -525.118; -535.787
645.603;   42.381;  479.882;  342.213
645.875;  -81.942; -334.118; -369.787
646.147;  165.835; 1487.882; 1242.212
646.418;  -64.664; -931.117; -918.788
646.690;  136.338; -714.117; -715.789
646.962;   28.790; -413.117; -451.789
647.233;  -13.483;   15.883;   11.211
647.505; -108.431; -595.117; -475.790
647.776;   19.971;  328.884;  229.210
648.048;   -4.378; -248.116; -418.790
648.320;  -81.076; -752.116; -679.791
648.591; -161.599;-1055.116; -958.791
648.862;  -82.922; -505.116; -577.792
649.134;   16.580;  115.885;  198.208
649.405;  -52.368; -661.115; -618.792
649.677;  -65.616; -475.115; -598.793
649.948;   -8.790; -181.115; -296.793
650.219;   -0.138;  -37.115; -147.793
650.491;  -82.936; -431.114; -520.794
650.762; -127.584; -705.114; -731.794
651.033;  -83.682; -437.114; -424.795
651.304;  -98.455; -743.114; -728.795
651.576;  -60.479; -680.114; -645.795
651.847;  -27.677; -250.113; -140.796
652.118;  -22.025;  -32.113; -189.796
652.389; -101.598; -639.113; -722.796
652.660;  -28.696; -147.113;  -89.797
652.931; -145.394; -897.112; -871.797
653.202;  -97.393; -382.112; -541.798
653.473;  -71.716; -633.112; -533.798
653.744;  153.461; -595.112; -590.798
654.015;  155.613; -356.112; -303.799
654.286;  -68.510; -642.111; -663.799
654.557;  -59.658; -586.111; -521.799
654.828; -154.107;-1114.111;-1088.800
655.099;  -84.630; -404.111; -291.800
655.370;  -89.828; -427.111; -543.801
655.641; -129.376; -656.110; -714.801
655.911; -105.324; -618.110; -638.801
656.182;   42.153;  437.890;  387.198
656.453;   81.379;  830.890;  746.198
656.724;  -77.069; -466.110; -426.802
656.994;  -84.842; -553.109; -568.803
657.265; -110.890; -862.109; -873.803
657.536;  -92.988; -500.109; -377.804
657.806; -104.961; -561.109; -593.804
658.077; -147.610; -866.109; -950.804
658.347;  -93.433; -523.108; -598.805
658.618; -116.056; -646.108; -694.805
658.888;  -35.479;  -41.108;  112.195
659.159;  -79.477; -432.108; -548.806
659.429;  -14.075; -292.108; -349.806
659.700;   26.377; -435.107; -390.807
659.970;   -9.097; -370.107; -359.807
660.241;   17.080; -754.107; -921.807
660.511;  503.832; -147.107; -174.808
660.781;   92.659; -793.106; -748.808
661.052;  -50.664; -222.106; -381.808
661.322;  -25.937;   21.894;   -9.809
661.592;   14.989;  257.894;  148.191
661.862;  -73.159; -369.106; -382.810
662.133;  -94.507; -551.105; -502.810
662.403; -118.905; -770.105; -676.810
662.673;  -72.778; -256.105; -213.811
662.943; -102.151; -612.105; -551.811
663.213;  -19.200;  -85.105;  -81.811
663.483;  -87.523; -593.104; -568.812
663.753;  -59.196; -194.104; -152.812
664.023;  -17.519;   68.896;  -32.813
664.293;  -59.067; -319.104; -126.813
664.563; -103.740; -694.104; -648.813
664.833; -131.989; -743.103; -608.814
665.103; -132.137; -730.103; -793.814
665.373; -123.785; -766.103; -806.814
665.643;  -89.333; -863.103; -918.815
665.913;   22.319; -534.103; -714.815
666.182;  137.821; -685.102; -719.816
666.452;  260.347;  -22.102;  -89.816
666.722;  -31.726; -724.102; -784.816
666.992; -129.949; -948.102; -921.817
667.261; -102.247; -824.102; -808.817
667.531;  213.530;  134.899;   45.183
667.801;  536.932; -440.101; -412.818
668.070;  233.684;  714.899;  697.182
668.340;  -94.265; -883.101; -840.819
668.609;   96.587;  588.900;  301.181
668.879;  -77.711; -490.100; -558.819
669.149;  -63.184; -539.100; -516.820
669.418;  -99.007; -698.100; -726.820
669.688;  -33.730; -482.100; -666.820
669.957;   73.271; -423.099; -546.821
670.226;  -23.677; -268.099; -331.821
670.496;  -95.900; -431.099; -635.822
670.765;  -79.798; -418.099; -501.822
671.034; -142.971; -872.099; -828.822
671.304;   -1.519;   55.902; -111.823
671.573; -150.093;-1085.098; -957.823
671.842;   95.634; -380.098; -294.823
672.112;   27.511; -692.098; -586.824
672.381;  -10.337; -239.098; -214.824
672.650; -131.685;-1005.097;-1021.825
672.919;  -95.683; -631.097; -507.825
673.188; -111.332; -681.097; -878.825
673.457; -158.955;-1101.097;-1143.826
673.726;  -80.103; -579.096; -646.826
673.995;  -42.526; -533.096; -479.826
674.265;  -26.424; -263.096; -333.827
674.534;    8.453; -183.096; -235.827
674.802;    2.979; -618.096; -703.828
675.071; 1042.381; -886.095; -801.828
675.340; 3896.733; -464.095; -339.828
675.609; 1309.785;  103.905;   82.171
675.878;   76.737; -949.095; -893.829
676.147;   29.739;  -26.095;   -8.829
676.416;   93.965; -210.094; -294.830
676.685;  726.992; 1000.906; -622.830
676.953;  107.544; -603.094; -452.831
677.222;  -36.204; -193.094; -273.831
677.491;  -16.052;  -24.094; -127.831
677.759;   -3.425;   11.907;  172.168
678.028;  -22.723; -279.093; -222.832
678.297;   -1.022;   71.907;  197.168
678.565; -147.970; -898.093; -944.833
678.834;  -60.368; -311.093; -268.833
679.102;  -84.641; -411.092; -391.834
679.371; -151.139; -898.092; -727.834
679.639; -132.712; -797.092; -786.834
679.908; -116.211; -794.092; -724.835
680.176; -166.759; -895.091; -941.835
680.445;  -81.657; -346.091; -352.835
680.713;   -6.030;  -58.091;  -23.836
680.982;  -95.953; -523.091; -525.836
681.250; -110.301; -578.091; -507.837
681.518; -111.400; -534.090; -751.837
681.787;  -16.523; -204.090; -167.837
682.055;  -62.896; -490.090; -422.838
682.323; -139.894; -993.090; -992.838
682.591;   22.408; -216.090; -538.838
682.859;   95.635;    9.911;  -35.839
683.128;   16.686;  232.911;  497.161
683.396; -160.562;-1102.089;-1122.840
683.664;  -44.910; -241.089;   21.160
683.932;   -6.633;  144.911;  -76.840
684.200;  -90.956; -576.088; -320.841
684.468;  -26.304;  -73.088; -124.841
684.736;  -27.528; -214.088; -175.841
685.004; -112.776;-1024.088; -982.842
685.272;  -63.599; -880.088; -774.842
685.540;  -57.097; -499.087; -557.843
685.808;  -93.445; -651.087; -682.843
686.076; -107.518; -894.087; -969.843
686.343;  -56.567; -601.087; -815.844
686.611;   49.985; -195.087; -224.844
686.879;  486.487; -530.086; -553.844
687.147; 3307.364; -483.086; -480.845
687.414;  923.566;  -12.086; -169.845
687.682;    7.393; -658.086; -757.846
687.950;  305.195;  259.915;  263.154
688.217;    6.621; -792.085; -760.846
688.485;   -5.627; -632.085; -636.847
688.753;  518.150;  -11.085; -102.847
689.020;  160.877; -820.085; -851.847
689.288; -100.746; -853.084; -787.848
689.555;  -40.394; -195.084; -148.848
689.823;  -52.443; -241.084; -345.849
690.090;  -76.491; -546.084; -651.849
690.358; -152.814; -877.084; -897.849
690.625;    6.263;  120.917;   45.150
690.892;  -77.585; -403.083; -369.850
691.160;  -15.733;   72.917;  -35.850
691.427;    4.268;  141.917;  130.149
691.694; -144.055; -855.083; -929.851
691.962; -149.478;-1177.082;-1060.852
692.229;    0.899;  127.918;   56.148
692.496;   90.326;  130.918;  -49.852
692.763;    9.528; -164.082; -201.853
693.031;  -79.071; -739.082; -716.853
693.298;  -34.744; -509.081; -368.853
693.565;  333.958; -155.081; -163.854
693.832; 1273.710;   -5.081;   -9.854
694.099;  147.212; -643.081; -642.855
694.366;  -49.536; -882.081; -896.855
694.633;  -63.635; -920.080; -633.855
694.900;  757.342; 4367.920; -114.856
695.167;  428.194; -214.080; -380.856
695.434;   85.846; -646.080; -623.856
695.701;  205.448;  121.921;  -61.857
695.968;  469.900; -365.079; -361.857
696.234; 1045.502; -415.079; -646.858
696.501;10507.153; -776.079; -614.858
696.768; 5221.880; -554.079; -617.858
697.035;  312.832; -632.078; -667.859
697.302;   25.734; -448.078; -552.859
697.568;    8.236; -458.078; -497.859
697.835;  -40.162; -683.078; -624.860
698.102;  -27.311; -498.078; -407.860
698.368;   78.516;  384.923;  396.139
698.635;  -34.232;  -47.077; -424.861
698.901;  -11.930; -240.077; -348.861
699.168;   57.097; -534.077; -456.862
699.435;   70.124;  -72.077;  -13.862
699.701; -110.400; -868.076; -764.862
699.968;  -46.998;  144.924; -441.863
700.234; -100.721; -783.076; -822.863
700.500;  -57.344; -448.076; -539.864
700.767;  -17.542;   -1.075;   26.136
701.033; -133.465;-1015.075; -963.864
701.299;  -66.589; -450.075; -483.865
701.566;  115.413;  950.925;  763.135
701.832;   19.940;  -31.075;  -76.865
702.098;  -85.833;-1054.074;-1034.866
702.365; -104.506;-1098.074;-1030.866
702.631;  -28.904;-1038.074;-1063.867
702.897; 1425.272; -765.074; -676.867
703.163; 2224.949;  348.926;  254.133
703.429;  161.351; -256.073; -273.868
703.695;  -34.622; -796.073; -792.868
703.961;   15.555; -214.073; -210.868
704.227;  -60.993; -630.073; -725.869
704.493;  131.933;  613.927;  510.131
704.759;  -26.140; -565.072; -540.870
705.025;   31.137; -203.072; -194.870
705.291;   -0.011; -666.072; -562.870
705.557;  198.691;  719.928;   34.129
705.823;   22.743; -742.072; -694.871
706.089;  153.670; -307.071; -326.871
706.355;  365.646; -315.071; -244.872
706.620; 5691.173; -776.071; -729.872
706.886; 7756.650; -309.071; -362.873
707.152;  705.277; -818.070; -973.873
707.418;  -43.546;-1153.070;-1186.873
707.683;    5.231; -550.070; -530.874
707.949;  -41.243; -547.070; -578.874
708.215;  -21.391; -129.070; -207.874
708.480;  -32.489; -520.069; -420.875
708.746;   97.638;   68.931;   28.125
709.011;  -62.935; -578.069; -612.876
709.277; -100.158; -538.069; -543.876
709.542;  -53.432; -428.069; -387.876
709.808;   -2.355;  -59.068;   89.123
710.073;  -78.428; -577.068; -695.877
710.339;  -33.551; -242.068; -228.877
710.604;   77.226; -780.068; -845.878
710.869;  306.528; -277.068; -366.878
711.135;  -76.621; -715.067; -628.879
711.400;  -87.619; -507.067; -608.879
711.665;  -72.067; -404.067; -479.879
711.931; -104.515; -661.067; -677.880
712.196; -131.663; -876.067; -954.880
712.461;  105.839; -402.066; -490.880
712.726;  139.565; -727.066; -771.881
712.991;  -89.808; -647.066; -664.881
713.256;  -45.631; -350.066; -332.882
713.521;  -44.354; -417.065; -381.882
713.787;  -54.927; -454.065; -472.882
714.052;  -34.225; -214.065; -400.883
714.317;  -87.173;-1045.065; -981.883
714.581; 1061.203; -374.065; -268.883
714.846; 1356.905; -822.064; -888.884
715.111;  136.757;  261.936;  257.116
715.376;  -19.916;  -86.064; -223.885
715.641;  -10.289; -365.064; -367.885
715.906;  283.438;   15.936; -551.885
716.171;  133.614;  221.937;  209.114
716.436;   32.441;  -78.063; -104.886
716.700; -106.557; -818.063; -692.886
716.965; -124.755; -794.063; -807.887
717.230;  -63.353; -339.063; -392.887
717.494;  -27.226;  -40.062; -134.888
717.759;  -95.650; -784.062; -640.888
718.024;   11.277;  269.938;  250.112
718.288;   65.004;  685.938;  395.111
718.553; -139.144; -803.062; -977.889
718.817; -130.242; -883.061; -899.889
719.082;  -29.090; -115.061; -125.890
719.346; -146.414;-1000.061; -947.890
719.611;  -39.237; -300.061; -255.891
719.875; -102.835; -568.060; -537.891
720.140;  -59.033; -453.060; -603.891
720.404;   38.644; -136.060; -249.892
720.668;  864.321; -475.060; -411.892
720.933;  326.747;  146.940;  137.108
721.197;  -92.726; -667.059; -600.893
721.461; -132.374; -851.059; -826.893
721.725;  -18.372;  -21.059; -250.894
721.990;  -49.495; -284.059; -204.894
722.254;  -32.768;  -26.059; -108.894
722.518;  -78.017; -286.058; -442.895
722.782;  -95.465; -743.058; -594.895
723.046;  129.487;  614.942;  570.105
723.310;   38.139;  374.942;  210.104
723.574;  -98.059; -654.058; -614.896
723.838; -109.607; -576.057; -642.897
724.102;  -58.030; -226.057; -239.897
724.366; -144.429;-1032.057; -978.897
724.630; -105.377; -749.057; -571.898
724.894;  -76.675; -722.057; -514.898
725.158;  -10.973;   38.944; -295.898
725.422;  -67.771; -394.056; -327.899
725.685;  -77.944; -441.056; -349.899
725.949;  -75.643; -566.056; -519.900
726.213;  -85.466; -732.056; -811.900
726.477;  162.886;-1020.055; -933.900
726.740;  134.988; -274.055; -104.901
727.004;  360.065; -384.055; -510.901
727.268; 3396.367; -442.055; -400.901
727.531;  851.568; -961.055; -775.902
727.795;  -58.405; -713.054; -673.902
728.059;  -69.053; -552.054; -557.903
728.322;  -88.926; -841.054; -669.903
728.586;   12.926; -692.054; -701.903
728.849;  -83.572; -695.053; -756.904
729.112; -124.496; -812.053; -912.904
729.376; -134.519; -959.053; -905.904
729.639;  -75.492; -536.053; -536.905
729.903; -114.090; -733.053; -699.905
730.166;  -41.363; -437.052; -399.906
730.429;  -19.336; -317.052; -468.906
730.693;  -71.435; -355.052; -894.906
730.956;  215.792;  810.948;  651.093
731.219;  698.219; -310.052; -103.907
731.482;  131.021;-1003.051; -894.907
731.745;   84.048; -794.051; -935.908
732.009;   24.550;  -30.051;   50.092
732.272;  -95.149; -904.051; -771.909
732.535;  -27.822; -300.051; -310.909
732.798; -153.445;-1083.050;-1166.909
733.061;  -57.018; -430.050; -456.910
733.324;   -2.591;   31.950; -180.910
733.587;   62.686;  290.950;  365.090
733.850;  -66.887; -973.049;-1050.911
734.113;   38.864;   33.951;   32.089
734.376;    5.666; -328.049; -447.912
734.639;  218.593; 1188.951; 1011.088
734.901;   71.170; -180.049; -402.912
735.164;  519.822; -883.048; -837.913
735.427; 1311.174; -166.048; -355.913
735.690;  100.475; -205.048; -234.913
735.952;  -42.848; -923.048; -925.914
736.215;  -32.271;-1113.048;-1009.914
736.478;   35.206; -771.047; -774.915
736.740;  217.533;   33.953;  129.085
737.003;  709.660; -658.047; -672.915
737.266; 4047.836;  -94.047;   46.084
737.528;  422.663; -682.047; -660.916
737.791;  303.565; -316.046; -327.916
738.053;  823.342;  465.954;  649.083
738.316;11186.369; -162.046; -136.917
738.578; 7425.421; -770.046; -736.918
738.841;  441.222; -382.046; -446.918
739.103;  184.449; -875.045; -777.918
739.365;  513.376;   79.955;  -69.919
739.628;   -2.547; -884.045; -805.919
739.890;  -26.195; -758.045; -710.919
740.152;  -52.893; -692.044; -754.920
740.414;  -10.967; -408.044; -359.920
740.677;  -54.215; -785.044; -634.921
740.939;  -58.888; -587.044; -487.921
741.201;  276.464; -432.044; -572.921
741.463;   30.566; -689.043; -745.922
741.725;   14.618;  -21.043; -199.922
741.987;   58.970;  220.957;  116.078
742.249;   -2.179; -751.043; -859.923
742.511;  208.998; -703.043; -794.923
742.773;    2.625; -546.042; -546.924
743.035;  124.002;  796.958;  533.076
743.297;  -32.971; -963.042;-1013.924
743.559;  739.331; -278.042; -262.925
743.821;   56.907; -735.042; -744.925
744.083;   18.234;  -44.041; -149.925
744.345;  -90.939; -869.041; -892.926
744.607;   28.963;   75.959;  122.074
744.868;  -46.810; -490.041; -554.927
745.130; -112.608; -994.041;-1008.927
745.392;   28.593;   -1.040;  -44.927
745.653;   -8.005; -411.040; -378.928
745.915;  159.347;  896.960;  631.072
746.177;   57.774;   35.960;  -43.928
746.438;   -7.649; -428.040; -543.929
746.700;  -53.797; -947.039; -988.929
746.961;   -0.346; -659.039; -740.930
747.223;  135.131; -190.039;  -74.930
747.484;   83.783; -391.039; -471.930
747.746;  149.560;  -23.038; -106.931
748.007;  106.687; -647.038; -689.931
748.269;  320.989; -468.038; -440.931
748.530;  485.590; -852.038; -638.932
748.791;  283.342; -354.038; -420.932
749.053;  440.719;  286.963;  163.067
749.314;  463.871; -236.037; -169.933
749.575;  483.748; -945.037; -905.933
749.836;  864.675; -217.037;   86.066
750.098; 2600.326;  -60.037;  -21.934
750.359;37421.378;  414.964;  555.066
750.620; 8896.355; -121.036; -220.935
750.881; 1076.007; -585.036; -513.935
751.142; 1379.284; -950.036; -938.936
751.403;17384.986; -789.036; -705.936
751.664; 7159.363;-1034.035; -999.936
751.925;  481.164; -175.035; -262.937
752.186;  271.616; -298.035; -278.937
752.447;  127.293; -590.035; -445.937
752.708;   60.445; -532.035; -648.938
752.969;   -9.378; -566.034; -576.938
753.230;  -11.551; -777.034; -672.939
753.491;  -12.100; -650.034; -631.939
753.751;   56.077;  109.966;   19.061
754.012;   78.204;  258.967;  181.060
754.273;   70.156; -174.033;  -71.940
754.534;   16.308; -487.033; -580.940
754.794;  -84.840; -926.033; -911.941
755.055;  145.686; 1051.967;  881.059
755.316;  -37.662; -700.032; -566.942
755.576;  -38.485; -606.032; -576.942
755.837;  -43.708; -527.032; -695.942
756.097;  -34.556; -530.032; -564.943
756.358;  -84.379; -725.032; -770.943
756.618;  -56.803; -705.031; -641.943
756.879;    5.349; -254.031; -349.944
757.139; -123.449;-1098.031;-1116.944
757.400;  -54.247; -538.031; -553.945
757.660;  -21.245; -365.031; -401.945
757.920;    1.432; -266.030; -228.945
758.181;  -13.642; -468.030; -351.946
758.441;  -86.415; -870.030; -809.946
758.701;  -31.313; -308.030; -215.946
758.961;   -9.436; -220.030; -278.947
759.222;  -45.109; -574.029; -502.947
759.482;  -69.132; -683.029; -723.948
759.742;  -87.706; -706.029; -547.948
760.002;   17.471;  -83.029; -143.948
760.262;   33.423;   50.972;  182.051
760.522;  -45.175; -498.028; -574.949
760.782;  -55.323; -738.028; -612.949
761.042;  -22.996; -618.028; -573.950
761.302;   53.056;   55.972;  -18.950
761.562;   60.132; -164.027; -154.951
761.822;   79.809; -710.027; -551.951
762.082;  -52.764;-1104.027;-1093.951
762.342;   67.613; -328.027; -403.952
762.601;   79.840; -567.027; -506.952
762.861;  361.492; -281.026; -207.952
763.121;  421.543; -406.026; -411.953
763.381; 7791.420; -499.026; -485.953
763.640; 7947.272; -139.026; -307.954
763.900;  360.774; -242.026; -203.954
764.160;   98.176; -458.025; -491.954
764.419;  -11.172; -726.025; -782.955
764.679;  -73.446; -795.025; -726.955
764.939;  -11.519; -124.025; -210.955
765.198;  -70.017; -608.025; -563.956
765.458;  -70.190; -710.024; -612.956
765.717;  -93.463; -454.024; -590.957
765.976;  -54.461; -428.024; -411.957
766.236;  -82.610; -475.024; -610.957
766.495;   25.592;  260.977;   73.042
766.755;  -81.306;-1090.023; -987.958
767.014;    1.621; -594.023; -665.958
767.273;  -60.727; -373.023; -397.959
767.533;  -41.200; -228.023; -307.959
767.792;  -34.099; -151.022; -188.960
768.051;  -46.222; -228.022; -276.960
768.310;  -87.795; -546.022; -650.960
768.569;   -6.993; -161.022;    4.039
768.828;  -36.341; -285.022; -363.961
769.088; -120.714;-1050.021; -942.961
769.347;  -73.587; -755.021; -599.962
769.606;  -92.261; -876.021; -857.962
769.865; -122.659;-1016.021;-1033.963
770.124;   -5.432; -411.021; -336.963
770.383;  -36.380; -778.020; -910.963
770.641;  -15.078; -398.020; -400.964
770.900;  -68.701; -953.020; -846.964
771.159;  -49.725; -851.020; -951.964
771.418;  -12.048; -917.020; -779.965
771.677;  127.179; -224.019; -293.965
771.936;  135.981; -794.019; -865.966
772.194; 2380.283; -465.019; -437.966
772.453;10928.010; -213.019; -391.966
772.712;  734.261;  416.982;  329.033
772.970;  125.338;   32.982;   63.033
773.229;   81.040;  -22.018;  102.033
773.488;  -89.808; -814.018; -770.968
773.746;   53.194;  296.982;  335.032
774.005;    5.821;  190.983;  -22.969
774.263;   22.547;  243.983;  177.031
774.522;  -95.701; -422.017; -548.969
774.780;  -70.724; -484.017; -417.970
775.039;  -90.422; -551.017; -531.970
775.297;  -34.820; -135.016; -351.970
775.555; -100.718; -489.016; -612.971
775.814; -131.392; -618.016; -570.971
776.072; -129.190; -749.016; -740.971
776.330; -106.213; -630.016; -520.972
776.589; -119.186; -703.015; -721.972
776.847; -121.484; -645.015; -624.973
777.105; -174.932;-1016.015;-1032.973
777.363;  -87.306; -459.015; -454.973
777.621; -139.254; -660.015; -717.974
777.879;  -23.702;  -42.014;   32.026
778.138;  -86.875; -554.014; -717.974
778.396; -106.248; -585.014; -526.975
778.654; -165.796;-1015.014; -970.975
778.912;  -73.094; -269.014; -371.976
779.170; -135.218; -880.013; -803.976
779.427; -144.116; -922.013; -897.976
779.685; -139.514; -880.013; -832.977
779.943;  -89.362; -654.013; -593.977
780.201; -160.235; -964.012; -883.978
780.459; -125.208; -651.012; -610.978
780.717;  -78.757; -440.012; -390.978
780.974; -103.230; -449.012; -490.979
781.232;  -82.278; -358.012; -338.979
781.490;  -85.426; -551.011; -472.979
781.747; -102.099; -555.011; -476.980
782.005;   15.253;  462.989;  254.020
782.263; -173.021; -542.011;-1004.981
782.520;  -83.644; -326.011; -501.981
782.778; -173.042;-1013.010;-1051.981
783.035; -177.965; -962.010; -938.982
783.293;  -67.338; -248.010; -206.982
783.550;  -68.561; -134.010; -198.982
783.808; -136.035; -764.010; -776.983
784.065; -158.833; -745.009; -874.983
784.322;  -52.606;   25.991;  -86.984
784.580; -140.304; -915.009; -771.984
784.837;  -97.127; -392.009; -466.984
785.094; -142.100; -783.009; -762.985
785.352;  -69.924; -304.008; -404.985
785.609; -103.222; -934.008; -839.985
785.866;  -89.670; -345.008; -401.986
786.123;  -63.868; -639.008; -583.986
786.380; -102.841; -665.008; -604.987
786.637;  -45.514; -225.007; -380.987
786.895;   -4.612; -456.007; -543.987
787.152;  -61.286; -135.007; -267.988
787.409;  -43.309; -123.007; -225.988
787.666;  -96.282; -299.006; -378.988
787.923; -108.280; -616.006; -695.989
788.179; -115.503; -551.006; -584.989
788.436; -120.476; -585.006; -585.990
788.693;  -31.450;  -92.006;  -87.990
788.950;  160.027; -125.005; -112.990
789.207;  199.479; -381.005; -372.991
789.464;  -58.294; -161.005; -301.991
789.720;  -11.742;  150.995;  110.009
789.977; -176.565;-1003.005; -671.992
790.234;  -29.314;   44.996;  -66.992
790.490; -154.962; -884.004;-1031.993
790.747;  -27.435;  -85.004;   22.007
791.004;  -29.633; -426.004; -348.993
791.260;  -76.131; -430.004; -560.994
791.517;  -95.179; -843.003; -788.994
791.773;  -50.878; -379.003; -342.994
792.030; -100.726; -596.003; -660.995
792.286; -101.174; -686.003; -636.995
792.543;  -25.497;  -74.002; -159.995
792.799;  -65.470; -584.002; -382.996
793.055; -176.193;-1179.002;-1210.996
793.312;  -94.442; -827.002; -816.997
793.568;  -61.140; -746.002; -599.997
793.824;   16.437; -226.001; -284.997
794.081;   17.064; -447.001; -508.998
794.337;   67.166; -664.001; -561.998
794.593; 1438.693; -319.001; -271.999
794.849; 6538.744; -746.001; -772.999
795.105;  316.721; -270.000; -261.999
795.361;   -1.427; -490.000; -457.000
795.617;  -68.225; -875.000; -945.000
795.873;  -62.775; -360.000; -407.000
796.129;  -34.500; -368.000; -306.000
796.385;  -24.025; -124.000; -156.000
796.641;   66.950;  412.000;  550.000
796.897;  -82.875; -666.000; -635.000
797.153;   59.475;  453.000;  357.000
797.409; -114.800; -785.000; -868.000
797.665;  -79.875; -625.000; -732.000
797.921;  -66.750; -775.000; -762.000
798.176;  -52.800; -744.000; -747.000
798.432;  -71.050; -824.000; -596.000
798.688;  -82.150;-1174.000;-1078.000
798.943;   92.000; -165.000; -147.000
799.199;    3.500;-1005.000; -959.000
799.455;  220.575;  369.000;  316.000
799.710;  135.925; -813.000; -380.000
799.966;  281.500; -162.000; -160.000
800.221;  491.175; -638.000; -721.000
800.477;11081.925; -743.000; -710.000
800.732; 8942.475; -773.000; -800.000
800.988;  630.225;  205.000;  -19.000
801.243; 1924.650; -454.000; -344.000
801.498; 7653.850; -814.000; -739.000
801.754;  428.650; -289.000; -163.000
802.009;   82.300; -257.000; -335.000
802.264;  -59.200; -967.000;-1033.000
802.520;   12.275;  222.000;   -3.000
802.775;  -52.925; -524.000; -359.000
803.030;   46.850;  395.000;  356.000
803.285; -115.625; -840.000; -903.000
803.540;  -59.425; -686.000; -699.000
803.795;  -54.375; -648.000; -583.000
804.051;  -37.475; -279.000; -346.000
804.306;   13.575;  168.000;  128.000
804.561;  143.100;  451.000;  362.000
804.816;  141.275;  714.000;  861.000
805.071;   18.875; -185.000; -280.000
805.325;  235.600; -257.000; -427.000
805.580;  -95.350; -841.000; -877.000
805.835;  -29.825; -204.000; -297.000
806.090;  -75.650; -760.000; -676.000
806.345;  -14.850; -344.000; -264.000
806.600;  -39.900; -549.000; -632.000
806.854;  -36.900; -408.000; -538.000
807.109;  -13.775; -493.000; -577.000
807.364;    0.150; -407.000; -328.000
807.618;    4.500; -415.000; -381.000
807.873;   54.325; -470.000; -494.000
808.128;  101.675; -257.000; -518.000
808.382;  112.450; -224.000; -332.000
808.637;   83.200; -440.000; -511.000
808.891;  179.375; -257.000; -180.000
809.146;   96.600; -902.000; -794.000
809.400;  278.450; -848.000; -923.000
809.654;  335.750; -779.000; -551.000
809.909;  496.475; -841.000; -927.000
810.163; 7104.875; -813.000; -651.000
810.418;16855.175; -940.000; -861.000
810.672; 1002.750; -685.000; -690.000
810.926;  726.475; -993.000; -973.000
811.180; 1466.825; -439.000; -372.000
811.434;32867.725;  240.000;  135.000
811.689;11942.100; -231.000; -365.000
811.943;  617.075; -936.000; -953.000
812.197;  318.475; -893.000; -671.000
812.451;  115.425; -379.000; -514.000
812.705;  -26.975; -809.000; -619.000
812.959;   -3.625; -263.000; -388.000
813.213;    5.100; -283.000; -209.000
813.467;   82.925;  470.000;  253.000
813.721; -102.825; -764.000; -792.000
813.975; -128.325; -826.000; -877.000
814.229;   37.325;  430.000;  353.000
814.482;  -72.925; -517.000; -566.000
814.736; -122.650; -766.000; -744.000
814.990; -123.275; -779.000; -872.000
815.244;  -47.125; -228.000; -285.000
815.497; -104.050; -636.000; -601.000
815.751;  -17.675; -141.000;   82.000
816.005;  -85.200; -470.000; -586.000
816.258;  -79.225; -510.000; -363.000
816.512; -100.225; -693.000; -610.000
816.766;    2.750;  121.000;  157.000
817.019;   13.600;  148.000;  149.000
817.273; -121.575;-1000.000; -802.000
817.526;  -44.825; -206.000; -173.000
817.779;  -33.250;-1049.000; -960.000
818.033;  -80.200; -693.000; -807.000
818.286; -126.250; -725.000; -792.000
818.540;  -90.225; -403.000; -403.000
818.793;  -85.925; -402.000; -489.000
819.046; -105.775; -582.000; -520.000
819.299;  -43.350; -157.000; -166.000
819.553; -132.150; -552.000; -592.000
819.806; -164.850;-1016.000; -838.000
820.059;  -56.125; -334.000; -354.000
820.312;   20.375;  152.000;  185.000
820.565;   -8.875;  110.000;  -27.000
820.818;  -45.500;  -59.000; -173.000
821.071; -161.125;-1041.000; -957.000
821.324; -104.000; -536.000; -540.000
821.577; -115.000; -457.000; -483.000
821.830;  -63.875; -270.000; -172.000
822.083; -118.075; -733.000; -288.000
822.336;  -51.200; -261.000; -167.000
822.589; -137.850; -805.000; -688.000
822.842; -151.450; -875.000; -770.000
823.094; -167.400;-1076.000;-1114.000
823.347; -143.800; -925.000; -729.000
823.600;   17.800;  402.000;  187.000
823.853;  -45.525; -311.000; -267.000
824.105;  -76.450; -331.000; -575.000
824.358; -113.125; -617.000; -716.000
824.611;   27.750;  234.000;   40.000
824.863;  -51.575; -612.000; -591.000
825.116;   42.950;  -33.000;   27.000
825.368;   95.125; -366.000; -372.000
825.621;  156.900; -186.000; -240.000
825.873;   80.825; -704.000; -737.000
826.126;  637.200; -669.000; -641.000
826.378;11958.575; -389.000; -505.000
826.630; 2608.275; -890.000; -898.000
826.883;   39.775; -754.000; -693.000
827.135;   41.725; -279.000; -270.000
827.387; -121.000; -893.000; -839.000
827.639;  -24.800;  -86.000;   32.000
827.892; -145.200; -742.000; -582.000
828.144; -148.650; -848.000; -804.000
828.396;  -36.025;  104.000;  -80.000
828.648;  -96.875; -440.000; -333.000
828.900; -156.300; -702.000; -795.000
829.152; -123.625; -684.000; -683.000
829.404;  -59.225; -215.000; -267.000
829.656;  -50.725;  321.000;  214.000
829.908;  -12.225;  393.000;  229.000
830.160; -161.300;-1064.000;-1047.000
830.412;  -88.075; -481.000; -430.000
830.664; -130.650; -557.000; -665.000
830.916;  -83.825; -268.000; -206.000
831.167; -177.750;-1073.000; -951.000
831.419; -112.075; -623.000; -566.000
831.671; -148.900; -764.000; -809.000
831.923;  -99.525; -311.000; -447.000
832.174;  -83.325; -273.000; -331.000
832.426; -121.575; -493.000; -582.000
832.678; -184.925;-1043.000;-1091.000
832.929; -164.675; -947.000; -935.000
833.181;  -69.500; -575.000; -677.000
833.432;  -59.375;  -59.000; -186.000
833.684;  -23.225;  112.000;  -27.000
833.935; -117.575; -610.000; -566.000
834.187; -128.500; -829.000; -823.000
834.438;  -50.300;  -58.000;  -25.000
834.689;  -60.625; -255.000; -123.000
834.941;  -64.500; -343.000; -244.000
835.192;  -97.050; -590.000; -533.000
835.443; -104.900; -419.000; -506.000
835.695;  -26.550;  138.000;  -16.000
835.946;  -88.350; -608.000; -378.000
836.197; -110.500; -599.000; -622.000
836.448;  -91.325; -528.000; -395.000
836.699;  -58.450; -253.000; -341.000
836.950;   -8.175;   72.000;    7.000
837.201; -142.150;-1003.000; -987.000
837.452;  -63.875; -356.000; -170.000
837.703; -105.275; -791.000; -737.000
837.954;  -24.175; -205.000; -365.000
838.205;  -88.975;-1029.000;-1008.000
838.456;  167.350; -196.000; -282.000
838.707;    3.000; -423.000; -519.000
838.958;   14.700; -634.000; -647.000
839.209;  284.075;   18.000;   40.000
839.460;  105.225; -439.000; -201.000
839.710;  168.700; -135.000; -297.000
839.961;  422.125;  730.000;  612.000
840.212;  346.975; -382.000; -497.000
840.462; 1206.900; -328.000; -277.000
840.713;18586.275; -571.000; -536.000
840.964; 6756.625;  -62.000; -143.000
841.214;  484.575; -384.000; -624.000
841.465;  556.750; -214.000; -141.000
841.715;  510.675; -417.000; -380.000
841.966;  667.225; -746.000; -685.000
842.216; 9876.975; -330.000; -431.000
842.466;34121.475; -169.000; -313.000
842.717; 1686.700; -964.000; -952.000
842.967;  318.175; -635.000; -641.000
843.217;  255.925;   20.000;   28.000
843.468;   65.425; -104.000; -132.000
843.718;  -37.375; -718.000; -726.000
843.968;  -90.575; -837.000; -765.000
844.218;   19.600; -315.000; -262.000
844.469;  -62.075; -577.000; -561.000
844.719; -107.400; -537.000; -682.000
844.969; -102.475; -550.000; -580.000
845.219; -161.225; -814.000; -862.000
845.469;  -86.100; -392.000; -342.000
845.719; -138.175; -792.000; -884.000
845.969;  -17.200;  119.000;  174.000
846.219; -117.825; -738.000; -720.000
846.469;   25.800;  464.000;  432.000
846.718;  -44.800; -115.000;   31.000
846.968; -135.925; -827.000; -827.000
847.218;  -46.475; -224.000; -371.000
847.468;    4.750; -586.000; -555.000
847.718; -151.500; -827.000; -798.000
847.967; -152.400; -826.000; -915.000
848.217;  -94.050; -449.000; -569.000
848.467;  -69.550; -405.000; -376.000
848.716; -111.925; -708.000; -725.000
848.966;    6.975; -372.000; -358.000
849.215;  -69.975; -428.000; -419.000
849.465;  -94.300; -785.000; -615.000
849.714; -137.700;-1132.000;-1150.000
849.964;  -73.500; -551.000; -613.000
850.213;  -25.350; -393.000; -355.000
850.463;   67.025;  137.000;  340.000
850.712;   -1.125; -542.000; -567.000
850.961;   16.750; -739.000; -678.000
851.211;   88.775; -513.000; -504.000
851.460;  166.125; -635.000; -650.000
851.709;  584.350;  -25.000;   18.000
851.958;10979.325; -912.000; -750.000
852.208;12224.225; -859.000; -879.000
852.457;  441.550; -181.000;  -13.000
852.706;   46.650; -791.000; -823.000
852.955;    2.950; -507.000; -528.000
853.204;  -77.700; -521.000; -461.000
853.453;  -71.025; -418.000; -458.000
853.702; -143.225; -660.000; -750.000
853.951; -113.750; -532.000; -520.000
854.200; -121.450; -613.000; -562.000
854.449; -141.025; -695.000; -661.000
854.698;  -90.350; -340.000; -279.000
854.946;  -83.525; -181.000; -284.000
855.195; -152.350; -843.000; -868.000
855.444;  -89.875; -395.000; -420.000
855.693; -126.475; -345.000; -432.000
855.941; -100.525; -387.000; -516.000
856.190;  -60.250; -256.000; -382.000
856.439; -135.950; -652.000; -703.000
856.687;  -66.425;  -99.000;  -72.000
856.936; -118.700; -621.000; -323.000
857.184; -198.375;-1067.000;-1020.000
857.433;  -98.200; -423.000; -512.000
857.681; -160.575; -989.000; -953.000
857.930;  -77.950; -282.000; -433.000
858.178; -172.000; -856.000; -929.000
858.427; -150.875; -802.000; -781.000
858.675; -121.375; -377.000; -544.000
858.923; -112.625; -527.000; -819.000
859.172; -187.600;-1094.000;-1070.000
859.420; -102.450; -339.000; -239.000
859.668; -138.500; -624.000; -628.000
859.916;  -30.950;  109.000;  115.000
860.164; -118.675; -699.000; -603.000
860.413;  286.575; -878.000; -696.000
860.661;  194.950; -709.000; -577.000
860.909; -102.125; -339.000; -325.000
861.157;  -82.375; -277.000; -444.000
861.405; -134.175; -534.000; -670.000
861.653;   10.050;  310.000;  310.000
861.901;  182.575; -543.000; -613.000
862.149;  -16.625; -801.000; -824.000
862.396;  -74.850; -297.000; -187.000
862.644; -101.450; -368.000; -347.000
862.892;  -35.425;   98.000;  138.000
863.140; -128.200; -549.000; -530.000
863.388; -170.075; -815.000; -759.000
863.635; -132.725; -642.000; -601.000
863.883;  -21.550;  231.000;  190.000
864.131;  -96.650; -288.000; -357.000
864.378; -139.825; -675.000; -540.000
864.626; -106.950; -347.000; -415.000
864.873; -123.075; -556.000; -505.000
865.121; -139.900; -714.000; -799.000
865.368;  -55.050; -173.000;   75.000
865.616;  -53.450;  -33.000;  -40.000
865.863;  -70.925; -462.000; -506.000
866.111; -117.925; -795.000; -824.000
866.358;   37.500; -426.000; -420.000
866.605; 2407.175;  -64.000; -804.000
866.853; 2225.875; -621.000; -537.000
867.100;  -56.350; -728.000; -775.000
867.347; -114.900; -672.000; -611.000
867.594;  -80.825; -740.000; -714.000
867.841;   95.250;   97.000;   17.000
868.089; -153.100; -746.000; -698.000
868.336; -122.100; -477.000; -420.000
868.583; -151.125; -637.000; -741.000
868.830;  -57.625; -131.000; -170.000
869.077; -176.325; -859.000; -787.000
869.324; -133.450; -502.000; -458.000
869.571; -128.750; -398.000; -430.000
869.818; -136.750; -485.000; -439.000
870.065;  -99.625; -439.000; -513.000
870.311; -121.825; -456.000; -542.000
870.558; -103.250; -332.000; -311.000
870.805;  -85.300; -320.000; -384.000
871.052; -104.050; -494.000; -369.000
871.298;  -63.675; -204.000; -131.000
871.545;  -70.500; -151.000; -185.000
871.792;  -85.700; -173.000; -222.000
872.038;  -67.175;   43.000; -126.000
872.285; -136.350; -496.000; -387.000
872.532; -108.375; -357.000; -387.000
872.778;   15.575;  556.000;  403.000
873.025; -109.675; -384.000; -359.000
873.271;   20.250;  501.000;  578.000
873.517;  -25.025; -133.000; -209.000
873.764;  -44.375; -193.000;  -80.000
874.010;  -67.150; -143.000; -230.000
874.257;  -67.475;  123.000;   90.000
874.503; -123.950; -579.000; -479.000
874.749;  -85.475;   31.000;  275.000
874.995;  -83.450;  -80.000;  -20.000
875.242; -127.375; -540.000; -478.000
875.488; -117.200; -414.000; -439.000
875.734;  -56.325; -106.000; -234.000
875.980;  206.325; -872.000;-1032.000
876.226;  339.575; -157.000; -255.000
876.472;  -22.350;  343.000;  237.000
876.718;  -40.225;  184.000;  158.000
876.964;  -42.775;   56.000;   55.000
877.210; -173.950; -547.000; -677.000
877.456; -132.375; -630.000; -557.000
877.702; -183.500; -821.000; -832.000
877.948; -114.600; -377.000; -497.000
878.193;    5.200;  361.000;  255.000
878.439;  -97.450; -487.000; -472.000
878.685; -105.625; -272.000; -343.000
878.931; -124.625; -618.000; -676.000
879.176;  -86.750; -201.000; -201.000
879.422; -172.925; -933.000; -820.000
879.668;   77.250;   10.000;   79.000
879.913;  133.150;   53.000;  137.000
880.159;  -50.775; -112.000;  -17.000
880.404;  -61.450; -152.000; -162.000
880.650;  -38.125;   91.000;  141.000
880.895; -160.950; -670.000; -710.000
881.141; -123.425; -454.000; -428.000
881.386; -143.625; -503.000; -658.000
881.631;  -92.925; -311.000; -166.000
881.877;  -49.750;  112.000;  -13.000
882.122; -139.100; -684.000; -600.000
882.367;  -77.025; -136.000; -186.000
882.612;  -75.550;  -80.000; -176.000
882.858; -180.625; -877.000; -823.000
883.103;  -98.375; -297.000; -267.000
883.348; -144.625; -759.000; -852.000
883.593; -157.525; -677.000; -602.000
883.838;  -59.675; -311.000;  -24.000
884.083;   15.425;  353.000;  288.000
884.328;  -90.750; -564.000; -545.000
884.573;  -41.600; -196.000; -143.000
884.818;  200.775; -694.000; -531.000
885.063;  165.575; -348.000; -315.000
885.308; -104.825; -475.000; -398.000
885.553;  -20.200;  245.000;  325.000
885.797; -129.175; -545.000; -615.000
886.042;  -74.625;    8.000;   58.000
886.287;  -95.350; -253.000; -211.000
886.532;  -50.775;   26.000;  204.000
886.776; -106.325; -407.000; -525.000
887.021; -150.875; -621.000; -574.000
887.265; -166.550; -685.000; -689.000
887.510; -141.325; -557.000; -496.000
887.755;  -87.825; -194.000; -164.000
887.999; -133.100; -552.000; -575.000
888.244;  -65.350;  -58.000;  161.000
888.488;  -11.700;  371.000;  393.000
888.732; -129.100; -368.000; -520.000
888.977; -132.200; -622.000; -567.000
889.221; -160.375; -683.000; -659.000
889.465; -116.100; -422.000; -566.000
889.710;  -81.250;  -56.000; -299.000
889.954;   -0.725;  579.000;  467.000
890.198; -151.875; -584.000; -707.000
890.442; -163.775; -716.000; -712.000
890.687; -173.850; -800.000; -753.000
890.931;  -97.575; -273.000; -210.000
891.175; -145.525; -502.000; -500.000
891.419;  -88.800; -105.000; -110.000
891.663;  -85.925; -239.000; -112.000
891.907; -170.550; -801.000; -545.000
892.151; -174.525; -920.000; -815.000
892.395; -122.125; -274.000; -387.000
892.638;  -17.450;  408.000;  291.000
892.882; -183.650; -780.000; -867.000
893.126;   13.725;  758.000;  558.000
893.370;  -97.100; -167.000; -168.000
893.614; -149.350; -714.000; -715.000
893.857; -103.575; -183.000; -197.000
894.101; -151.375; -527.000; -631.000
894.345;  -62.600;  300.000;  150.000
894.588;   15.950;  569.000;  380.000
894.832;  -92.600; -178.000;  -84.000
895.075;  -69.525;   15.000;  -92.000
895.319; -129.400; -552.000; -420.000
895.563; -125.100; -413.000; -353.000
895.806; -162.925; -628.000; -741.000
896.049;  -59.850; -576.000; -368.000
896.293;   94.950;  527.000;  405.000
896.536;  -71.575; -465.000; -468.000
896.779;  -58.900; -149.000;   -1.000
897.023; -143.675; -751.000; -714.000
897.266;  -37.225;  325.000;  269.000
897.509; -185.100; -900.000; -901.000
897.752;  -51.250;  149.000;  171.000
897.996; -191.925; -972.000; -864.000
898.239;  -57.775;  168.000;  102.000
898.482; -119.475; -431.000; -453.000
898.725;  -33.900;  101.000;   53.000
898.968; -154.775; -609.000; -744.000
899.211; -105.700; -513.000; -361.000
899.454; -120.800; -633.000; -539.000
899.697;  -79.150;   90.000;  -43.000
899.940; -169.250; -761.000; -757.000
900.182; -104.725; -335.000; -405.000
900.425;  -78.600; -150.000; -298.000
900.668;  -12.900;  491.000;  350.000
900.911;  -95.575; -292.000; -345.000
901.154;  -54.850;  141.000;   -3.000
901.396; -136.675; -407.000; -412.000
901.639; -148.350; -430.000; -496.000
901.882; -190.525; -790.000; -809.000
902.124;  -75.200;  -29.000; -143.000
902.367; -122.850; -315.000; -361.000
902.609; -136.900; -476.000; -453.000
902.852;  -83.325; -108.000; -260.000
903.094; -124.825; -458.000; -337.000
903.337;  -61.625;  -26.000;   53.000
903.579; -125.775; -228.000; -441.000
903.821; -152.300; -597.000; -744.000
904.064;  -65.875;   85.000;  127.000
904.306;  -80.625; -126.000; -166.000
904.548; -114.275; -152.000; -366.000
904.790; -119.325; -195.000; -340.000
905.033; -134.275; -625.000; -577.000
905.275; -138.375; -513.000; -524.000
905.517;   41.375;  468.000;  256.000
905.759;  -81.725; -667.000; -761.000
906.001;  -95.050; -322.000; -369.000
906.243;  -66.875; -162.000; -224.000
906.485;  125.150; -265.000; -207.000
906.727;   90.300; -499.000; -542.000
906.969;  -32.525;  -30.000; -135.000
907.211;  131.250; -316.000; -382.000
907.453;  262.425; -188.000; -237.000
907.695;   -1.125; -158.000; -385.000
907.936;   43.925;  818.000;  706.000
908.178;  -49.800;   92.000; -135.000
908.420;  -78.975; -111.000; -162.000
908.662; -143.550; -633.000; -682.000
908.903;  -83.650; -208.000; -123.000
909.145;  -59.950; -240.000; -305.000
909.386;   12.700;  315.000;  280.000
909.628;   41.875;  363.000;  397.000
909.870;   14.825;   29.000;  264.000
910.111; -109.175; -809.000; -949.000
910.353;   -3.650; -123.000; -161.000
910.594;   -3.375; -574.000; -606.000
910.835;   78.650; -265.000; -326.000
911.077;  147.125; -503.000; -604.000
911.318;  291.325; -505.000; -471.000
911.559;  471.325; -577.000; -880.000
911.801; 1395.875; -284.000; -280.000
912.042;11063.425;  -50.000; -159.000
912.283;26776.450;  404.000;  371.000
912.524; 3718.025; -396.000; -457.000
912.765;  455.125; -193.000;   79.000
913.006;  230.375; -307.000; -338.000
913.247;   33.525; -270.000; -290.000
913.488;  -10.500;  -43.000;   30.000
913.729;  -87.400; -373.000; -373.000
913.970;  -83.500;  -96.000; -292.000
914.211;  -88.250; -160.000; -198.000
914.452;  -58.900; -118.000;  -11.000
914.693;    0.500;  510.000;  592.000
914.934;   10.250;  510.000;  440.000
915.175;  -71.375;   53.000;  -95.000
915.415;  -78.400; -137.000;   27.000
915.656;  -75.825;  -28.000;  192.000
915.897; -102.375; -252.000;  -82.000
916.137;  -72.625;   74.000;   -9.000
916.378; -129.900; -573.000; -517.000
916.619;  -83.650; -159.000;  -63.000
916.859;  -25.600;  303.000;  330.000
917.100;  134.600; 1655.000; 1070.000
917.340;   50.775;  930.000;  728.000
917.581;   39.175;  965.000;  789.000
917.821;  -26.775; -171.000;  143.000
918.061;   13.200; -199.000;  -72.000
918.302;  -47.600; -152.000; -211.000
918.542;  -31.250;  -22.000;    3.000
918.782;   39.300;  369.000;  377.000
919.023;  145.975;  360.000;  427.000
919.263; 1371.600; 8131.000;  202.000
919.503; 1086.300; -137.000;  -54.000
919.743;  622.525;  390.000;  266.000
919.983;  247.650; -134.000;  -26.000
920.223;   74.675;  135.000;   14.000
920.463;  145.025;  631.000;  554.000
920.703;  133.975;   84.000;   39.000
920.943;  144.025; -110.000;   90.000
921.183;  217.725; -414.000; -405.000
921.423;  507.225;  307.000;  546.000
921.663;  741.400; -174.000; -257.000
921.903; 1611.025;  237.000;  173.000
922.143; 9236.000;  372.000;  389.000
922.383;34046.350;  158.000;  115.000
922.622;10426.000; -120.000;  -15.000
922.862; 1137.125;  796.000;  785.000
923.102;  429.400;  -51.000;   33.000
923.341;  162.425;   59.000;   74.000
923.581;   69.400;  450.000;  360.000
923.821;   19.475;  301.000;  398.000
924.060;   13.875;  351.000;  193.000
924.300;  -57.675;  -16.000; -128.000
924.539;  -16.075;  584.000;  473.000
924.779;    1.200;  812.000;  597.000
925.018;  -61.075;  247.000;  353.000
925.257;   -2.700;  595.000;  666.000
925.497;  -30.800;  447.000;  412.000
925.736;  -76.900;  -35.000;  102.000
925.975;   11.350;  687.000;  669.000
926.214;    9.550;  907.000;  850.000
926.454;   22.375;  706.000;  757.000
926.693;  -39.050;  419.000;  543.000
926.932;   37.550; 1021.000;  825.000
927.171;   55.200; 1107.000; 1044.000
927.410;   59.700; 1144.000;  967.000
927.649;   14.900;  924.000;  742.000
927.888;  -18.250;  590.000;  564.000
928.127;   -3.275;  680.000;  678.000
928.366;   24.575;  842.000;  826.000
928.605;   33.475;  831.000;  737.000
928.844;  258.550; 1451.000; 1393.000
929.083;  611.425;  770.000;  613.000
929.321;  306.575; 1335.000; 1359.000
929.560;   94.425; 1158.000; 1122.000
929.799;  -18.575;  574.000;  475.000
930.038;   67.775; 1025.000; 1394.000
930.276;  -52.975;  334.000;  397.000
930.515;  -15.125;  827.000;  681.000
930.753;  -29.925;  614.000;  589.000
930.992;  -34.975;  664.000;  717.000
931.230;    1.925;  847.000;  847.000
931.469;  174.850; 2162.000;  892.000
931.707;   81.300;  840.000;  751.000
931.946;   62.300; 1278.000; 1344.000
932.184;   56.675; 1437.000; 1175.000
932.423;   34.675; 1265.000;  963.000
932.661;   81.075; 1296.000; 1428.000
932.899;   35.900;  987.000;  821.000
933.137;    4.875;  754.000;  564.000
933.376;  150.875; 1664.000; 1335.000
933.614;  164.750; 1759.000; 1196.000
933.852;   49.125; 1357.000; 1171.000
934.090;  142.100; 1722.000; 1747.000
934.328;  102.700; 1252.000; 1457.000
934.566;   82.175; 1431.000; 1110.000
934.804;  135.275; 1263.000; 1309.000
935.042;  469.425; 1861.000; 1850.000
935.280; 1864.000; 2088.000; 2063.000
935.518; 1665.875; 2113.000; 2007.000
935.756;  366.250; 2481.000; 2316.000
935.994;  158.225; 1808.000; 1751.000
936.231;  357.250; 2890.000; 2950.000
936.469;  195.675; 2367.000; 2378.000
936.707;  165.725; 2220.000; 2167.000
936.945;  223.600; 2825.000; 2882.000
937.182;  210.075; 2679.000; 2741.000
937.420;  314.150; 3602.000; 3031.000
937.657;  418.325; 3365.000; 3478.000
937.895;  361.900; 3331.000; 3488.000
938.133;  310.075; 3540.000; 3528.000
938.370;  360.575; 3896.000; 4191.000
938.607;  395.000; 4488.000; 4205.000
938.845;  553.325; 5587.000; 5549.000
939.082;  479.500; 5387.000; 5177.000
939.320;  561.100; 5799.000; 5728.000
939.557;  648.100; 6549.000; 6491.000
939.794;  757.925; 7285.000; 7097.000
940.031;  967.575; 8421.000; 8368.000
940.269; 1133.200; 9552.000; 9107.000
940.506; 1122.325;10901.000;10507.000

