
Integration time [ms]: 100.000
Averaging Nr. [scans]: 40
Smoothing Nr. [pixels]: 0
Data measured with spectrometer [name]: 2101013U2
Wave   ;Sample   ;Dark     ;Reference
[nm]   ;[counts] ;[counts] ;[counts] 

394.013;   83.034; -450.257; -315.536
394.305;  251.132; -461.258; -419.536
394.596; 1130.678; -676.269; -527.514
394.887; 2682.845; -796.268; -654.518
395.178; 1031.476;  145.736;   11.476
395.470;   88.437; -210.263; -356.526
395.761;  220.635;  305.734;  394.479
396.052;  410.527; -545.284; -306.489
396.343;  392.948; -557.276; -454.503
396.634;  143.191; -200.279; -290.497
396.926;  152.742; -618.268; -565.517
397.217;  130.752;   11.725;  -17.504
397.508;   64.468; -366.273; -154.507
397.799;   69.591; -555.279; -571.497
398.090;   14.585; -973.280; -902.495
398.381;  147.502;   11.708;  -11.473
398.672;    5.928; -585.292; -742.473
398.963;   67.247; -348.279; -373.498
399.254;  111.837;   54.709; -209.475
399.545;  -21.843;-1017.266; -883.520
399.836;   72.162; -407.277; -343.501
400.127;   63.303; -205.295; -209.468
400.418;   60.238; -423.274; -392.506
400.709;   76.298; -359.281; -333.493
401.000;   51.366; -268.291; -309.476
401.290;   98.689;  225.698;  115.545
401.581;   70.410; -166.286; -228.485
401.872;   34.025; -542.298; -486.462
402.163;   72.746; -313.296; -252.467
402.454;  108.963; -123.291; -163.475
402.744;  109.837; -844.297; -813.465
403.035;  487.193; -226.293;  -86.471
403.326;  651.981; -366.292; -384.474
403.617;  415.469;  204.701;  165.539
403.907;  256.508; -593.283; -679.490
404.198; 2418.293; -545.307; -599.446
404.489; 6291.163; -618.283; -588.491
404.779; 2137.593; -618.302; -660.456
405.070;  236.646;  -67.304; -174.451
405.360;  335.470; -259.293; -238.472
405.651;  377.354;  125.699;   98.542
405.942;  210.180;  209.714;  127.516
406.232;  319.070; -432.285; -413.487
406.523;  546.163;  641.706;  758.530
406.813;  111.957; -579.286; -644.484
407.104;  407.201;  261.708;  144.527
407.394;  205.921; -604.299; -591.462
407.685;  174.144;  336.715;  222.513
407.975;   79.587; -400.283; -382.490
408.265;  131.027; -134.289; -190.478
408.556;   86.260; -472.291; -459.475
408.846;  151.464;  474.706;  429.530
409.137;   78.436;   -1.288; -216.480
409.427;   61.070; -193.285; -271.487
409.717;   55.246; -776.273; -692.508
410.007;  130.438;    4.715; -170.486
410.298;   85.606; -360.295; -342.469
410.588;   70.792; -495.285; -510.486
410.878;   47.097; -792.287; -873.482
411.168;  135.027; -481.298; -478.463
411.459;  122.306; -295.283; -242.489
411.749;   55.183; -609.292; -507.474
412.039;   76.134; -755.289; -386.480
412.329;  220.379;   40.722;  132.501
412.619;  213.933;  -62.286; -148.485
412.909;  380.905;  639.711;  594.521
413.199;  364.886; -130.280; -251.495
413.490;  411.196;  521.710;  352.523
413.780;  148.165;-1013.279; -913.496
414.070;  344.999;  -46.276;  235.497
414.360;  421.226; -729.278; -666.498
414.650;  440.293; -726.288; -688.482
414.940;  549.189; -538.280; -441.496
415.230;  933.890;   50.712;   74.519
415.520; 6091.602;  155.730;   66.486
415.809;24007.672; -305.281; -125.493
416.099;18351.389; -388.277; -229.501
416.389; 5086.210;  435.726;  236.494
416.679; 3009.841;   91.738;   85.473
416.969;  525.627; -527.287; -503.483
417.259;  478.042;  341.721;  171.503
417.549;  705.071;  522.718;  318.508
417.838; 1621.219; -205.268; -147.518
418.128; 5467.126;  650.710;  492.522
418.418; 4524.953; -491.272; -579.509
418.708; 3069.410;    9.726;  -48.506
418.997;11522.006; -474.275; -480.505
419.287;11922.867; -733.273; -790.507
419.577;11202.456; -160.283; -123.489
419.866;37401.412; -588.277; -498.501
420.156;38331.823; -242.270;  -55.513
420.446; 6897.908; -112.263;  -26.526
420.735;  937.067; -376.271; -446.512
421.025;  849.400; 1830.722;  315.502
421.314;  751.315; -203.271; -226.512
421.604; 1650.487;   89.732;  233.484
421.893;  935.487; -705.271; -602.511
422.183;  252.733; -487.263; -461.526
422.472;  387.938;  -36.271; -107.511
422.762;  486.012; -416.266; -379.521
423.051;  261.349; -916.276; -916.503
423.341;  342.619; -491.273; -439.507
423.630;  454.868; -121.265;   15.477
423.919;  415.631;   58.725;   49.495
424.209;  383.889;  -31.263;   56.473
424.498;  500.667;   68.732;  161.483
424.787; 1118.923; -535.267; -601.518
425.077; 3447.017;   34.735;   29.478
425.366; 5034.769; -734.262; -744.528
425.655; 9963.170;  639.727;  259.493
425.945;21081.824; -313.247; -268.554
426.234;11607.642;  117.741;  300.467
426.523; 5101.022;  -86.259; -350.534
426.812; 6941.033;  107.734;  159.480
427.101;10198.509; -127.269; -323.515
427.390;12969.527;  -55.270;  -86.514
427.680; 3140.642; -624.257; -411.538
427.969;  502.353; -330.255; -301.540
428.258;  346.034; -385.257; -477.536
428.547;  576.207;  449.728;  397.490
428.836; 1448.169; -421.253; -398.543
429.125; 2056.999; -199.259;  -72.534
429.414;  866.892; -330.251; -294.548
429.703; 3137.942; -231.251; -213.548
429.992; 9296.521; -938.250; -828.549
430.281; 6059.651; -397.264; -331.524
430.570;  608.282;  -21.252;   32.454
430.859;  603.447;  279.741;  352.466
431.148;  438.170;  636.752;  631.446
431.437;  295.832;  391.748;  367.454
431.725;  156.810; -544.257; -481.536
432.014;  131.677; -845.253; -756.545
432.303;  411.521; -149.239; -105.569
432.592;  664.433; -460.263; -178.525
432.881; 1061.921; -601.248; -437.554
433.169; 6074.279; -343.255;  -61.540
433.458;12439.905;  445.765;  540.424
433.747; 5182.900; -397.261; -289.529
434.036;  964.622; -275.242; -280.564
434.324; 2120.883; -395.249; -379.551
434.613; 3635.240;   40.757;  159.437
434.902; 1241.586;  333.760;  439.433
435.190;  648.670;   75.761;  295.431
435.479;  384.672;  -52.245;   83.441
435.767;  120.880; -411.244; -427.561
436.056;  244.017; -340.242; -294.563
436.345;  374.613; -372.240; -223.568
436.633;  404.628;   60.750;  383.450
436.922;  301.965;  208.760;  414.432
437.210;  690.770; -194.236;    1.426
437.499; 2273.728; -583.235; -432.576
437.787; 2509.669; -339.236;  -10.574
438.075;  617.975;   56.761;  162.430
438.364;  853.603;  -44.238;  250.429
438.652;  529.658; -286.226; -138.592
438.941;  152.047;    3.770;  269.415
439.229;    9.655; -665.252; -466.545
439.517;   47.636; -160.234;  -85.577
439.806;    2.674; -501.225; -290.595
440.094;  199.694;  377.766;  650.421
440.382;  236.948; -653.233; -302.580
440.670;  233.027; -361.235; -285.576
440.959;   34.091; -347.223; -170.599
441.247;   72.833; -151.229; -109.587
441.535;  131.560; -266.235;   31.423
441.823;   57.141; -497.234; -305.578
442.111;  189.187;  173.771;  327.412
442.400;  587.471; -628.245; -335.559
442.688; 1609.668; -111.234; -620.579
442.976; 1221.779; -786.213; -450.617
443.264;  138.330; -324.224; -364.597
443.552;  123.384; -258.226;   51.408
443.840;  183.333;  602.765;  876.423
444.128;  101.172;  265.767;  269.420
444.416;   22.540; -694.228; -312.588
444.704;   50.821; -465.219;  -92.605
444.992;   81.937;   -0.226;  240.407
445.280;   52.322; -517.230;  -94.585
445.568;   56.183; -694.212; -396.618
445.856;  379.705; -174.221;  357.398
446.143;  905.467;  -54.220;   -7.604
446.431;  733.169;  -25.228;  625.411
446.719;  270.365;  489.783;  675.391
447.007;  193.517;  481.769;  705.416
447.295;  172.063;  597.777;  871.402
447.583;  105.131; -464.229;  -34.587
447.870;  168.102; -434.221; -202.601
448.158;  470.721; -104.230;  129.415
448.446;  365.893; -800.219; -338.604
448.733;  189.032;   13.776;  269.403
449.021;  270.232;   60.788;  341.382
449.309;  205.197; -296.210;  208.379
449.596;  232.186;  128.783;   59.392
449.884;  170.345; -571.222; -325.600
450.172;  149.524; -756.227; -406.590
450.459;  444.387;  645.786;  780.387
450.747; 2316.485; -411.218; -147.608
451.034; 7450.245;  493.772;  889.411
451.322; 6118.440; -413.214; -170.614
451.609;  521.033;  292.777;  508.403
451.897;  582.686; -550.203; -183.634
452.184; 1759.213; -622.223; -400.598
452.472; 1667.444;   97.792;  269.375
452.759;  350.244;  512.781;  864.395
453.047;  135.230; -407.212; -125.617
453.334;   90.427; -732.219; -216.606
453.621;  106.193; -438.214; -161.615
453.909;  131.778;   13.796;  384.368
454.196;  118.673; -299.199; -123.641
454.483;  211.149;  317.798;  540.364
454.771;  148.372; -215.208;  196.374
455.058;   42.475; -316.207;  102.374
455.345;  103.928;   71.807;  344.347
455.632;   87.903; -128.207;  235.373
455.919;   38.896;  -82.196;  182.354
456.207;  -42.047; -774.198; -450.642
456.494;   -1.114; -475.200;  -66.639
456.781;   17.894; -399.202; -198.635
457.068;   59.160; -253.206;  -29.628
457.355;   -6.939; -698.206; -401.629
457.642;   -5.783; -552.205; -290.630
457.929;    7.745; -778.194; -417.651
458.216;   60.280; -575.212; -354.617
458.503;  230.549; -173.193;  -19.652
458.790;  218.970; -864.208; -630.625
459.077;  278.124;  -77.202;  110.364
459.364;  764.237; -350.195; -210.649
459.651; 1682.958;  -46.206;  220.372
459.938;  789.935; -864.209; -665.623
460.225;  157.452;  132.799;  276.363
460.512;  -45.182; -836.197; -688.645
460.799;   97.334;  -32.218;  320.392
461.086;   78.440; -370.200; -251.640
461.372;   64.578; -509.198; -279.642
461.659;  121.747; -165.196;  108.354
461.946;   73.923; -445.193;  -54.651
462.233;  241.188;  842.800;  888.361
462.519;  351.510; -814.201; -464.639
462.806; 1008.968; -768.197; -497.645
463.093;  864.619; -445.191;  -66.656
463.380;  -20.740; -920.186; -824.664
463.666;   57.345; -259.197;  -18.646
463.953;   92.107; -406.195; -243.648
464.239;  181.907; -173.195;  -77.648
464.526;  411.143;  413.806;  743.350
464.813;  368.855; -565.190; -304.658
465.099;  369.224;  606.807;  607.348
465.386;  343.953;  903.807;  921.348
465.672;   40.644; -694.197; -522.645
465.959;   26.723; -598.188; -520.662
466.245;   20.353; -468.193; -359.652
466.532;  109.405; -109.195;   63.352
466.818;   74.410; -357.186; -216.664
467.104;    1.525; -488.182; -415.672
467.391;  -21.868; -628.189; -459.658
467.677;   28.138; -289.186;    9.335
467.964;   23.339; -682.189; -471.660
468.250;   64.341; -331.186; -160.665
468.536;   61.683;   90.811;  180.341
468.822;  -30.872; -821.184; -574.668
469.109;  142.581;  351.827;  471.311
469.395;  194.063;  729.808;  787.346
469.681;  197.386;   46.811;  156.341
469.967; 1229.616; -699.188; -382.660
470.254; 2636.299; -494.188; -306.662
470.540; 1674.646; -601.196; -476.646
470.826;  243.861; -488.181; -397.675
471.112;  289.981;  288.816;  113.331
471.398;   90.161; -253.183;  -58.670
471.684;   52.589; -626.177; -447.680
471.970;   13.640; -918.180; -981.675
472.256;   30.362; -521.192; -441.654
472.542;   13.367; -499.171; -434.691
472.828;    4.346; -743.182; -607.672
473.114;   27.136; -380.166; -283.700
473.400;   20.831; -504.175; -293.684
473.686;   53.842; -452.166; -400.701
473.972;   58.196; -230.174; -131.687
474.258;  -44.569; -925.173; -843.689
474.544;  200.506; -183.178;   -2.679
474.830;  293.558;  -65.175;   45.316
475.116;  480.082; -123.190; -196.658
475.401;  639.167; -558.180; -467.676
475.687;  203.016; -725.180; -718.676
475.973;   12.729; -673.181; -770.673
476.259;  231.835;  736.825;  764.315
476.544;  389.073; -539.176; -437.682
476.830;  811.763; -398.172; -322.690
477.116;  683.196; -430.177; -336.682
477.401;  143.167;  346.820;  358.324
477.687;  -17.619; -289.175; -405.684
477.973;   41.057;   21.819;   28.326
478.258;   -2.038; -448.163; -348.706
478.544;   65.846;   21.815;   61.334
478.829;  -43.753; -818.171; -738.692
479.115;  -28.737; -749.172; -651.690
479.401;  -11.309; -444.174; -449.686
479.686;   27.166; -253.180;  -74.676
479.972;  -51.239; -886.178; -776.680
480.257;   40.362; -258.166;  -65.700
480.542;   -3.949; -614.170; -469.693
480.828;  234.879; 1288.824; 1392.317
481.113;  -25.048; -464.176; -426.683
481.399;   -3.564; -236.161; -202.711
481.684;  -58.314; -620.166; -462.700
481.969;   23.900; -158.159;  -73.713
482.255;  -16.688; -439.169; -285.695
482.540;    0.162; -569.178; -441.680
482.825;   -2.895; -395.187; -404.663
483.110;   99.265;  -85.169; -105.696
483.396;  165.021; -840.157; -652.718
483.681;  477.196;  543.826;  730.313
483.966;  152.969; -696.160; -700.712
484.251;    0.870; -404.174; -310.687
484.536;    7.172; -356.165; -378.703
484.822;   30.273; -205.173; -218.687
485.107;  -32.915; -599.152; -502.726
485.392;  125.128;  662.836;  541.296
485.677;   67.200;  354.832;  163.302
485.962;  101.169;  160.843;  270.283
486.247;  104.395;  -14.162;   -8.707
486.532;   49.288; -178.166; -325.701
486.817;  159.306;  381.839;  431.291
487.102;  134.743; -453.154; -514.722
487.387;  640.023; -637.156; -652.718
487.672; 1117.958; -154.164;  -38.705
487.957;  704.188; -394.160; -286.711
488.241;  199.126; -290.150; -314.729
488.526;  703.386; -280.152; -148.726
488.811; 1174.764; -881.177; -818.680
489.096;  883.420; -666.154; -702.723
489.381;  496.107;    3.847;  162.275
489.666;  348.336; -428.161; -510.710
489.950;  173.473;  558.846;  627.277
490.235;  -20.929; -480.151; -458.728
490.520;  -38.115; -756.161; -723.710
490.804;  -59.450; -827.156; -736.719
491.089;    4.667; -469.149; -299.732
491.374;   13.357; -132.164;  -75.704
491.658;   -2.446; -817.147; -717.735
491.943;  190.065; -657.152; -609.727
492.227;  274.263; -178.155;  -38.721
492.512;   54.993; -294.157; -341.717
492.797;  -67.739; -713.149; -716.731
493.081;  -41.394; -588.147; -598.735
493.366;  -37.488; -751.161; -635.711
493.650;  203.735;  831.859;  917.254
493.935;   30.878; -648.147; -447.734
494.219;  -34.528; -778.142; -687.743
494.503;  -44.519; -585.150; -487.730
494.788;   43.810;   46.842;   74.285
495.072;  110.003;  184.850;  434.271
495.356;  172.445; -463.148; -343.733
495.641;  493.988; -812.146; -736.736
495.925;  484.980; -976.156; -903.719
496.209;   67.892; -599.149; -451.732
496.494;  -31.577; -763.142; -544.744
496.778;   -1.557; -364.154; -360.722
497.062;  -54.045; -819.156; -627.719
497.346;  -37.535; -869.160; -640.711
497.631;  138.574;  580.852;  560.266
497.915;   87.049;  -64.145;  175.261
498.199;   50.771; -341.157; -277.718
498.483;   34.134; -562.152; -508.725
498.767;  197.429;  301.850;  300.271
499.051;  188.614; -126.149; -100.732
499.335;   28.487; -693.149; -739.731
499.619;  -27.089; -381.129; -423.767
499.903;   32.812; -272.155;  -65.721
500.187;   29.375; -588.153; -316.724
500.471;   47.040; -796.152; -595.727
500.755;  121.260;   62.839;  -96.710
501.039;   27.688; -270.155; -357.721
501.323;   97.012;  -21.141;  264.254
501.607;   38.038; -447.163; -503.706
501.891;    2.098; -607.156; -512.718
502.174;  -24.365; -726.144; -585.741
502.458;   82.119;   89.849;  370.273
502.742;   42.510; -180.138; -191.751
503.026;   99.353; -412.147; -254.734
503.310;  165.249; -437.159; -375.713
503.593;  112.054; -464.147; -325.735
503.877;  127.926; -232.133; -156.760
504.161;  196.452;    2.847;  -50.724
504.444;  147.812; -841.158; -710.716
504.728;  436.306; -487.164; -522.704
505.012;  679.776; -257.150;  -76.729
505.295;  525.911; -417.161; -212.711
505.579;  534.180; -256.156; -496.719
505.862;  708.470; -555.145; -333.738
506.146;  701.876; -681.159; -758.714
506.429;  391.277;  568.841;  461.286
506.713;   64.173; -732.151; -667.728
506.996;  310.692;   90.846;  295.278
507.280;  333.251; -633.165; -474.703
507.563;  222.661; -469.155; -261.721
507.847;   97.426; -423.153; -112.724
508.130;  100.212; -665.161; -456.711
508.413;  115.058; -758.167; -577.700
508.697;  243.608; -151.167;   12.300
508.980;  135.577; -422.153; -312.724
509.263;   -7.568; -466.155; -450.720
509.547;   41.050; -124.150;   82.271
509.830;   43.414; -172.160;  140.289
510.113;   79.004;  128.844;  298.281
510.396;   35.058; -530.152; -300.725
510.680;  190.046; -818.145; -812.738
510.963;  719.847;  184.846;  180.277
511.246;  678.308; -493.150; -357.730
511.529;  283.351; -482.145;  -83.739
511.812;  361.897; -250.134;   10.241
512.095;  247.420; -740.151; -396.728
512.378;   65.783; -317.147; -245.736
512.661;   16.718; -703.137; -623.753
512.944;   20.174; -750.142; -637.744
513.227;   68.165; -170.137; -171.752
513.510;   15.185; -479.144; -671.741
513.793;   27.591; -485.140; -435.747
514.076;  144.082;  -43.127;  -39.771
514.359;  104.618; -294.149; -135.732
514.642;   70.977; -442.142; -567.744
514.925;  742.914;  581.860;  561.253
515.208;  955.844; -498.134; -443.758
515.491;  660.458; -276.133; -182.761
515.773;  359.513; -410.143; -337.742
516.056; 2038.849;  249.864;  409.246
516.339; 2801.853; -754.136; -652.755
516.622; 1997.156; -518.150; -488.730
516.904; 1423.520;  882.857;  975.257
517.187;  680.214; -730.138; -523.752
517.470;  421.894; -568.143; -510.743
517.752;  426.406; -624.136; -470.756
518.035;  324.126; -708.139; -725.749
518.318;  352.729; -799.136; -744.755
518.600; 2344.511; -300.132; -325.762
518.883; 3247.051;  310.858;   88.256
519.165; 1571.982; -585.138; -426.751
519.448;  427.686;  -61.132;  -19.762
519.730;  224.390; -573.126; -415.773
520.013;  342.629;  588.867;  664.240
520.295; 1008.324;  -94.134;  -15.759
520.578; 2226.824; -335.131; -305.764
520.860; 2486.161; -254.132;   56.238
521.143; 1273.208; -763.135; -584.756
521.425;  489.977; -251.125; -279.775
521.707;  689.032; -622.127; -380.771
521.990; 1754.883; -199.127;  167.229
522.272; 1960.193; -116.140;   -4.748
522.554;  923.439; -237.143; -157.742
522.836;  430.822;  -24.134;   99.241
523.119;  253.451; -496.148; -189.734
523.401;  166.631; -448.130; -314.766
523.683;   84.444; -865.137; -693.753
523.965;  250.612;  408.862;  260.248
524.247;  270.624;   54.878;  170.220
524.529;  215.499; -451.134; -367.759
524.812;  343.958;   -3.130;  191.234
525.094;  817.736; -773.138; -631.751
525.376; 1308.112; -143.124;   78.223
525.658;  800.526; -441.136; -339.754
525.940;   16.321; -805.131; -671.764
526.222;   46.904; -188.136;  -88.755
526.504;  137.368; -190.131;   32.237
526.786;  238.501; -960.133; -647.760
527.068;  355.067; -124.123;  -67.778
527.349;  160.547; -865.137; -774.754
527.631;  143.361; -137.132;   22.238
527.913;  133.607; -664.127; -450.771
528.195;  163.720; -761.125; -639.774
528.477;  239.769;  -93.134;  -30.758
528.759;  130.583; -648.130; -522.766
529.040;   63.816; -569.123; -293.778
529.322;   49.098; -235.125;  -10.774
529.604;  175.685;  -47.130;   93.233
529.886;  155.764; -546.126; -302.773
530.167;  151.326;  232.870;  192.235
530.449;   42.508;    1.853;   63.265
530.731;   20.598; -572.122; -459.779
531.012;   55.094; -513.120; -216.784
531.294;   77.233; -118.116;  -43.792
531.575;  139.402;  290.875;  538.225
531.857;   63.839; -548.135; -266.757
532.138;   90.860; -113.141;   40.254
532.420;  182.760;  294.865;  403.244
532.701;  257.454; -722.133; -751.760
532.983;  386.382;  232.867;  182.239
533.264;  133.162; -243.126;  175.228
533.546;  -33.571; -491.136; -508.755
533.827;   48.200;  173.867;   -1.759
534.109;   63.289; -352.135;  -80.757
534.390;  107.640; -725.132; -582.762
534.671;  275.835; -270.135;  -82.756
534.953;  154.744; -751.123; -611.779
535.234;   20.143; -426.117; -255.789
535.515;  -70.273; -891.119; -735.785
535.796;   -4.222; -431.128; -193.770
536.078; -111.139;-1050.124; -904.777
536.359;    6.194;  -22.123;    3.221
536.640;  -19.853; -480.125; -197.774
536.921;  165.915;  225.871;  143.232
537.202;  377.983;  -87.138;  -16.751
537.483;  442.448;  251.869;  377.236
537.764;  160.652;   17.870;   98.235
538.045;  -44.357; -543.134; -371.758
538.326;  -37.958; -596.129; -447.768
538.607;   27.683; -686.127; -476.771
538.888;  171.560;   98.879;    5.218
539.169;  177.329; -704.122; -535.781
539.450;  343.064;  236.871;   16.233
539.731;  227.589; -361.121; -182.783
540.012;  143.894;  199.880;  412.216
540.293;   97.656;   82.876;  158.224
540.574;   22.854; -895.113; -717.796
540.855;  471.637;  435.879;  377.218
541.136;  551.302;   47.878;  139.220
541.416;  282.983; -161.130; -220.766
541.697;  190.519; -274.131; -170.763
541.978; 1000.787; -270.135; -315.757
542.259; 1310.583; -211.127; -236.771
542.539;  615.527; -191.116; -186.790
542.820;  189.677;  461.875;  480.225
543.101;  141.823;  -52.145;  -77.738
543.381;   43.483; -638.127; -591.771
543.662;  266.730;  159.873; -254.771
543.942;  571.854; -751.127; -830.770
544.223; 1030.303;  193.878;  161.219
544.504;  677.611; -275.124; -182.777
544.784;  583.489; -592.126; -408.773
545.065; 1633.255;  104.884; -254.791
545.345; 1914.177;  227.881;   14.215
545.626; 1235.928;  -14.113; -108.796
545.906;  861.476;   77.869;   98.235
546.186;  356.869;   92.874;  -95.773
546.467;  187.214;   99.877;  -95.778
546.747;  320.101;  264.884;  327.210
547.027;  365.610;   91.876;  111.223
547.308;  315.528; -376.127; -530.770
547.588;  399.443;  299.871;  371.232
547.868;  196.302;  458.870;  588.235
548.149;  185.638;  609.885;  593.207
548.429;  120.131; -347.127; -299.771
548.709;  172.118; -645.120; -461.784
548.989;  452.387;   84.882;   88.213
549.269; 2005.734;   10.868;  139.239
549.550; 4673.993;  215.877;  117.222
549.830; 4143.496; -758.111; -556.799
550.110;  798.628; -468.110; -320.801
550.390;  812.898; -128.122;  -56.779
550.670; 1114.474; -868.114; -783.795
550.950;  796.462; -509.121; -471.782
551.230;  178.708;  549.879;  460.218
551.510;    0.961; -381.121; -326.782
551.790;   29.336; -173.109; -127.803
552.070;  252.063;  940.877; 1181.223
552.350;  390.381; -492.119; -377.786
552.630;  544.706;   -2.121;   77.219
552.909;  333.906;  181.884;   73.209
553.189;  222.766;  -49.132;   33.237
553.469;  176.281; -703.119; -514.786
553.749;  180.484; -469.127; -357.772
554.029;  152.347;   33.883;  -24.790
554.308;  130.792; -154.115;  -37.794
554.588;   46.727; -196.128; -204.770
554.868;   64.213; -366.121;  -47.782
555.147;  135.839; -114.115;  -46.793
555.427;  559.383; -260.116; -250.792
555.707; 3727.662; -284.115; -200.793
555.986; 4553.574; -719.111; -538.800
556.266; 2374.500;   23.884;   72.210
556.546;  112.086; -888.121; -675.782
556.825;  240.221; -657.114; -556.794
557.105; 1735.449; -125.128;   17.230
557.384; 2024.255;  122.884;  187.209
557.664;  755.133; -717.116; -508.792
557.943;  110.187; -557.121; -411.782
558.222;  170.140; -345.118; -344.788
558.502;  276.966; -116.115;  -76.793
558.781;  478.261;  194.885;  499.208
559.061;  383.515; -232.118; -227.788
559.340;  293.470;  302.883;  353.211
559.619;  679.100;   93.884;  148.210
559.899;  967.096; -239.117; -266.789
560.178;  894.065; -778.115; -593.793
560.457; 2981.798; -623.117; -562.790
560.736; 4253.950; -472.111; -482.800
561.015; 2781.422; -500.128; -502.769
561.295;  379.231;  180.893;  215.193
561.574;  340.688;  119.885;  116.207
561.853;  486.715;  274.891;  303.197
562.132;  487.743;  -45.114;  182.206
562.411;  426.131;  396.879;  553.219
562.690;  135.761; -592.115; -458.792
562.969;  125.610;  472.888;  630.203
563.248;  490.429; 2966.878; 2487.219
563.527;  263.375; -290.111; -408.800
563.806;  359.956; -650.127; -521.771
564.085;  400.671; -297.105; -206.810
564.364;  225.325; -594.117; -405.790
564.643;  473.082; -276.121; -223.781
564.922; 1826.409;  221.890;  397.198
565.201; 1844.638; -640.109; -700.803
565.479;  796.310; -297.115; -219.792
565.758;  296.500; -810.128; -712.770
566.037;  462.414; -155.109; -100.803
566.316;  227.830; -286.116;  -28.791
566.595;   52.037;  -17.115;  -12.793
566.873;   99.302; -166.111;  -79.801
567.152;  -71.916; -490.113; -590.797
567.431;   -8.499; -113.116;    6.210
567.709;    8.681; -344.107; -212.807
567.988;  250.396; -810.114; -769.794
568.266;  516.362; -160.115;  -68.793
568.545;  353.143; -644.100; -514.819
568.824;  552.634;  160.885;  356.208
569.102;  518.321; -351.114; -235.794
569.381;  207.783; -492.116; -407.792
569.659;  -45.244; -553.113; -553.796
569.938;   37.452; -743.122; -465.780
570.216;  113.817; -225.109; -225.804
570.494;  -18.501; -632.114; -572.795
570.773;   28.435;  202.879;  114.218
571.051;   18.841; -373.123; -357.778
571.330;   59.928; -221.113; -174.796
571.608;   30.011; -181.098; -173.823
571.886;  -78.856; -671.111; -581.799
572.164;  -65.487; -739.121; -621.782
572.443;  -44.325; -562.105; -512.811
572.721;  -42.452; -399.117; -289.790
572.999;  -22.858; -280.117; -168.788
573.277;   94.093;  379.894;  620.191
573.555;  260.121;   94.894;   37.190
573.834; 1305.166;  -86.117; -114.788
574.112; 1493.659;  880.893;  811.193
574.390;  454.026; -143.111;  -96.801
574.668;  -14.264;  -91.112;  -61.797
574.946;   -9.379; -165.106; -187.810
575.224;   -3.337;   71.891;  -16.803
575.502;  -24.647; -200.116; -204.791
575.780;  -96.963; -767.112; -829.798
576.058;  131.275; 1589.889; 1004.200
576.336;  -28.870; -210.110; -129.801
576.614;  -54.888; -511.112; -340.798
576.891;   49.042; -711.115; -823.794
577.169;  444.700; -158.108; -285.805
577.447;  564.458;  169.893;  202.193
577.725;  267.041;  629.888;  854.201
578.003;   16.189;  -71.112; -371.798
578.280;   89.184; -208.104; -242.812
578.558;   80.791; -450.115; -422.793
578.836;  131.799; -210.114; -145.795
579.114;   55.385; -630.112; -670.797
579.391;   65.543;   -6.117;  -18.789
579.669;  -70.307; -595.114; -704.794
579.947;  153.380; -326.107; -127.806
580.224;  318.155; -692.107; -524.806
580.502;  296.159;  127.893;   76.193
580.779;   12.024;  -42.117;   75.210
581.057;  -67.058; -584.109; -470.804
581.334; -105.951; -726.102; -695.815
581.612;   23.122;   54.895;  511.190
581.889;  -30.088;  -83.101; -129.818
582.167;  -19.899; -298.099; -190.821
582.444;  -93.343; -845.102; -814.817
582.721;   86.682;  657.899;  715.183
582.999;   50.699; -326.100; -167.821
583.276;  493.071; -812.123; -713.779
583.553;  667.177; -364.102; -294.816
583.831;  204.606; -607.104; -631.812
584.108;   54.548;  349.892;  174.195
584.385;    3.048; -122.102;  -98.815
584.662;  -88.673; -651.111; -828.801
584.940;   34.901;  204.889;  204.199
585.217;  -23.995;  -73.113; -303.796
585.494;   32.910;   71.890;  118.198
585.771;  197.768; -250.109; -354.804
586.048;  472.055; -196.113;  -76.796
586.325;  304.230; -721.110; -773.801
586.602;   92.934;  230.896;  213.188
586.879;  -16.080; -499.100; -580.820
587.156;   41.472; -156.105; -331.810
587.433;  -37.070; -701.102; -667.817
587.710;   55.612;  152.888;  234.202
587.987;  274.753; -264.105; -236.811
588.264;  772.789;  315.888;  387.202
588.541; 1302.862;  -61.104;   26.187
588.818; 2636.620;   72.892;  171.196
589.095; 2244.507; -163.104; -174.812
589.371;  359.891; -459.109; -414.804
589.648;    8.034; -581.107; -437.807
589.925;   31.200; -517.114; -621.795
590.202;    8.987; -741.112; -607.798
590.478;   76.554; -166.105;  -73.811
590.755;  256.601; -241.108; -132.806
591.032; 2377.557; -741.110; -699.802
591.308; 3315.051; -732.094; -790.831
591.585; 1704.756; -573.110; -560.802
591.862;  135.431;-1056.102; -950.817
592.138;   62.649; -475.108; -474.805
592.415;  131.685; -486.104; -495.813
592.691; 1397.108;  460.896;  518.188
592.968; 1793.213; -208.098; -123.824
593.244;  890.576; -695.116; -595.790
593.521;   68.806; -105.102;  -42.817
593.797;  -24.726; -810.122; -720.780
594.074;  305.151; -611.096; -588.826
594.350;  627.962;  828.905;  729.172
594.626;  280.427; -303.111; -283.801
594.903;  108.207; -643.101; -645.817
595.179;  187.914;  243.896;  418.187
595.455;   18.035; -136.107; -150.807
595.731;    2.115;  -19.103;  -38.814
596.008;  -28.604; -464.111; -434.800
596.284;   34.773; -187.100; -242.820
596.560;   49.883; -501.093; -493.833
596.836;  195.699; -173.105;  -70.810
597.112;  320.149; -582.108; -437.805
597.388;  276.474;  -49.097;  -48.826
597.665;   99.433;  437.887;  530.203
597.941;  -54.063; -572.089; -658.839
598.217;    3.910; -323.110; -293.802
598.493;  247.044;   61.891; -204.804
598.769;  488.417; -175.100;  -50.819
599.045;  316.352; -490.108; -562.806
599.321;   35.222; -193.100; -261.820
599.597;  124.894; -355.109; -476.804
599.872;  451.112;  409.896;  429.187
600.148;  335.575;  -61.097; -172.826
600.424;  278.707;   91.893;  202.193
600.700;  218.084; -170.107; -280.807
600.976;  124.394; -442.097; -464.825
601.252;  226.290; -226.109; -272.803
601.527;  188.063; -833.104; -840.813
601.803;  134.930; -453.105; -404.812
602.079;  165.367; -124.100; -118.819
602.354;  529.993; -620.092; -531.835
602.630;  791.730; -140.113; -482.796
602.906; 2188.187; -910.101; -863.818
603.181; 6475.306; -627.119; -534.786
603.457; 5432.698;   98.903; -278.826
603.733;  812.589; -605.120; -626.783
604.008;  922.971; -245.106; -164.810
604.284; 2947.058; -636.101; -580.817
604.559; 2565.016;   -3.112;  -42.799
604.835;  462.899; -163.105; -225.810
605.110;  390.177; -732.099; -892.821
605.385;  659.835;  224.907;  267.167
605.661;  610.890; -625.095; -729.829
605.936; 1099.328; -664.108; -737.806
606.211;  937.197;  -17.103; -170.815
606.487;  193.995; -329.114; -376.794
606.762;    0.781; -791.119; -745.786
607.037;  -21.101; -501.105; -433.810
607.313;  -70.067; -589.096; -574.828
607.588;  -12.679; -375.106; -137.810
607.863;   33.137;  -28.101; -143.818
608.138;  176.684;  513.890;  516.198
608.413;   27.631; -576.099; -592.822
608.688;   40.174; -203.108; -267.805
608.964;  165.315; -509.106; -218.809
609.239;  245.872; -107.105; -212.810
609.514;  238.730;  281.895;  240.188
609.789;  640.159; -187.104; -716.812
610.064;  831.532; -435.096; -609.827
610.339;  844.791; -855.109; -799.804
610.614; 1118.547; -131.100; -315.820
610.889;  643.205;  215.895;  107.188
611.163;   40.206; -407.104; -591.812
611.438;   86.996;   81.886; -167.794
611.713;  -12.367; -467.101; -499.817
611.988;   62.336; -144.101; -328.818
612.263;  -28.676; -771.102; -717.815
612.538;  190.830;  385.887;  251.204
612.812;  162.698; -832.100; -911.820
613.087;  117.561; -358.098; -338.823
613.362;  -53.540; -497.107; -557.807
613.637;   32.168;  261.897;  138.186
613.911;  -24.332; -256.092; -345.835
614.186;   96.983; -249.107; -292.807
614.460;  639.862; -842.081; -758.854
614.735;  727.785;  -55.087;  -17.843
615.010;  151.200;   43.912;  -82.841
615.284;  238.848;  360.892;  246.195
615.559;  350.142; -792.092; -955.835
615.833;  269.454;  -76.099;  -87.822
616.108;   11.254; -225.090; -390.837
616.382;  126.587;  274.913;  402.156
616.656;  121.129; -241.090; -232.837
616.931;  479.379; -785.099; -700.822
617.205; 1014.788; -973.104; -979.813
617.480;  917.175;  -91.125;    6.225
617.754;  159.273; -396.125; -128.774
618.028;   15.268; -369.129; -382.768
618.302;   70.997;   73.892;  -25.805
618.577;  -57.006; -371.103; -518.815
618.851;  -63.438; -399.109; -600.803
619.125;  -50.276; -335.134; -378.759
619.399;  -24.112; -244.104; -374.813
619.673;  -47.916; -330.115; -515.792
619.947;  -48.426; -333.114; -448.795
620.222;  -17.147; -198.110; -204.801
620.496;   -2.138;  -47.121;  -96.782
620.770;    7.554; -187.122;  -93.781
621.044;  187.347;  323.895;  346.190
621.318;  710.965; -653.120; -614.783
621.592;  627.113; -430.121; -409.783
621.866;  339.017; -476.112; -572.799
622.140;    9.753; -207.116; -356.791
622.413;   61.771;  138.889;  112.200
622.687;  -36.916; -746.101; -492.817
622.961;   16.747; -130.108; -143.805
623.235;  -59.653; -633.111; -661.800
623.509;  -87.371; -816.105; -848.811
623.783;    3.956;  -12.107;   48.193
624.056;  -19.059; -254.120; -280.783
624.330;   45.311;   63.888;   -3.797
624.604;   53.750; -271.116; -355.790
624.877;   78.583;  180.890;   26.198
625.151;   37.193; -249.114; -238.794
625.425;  -31.435; -150.103; -283.814
625.698;  -58.224; -367.119; -374.785
625.972;  -86.865; -799.110; -765.802
626.245;   64.201;  685.884;  484.210
626.519;  -57.455; -426.120; -340.784
626.792;  -33.141; -192.107; -380.807
627.066;  -98.403; -485.122; -662.779
627.339;  -97.719; -736.110; -663.802
627.613;   48.269;  351.880;  148.216
627.886;   56.412;  187.891; -612.803
628.160;  -16.285;  312.880; -161.783
628.433;  -87.372; -695.125; -703.775
628.706;  -92.655; -517.120; -615.784
628.979;   23.335;  296.876;  117.223
629.253;  -84.145; -785.119; -833.786
629.526;  340.413; -334.126; -253.772
629.799;  322.942; -641.123; -479.778
630.072;  159.545; -497.128; -516.769
630.346;  -66.649;-1115.116;-1080.790
630.619;  435.835; -467.107; -545.808
630.892;  614.498;  709.889;  593.200
631.165;  319.738;  790.896;  679.187
631.438;  -94.161;-1092.112;-1055.798
631.711;   36.545;  453.877;  257.221
631.984;  -56.753; -523.117; -624.789
632.257;  -78.632; -636.117; -681.789
632.530;  -52.749; -412.119; -433.785
632.803;   21.241; -109.115;    7.207
633.076;  -74.812; -360.123; -422.777
633.349;    4.024;  173.872;  121.231
633.622;  -32.750; -187.119; -240.785
633.895; -130.359; -903.120; -823.783
634.167;  -61.410; -496.126; -525.773
634.440;  -19.917;  -19.116; -137.792
634.713;    2.204;  -22.119; -120.786
634.986;   72.364;  593.871;  453.233
635.258;  -86.960; -507.115; -597.793
635.531;   90.639;  742.882; -343.788
635.804;  -35.355; -303.117; -318.789
636.077;  -81.346; -830.116; -852.791
636.349;  -19.587; -586.115; -474.793
636.622;  375.787; 1695.874; 1392.228
636.894;  229.921; -474.120; -909.784
637.167;  142.906; -836.127; -789.771
637.439;   22.602; -278.128; -213.770
637.712;  -52.461; -312.126; -293.772
637.984;  -87.570; -635.116; -707.791
638.257;  358.689;  515.877;  488.222
638.529;  553.854; -881.125; -924.776
638.802;  242.095; -508.128; -449.769
639.074; -102.572; -927.122; -952.781
639.346; -120.785; -942.135; -930.757
639.619;   -9.925;  -79.142; -319.744
639.891;   -7.503;  -83.122; -168.779
640.163;  -71.051; -689.122; -756.780
640.435;   29.876;  273.878;  103.220
640.708;    2.452;  -72.122; -132.780
640.980;  -37.071; -366.122; -362.781
641.252;  161.206;  -25.121;  -71.781
641.524; 1762.208;  580.879;  573.219
641.796; 1800.835;-1094.121; -907.782
642.068;  324.262; -191.121; -300.782
642.340;  -66.487; -486.121; -566.783
642.613;   43.815;  294.880;  323.217
642.885; -108.533; -787.120; -878.783
643.157;  -43.056; -810.120; -658.784
643.428;   50.696;  170.880;  218.216
643.700;  -53.628; -498.120; -425.784
643.972;  -34.401;  -16.119; -133.785
644.244;  -81.149; -474.119; -559.785
644.516;  -53.022; -250.119; -114.786
644.788;   67.530;  662.881;  548.214
645.060;  -21.893;  -12.119; -124.786
645.332;  -88.642; -525.118; -535.787
645.603;   25.885;  479.882;  342.213
645.875;  -67.063; -334.118; -369.787
646.147;  150.164; 1487.882; 1242.212
646.418;  -67.459; -931.117; -918.788
646.690;  118.893; -714.117; -715.789
646.962;   25.144; -413.117; -451.789
647.233;  -12.729;   15.883;   11.211
647.505;  -99.877; -595.117; -475.790
647.776;   15.250;  328.884;  229.210
648.048;  -22.673; -248.116; -418.790
648.320;  -75.096; -752.116; -679.791
648.591; -156.995;-1055.116; -958.791
648.862;  -94.393; -505.116; -577.792
649.134;   14.809;  115.885;  198.208
649.405;  -49.914; -661.115; -618.792
649.677;  -63.412; -475.115; -598.793
649.948;  -19.885; -181.115; -296.793
650.219;  -13.659;  -37.115; -147.793
650.491;  -93.782; -431.114; -520.794
650.762; -118.330; -705.114; -731.794
651.033;  -90.578; -437.114; -424.795
651.304;  -85.726; -743.114; -728.795
651.576;  -76.524; -680.114; -645.795
651.847;  -35.473; -250.113; -140.796
652.118;  -34.671;  -32.113; -189.796
652.389; -101.944; -639.113; -722.796
652.660;  -37.367; -147.113;  -89.797
652.931; -137.015; -897.112; -871.797
653.202;  -94.088; -382.112; -541.798
653.473;  -72.062; -633.112; -533.798
653.744;  140.740; -595.112; -590.798
654.015;  142.517; -356.112; -303.799
654.286;  -86.181; -642.111; -663.799
654.557;  -55.679; -586.111; -521.799
654.828; -147.827;-1114.111;-1088.800
655.099;  -79.976; -404.111; -291.800
655.370;  -90.774; -427.111; -543.801
655.641; -118.847; -656.110; -714.801
655.911; -105.095; -618.110; -638.801
656.182;   47.232;  437.890;  387.198
656.453;   77.584;  830.890;  746.198
656.724;  -79.515; -466.110; -426.802
656.994;  -84.663; -553.109; -568.803
657.265; -106.211; -862.109; -873.803
657.536;  -86.534; -500.109; -377.804
657.806; -110.457; -561.109; -593.804
658.077; -141.780; -866.109; -950.804
658.347;  -89.779; -523.108; -598.805
658.618; -103.627; -646.108; -694.805
658.888;  -32.500;  -41.108;  112.195
659.159;  -79.773; -432.108; -548.806
659.429;  -20.096; -292.108; -349.806
659.700;   12.830; -435.107; -390.807
659.970;   -8.243; -370.107; -359.807
660.241;   -2.041; -754.107; -921.807
660.511;  462.136; -147.107; -174.808
660.781;  101.888; -793.106; -748.808
661.052;  -47.785; -222.106; -381.808
661.322;  -46.459;   21.894;   -9.809
661.592;   15.043;  257.894;  148.191
661.862;  -81.080; -369.106; -382.810
662.133; -101.328; -551.105; -502.810
662.403; -122.376; -770.105; -676.810
662.673;  -64.499; -256.105; -213.811
662.943;  -93.248; -612.105; -551.811
663.213;  -14.571;  -85.105;  -81.811
663.483;  -85.719; -593.104; -568.812
663.753;  -65.617; -194.104; -152.812
664.023;  -19.015;   68.896;  -32.813
664.293;  -64.813; -319.104; -126.813
664.563; -119.312; -694.104; -648.813
664.833; -117.335; -743.103; -608.814
665.103; -123.383; -730.103; -793.814
665.373; -114.681; -766.103; -806.814
665.643;  -99.804; -863.103; -918.815
665.913;   36.823; -534.103; -714.815
666.182;  126.824; -685.102; -719.816
666.452;  254.401;  -22.102;  -89.816
666.722;  -28.547; -724.102; -784.816
666.992; -125.495; -948.102; -921.817
667.261; -102.118; -824.102; -808.817
667.531;  191.409;  134.899;   45.183
667.801;  545.885; -440.101; -412.818
668.070;  236.837;  714.899;  697.182
668.340;  -92.536; -883.101; -840.819
668.609;   74.541;  588.900;  301.181
668.879;  -82.132; -490.100; -558.819
669.149;  -63.980; -539.100; -516.820
669.418; -118.779; -698.100; -726.820
669.688;  -28.752; -482.100; -666.820
669.957;   76.050; -423.099; -546.821
670.226;  -32.123; -268.099; -331.821
670.496;  -92.996; -431.099; -635.822
670.765;  -83.344; -418.099; -501.822
671.034; -148.618; -872.099; -828.822
671.304;  -20.191;   55.902; -111.823
671.573; -154.214;-1085.098; -957.823
671.842;   85.088; -380.098; -294.823
672.112;   16.615; -692.098; -586.824
672.381;    4.942; -239.098; -214.824
672.650; -134.607;-1005.097;-1021.825
672.919;  -92.030; -631.097; -507.825
673.188; -102.553; -681.097; -878.825
673.457; -138.951;-1101.097;-1143.826
673.726;  -84.899; -579.096; -646.826
673.995;  -44.197; -533.096; -479.826
674.265;  -31.221; -263.096; -333.827
674.534;    8.956; -183.096; -235.827
674.802;  -10.092; -618.096; -703.828
675.071;  903.460; -886.095; -801.828
675.340; 3744.212; -464.095; -339.828
675.609; 1247.238;  103.905;   82.171
675.878;   71.715; -949.095; -893.829
676.147;   37.467;  -26.095;   -8.829
676.416;   76.394; -210.094; -294.830
676.685;  690.471; 1000.906; -622.830
676.953;  112.848; -603.094; -452.831
677.222;  -40.676; -193.094; -273.831
677.491;  -27.574;  -24.094; -127.831
677.759;   -0.872;   11.907;  172.168
678.028;  -39.995; -279.093; -222.832
678.297;   -1.918;   71.907;  197.168
678.565; -141.991; -898.093; -944.833
678.834;  -59.215; -311.093; -268.833
679.102;  -78.888; -411.092; -391.834
679.371; -145.111; -898.092; -727.834
679.639; -132.659; -797.092; -786.834
679.908; -119.557; -794.092; -724.835
680.176; -161.805; -895.091; -941.835
680.445;  -68.554; -346.091; -352.835
680.713;  -16.577;  -58.091;  -23.836
680.982; -102.125; -523.091; -525.836
681.250; -108.123; -578.091; -507.837
681.518;  -96.071; -534.090; -751.837
681.787;  -14.019; -204.090; -167.837
682.055;  -67.543; -490.090; -422.838
682.323; -141.366; -993.090; -992.838
682.591;   24.511; -216.090; -538.838
682.859;   91.513;    9.911;  -35.839
683.128;   13.690;  232.911;  497.161
683.396; -169.608;-1102.089;-1122.840
683.664;  -33.507; -241.089;   21.160
683.932;   -4.380;  144.911;  -76.840
684.200;  -83.128; -576.088; -320.841
684.468;  -33.926;  -73.088; -124.841
684.736;  -34.499; -214.088; -175.841
685.004; -127.372;-1024.088; -982.842
685.272;  -57.996; -880.088; -774.842
685.540;  -66.244; -499.087; -557.843
685.808;  -81.592; -651.087; -682.843
686.076; -103.890; -894.087; -969.843
686.343;  -59.563; -601.087; -815.844
686.611;   23.439; -195.087; -224.844
686.879;  432.315; -530.086; -553.844
687.147; 3205.292; -483.086; -480.845
687.414;  908.644;  -12.086; -169.845
687.682;    1.471; -658.086; -757.846
687.950;  292.473;  259.915;  263.154
688.217;    4.025; -792.085; -760.846
688.485;  -12.574; -632.085; -636.847
688.753;  496.928;  -11.085; -102.847
689.020;  145.705; -820.085; -851.847
689.288;  -93.193; -853.084; -787.848
689.555;  -37.966; -195.084; -148.848
689.823;  -50.839; -241.084; -345.849
690.090;  -66.163; -546.084; -651.849
690.358; -139.136; -877.084; -897.849
690.625;    0.341;  120.917;   45.150
690.892;  -82.757; -403.083; -369.850
691.160;  -21.655;   72.917;  -35.850
691.427;   -6.604;  141.917;  130.149
691.694; -133.602; -855.083; -929.851
691.962; -139.600;-1177.082;-1060.852
692.229;    6.652;  127.918;   56.148
692.496;   59.629;  130.918;  -49.852
692.763;   10.881; -164.082; -201.853
693.031;  -72.093; -739.082; -716.853
693.298;  -55.066; -509.081; -368.853
693.565;  273.311; -155.081; -163.854
693.832; 1215.763;   -5.081;   -9.854
694.099;  141.790; -643.081; -642.855
694.366;  -57.858; -882.081; -896.855
694.633;  -47.732; -920.080; -633.855
694.900;  719.470; 4367.920; -114.856
695.167;  386.797; -214.080; -380.856
695.434;  100.099; -646.080; -623.856
695.701;  201.726;  121.921;  -61.857
695.968;  451.128; -365.079; -361.857
696.234;  955.054; -415.079; -646.858
696.501;10365.181; -776.079; -614.858
696.768; 5412.383; -554.079; -617.858
697.035;  305.385; -632.078; -667.859
697.302;   41.737; -448.078; -552.859
697.568;   -0.586; -458.078; -497.859
697.835;  -44.560; -683.078; -624.860
698.102;  -24.933; -498.078; -407.860
698.368;   69.569;  384.923;  396.139
698.635;  -33.504;  -47.077; -424.861
698.901;  -10.552; -240.077; -348.861
699.168;   69.525; -534.077; -456.862
699.435;   73.426;  -72.077;  -13.862
699.701; -108.072; -868.076; -764.862
699.968;  -15.345;  144.924; -441.863
700.234;  -92.593; -783.076; -822.863
700.500;  -62.441; -448.076; -539.864
700.767;    1.861;   -1.075;   26.136
701.033; -147.438;-1015.075; -963.864
701.299;  -35.086; -450.075; -483.865
701.566;   99.966;  950.925;  763.135
701.832;   26.718;  -31.075;  -76.865
702.098; -101.430;-1054.074;-1034.866
702.365;  -76.353;-1098.074;-1030.866
702.631;  -35.827;-1038.074;-1063.867
702.897; 1292.125; -765.074; -676.867
703.163; 2233.377;  348.926;  254.133
703.429;  168.579; -256.073; -273.868
703.695;  -37.619; -796.073; -792.868
703.961;   20.183; -214.073; -210.868
704.227;  -57.866; -630.073; -725.869
704.493;  137.661;  613.927;  510.131
704.759;  -27.337; -565.072; -540.870
705.025;   38.315; -203.072; -194.870
705.291;   -3.833; -666.072; -562.870
705.557;  182.143;  719.928;   34.129
705.823;   43.570; -742.072; -694.871
706.089;  154.547; -307.071; -326.871
706.355;  364.774; -315.071; -244.872
706.620; 5540.876; -776.071; -729.872
706.886; 7957.053; -309.071; -362.873
707.152;  741.129; -818.070; -973.873
707.418;  -23.344;-1153.070;-1186.873
707.683;    0.983; -550.070; -530.874
707.949;  -38.590; -547.070; -578.874
708.215;    9.362; -129.070; -207.874
708.480;  -39.036; -520.069; -420.875
708.746;  100.240;   68.931;   28.125
709.011;  -60.058; -578.069; -612.876
709.277;  -83.906; -538.069; -543.876
709.542;  -45.629; -428.069; -387.876
709.808;    4.848;  -59.068;   89.123
710.073;  -68.225; -577.068; -695.877
710.339;  -20.774; -242.068; -228.877
710.604;   67.753; -780.068; -845.878
710.869;  319.230; -277.068; -366.878
711.135;  -64.418; -715.067; -628.879
711.400;  -88.416; -507.067; -608.879
711.665;  -64.764; -404.067; -479.879
711.931; -102.663; -661.067; -677.880
712.196; -109.536; -876.067; -954.880
712.461;   97.466; -402.066; -490.880
712.726;  128.343; -727.066; -771.881
712.991;  -88.080; -647.066; -664.881
713.256;  -41.078; -350.066; -332.882
713.521;  -66.052; -417.065; -381.882
713.787;  -70.625; -454.065; -472.882
714.052;  -26.373; -214.065; -400.883
714.317;  -93.421;-1045.065; -981.883
714.581; 1000.456; -374.065; -268.883
714.846; 1469.083; -822.064; -888.884
715.111;  132.459;  261.936;  257.116
715.376;  -16.564;  -86.064; -223.885
715.641;  -18.612; -365.064; -367.885
715.906;  285.390;   15.936; -551.885
716.171;  128.142;  221.937;  209.114
716.436;   37.619;  -78.063; -104.886
716.700;  -99.005; -818.063; -692.886
716.965; -116.628; -794.063; -807.887
717.230;  -59.526; -339.063; -392.887
717.494;  -19.324;  -40.062; -134.888
717.759;  -86.097; -784.062; -640.888
718.024;    6.055;  269.938;  250.112
718.288;   74.881;  685.938;  395.111
718.553; -148.517; -803.062; -977.889
718.817; -140.290; -883.061; -899.889
719.082;  -33.613; -115.061; -125.890
719.346; -130.986;-1000.061; -947.890
719.611;  -50.259; -300.061; -255.891
719.875; -114.733; -568.060; -537.891
720.140;  -70.731; -453.060; -603.891
720.404;   27.146; -136.060; -249.892
720.668;  814.648; -475.060; -411.892
720.933;  323.800;  146.940;  137.108
721.197;  -92.474; -667.059; -600.893
721.461; -130.772; -851.059; -826.893
721.725;  -28.120;  -21.059; -250.894
721.990;  -49.868; -284.059; -204.894
722.254;  -30.766;  -26.059; -108.894
722.518;  -75.764; -286.058; -442.895
722.782;  -97.913; -743.058; -594.895
723.046;  116.889;  614.942;  570.105
723.310;   17.241;  374.942;  210.104
723.574; -114.032; -654.058; -614.896
723.838; -103.405; -576.057; -642.897
724.102;  -65.803; -226.057; -239.897
724.366; -142.052;-1032.057; -978.897
724.630;  -97.600; -749.057; -571.898
724.894;  -80.423; -722.057; -514.898
725.158;   -2.221;   38.944; -295.898
725.422;  -47.894; -394.056; -327.899
725.685;  -60.267; -441.056; -349.899
725.949;  -88.766; -566.056; -519.900
726.213;  -66.489; -732.056; -811.900
726.477;  146.113;-1020.055; -933.900
726.740;  146.290; -274.055; -104.901
727.004;  318.017; -384.055; -510.901
727.268; 3341.344; -442.055; -400.901
727.531;  970.120; -961.055; -775.902
727.795;  -45.428; -713.054; -673.902
728.059;  -66.151; -552.054; -557.903
728.322;  -84.474; -841.054; -669.903
728.586;   33.353; -692.054; -701.903
728.849;  -89.570; -695.053; -756.904
729.112; -126.244; -812.053; -912.904
729.376; -115.392; -959.053; -905.904
729.639;  -83.990; -536.053; -536.905
729.903;  -99.363; -733.053; -699.905
730.166;  -54.011; -437.052; -399.906
730.429;  -13.009; -317.052; -468.906
730.693;  -75.708; -355.052; -894.906
730.956;  189.269;  810.948;  651.093
731.219;  674.621; -310.052; -103.907
731.482;   96.348;-1003.051; -894.907
731.745;  101.475; -794.051; -935.908
732.009;   11.802;  -30.051;   50.092
732.272; -105.297; -904.051; -771.909
732.535;  -39.795; -300.051; -310.909
732.798; -147.918;-1083.050;-1166.909
733.061;  -59.266; -430.050; -456.910
733.324;   -1.939;   31.950; -180.910
733.587;   56.863;  290.950;  365.090
733.850;  -82.211; -973.049;-1050.911
734.113;   31.016;   33.951;   32.089
734.376;   -7.982; -328.049; -447.912
734.639;  213.145; 1188.951; 1011.088
734.901;   70.022; -180.049; -402.912
735.164;  488.824; -883.048; -837.913
735.427; 1283.225; -166.048; -355.913
735.690;  124.352; -205.048; -234.913
735.952;  -39.821; -923.048; -925.914
736.215;  -31.794;-1113.048;-1009.914
736.478;   45.908; -771.047; -774.915
736.740;  210.909;   33.953;  129.085
737.003;  626.136; -658.047; -672.915
737.266; 3949.388;  -94.047;   46.084
737.528;  442.915; -682.047; -660.916
737.791;  313.317; -316.046; -327.916
738.053;  768.619;  465.954;  649.083
738.316;10607.320; -162.046; -136.917
738.578; 7893.647; -770.046; -736.918
738.841;  454.624; -382.046; -446.918
739.103;  178.826; -875.045; -777.918
739.365;  478.328;   79.955;  -69.919
739.628;    6.930; -884.045; -805.919
739.890;  -14.444; -758.045; -710.919
740.152;  -37.217; -692.044; -754.920
740.414;  -15.840; -408.044; -359.920
740.677;  -41.013; -785.044; -634.921
740.939;  -55.986; -587.044; -487.921
741.201;  244.116; -432.044; -572.921
741.463;   52.292; -689.043; -745.922
741.725;   11.694;  -21.043; -199.922
741.987;   45.846;  220.957;  116.078
742.249;  -20.452; -751.043; -859.923
742.511;  193.750; -703.043; -794.923
742.773;   13.127; -546.042; -546.924
743.035;  127.003;  796.958;  533.076
743.297;  -54.595; -963.042;-1013.924
743.559;  718.057; -278.042; -262.925
743.821;   64.934; -735.042; -744.925
744.083;   10.636;  -44.041; -149.925
744.345;  -96.962; -869.041; -892.926
744.607;   39.239;   75.959;  122.074
744.868;  -48.134; -490.041; -554.927
745.130; -108.632; -994.041;-1008.927
745.392;   31.520;   -1.040;  -44.927
745.653;  -13.828; -411.040; -378.928
745.915;  157.824;  896.960;  631.072
746.177;   52.975;   35.960;  -43.928
746.438;   -3.998; -428.040; -543.929
746.700;  -28.771; -947.039; -988.929
746.961;   -6.519; -659.039; -740.930
747.223;  126.208; -190.039;  -74.930
747.484;   75.860; -391.039; -471.930
747.746;  146.536;  -23.038; -106.931
748.007;  117.038; -647.038; -689.931
748.269;  288.365; -468.038; -440.931
748.530;  464.217; -852.038; -638.932
748.791;  266.019; -354.038; -420.932
749.053;  435.546;  286.963;  163.067
749.314;  438.797; -236.037; -169.933
749.575;  490.974; -945.037; -905.933
749.836;  815.651; -217.037;   86.066
750.098; 2318.778;  -60.037;  -21.934
750.359;35687.030;  414.964;  555.066
750.620; 9624.132; -121.036; -220.935
750.881; 1016.958; -585.036; -513.935
751.142; 1309.485; -950.036; -938.936
751.403;16291.337; -789.036; -705.936
751.664; 7689.164;-1034.035; -999.936
751.925;  486.091; -175.035; -262.937
752.186;  249.392; -298.035; -278.937
752.447;  122.744; -590.035; -445.937
752.708;   51.771; -532.035; -648.938
752.969;    4.848; -566.034; -576.938
753.230;  -10.500; -777.034; -672.939
753.491;    6.802; -650.034; -631.939
753.751;   71.003;  109.966;   19.061
754.012;   87.705;  258.967;  181.060
754.273;   53.507; -174.033;  -71.940
754.534;   17.934; -487.033; -580.940
754.794;  -93.439; -926.033; -911.941
755.055;  140.788; 1051.967;  881.059
755.316;  -44.861; -700.032; -566.942
755.576;  -24.934; -606.032; -576.942
755.837;  -52.382; -527.032; -695.942
756.097;  -39.580; -530.032; -564.943
756.358;  -71.428; -725.032; -770.943
756.618;  -51.451; -705.031; -641.943
756.879;   -7.150; -254.031; -349.944
757.139; -115.123;-1098.031;-1116.944
757.400;  -54.246; -538.031; -553.945
757.660;  -29.369; -365.031; -401.945
757.920;   -1.792; -266.030; -228.945
758.181;  -29.740; -468.030; -351.946
758.441;  -86.114; -870.030; -809.946
758.701;  -28.562; -308.030; -215.946
758.961;  -28.235; -220.030; -278.947
759.222;  -42.033; -574.029; -502.947
759.482;  -96.781; -683.029; -723.948
759.742;  -87.054; -706.029; -547.948
760.002;   -3.028;  -83.029; -143.948
760.262;   18.824;   50.972;  182.051
760.522;  -37.924; -498.028; -574.949
760.782;  -49.022; -738.028; -612.949
761.042;  -23.120; -618.028; -573.950
761.302;   54.457;   55.972;  -18.950
761.562;   49.458; -164.027; -154.951
761.822;   69.985; -710.027; -551.951
762.082;  -29.813;-1104.027;-1093.951
762.342;   66.039; -328.027; -403.952
762.601;   78.566; -567.027; -506.952
762.861;  351.568; -281.026; -207.952
763.121;  399.494; -406.026; -411.953
763.381; 7195.546; -499.026; -485.953
763.640; 8523.673; -139.026; -307.954
763.900;  390.175; -242.026; -203.954
764.160;   88.552; -458.025; -491.954
764.419;   -9.646; -726.025; -782.955
764.679;  -76.345; -795.025; -726.955
764.939;  -15.793; -124.025; -210.955
765.198;  -81.966; -608.025; -563.956
765.458;  -73.689; -710.024; -612.956
765.717;  -73.487; -454.024; -590.957
765.976;  -58.511; -428.024; -411.957
766.236;  -82.409; -475.024; -610.957
766.495;   25.993;  260.977;   73.042
766.755;  -98.080;-1090.023; -987.958
767.014;   13.672; -594.023; -665.958
767.273;  -56.301; -373.023; -397.959
767.533;  -40.300; -228.023; -307.959
767.792;  -37.698; -151.022; -188.960
768.051;  -57.371; -228.022; -276.960
768.310;  -85.344; -546.022; -650.960
768.569;   -7.667; -161.022;    4.039
768.828;  -31.765; -285.022; -363.961
769.088; -114.614;-1050.021; -942.961
769.347;  -71.812; -755.021; -599.962
769.606; -102.960; -876.021; -857.962
769.865; -127.958;-1016.021;-1033.963
770.124;   -1.006; -411.021; -336.963
770.383;  -57.879; -778.020; -910.963
770.641;   -7.278; -398.020; -400.964
770.900;  -52.526; -953.020; -846.964
771.159;  -47.374; -851.020; -951.964
771.418;  -16.947; -917.020; -779.965
771.677;  128.080; -224.019; -293.965
771.936;  140.032; -794.019; -865.966
772.194; 2066.858; -465.019; -437.966
772.453;11360.735; -213.019; -391.966
772.712;  820.012;  416.982;  329.033
772.970;  113.714;   32.982;   63.033
773.229;   91.566;  -22.018;  102.033
773.488;  -81.457; -814.018; -770.968
773.746;   39.719;  296.982;  335.032
774.005;   -9.229;  190.983;  -22.969
774.263;   16.823;  243.983;  177.031
774.522;  -63.475; -422.017; -548.969
774.780;  -78.623; -484.017; -417.970
775.039; -106.271; -551.017; -531.970
775.297;  -25.245; -135.016; -351.970
775.555; -112.868; -489.016; -612.971
775.814; -124.191; -618.016; -570.971
776.072; -127.439; -749.016; -740.971
776.330; -111.762; -630.016; -520.972
776.589; -118.585; -703.015; -721.972
776.847; -133.734; -645.015; -624.973
777.105; -168.682;-1016.015;-1032.973
777.363;  -75.430; -459.015; -454.973
777.621; -147.503; -660.015; -717.974
777.879;  -29.126;  -42.014;   32.026
778.138;  -96.249; -554.014; -717.974
778.396; -104.348; -585.014; -526.975
778.654; -171.646;-1015.014; -970.975
778.912;  -72.994; -269.014; -371.976
779.170; -126.917; -880.013; -803.976
779.427; -150.365; -922.013; -897.976
779.685; -138.138; -880.013; -832.977
779.943;  -81.037; -654.013; -593.977
780.201; -163.785; -964.012; -883.978
780.459; -129.258; -651.012; -610.978
780.717;  -83.881; -440.012; -390.978
780.974; -108.629; -449.012; -490.979
781.232;  -72.578; -358.012; -338.979
781.490;  -87.376; -551.011; -472.979
781.747; -110.474; -555.011; -476.980
782.005;   13.253;  462.989;  254.020
782.263; -172.470; -542.011;-1004.981
782.520;  -89.693; -326.011; -501.981
782.778; -172.492;-1013.010;-1051.981
783.035; -174.090; -962.010; -938.982
783.293;  -70.238; -248.010; -206.982
783.550;  -56.436; -134.010; -198.982
783.808; -150.234; -764.010; -776.983
784.065; -157.682; -745.009; -874.983
784.322;  -62.381;   25.991;  -86.984
784.580; -133.579; -915.009; -771.984
784.837;  -90.577; -392.009; -466.984
785.094; -125.000; -783.009; -762.985
785.352;  -77.848; -304.008; -404.985
785.609; -111.346; -934.008; -839.985
785.866;  -80.770; -345.008; -401.986
786.123;  -69.293; -639.008; -583.986
786.380;  -95.691; -665.008; -604.987
786.637;  -40.514; -225.007; -380.987
786.895;  -28.962; -456.007; -543.987
787.152;  -47.110; -135.007; -267.988
787.409;  -58.934; -123.007; -225.988
787.666;  -75.782; -299.006; -378.988
787.923; -129.580; -616.006; -695.989
788.179;  -98.628; -551.006; -584.989
788.436; -114.876; -585.006; -585.990
788.693;  -38.824;  -92.006;  -87.990
788.950;  118.477; -125.005; -112.990
789.207;  216.404; -381.005; -372.991
789.464;  -66.469; -161.005; -301.991
789.720;   -3.392;  150.995;  110.009
789.977; -171.865;-1003.005; -671.992
790.234;  -41.388;   44.996;  -66.992
790.490; -152.712; -884.004;-1031.993
790.747;  -40.210;  -85.004;   22.007
791.004;  -34.333; -426.004; -348.993
791.260;  -80.406; -430.004; -560.994
791.517; -102.429; -843.003; -788.994
791.773;  -46.477; -379.003; -342.994
792.030;  -91.201; -596.003; -660.995
792.286;  -96.224; -686.003; -636.995
792.543;  -19.722;  -74.002; -159.995
792.799;  -57.495; -584.002; -382.996
793.055; -154.468;-1179.002;-1210.996
793.312;  -85.591; -827.002; -816.997
793.568;  -65.565; -746.002; -599.997
793.824;    8.037; -226.001; -284.997
794.081;   14.814; -447.001; -508.998
794.337;   69.491; -664.001; -561.998
794.593; 1195.918; -319.001; -271.999
794.849; 6660.320; -746.001; -772.999
795.105;  363.321; -270.000; -261.999
795.361;   13.273; -490.000; -457.000
795.617;  -67.450; -875.000; -945.000
795.873;  -44.875; -360.000; -407.000
796.129;  -52.650; -368.000; -306.000
796.385;  -25.150; -124.000; -156.000
796.641;   66.875;  412.000;  550.000
796.897;  -76.200; -666.000; -635.000
797.153;   53.350;  453.000;  357.000
797.409;  -87.550; -785.000; -868.000
797.665;  -74.675; -625.000; -732.000
797.921;  -90.100; -775.000; -762.000
798.176;  -52.575; -744.000; -747.000
798.432;  -48.200; -824.000; -596.000
798.688;  -77.175;-1174.000;-1078.000
798.943;   78.125; -165.000; -147.000
799.199;    4.300;-1005.000; -959.000
799.455;  227.200;  369.000;  316.000
799.710;  130.475; -813.000; -380.000
799.966;  290.150; -162.000; -160.000
800.221;  472.050; -638.000; -721.000
800.477; 9996.500; -743.000; -710.000
800.732; 9769.050; -773.000; -800.000
800.988;  658.550;  205.000;  -19.000
801.243; 1701.200; -454.000; -344.000
801.498; 8230.900; -814.000; -739.000
801.754;  486.650; -289.000; -163.000
802.009;   79.050; -257.000; -335.000
802.264;  -49.725; -967.000;-1033.000
802.520;   22.350;  222.000;   -3.000
802.775;  -49.875; -524.000; -359.000
803.030;   46.025;  395.000;  356.000
803.285; -107.850; -840.000; -903.000
803.540;  -57.100; -686.000; -699.000
803.795;  -44.250; -648.000; -583.000
804.051;  -51.325; -279.000; -346.000
804.306;   16.950;  168.000;  128.000
804.561;  141.300;  451.000;  362.000
804.816;  121.825;  714.000;  861.000
805.071;  -10.625; -185.000; -280.000
805.325;  194.225; -257.000; -427.000
805.580;  -94.100; -841.000; -877.000
805.835;  -16.175; -204.000; -297.000
806.090;  -81.375; -760.000; -676.000
806.345;  -23.825; -344.000; -264.000
806.600;  -21.400; -549.000; -632.000
806.854;  -41.075; -408.000; -538.000
807.109;  -11.750; -493.000; -577.000
807.364;  -16.175; -407.000; -328.000
807.618;   -4.400; -415.000; -381.000
807.873;   58.250; -470.000; -494.000
808.128;   95.950; -257.000; -518.000
808.382;  110.900; -224.000; -332.000
808.637;   77.900; -440.000; -511.000
808.891;  177.225; -257.000; -180.000
809.146;  101.575; -902.000; -794.000
809.400;  250.200; -848.000; -923.000
809.654;  327.875; -779.000; -551.000
809.909;  475.425; -841.000; -927.000
810.163; 6057.100; -813.000; -651.000
810.418;17315.375; -940.000; -861.000
810.672; 1063.875; -685.000; -690.000
810.926;  733.200; -993.000; -973.000
811.180; 1373.425; -439.000; -372.000
811.434;31394.125;  240.000;  135.000
811.689;14040.550; -231.000; -365.000
811.943;  664.550; -936.000; -953.000
812.197;  351.425; -893.000; -671.000
812.451;  126.025; -379.000; -514.000
812.705;  -13.975; -809.000; -619.000
812.959;   -6.800; -263.000; -388.000
813.213;  -10.675; -283.000; -209.000
813.467;   57.225;  470.000;  253.000
813.721;  -98.625; -764.000; -792.000
813.975; -125.075; -826.000; -877.000
814.229;   47.100;  430.000;  353.000
814.482;  -87.750; -517.000; -566.000
814.736; -113.275; -766.000; -744.000
814.990; -138.725; -779.000; -872.000
815.244;  -35.700; -228.000; -285.000
815.497;  -99.125; -636.000; -601.000
815.751;   -2.200; -141.000;   82.000
816.005;  -88.725; -470.000; -586.000
816.258;  -61.300; -510.000; -363.000
816.512; -102.425; -693.000; -610.000
816.766;    3.500;  121.000;  157.000
817.019;    8.175;  148.000;  149.000
817.273; -126.900;-1000.000; -802.000
817.526;  -34.800; -206.000; -173.000
817.779;  -58.700;-1049.000; -960.000
818.033;  -86.950; -693.000; -807.000
818.286; -115.275; -725.000; -792.000
818.540;  -93.900; -403.000; -403.000
818.793;  -87.550; -402.000; -489.000
819.046; -106.475; -582.000; -520.000
819.299;  -40.975; -157.000; -166.000
819.553; -115.475; -552.000; -592.000
819.806; -155.975;-1016.000; -838.000
820.059;  -63.800; -334.000; -354.000
820.312;    7.250;  152.000;  185.000
820.565;  -18.950;  110.000;  -27.000
820.818;  -51.350;  -59.000; -173.000
821.071; -175.025;-1041.000; -957.000
821.324;  -92.675; -536.000; -540.000
821.577;  -97.850; -457.000; -483.000
821.830;  -68.425; -270.000; -172.000
822.083; -129.350; -733.000; -288.000
822.336;  -59.275; -261.000; -167.000
822.589; -134.700; -805.000; -688.000
822.842; -133.525; -875.000; -770.000
823.094; -184.975;-1076.000;-1114.000
823.347; -135.925; -925.000; -729.000
823.600;    3.375;  402.000;  187.000
823.853;  -60.875; -311.000; -267.000
824.105;  -71.725; -331.000; -575.000
824.358; -114.850; -617.000; -716.000
824.611;   24.225;  234.000;   40.000
824.863;  -51.525; -612.000; -591.000
825.116;   46.700;  -33.000;   27.000
825.368;   73.500; -366.000; -372.000
825.621;  154.400; -186.000; -240.000
825.873;   79.825; -704.000; -737.000
826.126;  528.450; -669.000; -641.000
826.378;11310.950; -389.000; -505.000
826.630; 3141.400; -890.000; -898.000
826.883;   52.325; -754.000; -693.000
827.135;   43.425; -279.000; -270.000
827.387; -101.600; -893.000; -839.000
827.639;  -16.200;  -86.000;   32.000
827.892; -112.225; -742.000; -582.000
828.144; -142.350; -848.000; -804.000
828.396;  -21.125;  104.000;  -80.000
828.648;  -96.225; -440.000; -333.000
828.900; -151.275; -702.000; -795.000
829.152; -115.025; -684.000; -683.000
829.404;  -73.300; -215.000; -267.000
829.656;   -0.125;  321.000;  214.000
829.908;  -16.625;  393.000;  229.000
830.160; -175.725;-1064.000;-1047.000
830.412;  -93.100; -481.000; -430.000
830.664; -135.025; -557.000; -665.000
830.916;  -75.075; -268.000; -206.000
831.167; -183.300;-1073.000; -951.000
831.419; -107.925; -623.000; -566.000
831.671; -148.975; -764.000; -809.000
831.923;  -85.650; -311.000; -447.000
832.174;  -68.950; -273.000; -331.000
832.426; -109.975; -493.000; -582.000
832.678; -185.650;-1043.000;-1091.000
832.929; -162.850; -947.000; -935.000
833.181;  -66.700; -575.000; -677.000
833.432;  -58.700;  -59.000; -186.000
833.684;  -24.925;  112.000;  -27.000
833.935; -110.925; -610.000; -566.000
834.187; -122.025; -829.000; -823.000
834.438;  -53.625;  -58.000;  -25.000
834.689;  -64.775; -255.000; -123.000
834.941;  -55.575; -343.000; -244.000
835.192; -112.825; -590.000; -533.000
835.443; -102.600; -419.000; -506.000
835.695;  -14.550;  138.000;  -16.000
835.946;  -94.725; -608.000; -378.000
836.197; -108.625; -599.000; -622.000
836.448;  -86.350; -528.000; -395.000
836.699;  -62.575; -253.000; -341.000
836.950;    0.950;   72.000;    7.000
837.201; -147.775;-1003.000; -987.000
837.452;  -38.100; -356.000; -170.000
837.703; -114.150; -791.000; -737.000
837.954;  -41.750; -205.000; -365.000
838.205;  -80.025;-1029.000;-1008.000
838.456;  177.200; -196.000; -282.000
838.707;    8.800; -423.000; -519.000
838.958;   -4.500; -634.000; -647.000
839.209;  257.450;   18.000;   40.000
839.460;  121.175; -439.000; -201.000
839.710;  147.600; -135.000; -297.000
839.961;  424.000;  730.000;  612.000
840.212;  337.275; -382.000; -497.000
840.462; 1071.450; -328.000; -277.000
840.713;17299.525; -571.000; -536.000
840.964; 7813.575;  -62.000; -143.000
841.214;  512.250; -384.000; -624.000
841.465;  549.100; -214.000; -141.000
841.715;  501.950; -417.000; -380.000
841.966;  630.050; -746.000; -685.000
842.216; 8105.925; -330.000; -431.000
842.466;34254.975; -169.000; -313.000
842.717; 2147.750; -964.000; -952.000
842.967;  310.625; -635.000; -641.000
843.217;  264.625;   20.000;   28.000
843.468;   67.775; -104.000; -132.000
843.718;  -37.050; -718.000; -726.000
843.968; -102.700; -837.000; -765.000
844.218;   16.425; -315.000; -262.000
844.469;  -49.125; -577.000; -561.000
844.719; -103.675; -537.000; -682.000
844.969;  -97.825; -550.000; -580.000
845.219; -146.175; -814.000; -862.000
845.469;  -75.750; -392.000; -342.000
845.719; -131.725; -792.000; -884.000
845.969;  -24.900;  119.000;  174.000
846.219; -121.800; -738.000; -720.000
846.469;   21.900;  464.000;  432.000
846.718;  -56.525; -115.000;   31.000
846.968; -130.825; -827.000; -827.000
847.218;  -52.000; -224.000; -371.000
847.468; -116.450; -586.000; -555.000
847.718; -149.300; -827.000; -798.000
847.967; -129.525; -826.000; -915.000
848.217;  -82.425; -449.000; -569.000
848.467;  -60.450; -405.000; -376.000
848.716;  -98.725; -708.000; -725.000
848.966;  -10.075; -372.000; -358.000
849.215;  -59.600; -428.000; -419.000
849.465;  -96.375; -785.000; -615.000
849.714; -140.775;-1132.000;-1150.000
849.964;  -62.925; -551.000; -613.000
850.213;  -25.450; -393.000; -355.000
850.463;   76.850;  137.000;  340.000
850.712;   -1.575; -542.000; -567.000
850.961;   16.275; -739.000; -678.000
851.211;   95.275; -513.000; -504.000
851.460;  154.225; -635.000; -650.000
851.709;  554.275;  -25.000;   18.000
851.958; 9773.925; -912.000; -750.000
852.208;13431.650; -859.000; -879.000
852.457;  523.425; -181.000;  -13.000
852.706;   55.475; -791.000; -823.000
852.955;   15.425; -507.000; -528.000
853.204;  -70.100; -521.000; -461.000
853.453;  -87.975; -418.000; -458.000
853.702; -134.600; -660.000; -750.000
853.951; -107.050; -532.000; -520.000
854.200; -108.825; -613.000; -562.000
854.449; -147.000; -695.000; -661.000
854.698;  -93.925; -340.000; -279.000
854.946;  -72.650; -181.000; -284.000
855.195; -150.475; -843.000; -868.000
855.444;  -99.975; -395.000; -420.000
855.693; -139.300; -345.000; -432.000
855.941;  -96.025; -387.000; -516.000
856.190;  -52.025; -256.000; -382.000
856.439; -126.975; -652.000; -703.000
856.687;  -69.200;  -99.000;  -72.000
856.936; -111.100; -621.000; -323.000
857.184; -183.775;-1067.000;-1020.000
857.433; -114.750; -423.000; -512.000
857.681; -159.000; -989.000; -953.000
857.930;  -82.850; -282.000; -433.000
858.178; -172.975; -856.000; -929.000
858.427; -157.625; -802.000; -781.000
858.675; -117.750; -377.000; -544.000
858.923; -116.650; -527.000; -819.000
859.172; -193.150;-1094.000;-1070.000
859.420;  -91.800; -339.000; -239.000
859.668; -146.425; -624.000; -628.000
859.916;  -31.450;  109.000;  115.000
860.164; -124.800; -699.000; -603.000
860.413;  258.225; -878.000; -696.000
860.661;  210.500; -709.000; -577.000
860.909;  -76.450; -339.000; -325.000
861.157;  -82.475; -277.000; -444.000
861.405; -128.650; -534.000; -670.000
861.653;    1.425;  310.000;  310.000
861.901;  146.425; -543.000; -613.000
862.149;   13.450; -801.000; -824.000
862.396;  -83.475; -297.000; -187.000
862.644; -101.825; -368.000; -347.000
862.892;  -45.600;   98.000;  138.000
863.140; -118.125; -549.000; -530.000
863.388; -165.475; -815.000; -759.000
863.635; -116.450; -642.000; -601.000
863.883;  -22.125;  231.000;  190.000
864.131; -100.725; -288.000; -357.000
864.378; -134.775; -675.000; -540.000
864.626; -103.850; -347.000; -415.000
864.873; -125.700; -556.000; -505.000
865.121; -145.850; -714.000; -799.000
865.368;  -47.400; -173.000;   75.000
865.616;  -45.925;  -33.000;  -40.000
865.863;  -73.850; -462.000; -506.000
866.111; -121.575; -795.000; -824.000
866.358;   31.350; -426.000; -420.000
866.605; 2148.125;  -64.000; -804.000
866.853; 2515.950; -621.000; -537.000
867.100;  -37.750; -728.000; -775.000
867.347; -105.900; -672.000; -611.000
867.594;  -84.975; -740.000; -714.000
867.841;   73.850;   97.000;   17.000
868.089; -139.425; -746.000; -698.000
868.336; -114.800; -477.000; -420.000
868.583; -142.725; -637.000; -741.000
868.830;  -49.550; -131.000; -170.000
869.077; -157.475; -859.000; -787.000
869.324; -124.950; -502.000; -458.000
869.571; -143.375; -398.000; -430.000
869.818; -129.525; -485.000; -439.000
870.065; -106.450; -439.000; -513.000
870.311; -121.725; -456.000; -542.000
870.558; -107.850; -332.000; -311.000
870.805;  -92.400; -320.000; -384.000
871.052; -120.950; -494.000; -369.000
871.298;  -59.800; -204.000; -131.000
871.545;  -76.250; -151.000; -185.000
871.792;  -91.525; -173.000; -222.000
872.038;  -60.200;   43.000; -126.000
872.285; -120.525; -496.000; -387.000
872.532; -116.025; -357.000; -387.000
872.778;   12.575;  556.000;  403.000
873.025; -105.150; -384.000; -359.000
873.271;   21.900;  501.000;  578.000
873.517;  -28.750; -133.000; -209.000
873.764;  -42.375; -193.000;  -80.000
874.010;  -79.400; -143.000; -230.000
874.257;  -56.225;  123.000;   90.000
874.503; -133.200; -579.000; -479.000
874.749;  -59.925;   31.000;  275.000
874.995;  -67.600;  -80.000;  -20.000
875.242; -120.200; -540.000; -478.000
875.488; -118.025; -414.000; -439.000
875.734;  -64.100; -106.000; -234.000
875.980;  149.000; -872.000;-1032.000
876.226;  373.600; -157.000; -255.000
876.472;  -15.750;  343.000;  237.000
876.718;  -42.400;  184.000;  158.000
876.964;  -55.775;   56.000;   55.000
877.210; -147.625; -547.000; -677.000
877.456; -151.525; -630.000; -557.000
877.702; -173.925; -821.000; -832.000
877.948; -121.225; -377.000; -497.000
878.193;    7.775;  361.000;  255.000
878.439;  -97.600; -487.000; -472.000
878.685; -110.025; -272.000; -343.000
878.931; -145.000; -618.000; -676.000
879.176;  -85.825; -201.000; -201.000
879.422; -177.125; -933.000; -820.000
879.668;   57.275;   10.000;   79.000
879.913;  128.850;   53.000;  137.000
880.159;  -65.475; -112.000;  -17.000
880.404;  -56.750; -152.000; -162.000
880.650;  -54.200;   91.000;  141.000
880.895; -159.525; -670.000; -710.000
881.141; -119.950; -454.000; -428.000
881.386; -154.925; -503.000; -658.000
881.631;  -86.575; -311.000; -166.000
881.877;  -49.075;  112.000;  -13.000
882.122; -122.300; -684.000; -600.000
882.367;  -80.850; -136.000; -186.000
882.612;  -68.825;  -80.000; -176.000
882.858; -174.200; -877.000; -823.000
883.103;  -94.100; -297.000; -267.000
883.348; -144.275; -759.000; -852.000
883.593; -154.450; -677.000; -602.000
883.838;  -63.050; -311.000;  -24.000
884.083;   30.200;  353.000;  288.000
884.328;  -94.350; -564.000; -545.000
884.573;  -63.025; -196.000; -143.000
884.818;  156.975; -694.000; -531.000
885.063;  171.475; -348.000; -315.000
885.308; -113.750; -475.000; -398.000
885.553;  -16.750;  245.000;  325.000
885.797; -125.200; -545.000; -615.000
886.042;  -50.650;    8.000;   58.000
886.287;  -95.375; -253.000; -211.000
886.532;  -58.900;   26.000;  204.000
886.776; -114.450; -407.000; -525.000
887.021; -148.550; -621.000; -574.000
887.265; -155.900; -685.000; -689.000
887.510; -141.975; -557.000; -496.000
887.755;  -93.950; -194.000; -164.000
887.999; -149.200; -552.000; -575.000
888.244;  -63.375;  -58.000;  161.000
888.488;  -15.550;  371.000;  393.000
888.732; -116.325; -368.000; -520.000
888.977; -136.650; -622.000; -567.000
889.221; -151.725; -683.000; -659.000
889.465; -135.225; -422.000; -566.000
889.710;  -91.325;  -56.000; -299.000
889.954;  -14.025;  579.000;  467.000
890.198; -151.650; -584.000; -707.000
890.442; -153.375; -716.000; -712.000
890.687; -163.150; -800.000; -753.000
890.931;  -84.425; -273.000; -210.000
891.175; -139.100; -502.000; -500.000
891.419;  -75.400; -105.000; -110.000
891.663;  -95.000; -239.000; -112.000
891.907; -158.250; -801.000; -545.000
892.151; -177.675; -920.000; -815.000
892.395; -115.825; -274.000; -387.000
892.638;  -30.175;  408.000;  291.000
892.882; -186.175; -780.000; -867.000
893.126;   15.925;  758.000;  558.000
893.370;  -95.500; -167.000; -168.000
893.614; -145.975; -714.000; -715.000
893.857; -104.000; -183.000; -197.000
894.101; -146.000; -527.000; -631.000
894.345;  -50.775;  300.000;  150.000
894.588;    4.700;  569.000;  380.000
894.832;  -79.200; -178.000;  -84.000
895.075;  -82.450;   15.000;  -92.000
895.319; -135.250; -552.000; -420.000
895.563; -120.100; -413.000; -353.000
895.806; -144.750; -628.000; -741.000
896.049;  -70.850; -576.000; -368.000
896.293;   85.725;  527.000;  405.000
896.536;  -81.200; -465.000; -468.000
896.779;  -60.850; -149.000;   -1.000
897.023; -135.050; -751.000; -714.000
897.266;  -41.600;  325.000;  269.000
897.509; -188.250; -900.000; -901.000
897.752;  -57.725;  149.000;  171.000
897.996; -192.100; -972.000; -864.000
898.239;  -45.300;  168.000;  102.000
898.482; -144.425; -431.000; -453.000
898.725;  -39.075;  101.000;   53.000
898.968; -169.425; -609.000; -744.000
899.211; -106.575; -513.000; -361.000
899.454; -132.225; -633.000; -539.000
899.697;  -60.400;   90.000;  -43.000
899.940; -168.525; -761.000; -757.000
900.182; -113.600; -335.000; -405.000
900.425;  -94.050; -150.000; -298.000
900.668;  -32.000;  491.000;  350.000
900.911; -106.475; -292.000; -345.000
901.154;  -51.350;  141.000;   -3.000
901.396; -140.975; -407.000; -412.000
901.639; -142.925; -430.000; -496.000
901.882; -181.375; -790.000; -809.000
902.124;  -83.050;  -29.000; -143.000
902.367; -118.950; -315.000; -361.000
902.609; -132.750; -476.000; -453.000
902.852;  -93.575; -108.000; -260.000
903.094; -117.425; -458.000; -337.000
903.337;  -76.475;  -26.000;   53.000
903.579; -121.150; -228.000; -441.000
903.821; -161.275; -597.000; -744.000
904.064;  -58.125;   85.000;  127.000
904.306;  -94.850; -126.000; -166.000
904.548; -101.350; -152.000; -366.000
904.790; -114.825; -195.000; -340.000
905.033; -136.875; -625.000; -577.000
905.275; -138.375; -513.000; -524.000
905.517;   32.725;  468.000;  256.000
905.759;  -78.975; -667.000; -761.000
906.001; -102.825; -322.000; -369.000
906.243;  -75.500; -162.000; -224.000
906.485;   97.500; -265.000; -207.000
906.727;   99.650; -499.000; -542.000
906.969;  -39.450;  -30.000; -135.000
907.211;  102.350; -316.000; -382.000
907.453;  273.975; -188.000; -237.000
907.695;   -2.500; -158.000; -385.000
907.936;   25.625;  818.000;  706.000
908.178;  -64.700;   92.000; -135.000
908.420;  -77.175; -111.000; -162.000
908.662; -134.600; -633.000; -682.000
908.903;  -94.325; -208.000; -123.000
909.145;  -81.375; -240.000; -305.000
909.386;   12.900;  315.000;  280.000
909.628;   24.375;  363.000;  397.000
909.870;   -1.475;   29.000;  264.000
910.111; -107.875; -809.000; -949.000
910.353;   21.075; -123.000; -161.000
910.594;  -12.650; -574.000; -606.000
910.835;   86.550; -265.000; -326.000
911.077;  156.475; -503.000; -604.000
911.318;  292.800; -505.000; -471.000
911.559;  444.100; -577.000; -880.000
911.801; 1307.375; -284.000; -280.000
912.042; 9923.400;  -50.000; -159.000
912.283;27636.300;  404.000;  371.000
912.524; 4665.975; -396.000; -457.000
912.765;  516.175; -193.000;   79.000
913.006;  243.975; -307.000; -338.000
913.247;   57.775; -270.000; -290.000
913.488;  -16.000;  -43.000;   30.000
913.729;  -86.775; -373.000; -373.000
913.970;  -59.650;  -96.000; -292.000
914.211;  -74.975; -160.000; -198.000
914.452;  -73.375; -118.000;  -11.000
914.693;   -7.300;  510.000;  592.000
914.934;    7.575;  510.000;  440.000
915.175;  -67.950;   53.000;  -95.000
915.415;  -66.650; -137.000;   27.000
915.656;  -62.900;  -28.000;  192.000
915.897;  -97.550; -252.000;  -82.000
916.137;  -75.625;   74.000;   -9.000
916.378; -138.975; -573.000; -517.000
916.619;  -95.500; -159.000;  -63.000
916.859;  -22.325;  303.000;  330.000
917.100;  127.850; 1655.000; 1070.000
917.340;   37.425;  930.000;  728.000
917.581;   44.050;  965.000;  789.000
917.821;  -31.525; -171.000;  143.000
918.061;   12.475; -199.000;  -72.000
918.302;  -62.000; -152.000; -211.000
918.542;  -30.200;  -22.000;    3.000
918.782;   28.000;  369.000;  377.000
919.023;  119.900;  360.000;  427.000
919.263; 1288.150; 8131.000;  202.000
919.503; 1112.225; -137.000;  -54.000
919.743;  601.525;  390.000;  266.000
919.983;  267.200; -134.000;  -26.000
920.223;   90.425;  135.000;   14.000
920.463;  158.225;  631.000;  554.000
920.703;  123.225;   84.000;   39.000
920.943;  175.525; -110.000;   90.000
921.183;  226.425; -414.000; -405.000
921.423;  506.025;  307.000;  546.000
921.663;  705.850; -174.000; -257.000
921.903; 1542.100;  237.000;  173.000
922.143; 8378.075;  372.000;  389.000
922.383;33820.025;  158.000;  115.000
922.622;12571.000; -120.000;  -15.000
922.862; 1325.875;  796.000;  785.000
923.102;  498.000;  -51.000;   33.000
923.341;  217.450;   59.000;   74.000
923.581;   92.625;  450.000;  360.000
923.821;   33.775;  301.000;  398.000
924.060;    6.800;  351.000;  193.000
924.300;  -61.600;  -16.000; -128.000
924.539;  -16.475;  584.000;  473.000
924.779;   25.475;  812.000;  597.000
925.018;  -54.050;  247.000;  353.000
925.257;  -12.450;  595.000;  666.000
925.497;  -39.225;  447.000;  412.000
925.736;  -87.500;  -35.000;  102.000
925.975;    6.450;  687.000;  669.000
926.214;   32.300;  907.000;  850.000
926.454;   21.275;  706.000;  757.000
926.693;  -37.600;  419.000;  543.000
926.932;   33.200; 1021.000;  825.000
927.171;   66.025; 1107.000; 1044.000
927.410;   60.925; 1144.000;  967.000
927.649;   33.375;  924.000;  742.000
927.888;  -14.725;  590.000;  564.000
928.127;   -9.300;  680.000;  678.000
928.366;   31.400;  842.000;  826.000
928.605;   32.450;  831.000;  737.000
928.844;  226.575; 1451.000; 1393.000
929.083;  580.075;  770.000;  613.000
929.321;  330.675; 1335.000; 1359.000
929.560;   87.825; 1158.000; 1122.000
929.799;  -23.925;  574.000;  475.000
930.038;   72.625; 1025.000; 1394.000
930.276;  -44.875;  334.000;  397.000
930.515;   -5.675;  827.000;  681.000
930.753;  -22.725;  614.000;  589.000
930.992;  -11.000;  664.000;  717.000
931.230;   10.175;  847.000;  847.000
931.469;  163.275; 2162.000;  892.000
931.707;   53.300;  840.000;  751.000
931.946;   59.400; 1278.000; 1344.000
932.184;   50.075; 1437.000; 1175.000
932.423;   49.000; 1265.000;  963.000
932.661;   88.950; 1296.000; 1428.000
932.899;   22.925;  987.000;  821.000
933.137;    4.725;  754.000;  564.000
933.376;  137.875; 1664.000; 1335.000
933.614;  145.650; 1759.000; 1196.000
933.852;   59.925; 1357.000; 1171.000
934.090;  128.700; 1722.000; 1747.000
934.328;   98.675; 1252.000; 1457.000
934.566;   89.000; 1431.000; 1110.000
934.804;  134.300; 1263.000; 1309.000
935.042;  467.475; 1861.000; 1850.000
935.280; 1801.500; 2088.000; 2063.000
935.518; 1851.475; 2113.000; 2007.000
935.756;  392.150; 2481.000; 2316.000
935.994;  169.125; 1808.000; 1751.000
936.231;  342.275; 2890.000; 2950.000
936.469;  193.725; 2367.000; 2378.000
936.707;  180.500; 2220.000; 2167.000
936.945;  242.725; 2825.000; 2882.000
937.182;  196.275; 2679.000; 2741.000
937.420;  295.675; 3602.000; 3031.000
937.657;  406.950; 3365.000; 3478.000
937.895;  349.525; 3331.000; 3488.000
938.133;  311.000; 3540.000; 3528.000
938.370;  314.100; 3896.000; 4191.000
938.607;  386.025; 4488.000; 4205.000
938.845;  559.500; 5587.000; 5549.000
939.082;  490.750; 5387.000; 5177.000
939.320;  541.750; 5799.000; 5728.000
939.557;  653.275; 6549.000; 6491.000
939.794;  702.850; 7285.000; 7097.000
940.031;  887.250; 8421.000; 8368.000
940.269; 1098.575; 9552.000; 9107.000
940.506; 1135.100;10901.000;10507.000

