
Integration time [ms]: 100.000
Averaging Nr. [scans]: 40
Smoothing Nr. [pixels]: 0
Data measured with spectrometer [name]: 2101013U2
Wave   ;Sample   ;Dark     ;Reference
[nm]   ;[counts] ;[counts] ;[counts] 

394.013;   52.012; -450.257; -315.536
394.305;  207.160; -461.258; -419.536
394.596; 1142.132; -676.269; -527.514
394.887; 2883.298; -796.268; -654.518
395.178; 1073.054;  145.736;   11.476
395.470;   77.440; -210.263; -356.526
395.761;  185.888;  305.734;  394.479
396.052;  304.881; -545.284; -306.489
396.343;  276.551; -557.276; -454.503
396.634;   94.720; -200.279; -290.497
396.926;   88.746; -618.268; -565.517
397.217;  104.281;   11.725;  -17.504
397.508;   41.996; -366.273; -154.507
397.799;   31.195; -555.279; -571.497
398.090;   -9.136; -973.280; -902.495
398.381;  100.981;   11.708;  -11.473
398.672;  -11.493; -585.292; -742.473
398.963;   26.726; -348.279; -373.498
399.254;   92.441;   54.709; -209.475
399.545;  -50.365;-1017.266; -883.520
399.836;   51.440; -407.277; -343.501
400.127;   29.782; -205.295; -209.468
400.418;   41.416; -423.274; -392.506
400.709;   38.501; -359.281; -333.493
401.000;   29.620; -268.291; -309.476
401.290;   86.993;  225.698;  115.545
401.581;   46.389; -166.286; -228.485
401.872;   13.704; -542.298; -486.462
402.163;   48.774; -313.296; -252.467
402.454;   76.417; -123.291; -163.475
402.744;   61.616; -844.297; -813.465
403.035;  374.997; -226.293;  -86.471
403.326;  489.460; -366.292; -384.474
403.617;  336.373;  204.701;  165.539
403.907;  260.187; -593.283; -679.490
404.198; 2518.522; -545.307; -599.446
404.489; 6548.592; -618.283; -588.491
404.779; 2091.722; -618.302; -660.456
405.070;  218.800;  -67.304; -174.451
405.360;  333.199; -259.293; -238.472
405.651;  373.608;  125.699;   98.542
405.942;  159.959;  209.714;  127.516
406.232;  214.298; -432.285; -413.487
406.523;  412.117;  641.706;  758.530
406.813;   63.436; -579.286; -644.484
407.104;  299.504;  261.708;  144.527
407.394;  153.074; -604.299; -591.462
407.685;  136.698;  336.715;  222.513
407.975;   52.190; -400.283; -382.490
408.265;  106.031; -134.289; -190.478
408.556;   55.263; -472.291; -459.475
408.846;  154.518;  474.706;  429.530
409.137;   88.164;   -1.288; -216.480
409.427;   40.623; -193.285; -271.487
409.717;   28.300; -776.273; -692.508
410.007;  139.592;    4.715; -170.486
410.298;   80.259; -360.295; -342.469
410.588;   61.120; -495.285; -510.486
410.878;   17.251; -792.287; -873.482
411.168;  100.406; -481.298; -478.463
411.459;  117.710; -295.283; -242.489
411.749;   62.662; -609.292; -507.474
412.039;   60.638; -755.289; -386.480
412.329;  190.433;   40.722;  132.501
412.619;  193.111;  -62.286; -148.485
412.909;  340.784;  639.711;  594.521
413.199;  314.464; -130.280; -251.495
413.490;  379.149;  521.710;  352.523
413.780;  139.693;-1013.279; -913.496
414.070;  313.552;  -46.276;  235.497
414.360;  350.954; -729.278; -666.498
414.650;  410.872; -726.288; -688.482
414.940;  561.968; -538.280; -441.496
415.230;  939.619;   50.712;   74.519
415.520; 6293.706;  155.730;   66.486
415.809;25026.201; -305.281; -125.493
416.099;19150.817; -388.277; -229.501
416.389; 5502.214;  435.726;  236.494
416.679; 3218.369;   91.738;   85.473
416.969;  542.380; -527.287; -503.483
417.259;  472.670;  341.721;  171.503
417.549;  682.374;  522.718;  318.508
417.838; 1734.273; -205.268; -147.518
418.128; 5828.280;  650.710;  492.522
418.418; 4835.656; -491.272; -579.509
418.708; 3229.539;    9.726;  -48.506
418.997;12441.935; -474.275; -480.505
419.287;12822.521; -733.273; -790.507
419.577;12358.509; -160.283; -123.489
419.866;40657.115; -588.277; -498.501
420.156;40972.852; -242.270;  -55.513
420.446; 7130.311; -112.263;  -26.526
420.735;  805.171; -376.271; -446.512
421.025;  812.128; 1830.722;  315.502
421.314;  634.419; -203.271; -226.512
421.604; 1212.215;   89.732;  233.484
421.893;  723.940; -705.271; -602.511
422.183;  225.011; -487.263; -461.526
422.472;  373.767;  -36.271; -107.511
422.762;  439.041; -416.266; -379.521
423.051;  239.027; -916.276; -916.503
423.341;  315.423; -491.273; -439.507
423.630;  398.722; -121.265;   15.477
423.919;  377.484;   58.725;   49.495
424.209;  372.217;  -31.263;   56.473
424.498;  496.420;   68.732;  161.483
424.787; 1146.402; -535.267; -601.518
425.077; 3482.420;   34.735;   29.478
425.366; 4703.273; -734.262; -744.528
425.655;10402.598;  639.727;  259.493
425.945;23603.777; -313.247; -268.554
426.234;12909.645;  117.741;  300.467
426.523; 5287.975;  -86.259; -350.534
426.812; 7193.512;  107.734;  159.480
427.101;10797.237; -127.269; -323.515
427.390;13414.756;  -55.270;  -86.514
427.680; 2834.670; -624.257; -411.538
427.969;  452.556; -330.255; -301.540
428.258;  319.637; -385.257; -477.536
428.547;  513.860;  449.728;  397.490
428.836; 1137.047; -421.253; -398.543
429.125; 1661.752; -199.259;  -72.534
429.414;  761.720; -330.251; -294.548
429.703; 3274.845; -231.251; -213.548
429.992; 9862.824; -938.250; -828.549
430.281; 6394.754; -397.264; -331.524
430.570;  544.286;  -21.252;   32.454
430.859;  505.525;  279.741;  352.466
431.148;  405.823;  636.752;  631.446
431.437;  264.885;  391.748;  367.454
431.725;  170.738; -544.257; -481.536
432.014;  127.255; -845.253; -756.545
432.303;  367.849; -149.239; -105.569
432.592;  566.311; -460.263; -178.525
432.881; 1074.624; -601.248; -437.554
433.169; 6615.432; -343.255;  -61.540
433.458;13389.208;  445.765;  540.424
433.747; 5450.303; -397.261; -289.529
434.036;  823.100; -275.242; -280.564
434.324; 2147.086; -395.249; -379.551
434.613; 3802.993;   40.757;  159.437
434.902; 1211.889;  333.760;  439.433
435.190;  469.122;   75.761;  295.431
435.479;  257.050;  -52.245;   83.441
435.767;   86.183; -411.244; -427.561
436.056;  193.520; -340.242; -294.563
436.345;  388.691; -372.240; -223.568
436.633;  365.231;   60.750;  383.450
436.922;  225.743;  208.760;  414.432
437.210;  468.773; -194.236;    1.426
437.499; 1523.306; -583.235; -432.576
437.787; 1659.597; -339.236;  -10.574
438.075;  436.403;   56.761;  162.430
438.364;  600.356;  -44.238;  250.429
438.652;  351.561; -286.226; -138.592
438.941;  108.675;    3.770;  269.415
439.229;  -20.192; -665.252; -466.545
439.517;   23.139; -160.234;  -85.577
439.806;   -3.224; -501.225; -290.595
440.094;  164.772;  377.766;  650.421
440.382;  150.051; -653.233; -302.580
440.670;  155.255; -361.235; -285.576
440.959;   12.519; -347.223; -170.599
441.247;   47.486; -151.229; -109.587
441.535;   79.087; -266.235;   31.423
441.823;   13.794; -497.234; -305.578
442.111;  158.615;  173.771;  327.412
442.400;  446.849; -628.245; -335.559
442.688; 1141.146; -111.234; -620.579
442.976;  772.607; -786.213; -450.617
443.264;   71.583; -324.224; -364.597
443.552;   81.937; -258.226;   51.408
443.840;  147.736;  602.765;  876.423
444.128;   95.600;  265.767;  269.420
444.416;  -19.207; -694.228; -312.588
444.704;   18.374; -465.219;  -92.605
444.992;   64.140;   -0.226;  240.407
445.280;   29.550; -517.230;  -94.585
445.568;   28.860; -694.212; -396.618
445.856;  287.683; -174.221;  357.398
446.143;  619.820;  -54.220;   -7.604
446.431;  529.022;  -25.228;  625.411
446.719;  204.593;  489.783;  675.391
447.007;  172.520;  481.769;  705.416
447.295;  150.291;  597.777;  871.402
447.583;   61.709; -464.229;  -34.587
447.870;  129.929; -434.221; -202.601
448.158;  362.224; -104.230;  129.415
448.446;  259.046; -800.219; -338.604
448.733;  142.210;   13.776;  269.403
449.021;  219.035;   60.788;  341.382
449.309;  167.625; -296.210;  208.379
449.596;  210.439;  128.783;   59.392
449.884;  148.998; -571.222; -325.600
450.172;  165.327; -756.227; -406.590
450.459;  444.240;  645.786;  780.387
450.747; 2546.013; -411.218; -147.608
451.034; 8275.073;  493.772;  889.411
451.322; 6694.693; -413.214; -170.614
451.609;  537.436;  292.777;  508.403
451.897;  624.888; -550.203; -183.634
452.184; 1923.766; -622.223; -400.598
452.472; 1762.446;   97.792;  269.375
452.759;  328.297;  512.781;  864.395
453.047;  106.158; -407.212; -125.617
453.334;   56.654; -732.219; -216.606
453.621;   71.845; -438.214; -161.615
453.909;  106.955;   13.796;  384.368
454.196;   85.626; -299.199; -123.641
454.483;  174.801;  317.798;  540.364
454.771;  106.574; -215.208;  196.374
455.058;   26.903; -316.207;  102.374
455.345;  107.556;   71.807;  344.347
455.632;   87.206; -128.207;  235.373
455.919;   39.798;  -82.196;  182.354
456.207;  -62.570; -774.198; -450.642
456.494;  -20.012; -475.200;  -66.639
456.781;    0.622; -399.202; -198.635
457.068;   58.063; -253.206;  -29.628
457.355;  -25.486; -698.206; -401.629
457.642;  -26.606; -552.205; -290.630
457.929;  -17.453; -778.194; -417.651
458.216;   64.783; -575.212; -354.617
458.503;  250.677; -173.193;  -19.652
458.790;  242.997; -864.208; -630.625
459.077;  271.352;  -77.202;  110.364
459.364;  816.490; -350.195; -210.649
459.651; 1782.461;  -46.206;  220.372
459.938;  832.013; -864.209; -665.623
460.225;  125.380;  132.799;  276.363
460.512;  -47.830; -836.197; -688.645
460.799;   78.411;  -32.218;  320.392
461.086;   59.093; -370.200; -251.640
461.372;   21.630; -509.198; -279.642
461.659;  100.799; -165.196;  108.354
461.946;   44.050; -445.193;  -54.651
462.233;  212.140;  842.800;  888.361
462.519;  343.737; -814.201; -464.639
462.806; 1065.496; -768.197; -497.645
463.093;  922.321; -445.191;  -66.656
463.380;  -30.388; -920.186; -824.664
463.666;   39.373; -259.197;  -18.646
463.953;   93.335; -406.195; -243.648
464.239;  191.885; -173.195;  -77.648
464.526;  364.470;  413.806;  743.350
464.813;  296.283; -565.190; -304.658
465.099;  333.076;  606.807;  607.348
465.386;  289.955;  903.807;  921.348
465.672;    1.946; -694.197; -522.645
465.959;    6.125; -598.188; -520.662
466.245;    0.430; -468.193; -359.652
466.532;   76.907; -109.195;   63.352
466.818;   67.137; -357.186; -216.664
467.104;  -13.748; -488.182; -415.672
467.391;  -31.316; -628.189; -459.658
467.677;   12.866; -289.186;    9.335
467.964;  -11.609; -682.189; -471.660
468.250;   35.443; -331.186; -160.665
468.536;   63.661;   90.811;  180.341
468.822;  -40.220; -821.184; -574.668
469.109;  138.658;  351.827;  471.311
469.395;  176.790;  729.808;  787.346
469.681;  180.339;   46.811;  156.341
469.967; 1282.093; -699.188; -382.660
470.254; 2831.101; -494.188; -306.662
470.540; 1809.548; -601.196; -476.646
470.826;  255.838; -488.181; -397.675
471.112;  310.359;  288.816;  113.331
471.398;   65.063; -253.183;  -58.670
471.684;   16.692; -626.177; -447.680
471.970;   -7.108; -918.180; -981.675
472.256;   29.589; -521.192; -441.654
472.542;   10.119; -499.171; -434.691
472.828;   -3.277; -743.182; -607.672
473.114;   16.388; -380.166; -283.700
473.400;    7.558; -504.175; -293.684
473.686;   19.069; -452.166; -400.701
473.972;   38.173; -230.174; -131.687
474.258;  -40.717; -925.173; -843.689
474.544;  206.333; -183.178;   -2.679
474.830;  327.785;  -65.175;   45.316
475.116;  530.309; -123.190; -196.658
475.401;  722.169; -558.180; -467.676
475.687;  208.793; -725.180; -718.676
475.973;  -11.044; -673.181; -770.673
476.259;  237.962;  736.825;  764.315
476.544;  378.925; -539.176; -437.682
476.830;  916.690; -398.172; -322.690
477.116;  805.323; -430.177; -336.682
477.401;  132.269;  346.820;  358.324
477.687;  -30.392; -289.175; -405.684
477.973;   25.610;   21.819;   28.326
478.258;  -14.236; -448.163; -348.706
478.544;   49.599;   21.815;   61.334
478.829;  -61.925; -818.171; -738.692
479.115;  -51.185; -749.172; -651.690
479.401;  -26.707; -444.174; -449.686
479.686;   22.868; -253.180;  -74.676
479.972;  -34.611; -886.178; -776.680
480.257;   30.464; -258.166;  -65.700
480.542;   -8.197; -614.170; -469.693
480.828;  208.507; 1288.824; 1392.317
481.113;  -36.971; -464.176; -426.683
481.399;  -18.112; -236.161; -202.711
481.684;  -57.511; -620.166; -462.700
481.969;    4.327; -158.159;  -73.713
482.255;  -15.161; -439.169; -285.695
482.540;  -11.986; -569.178; -441.680
482.825;    7.557; -395.187; -404.663
483.110;   95.042;  -85.169; -105.696
483.396;  218.148; -840.157; -652.718
483.681;  500.623;  543.826;  730.313
483.966;  163.846; -696.160; -700.712
484.251;   -0.978; -404.174; -310.687
484.536;   -1.551; -356.165; -378.703
484.822;   17.375; -205.173; -218.687
485.107;  -34.913; -599.152; -502.726
485.392;  105.655;  662.836;  541.296
485.677;   74.777;  354.832;  163.302
485.962;   97.921;  160.843;  270.283
486.247;   73.797;  -14.162;   -8.707
486.532;   39.665; -178.166; -325.701
486.817;  163.583;  381.839;  431.291
487.102;  105.620; -453.154; -514.722
487.387;  725.225; -637.156; -652.718
487.672; 1296.435; -154.164;  -38.705
487.957;  821.540; -394.160; -286.711
488.241;  224.703; -290.150; -314.729
488.526;  815.688; -280.152; -148.726
488.811; 1307.341; -881.177; -818.680
489.096;  964.022; -666.154; -702.723
489.381;  537.434;    3.847;  162.275
489.666;  436.338; -428.161; -510.710
489.950;  168.675;  558.846;  627.277
490.235;  -26.152; -480.151; -458.728
490.520;  -48.913; -756.161; -723.710
490.804;  -65.823; -827.156; -736.719
491.089;  -14.581; -469.149; -299.732
491.374;   32.134; -132.164;  -75.704
491.658;  -14.919; -817.147; -717.735
491.943;  144.017; -657.152; -609.727
492.227;  237.990; -178.155;  -38.721
492.512;   31.095; -294.157; -341.717
492.797;  -79.162; -713.149; -716.731
493.081;  -63.342; -588.147; -598.735
493.366;  -47.786; -751.161; -635.711
493.650;  194.736;  831.859;  917.254
493.935;   24.005; -648.147; -447.734
494.219;  -36.976; -778.142; -687.743
494.503;  -45.917; -585.150; -487.730
494.788;   66.262;   46.842;   74.285
495.072;   81.555;  184.850;  434.271
495.356;  165.047; -463.148; -343.733
495.641;  472.540; -812.146; -736.736
495.925;  442.982; -976.156; -903.719
496.209;   35.868; -599.149; -451.732
496.494;  -43.401; -763.142; -544.744
496.778;   -0.780; -364.154; -360.722
497.062;  -45.843; -819.156; -627.719
497.346;  -38.833; -869.160; -640.711
497.631;  148.176;  580.852;  560.266
497.915;   49.575;  -64.145;  175.261
498.199;   47.248; -341.157; -277.718
498.483;   22.811; -562.152; -508.725
498.767;  196.531;  301.850;  300.271
499.051;  196.966; -126.149; -100.732
499.335;   34.939; -693.149; -739.731
499.619;  -42.612; -381.129; -423.767
499.903;   21.764; -272.155;  -65.721
500.187;   22.327; -588.153; -316.724
500.471;    8.416; -796.152; -595.727
500.755;  102.137;   62.839;  -96.710
501.039;   10.690; -270.155; -357.721
501.323;   72.938;  -21.141;  264.254
501.607;   17.165; -447.163; -503.706
501.891;  -10.325; -607.156; -512.718
502.174;  -23.088; -726.144; -585.741
502.458;   61.620;   89.849;  370.273
502.742;   27.912; -180.138; -191.751
503.026;   95.904; -412.147; -254.734
503.310;  178.501; -437.159; -375.713
503.593;  123.656; -464.147; -325.735
503.877;  113.577; -232.133; -156.760
504.161;  167.054;    2.847;  -50.724
504.444;  135.214; -841.158; -710.716
504.728;  487.158; -487.164; -522.704
505.012;  761.028; -257.150;  -76.729
505.295;  558.363; -417.161; -212.711
505.579;  566.082; -256.156; -496.719
505.862;  817.472; -555.145; -333.738
506.146;  806.453; -681.159; -758.714
506.429;  407.454;  568.841;  461.286
506.713;   69.950; -732.151; -667.728
506.996;  329.194;   90.846;  295.278
507.280;  367.778; -633.165; -474.703
507.563;  246.588; -469.155; -261.721
507.847;  111.453; -423.153; -112.724
508.130;  103.714; -665.161; -456.711
508.413;  122.635; -758.167; -577.700
508.697;  259.260; -151.167;   12.300
508.980;  158.829; -422.153; -312.724
509.263;   -7.966; -466.155; -450.720
509.547;   32.677; -124.150;   82.271
509.830;   32.641; -172.160;  140.289
510.113;   74.931;  128.844;  298.281
510.396;   20.385; -530.152; -300.725
510.680;  120.623; -818.145; -812.738
510.963;  492.974;  184.846;  180.277
511.246;  412.385; -493.150; -357.730
511.529;  245.778; -482.145;  -83.739
511.812;  411.074; -250.134;   10.241
512.095;  284.597; -740.151; -396.728
512.378;   77.335; -317.147; -245.736
512.661;   31.120; -703.137; -623.753
512.944;   26.826; -750.142; -637.744
513.227;   65.817; -170.137; -171.752
513.510;   17.012; -479.144; -671.741
513.793;   10.218; -485.140; -435.747
514.076;  135.634;  -43.127;  -39.771
514.359;  112.669; -294.149; -135.732
514.642;   79.554; -442.142; -567.744
514.925;  821.266;  581.860;  561.253
515.208; 1090.570; -498.134; -443.758
515.491;  714.259; -276.133; -182.761
515.773;  398.665; -410.143; -337.742
516.056; 2281.351;  249.864;  409.246
516.339; 3055.955; -754.136; -652.755
516.622; 1899.983; -518.150; -488.730
516.904; 1077.247;  882.857;  975.257
517.187;  497.541; -730.138; -523.752
517.470;  396.671; -568.143; -510.743
517.752;  461.533; -624.136; -470.756
518.035;  384.653; -708.139; -725.749
518.318;  410.805; -799.136; -744.755
518.600; 2694.513; -300.132; -325.762
518.883; 3715.953;  310.858;   88.256
519.165; 1763.833; -585.138; -426.751
519.448;  381.412;  -61.132;  -19.762
519.730;  173.191; -573.126; -415.773
520.013;  294.180;  588.867;  664.240
520.295;  698.351;  -94.134;  -15.759
520.578; 1603.326; -335.131; -305.764
520.860; 1802.188; -254.132;   56.238
521.143;  960.535; -763.135; -584.756
521.425;  498.579; -251.125; -279.775
521.707;  721.634; -622.127; -380.771
521.990; 1909.959; -199.127;  167.229
522.272; 2212.144; -116.140;   -4.748
522.554;  946.416; -237.143; -157.742
522.836;  317.424;  -24.134;   99.241
523.119;  205.153; -496.148; -189.734
523.401;  152.732; -448.130; -314.766
523.683;   98.070; -865.137; -693.753
523.965;  274.489;  408.862;  260.248
524.247;  283.850;   54.878;  170.220
524.529;  206.576; -451.134; -367.759
524.812;  364.859;   -3.130;  191.234
525.094;  931.688; -773.138; -631.751
525.376; 1483.163; -143.124;   78.223
525.658;  917.827; -441.136; -339.754
525.940;   21.647; -805.131; -671.764
526.222;    9.281; -188.136;  -88.755
526.504;   94.695; -190.131;   32.237
526.786;  135.728; -960.133; -647.760
527.068;  260.269; -124.123;  -67.778
527.349;  105.724; -865.137; -774.754
527.631;  121.087; -137.132;   22.238
527.913;  150.008; -664.127; -450.771
528.195;  187.547; -761.125; -639.774
528.477;  259.146;  -93.134;  -30.758
528.759;  140.184; -648.130; -522.766
529.040;   72.017; -569.123; -293.778
529.322;   44.825; -235.125;  -10.774
529.604;  118.436;  -47.130;   93.233
529.886;  104.666; -546.126; -302.773
530.167;  106.528;  232.870;  192.235
530.449;   32.460;    1.853;   63.265
530.731;   26.524; -572.122; -459.779
531.012;   83.995; -513.120; -216.784
531.294;   82.184; -118.116;  -43.792
531.575;  152.104;  290.875;  538.225
531.857;   55.765; -548.135; -266.757
532.138;  106.212; -113.141;   40.254
532.420;  166.012;  294.865;  403.244
532.701;  189.705; -722.133; -751.760
532.983;  309.859;  232.867;  182.239
533.264;  104.064; -243.126;  175.228
533.546;  -46.494; -491.136; -508.755
533.827;   54.327;  173.867;   -1.759
534.109;   33.865; -352.135;  -80.757
534.390;   70.266; -725.132; -582.762
534.671;  252.211; -270.135;  -82.756
534.953;  140.120; -751.123; -611.779
535.234;   15.844; -426.117; -255.789
535.515;  -81.096; -891.119; -735.785
535.796;  -21.796; -431.128; -193.770
536.078; -112.262;-1050.124; -904.777
536.359;    1.746;  -22.123;    3.221
536.640;  -26.026; -480.125; -197.774
536.921;  151.917;  225.871;  143.232
537.202;  382.660;  -87.138;  -16.751
537.483;  485.175;  251.869;  377.236
537.764;  189.803;   17.870;   98.235
538.045;  -45.955; -543.134; -371.758
538.326;  -43.982; -596.129; -447.768
538.607;   11.210; -686.127; -476.771
538.888;  201.711;   98.879;    5.218
539.169;  187.581; -704.122; -535.781
539.450;  333.641;  236.871;   16.233
539.731;  216.490; -361.121; -182.783
540.012;  131.870;  199.880;  412.216
540.293;   78.857;   82.876;  158.224
540.574;    7.030; -895.113; -717.796
540.855;  451.514;  435.879;  377.218
541.136;  533.978;   47.878;  139.220
541.416;  277.285; -161.130; -220.766
541.697;  173.046; -274.131; -170.763
541.978; 1132.614; -270.135; -315.757
542.259; 1407.835; -211.127; -236.771
542.539;  676.878; -191.116; -186.790
542.820;  174.454;  461.875;  480.225
543.101;  125.975;  -52.145;  -77.738
543.381;   27.634; -638.127; -591.771
543.662;  274.057;  159.873; -254.771
543.942;  621.280; -751.127; -830.770
544.223; 1115.505;  193.878;  161.219
544.504;  752.438; -275.124; -182.777
544.784;  618.941; -592.126; -408.773
545.065; 1773.132;  104.884; -254.791
545.345; 2094.279;  227.881;   14.215
545.626; 1369.054;  -14.113; -108.796
545.906;  965.353;   77.869;   98.235
546.186;  379.470;   92.874;  -95.773
546.467;  199.765;   99.877;  -95.778
546.747;  356.003;  264.884;  327.210
547.027;  383.086;   91.876;  111.223
547.308;  355.229; -376.127; -530.770
547.588;  423.744;  299.871;  371.232
547.868;  208.329;  458.870;  588.235
548.149;  186.064;  609.885;  593.207
548.429;  157.608; -347.127; -299.771
548.709;  207.720; -645.120; -461.784
548.989;  503.813;   84.882;   88.213
549.269; 2307.361;   10.868;  139.239
549.550; 5270.319;  215.877;  117.222
549.830; 4735.272; -758.111; -556.799
550.110;  932.280; -468.110; -320.801
550.390;  886.075; -128.122;  -56.779
550.670; 1230.950; -868.114; -783.795
550.950;  847.963; -509.121; -471.782
551.230;  178.010;  549.879;  460.218
551.510;   -0.288; -381.121; -326.782
551.790;   35.038; -173.109; -127.803
552.070;  266.240;  940.877; 1181.223
552.350;  448.108; -492.119; -377.786
552.630;  640.507;   -2.121;   77.219
552.909;  390.207;  181.884;   73.209
553.189;  244.267;  -49.132;   33.237
553.469;  203.757; -703.119; -514.786
553.749;  190.111; -469.127; -357.772
554.029;  183.673;   33.883;  -24.790
554.308;  148.543; -154.115;  -37.794
554.588;   49.628; -196.128; -204.770
554.868;   64.714; -366.121;  -47.782
555.147;  173.116; -114.115;  -46.793
555.427;  645.410; -260.116; -250.792
555.707; 4263.514; -284.115; -200.793
555.986; 5185.000; -719.111; -538.800
556.266; 2714.902;   23.884;   72.210
556.546;  128.612; -888.121; -675.782
556.825;  271.798; -657.114; -556.794
557.105; 1970.276; -125.128;   17.230
557.384; 2282.756;  122.884;  187.209
557.664;  869.684; -717.116; -508.792
557.943;  121.413; -557.121; -411.782
558.222;  184.591; -345.118; -344.788
558.502;  293.517; -116.115;  -76.793
558.781;  529.588;  194.885;  499.208
559.061;  461.216; -232.118; -227.788
559.340;  317.921;  302.883;  353.211
559.619;  760.052;   93.884;  148.210
559.899; 1148.748; -239.117; -266.789
560.178; 1031.117; -778.115; -593.793
560.457; 3459.750; -623.117; -562.790
560.736; 4837.152; -472.111; -482.800
561.015; 3177.424; -500.128; -502.769
561.295;  399.982;  180.893;  215.193
561.574;  348.989;  119.885;  116.207
561.853;  534.192;  274.891;  303.197
562.132;  516.869;  -45.114;  182.206
562.411;  468.883;  396.879;  553.219
562.690;  161.362; -592.115; -458.792
562.969;  139.136;  472.888;  630.203
563.248;  462.330; 2966.878; 2487.219
563.527;  287.176; -290.111; -408.800
563.806;  425.258; -650.127; -521.771
564.085;  462.198; -297.105; -206.810
564.364;  260.651; -594.117; -405.790
564.643;  541.708; -276.121; -223.781
564.922; 2084.686;  221.890;  397.198
565.201; 2122.064; -640.109; -700.803
565.479;  894.386; -297.115; -219.792
565.758;  357.501; -810.128; -712.770
566.037;  508.741; -155.109; -100.803
566.316;  241.307; -286.116;  -28.791
566.595;   45.364;  -17.115;  -12.793
566.873;   86.178; -166.111;  -79.801
567.152;  -68.389; -490.113; -590.797
567.431;   14.678; -113.116;    6.210
567.709;   13.458; -344.107; -212.807
567.988;  286.048; -810.114; -769.794
568.266;  575.964; -160.115;  -68.793
568.545;  419.370; -644.100; -514.819
568.824;  627.635;  160.885;  356.208
569.102;  612.897; -351.114; -235.794
569.381;  253.810; -492.116; -407.792
569.659;  -45.368; -553.113; -553.796
569.938;   37.104; -743.122; -465.780
570.216;  119.968; -225.109; -225.804
570.494;  -23.949; -632.114; -572.795
570.773;   38.237;  202.879;  114.218
571.051;   18.968; -373.123; -357.778
571.330;   59.705; -221.113; -174.796
571.608;   42.037; -181.098; -173.823
571.886;  -73.355; -671.111; -581.799
572.164;  -69.061; -739.121; -621.782
572.443;  -44.799; -562.105; -512.811
572.721;  -38.150; -399.117; -289.790
572.999;  -30.332; -280.117; -168.788
573.277;   79.470;  379.894;  620.191
573.555;  294.497;   94.894;   37.190
573.834; 1516.093;  -86.117; -114.788
574.112; 1716.460;  880.893;  811.193
574.390;  535.827; -143.111;  -96.801
574.668;   -2.988;  -91.112;  -61.797
574.946;  -18.703; -165.106; -187.810
575.224;    4.714;   71.891;  -16.803
575.502;  -31.421; -200.116; -204.791
575.780;  -92.112; -767.112; -829.798
576.058;  221.576; 1589.889; 1004.200
576.336;   -7.918; -210.110; -129.801
576.614;  -64.137; -511.112; -340.798
576.891;   70.718; -711.115; -823.794
577.169;  533.201; -158.108; -285.805
577.447;  617.559;  169.893;  202.193
577.725;  285.043;  629.888;  854.201
578.003;    7.391;  -71.112; -371.798
578.280;   95.810; -208.104; -242.812
578.558;   65.167; -450.115; -422.793
578.836;  118.925; -210.114; -145.795
579.114;   43.562; -630.112; -670.797
579.391;   69.820;   -6.117;  -18.789
579.669;  -89.656; -595.114; -704.794
579.947;  187.756; -326.107; -127.806
580.224;  360.306; -692.107; -524.806
580.502;  340.310;  127.893;   76.193
580.779;   32.301;  -42.117;   75.210
581.057;  -92.457; -584.109; -470.804
581.334; -101.275; -726.102; -695.815
581.612;   34.298;   54.895;  511.190
581.889;  -43.537;  -83.101; -129.818
582.167;  -44.972; -298.099; -190.821
582.444; -104.042; -845.102; -814.817
582.721;   83.259;  657.899;  715.183
582.999;   55.950; -326.100; -167.821
583.276;  582.347; -812.123; -713.779
583.553;  799.553; -364.102; -294.816
583.831;  250.407; -607.104; -631.812
584.108;   64.174;  349.892;  174.195
584.385;   13.699; -122.102;  -98.815
584.662;  -67.671; -651.111; -828.801
584.940;   15.953;  204.889;  204.199
585.217;  -33.268;  -73.113; -303.796
585.494;   20.987;   71.890;  118.198
585.771;  220.419; -250.109; -354.804
586.048;  540.382; -196.113;  -76.796
586.325;  344.031; -721.110; -773.801
586.602;   83.311;  230.896;  213.188
586.879;  -15.554; -499.100; -580.820
587.156;   44.149; -156.105; -331.810
587.433;  -41.369; -701.102; -667.817
587.710;   68.439;  152.888;  234.202
587.987;  313.579; -264.105; -236.811
588.264;  828.015;  315.888;  387.202
588.541; 1414.663;  -61.104;   26.187
588.818; 2841.621;   72.892;  171.196
589.095; 2453.009; -163.104; -174.812
589.371;  367.542; -459.109; -414.804
589.648;   11.910; -581.107; -437.807
589.925;   22.926; -517.114; -621.795
590.202;   23.363; -741.112; -607.798
590.478;   78.856; -166.105;  -73.811
590.755;  281.477; -241.108; -132.806
591.032; 2682.458; -741.110; -699.802
591.308; 3726.152; -732.094; -790.831
591.585; 1923.558; -573.110; -560.802
591.862;  172.007;-1056.102; -950.817
592.138;   70.375; -475.108; -474.805
592.415;  157.636; -486.104; -495.813
592.691; 1543.109;  460.896;  518.188
592.968; 1984.389; -208.098; -123.824
593.244;  941.928; -695.116; -595.790
593.521;   60.358; -105.102;  -42.817
593.797;  -11.349; -810.122; -720.780
594.074;  352.877; -611.096; -588.826
594.350;  694.563;  828.905;  729.172
594.626;  317.279; -303.111; -283.801
594.903;  114.008; -643.101; -645.817
595.179;  189.615;  243.896;  418.187
595.455;  -13.239; -136.107; -150.807
595.731;  -10.883;  -19.103;  -38.814
596.008;  -47.702; -464.111; -434.800
596.284;   35.074; -187.100; -242.820
596.560;   65.734; -501.093; -493.833
596.836;  213.676; -173.105;  -70.810
597.112;  361.601; -582.108; -437.805
597.388;  302.300;  -49.097;  -48.826
597.665;  100.084;  437.887;  530.203
597.941;  -71.212; -572.089; -658.839
598.217;    0.511; -323.110; -293.802
598.493;  287.771;   61.891; -204.804
598.769;  546.368; -175.100;  -50.819
599.045;  342.579; -490.108; -562.806
599.321;   59.698; -193.100; -261.820
599.597;  162.520; -355.109; -476.804
599.872;  519.088;  409.896;  429.187
600.148;  380.526;  -61.097; -172.826
600.424;  307.134;   91.893;  202.193
600.700;  259.386; -170.107; -280.807
600.976;  130.196; -442.097; -464.825
601.252;  261.867; -226.109; -272.803
601.527;  242.764; -833.104; -840.813
601.803;  145.006; -453.105; -404.812
602.079;  192.093; -124.100; -118.819
602.354;  613.394; -620.092; -531.835
602.630;  864.757; -140.113; -482.796
602.906; 2476.938; -910.101; -863.818
603.181; 7296.682; -627.119; -534.786
603.457; 6177.099;   98.903; -278.826
603.733;  914.291; -605.120; -626.783
604.008; 1029.398; -245.106; -164.810
604.284; 3289.810; -636.101; -580.817
604.559; 2832.618;   -3.112;  -42.799
604.835;  506.475; -163.105; -225.810
605.110;  433.978; -732.099; -892.821
605.385;  743.512;  224.907;  267.167
605.661;  697.391; -625.095; -729.829
605.936; 1283.104; -664.108; -737.806
606.211; 1053.948;  -17.103; -170.815
606.487;  205.521; -329.114; -376.794
606.762;   27.133; -791.119; -745.786
607.037;   -8.624; -501.105; -433.810
607.313;  -58.441; -589.096; -574.828
607.588;    3.547; -375.106; -137.810
607.863;   38.838;  -28.101; -143.818
608.138;  180.710;  513.890;  516.198
608.413;   48.807; -576.099; -592.822
608.688;   38.250; -203.108; -267.805
608.964;  219.266; -509.106; -218.809
609.239;  257.873; -107.105; -212.810
609.514;  255.131;  281.895;  240.188
609.789;  691.585; -187.104; -716.812
610.064;  916.258; -435.096; -609.827
610.339;  957.767; -855.109; -799.804
610.614; 1300.623; -131.100; -315.820
610.889;  740.431;  215.895;  107.188
611.163;   35.682; -407.104; -591.812
611.438;   93.897;   81.886; -167.794
611.713;   -2.515; -467.101; -499.817
611.988;   52.487; -144.101; -328.818
612.263;   -0.925; -771.102; -717.815
612.538;  210.031;  385.887;  251.204
612.812;  199.649; -832.100; -911.820
613.087;  155.662; -358.098; -338.823
613.362;  -55.314; -497.107; -557.807
613.637;   34.969;  261.897;  138.186
613.911;  -14.931; -256.092; -345.835
614.186;  116.059; -249.107; -292.807
614.460;  751.538; -842.081; -758.854
614.735;  849.387;  -55.087;  -17.843
615.010;  186.101;   43.912;  -82.841
615.284;  249.700;  360.892;  246.195
615.559;  389.293; -792.092; -955.835
615.833;  299.605;  -76.099;  -87.822
616.108;   -1.595; -225.090; -390.837
616.382;  146.238;  274.913;  402.156
616.656;  163.905; -241.090; -232.837
616.931;  533.556; -785.099; -700.822
617.205; 1155.264; -973.104; -979.813
617.480; 1071.277;  -91.125;    6.225
617.754;  179.474; -396.125; -128.774
618.028;   17.920; -369.129; -382.768
618.302;   71.773;   73.892;  -25.805
618.577;  -38.629; -371.103; -518.815
618.851;  -76.111; -399.109; -600.803
619.125;  -45.399; -335.134; -378.759
619.399;  -35.460; -244.104; -374.813
619.673;  -42.439; -330.115; -515.792
619.947;  -52.450; -333.114; -448.795
620.222;  -16.971; -198.110; -204.801
620.496;  -14.386;  -47.121;  -96.782
620.770;    1.930; -187.122;  -93.781
621.044;  210.149;  323.895;  346.190
621.318;  762.917; -653.120; -614.783
621.592;  725.889; -430.121; -409.783
621.866;  388.894; -476.112; -572.799
622.140;   34.179; -207.116; -356.791
622.413;   53.598;  138.889;  112.200
622.687;  -48.065; -746.101; -492.817
622.961;   -1.652; -130.108; -143.805
623.235;  -61.401; -633.111; -661.800
623.509; -107.669; -816.105; -848.811
623.783;    6.207;  -12.107;   48.193
624.056;  -20.507; -254.120; -280.783
624.330;   51.612;   63.888;   -3.797
624.604;   45.501; -271.116; -355.790
624.877;   55.384;  180.890;   26.198
625.151;   34.970; -249.114; -238.794
625.425;  -35.033; -150.103; -283.814
625.698;  -56.148; -367.119; -374.785
625.972;  -93.789; -799.110; -765.802
626.245;   66.953;  685.884;  484.210
626.519;  -53.203; -426.120; -340.784
626.792;  -31.464; -192.107; -380.807
627.066;  -93.202; -485.122; -662.779
627.339;  -93.093; -736.110; -663.802
627.613;   43.595;  351.880;  148.216
627.886;   42.813;  187.891; -612.803
628.160;  -20.734;  312.880; -161.783
628.433; -104.245; -695.125; -703.775
628.706;  -78.853; -517.120; -615.784
628.979;   12.586;  296.876;  117.223
629.253;  -93.843; -785.119; -833.786
629.526;  404.739; -334.126; -253.772
629.799;  396.168; -641.123; -479.778
630.072;  195.471; -497.128; -516.769
630.346;  -56.322;-1115.116;-1080.790
630.619;  487.862; -467.107; -545.808
630.892;  651.374;  709.889;  593.200
631.165;  343.640;  790.896;  679.187
631.438;  -80.634;-1092.112;-1055.798
631.711;   43.346;  453.877;  257.221
631.984;  -67.727; -523.117; -624.789
632.257;  -67.305; -636.117; -681.789
632.530;  -47.998; -412.119; -433.785
632.803;   16.318; -109.115;    7.207
633.076;  -64.785; -360.123; -422.777
633.349;    0.775;  173.872;  121.231
633.622;  -41.524; -187.119; -240.785
633.895; -132.032; -903.120; -823.783
634.167;  -62.609; -496.126; -525.773
634.440;  -16.291;  -19.116; -137.792
634.713;   -2.219;  -22.119; -120.786
634.986;   67.840;  593.871;  453.233
635.258;  -75.559; -507.115; -597.793
635.531;   95.491;  742.882; -343.788
635.804;  -33.803; -303.117; -318.789
636.077;  -94.145; -830.116; -852.791
636.349;   -9.861; -586.115; -474.793
636.622;  390.613; 1695.874; 1392.228
636.894;  271.997; -474.120; -909.784
637.167;  172.107; -836.127; -789.771
637.439;   32.229; -278.128; -213.770
637.712;  -48.560; -312.126; -293.772
637.984;  -86.519; -635.116; -707.791
638.257;  397.715;  515.877;  488.222
638.529;  583.931; -881.125; -924.776
638.802;  258.871; -508.128; -449.769
639.074; -112.845; -927.122; -952.781
639.346; -126.958; -942.135; -930.757
639.619;    7.352;  -79.142; -319.744
639.891;  -14.327;  -83.122; -168.779
640.163;  -85.325; -689.122; -756.780
640.435;   13.152;  273.878;  103.220
640.708;    7.279;  -72.122; -132.780
640.980;  -43.669; -366.122; -362.781
641.252;  164.708;  -25.121;  -71.781
641.524; 1812.309;  580.879;  573.219
641.796; 1892.886;-1094.121; -907.782
642.068;  347.588; -191.121; -300.782
642.340;  -70.485; -486.121; -566.783
642.613;   27.467;  294.880;  323.217
642.885; -111.632; -787.120; -878.783
643.157;  -44.655; -810.120; -658.784
643.428;   59.472;  170.880;  218.216
643.700;  -75.376; -498.120; -425.784
643.972;  -38.024;  -16.119; -133.785
644.244;  -78.572; -474.119; -559.785
644.516;  -61.871; -250.119; -114.786
644.788;   53.331;  662.881;  548.214
645.060;  -33.917;  -12.119; -124.786
645.332;  -99.715; -525.118; -535.787
645.603;   27.062;  479.882;  342.213
645.875;  -77.236; -334.118; -369.787
646.147;  161.590; 1487.882; 1242.212
646.418;  -55.833; -931.117; -918.788
646.690;  165.119; -714.117; -715.789
646.962;   37.896; -413.117; -451.789
647.233;  -17.577;   15.883;   11.211
647.505; -112.725; -595.117; -475.790
647.776;   20.826;  328.884;  229.210
648.048;  -19.772; -248.116; -418.790
648.320;  -79.920; -752.116; -679.791
648.591; -150.568;-1055.116; -958.791
648.862; -100.691; -505.116; -577.792
649.134;    0.986;  115.885;  198.208
649.405;  -46.663; -661.115; -618.792
649.677;  -62.486; -475.115; -598.793
649.948;  -10.684; -181.115; -296.793
650.219;   -7.982;  -37.115; -147.793
650.491;  -94.205; -431.114; -520.794
650.762; -139.679; -705.114; -731.794
651.033;  -86.102; -437.114; -424.795
651.304;  -88.525; -743.114; -728.795
651.576;  -62.873; -680.114; -645.795
651.847;  -40.546; -250.113; -140.796
652.118;  -32.294;  -32.113; -189.796
652.389; -105.768; -639.113; -722.796
652.660;  -49.941; -147.113;  -89.797
652.931; -156.364; -897.112; -871.797
653.202;  -88.637; -382.112; -541.798
653.473;  -80.560; -633.112; -533.798
653.744;  153.942; -595.112; -590.798
654.015;  140.543; -356.112; -303.799
654.286;  -87.580; -642.111; -663.799
654.557;  -56.603; -586.111; -521.799
654.828; -150.301;-1114.111;-1088.800
655.099;  -81.799; -404.111; -291.800
655.370;  -93.922; -427.111; -543.801
655.641; -120.746; -656.110; -714.801
655.911; -110.694; -618.110; -638.801
656.182;   32.833;  437.890;  387.198
656.453;   76.160;  830.890;  746.198
656.724;  -70.088; -466.110; -426.802
656.994;  -91.186; -553.109; -568.803
657.265; -117.760; -862.109; -873.803
657.536;  -97.658; -500.109; -377.804
657.806; -115.281; -561.109; -593.804
658.077; -144.979; -866.109; -950.804
658.347; -108.977; -523.108; -598.805
658.618; -120.000; -646.108; -694.805
658.888;  -32.699;  -41.108;  112.195
659.159;  -72.922; -432.108; -548.806
659.429;  -29.145; -292.108; -349.806
659.700;   11.057; -435.107; -390.807
659.970;  -19.391; -370.107; -359.807
660.241;   14.235; -754.107; -921.807
660.511;  519.687; -147.107; -174.808
660.781;   96.964; -793.106; -748.808
661.052;  -57.334; -222.106; -381.808
661.322;  -31.807;   21.894;   -9.809
661.592;    1.295;  257.894;  148.191
661.862;  -87.729; -369.106; -382.810
662.133; -107.502; -551.105; -502.810
662.403; -125.325; -770.105; -676.810
662.673;  -81.398; -256.105; -213.811
662.943; -103.146; -612.105; -551.811
663.213;  -15.369;  -85.105;  -81.811
663.483;  -76.543; -593.104; -568.812
663.753;  -44.841; -194.104; -152.812
664.023;  -27.089;   68.896;  -32.813
664.293;  -64.162; -319.104; -126.813
664.563; -113.835; -694.104; -648.813
664.833; -129.358; -743.103; -608.814
665.103; -128.007; -730.103; -793.814
665.373; -128.380; -766.103; -806.814
665.643;  -95.753; -863.103; -918.815
665.913;   32.549; -534.103; -714.815
666.182;  146.976; -685.102; -719.816
666.452;  290.153;  -22.102;  -89.816
666.722;  -29.996; -724.102; -784.816
666.992; -129.394; -948.102; -921.817
667.261;  -98.892; -824.102; -808.817
667.531;  183.510;  134.899;   45.183
667.801;  543.762; -440.101; -412.818
668.070;  238.988;  714.899;  697.182
668.340; -110.310; -883.101; -840.819
668.609;   82.517;  588.900;  301.181
668.879;  -82.281; -490.100; -558.819
669.149;  -78.904; -539.100; -516.820
669.418;  -99.427; -698.100; -726.820
669.688;  -43.901; -482.100; -666.820
669.957;   71.451; -423.099; -546.821
670.226;  -30.472; -268.099; -331.821
670.496;  -98.370; -431.099; -635.822
670.765;  -89.618; -418.099; -501.822
671.034; -144.816; -872.099; -828.822
671.304;  -14.990;   55.902; -111.823
671.573; -149.063;-1085.098; -957.823
671.842;   80.264; -380.098; -294.823
672.112;   34.041; -692.098; -586.824
672.381;  -13.332; -239.098; -214.824
672.650; -125.055;-1005.097;-1021.825
672.919; -102.354; -631.097; -507.825
673.188; -102.602; -681.097; -878.825
673.457; -165.425;-1101.097;-1143.826
673.726;  -73.498; -579.096; -646.826
673.995;  -38.196; -533.096; -479.826
674.265;  -35.769; -263.096; -333.827
674.534;    0.532; -183.096; -235.827
674.802;    7.684; -618.096; -703.828
675.071; 1035.886; -886.095; -801.828
675.340; 4245.013; -464.095; -339.828
675.609; 1392.715;  103.905;   82.171
675.878;   79.916; -949.095; -893.829
676.147;   23.043;  -26.095;   -8.829
676.416;   87.495; -210.094; -294.830
676.685;  760.722; 1000.906; -622.830
676.953;  111.274; -603.094; -452.831
677.222;  -39.774; -193.094; -273.831
677.491;  -26.223;  -24.094; -127.831
677.759;  -23.771;   11.907;  172.168
678.028;  -30.594; -279.093; -222.832
678.297;  -10.817;   71.907;  197.168
678.565; -160.440; -898.093; -944.833
678.834;  -64.738; -311.093; -268.833
679.102;  -86.887; -411.092; -391.834
679.371; -157.710; -898.092; -727.834
679.639; -133.658; -797.092; -786.834
679.908; -132.231; -794.092; -724.835
680.176; -154.654; -895.091; -941.835
680.445;  -71.552; -346.091; -352.835
680.713;  -13.326;  -58.091;  -23.836
680.982; -108.024; -523.091; -525.836
681.250; -100.372; -578.091; -507.837
681.518;  -93.795; -534.090; -751.837
681.787;  -32.418; -204.090; -167.837
682.055;  -71.941; -490.090; -422.838
682.323; -162.215; -993.090; -992.838
682.591;   32.987; -216.090; -538.838
682.859;   90.339;    9.911;  -35.839
683.128;    9.866;  232.911;  497.161
683.396; -163.532;-1102.089;-1122.840
683.664;  -47.606; -241.089;   21.160
683.932;    1.546;  144.911;  -76.840
684.200;  -92.152; -576.088; -320.841
684.468;  -26.200;  -73.088; -124.841
684.736;  -39.148; -214.088; -175.841
685.004; -124.096;-1024.088; -982.842
685.272;  -54.920; -880.088; -774.842
685.540;  -72.293; -499.087; -557.843
685.808;  -89.741; -651.087; -682.843
686.076;  -94.264; -894.087; -969.843
686.343;  -62.987; -601.087; -815.844
686.611;   35.190; -195.087; -224.844
686.879;  460.291; -530.086; -553.844
687.147; 3520.568; -483.086; -480.845
687.414;  997.895;  -12.086; -169.845
687.682;   10.597; -658.086; -757.846
687.950;  320.649;  259.915;  263.154
688.217;   15.076; -792.085; -760.846
688.485;  -19.323; -632.085; -636.847
688.753;  555.929;  -11.085; -102.847
689.020;  178.006; -820.085; -851.847
689.288;  -98.017; -853.084; -787.848
689.555;  -43.415; -195.084; -148.848
689.823;  -61.463; -241.084; -345.849
690.090;  -96.537; -546.084; -651.849
690.358; -144.335; -877.084; -897.849
690.625;    0.742;  120.917;   45.150
690.892;  -85.881; -403.083; -369.850
691.160;  -36.629;   72.917;  -35.850
691.427;    4.273;  141.917;  130.149
691.694; -132.251; -855.083; -929.851
691.962; -137.724;-1177.082;-1060.852
692.229;   14.203;  127.918;   56.148
692.496;   71.005;  130.918;  -49.852
692.763;    7.357; -164.082; -201.853
693.031;  -79.417; -739.082; -716.853
693.298;  -47.790; -509.081; -368.853
693.565;  307.237; -155.081; -163.854
693.832; 1371.289;   -5.081;   -9.854
694.099;  153.166; -643.081; -642.855
694.366;  -63.407; -882.081; -896.855
694.633;  -52.981; -920.080; -633.855
694.900;  720.446; 4367.920; -114.856
695.167;  446.198; -214.080; -380.856
695.434;  104.525; -646.080; -623.856
695.701;  187.377;  121.921;  -61.857
695.968;  488.004; -365.079; -361.857
696.234;  951.780; -415.079; -646.858
696.501;10164.932; -776.079; -614.858
696.768; 5346.859; -554.079; -617.858
697.035;  299.336; -632.078; -667.859
697.302;   42.238; -448.078; -552.859
697.568;   -2.335; -458.078; -497.859
697.835;  -47.084; -683.078; -624.860
698.102;  -34.782; -498.078; -407.860
698.368;   69.720;  384.923;  396.139
698.635;  -42.128;  -47.077; -424.861
698.901;  -16.351; -240.077; -348.861
699.168;   64.651; -534.077; -456.862
699.435;   67.852;  -72.077;  -13.862
699.701; -113.896; -868.076; -764.862
699.968;    7.881;  144.924; -441.863
700.234;  -97.742; -783.076; -822.863
700.500;  -68.940; -448.076; -539.864
700.767;  -19.114;   -1.075;   26.136
701.033; -131.712;-1015.075; -963.864
701.299;  -56.885; -450.075; -483.865
701.566;  108.867;  950.925;  763.135
701.832;   19.569;  -31.075;  -76.865
702.098;  -97.604;-1054.074;-1034.866
702.365;  -80.928;-1098.074;-1030.866
702.631;  -17.701;-1038.074;-1063.867
702.897; 1358.526; -765.074; -676.867
703.163; 2375.703;  348.926;  254.133
703.429;  166.380; -256.073; -273.868
703.695;  -42.868; -796.073; -792.868
703.961;   24.708; -214.073; -210.868
704.227;  -59.790; -630.073; -725.869
704.493;  112.437;  613.927;  510.131
704.759;  -16.411; -565.072; -540.870
705.025;    8.216; -203.072; -194.870
705.291;  -21.457; -666.072; -562.870
705.557;  172.144;  719.928;   34.129
705.823;   16.746; -742.072; -694.871
706.089;  121.598; -307.071; -326.871
706.355;  346.875; -315.071; -244.872
706.620; 5160.702; -776.071; -729.872
706.886; 7707.154; -309.071; -362.873
707.152;  748.505; -818.070; -973.873
707.418;  -16.393;-1153.070;-1186.873
707.683;  -23.766; -550.070; -530.874
707.949;  -51.189; -547.070; -578.874
708.215;   -2.837; -129.070; -207.874
708.480;  -35.636; -520.069; -420.875
708.746;   96.691;   68.931;   28.125
709.011;  -68.532; -578.069; -612.876
709.277;  -79.655; -538.069; -543.876
709.542;  -60.203; -428.069; -387.876
709.808;   -7.976;  -59.068;   89.123
710.073;  -79.425; -577.068; -695.877
710.339;  -23.973; -242.068; -228.877
710.604;   75.329; -780.068; -845.878
710.869;  325.181; -277.068; -366.878
711.135;  -81.092; -715.067; -628.879
711.400;  -86.915; -507.067; -608.879
711.665;  -76.914; -404.067; -479.879
711.931; -109.762; -661.067; -677.880
712.196; -129.960; -876.067; -954.880
712.461;  102.242; -402.066; -490.880
712.726;  149.219; -727.066; -771.881
712.991;  -89.629; -647.066; -664.881
713.256;  -38.678; -350.066; -332.882
713.521;  -62.476; -417.065; -381.882
713.787;  -74.024; -454.065; -472.882
714.052;  -38.497; -214.065; -400.883
714.317; -105.595;-1045.065; -981.883
714.581;  943.082; -374.065; -268.883
714.846; 1394.083; -822.064; -888.884
715.111;  117.885;  261.936;  257.116
715.376;  -27.713;  -86.064; -223.885
715.641;  -33.086; -365.064; -367.885
715.906;  305.766;   15.936; -551.885
716.171;  131.292;  221.937;  209.114
716.436;   45.744;  -78.063; -104.886
716.700; -117.629; -818.063; -692.886
716.965; -125.877; -794.063; -807.887
717.230;  -78.175; -339.063; -392.887
717.494;  -26.848;  -40.062; -134.888
717.759;  -95.397; -784.062; -640.888
718.024;   -1.945;  269.938;  250.112
718.288;   79.882;  685.938;  395.111
718.553; -142.516; -803.062; -977.889
718.817; -142.839; -883.061; -899.889
719.082;  -31.062; -115.061; -125.890
719.346; -131.961;-1000.061; -947.890
719.611;  -42.584; -300.061; -255.891
719.875; -103.382; -568.060; -537.891
720.140;  -57.305; -453.060; -603.891
720.404;   19.947; -136.060; -249.892
720.668;  884.799; -475.060; -411.892
720.933;  355.675;  146.940;  137.108
721.197; -106.673; -667.059; -600.893
721.461; -118.421; -851.059; -826.893
721.725;  -15.944;  -21.059; -250.894
721.990;  -81.442; -284.059; -204.894
722.254;  -36.890;  -26.059; -108.894
722.518;  -83.589; -286.058; -442.895
722.782;  -88.237; -743.058; -594.895
723.046;  116.590;  614.942;  570.105
723.310;   24.117;  374.942;  210.104
723.574; -101.706; -654.058; -614.896
723.838; -119.879; -576.057; -642.897
724.102;  -52.253; -226.057; -239.897
724.366; -142.476;-1032.057; -978.897
724.630;  -96.074; -749.057; -571.898
724.894;  -73.797; -722.057; -514.898
725.158;  -15.320;   38.944; -295.898
725.422;  -60.944; -394.056; -327.899
725.685;  -76.392; -441.056; -349.899
725.949; -100.340; -566.056; -519.900
726.213;  -84.038; -732.056; -811.900
726.477;  187.439;-1020.055; -933.900
726.740;  148.016; -274.055; -104.901
727.004;  317.042; -384.055; -510.901
727.268; 3230.369; -442.055; -400.901
727.531;  930.796; -961.055; -775.902
727.795;  -38.577; -713.054; -673.902
728.059;  -67.250; -552.054; -557.903
728.322;  -76.998; -841.054; -669.903
728.586;   25.878; -692.054; -701.903
728.849; -101.420; -695.053; -756.904
729.112; -118.318; -812.053; -912.904
729.376; -129.466; -959.053; -905.904
729.639;  -70.289; -536.053; -536.905
729.903; -115.062; -733.053; -699.905
730.166;  -61.286; -437.052; -399.906
730.429;  -33.234; -317.052; -468.906
730.693;  -92.057; -355.052; -894.906
730.956;  194.620;  810.948;  651.093
731.219;  718.472; -310.052; -103.907
731.482;  116.574;-1003.051; -894.907
731.745;  115.675; -794.051; -935.908
732.009;    8.677;  -30.051;   50.092
732.272; -102.371; -904.051; -771.909
732.535;  -49.769; -300.051; -310.909
732.798; -158.167;-1083.050;-1166.909
733.061;  -61.291; -430.050; -456.910
733.324;    6.336;   31.950; -180.910
733.587;   59.813;  290.950;  365.090
733.850;  -76.960; -973.049;-1050.911
734.113;   19.192;   33.951;   32.089
734.376;   -0.881; -328.049; -447.912
734.639;  217.120; 1188.951; 1011.088
734.901;   68.497; -180.049; -402.912
735.164;  494.349; -883.048; -837.913
735.427; 1419.601; -166.048; -355.913
735.690;  126.603; -205.048; -234.913
735.952;  -30.795; -923.048; -925.914
736.215;  -27.294;-1113.048;-1009.914
736.478;   36.083; -771.047; -774.915
736.740;  212.060;   33.953;  129.085
737.003;  676.037; -658.047; -672.915
737.266; 4330.589;  -94.047;   46.084
737.528;  453.291; -682.047; -660.916
737.791;  312.617; -316.046; -327.916
738.053;  771.094;  465.954;  649.083
738.316;10416.321; -162.046; -136.917
738.578; 7807.848; -770.046; -736.918
738.841;  444.850; -382.046; -446.918
739.103;  171.402; -875.045; -777.918
739.365;  532.153;   79.955;  -69.919
739.628;   -2.670; -884.045; -805.919
739.890;  -27.768; -758.045; -710.919
740.152;  -35.291; -692.044; -754.920
740.414;  -15.139; -408.044; -359.920
740.677;  -62.438; -785.044; -634.921
740.939;  -51.236; -587.044; -487.921
741.201;  290.141; -432.044; -572.921
741.463;   49.493; -689.043; -745.922
741.725;   13.670;  -21.043; -199.922
741.987;   40.747;  220.957;  116.078
742.249;   -2.752; -751.043; -859.923
742.511;  208.650; -703.043; -794.923
742.773;   24.302; -546.042; -546.924
743.035;  118.954;  796.958;  533.076
743.297;  -45.044; -963.042;-1013.924
743.559;  755.733; -278.042; -262.925
743.821;   73.834; -735.042; -744.925
744.083;    3.186;  -44.041; -149.925
744.345;  -98.987; -869.041; -892.926
744.607;   42.715;   75.959;  122.074
744.868;  -54.383; -490.041; -554.927
745.130; -118.981; -994.041;-1008.927
745.392;   34.770;   -1.040;  -44.927
745.653;  -14.203; -411.040; -378.928
745.915;  145.449;  896.960;  631.072
746.177;   41.551;   35.960;  -43.928
746.438;    1.378; -428.040; -543.929
746.700;  -49.970; -947.039; -988.929
746.961;   10.931; -659.039; -740.930
747.223;  136.758; -190.039;  -74.930
747.484;   92.110; -391.039; -471.930
747.746;  142.187;  -23.038; -106.931
748.007;  118.914; -647.038; -689.931
748.269;  306.865; -468.038; -440.931
748.530;  479.617; -852.038; -638.932
748.791;  272.444; -354.038; -420.932
749.053;  438.171;  286.963;  163.067
749.314;  473.123; -236.037; -169.933
749.575;  530.750; -945.037; -905.933
749.836;  861.526; -217.037;   86.066
750.098; 2423.553;  -60.037;  -21.934
750.359;37448.280;  414.964;  555.066
750.620;10201.257; -121.036; -220.935
750.881; 1088.609; -585.036; -513.935
751.142; 1386.636; -950.036; -938.936
751.403;16614.537; -789.036; -705.936
751.664; 7900.464;-1034.035; -999.936
751.925;  500.991; -175.035; -262.937
752.186;  272.668; -298.035; -278.937
752.447;  123.945; -590.035; -445.937
752.708;   43.622; -532.035; -648.938
752.969;   12.348; -566.034; -576.938
753.230;   10.175; -777.034; -672.939
753.491;   -5.923; -650.034; -631.939
753.751;   60.454;  109.966;   19.061
754.012;   78.731;  258.967;  181.060
754.273;   63.283; -174.033;  -71.940
754.534;   22.809; -487.033; -580.940
754.794;  -81.339; -926.033; -911.941
755.055;  135.888; 1051.967;  881.059
755.316;  -48.635; -700.032; -566.942
755.576;  -31.158; -606.032; -576.942
755.837;  -59.406; -527.032; -695.942
756.097;  -39.180; -530.032; -564.943
756.358;  -71.953; -725.032; -770.943
756.618;  -52.251; -705.031; -641.943
756.879;   -6.224; -254.031; -349.944
757.139; -116.172;-1098.031;-1116.944
757.400;  -62.621; -538.031; -553.945
757.660;  -32.644; -365.031; -401.945
757.920;    2.408; -266.030; -228.945
758.181;  -29.065; -468.030; -351.946
758.441;  -96.388; -870.030; -809.946
758.701;  -38.511; -308.030; -215.946
758.961;  -32.485; -220.030; -278.947
759.222;  -58.883; -574.029; -502.947
759.482;  -84.456; -683.029; -723.948
759.742;  -81.879; -706.029; -547.948
760.002;    0.898;  -83.029; -143.948
760.262;    5.675;   50.972;  182.051
760.522;  -41.924; -498.028; -574.949
760.782;  -67.272; -738.028; -612.949
761.042;  -36.545; -618.028; -573.950
761.302;   47.307;   55.972;  -18.950
761.562;   44.809; -164.027; -154.951
761.822;   84.186; -710.027; -551.951
762.082;  -45.888;-1104.027;-1093.951
762.342;   65.389; -328.027; -403.952
762.601;   71.516; -567.027; -506.952
762.861;  379.718; -281.026; -207.952
763.121;  400.945; -406.026; -411.953
763.381; 7026.422; -499.026; -485.953
763.640; 8502.248; -139.026; -307.954
763.900;  366.500; -242.026; -203.954
764.160;   72.277; -458.025; -491.954
764.419;  -17.321; -726.025; -782.955
764.679;  -74.744; -795.025; -726.955
764.939;   -9.393; -124.025; -210.955
765.198;  -90.066; -608.025; -563.956
765.458; -103.939; -710.024; -612.956
765.717;  -92.287; -454.024; -590.957
765.976;  -76.610; -428.024; -411.957
766.236;  -78.708; -475.024; -610.957
766.495;    8.443;  260.977;   73.042
766.755;  -90.030;-1090.023; -987.958
767.014;   -6.903; -594.023; -665.958
767.273;  -52.476; -373.023; -397.959
767.533;  -51.299; -228.023; -307.959
767.792;  -34.397; -151.022; -188.960
768.051;  -58.796; -228.022; -276.960
768.310;  -81.069; -546.022; -650.960
768.569;  -15.117; -161.022;    4.039
768.828;  -21.790; -285.022; -363.961
769.088; -120.263;-1050.021; -942.961
769.347;  -82.711; -755.021; -599.962
769.606; -106.660; -876.021; -857.962
769.865; -131.283;-1016.021;-1033.963
770.124;    5.319; -411.021; -336.963
770.383;  -58.229; -778.020; -910.963
770.641;  -12.077; -398.020; -400.964
770.900;  -93.625; -953.020; -846.964
771.159;  -60.899; -851.020; -951.964
771.418;  -17.522; -917.020; -779.965
771.677;  108.505; -224.019; -293.965
771.936;  129.857; -794.019; -865.966
772.194; 1922.884; -465.019; -437.966
772.453;10932.410; -213.019; -391.966
772.712;  779.562;  416.982;  329.033
772.970;  112.664;   32.982;   63.033
773.229;   64.391;  -22.018;  102.033
773.488; -110.607; -814.018; -770.968
773.746;   39.645;  296.982;  335.032
774.005;    0.671;  190.983;  -22.969
774.263;    4.498;  243.983;  177.031
774.522;  -51.000; -422.017; -548.969
774.780;  -87.123; -484.017; -417.970
775.039;  -91.246; -551.017; -531.970
775.297;  -35.294; -135.016; -351.970
775.555; -112.868; -489.016; -612.971
775.814; -115.541; -618.016; -570.971
776.072; -133.614; -749.016; -740.971
776.330; -100.662; -630.016; -520.972
776.589; -134.485; -703.015; -721.972
776.847; -126.683; -645.015; -624.973
777.105; -175.582;-1016.015;-1032.973
777.363;  -77.480; -459.015; -454.973
777.621; -140.978; -660.015; -717.974
777.879;  -36.751;  -42.014;   32.026
778.138; -102.924; -554.014; -717.974
778.396; -119.447; -585.014; -526.975
778.654; -168.046;-1015.014; -970.975
778.912;  -74.419; -269.014; -371.976
779.170; -147.292; -880.013; -803.976
779.427; -156.015; -922.013; -897.976
779.685; -144.388; -880.013; -832.977
779.943;  -86.937; -654.013; -593.977
780.201; -169.710; -964.012; -883.978
780.459; -121.433; -651.012; -610.978
780.717;  -85.256; -440.012; -390.978
780.974; -119.629; -449.012; -490.979
781.232;  -82.752; -358.012; -338.979
781.490;  -92.726; -551.011; -472.979
781.747; -110.424; -555.011; -476.980
782.005;   -0.022;  462.989;  254.020
782.263; -168.145; -542.011;-1004.981
782.520;  -94.993; -326.011; -501.981
782.778; -175.866;-1013.010;-1051.981
783.035; -178.465; -962.010; -938.982
783.293;  -69.888; -248.010; -206.982
783.550;  -76.786; -134.010; -198.982
783.808; -147.134; -764.010; -776.983
784.065; -168.532; -745.009; -874.983
784.322;  -46.980;   25.991;  -86.984
784.580; -149.304; -915.009; -771.984
784.837; -111.777; -392.009; -466.984
785.094; -136.325; -783.009; -762.985
785.352;  -68.798; -304.008; -404.985
785.609; -117.196; -934.008; -839.985
785.866;  -83.819; -345.008; -401.986
786.123;  -70.243; -639.008; -583.986
786.380; -115.191; -665.008; -604.987
786.637;  -51.314; -225.007; -380.987
786.895;  -36.887; -456.007; -543.987
787.152;  -54.210; -135.007; -267.988
787.409;  -52.058; -123.007; -225.988
787.666;  -94.357; -299.006; -378.988
787.923; -121.230; -616.006; -695.989
788.179; -105.853; -551.006; -584.989
788.436; -112.701; -585.006; -585.990
788.693;  -38.249;  -92.006;  -87.990
788.950;  142.402; -125.005; -112.990
789.207;  238.304; -381.005; -372.991
789.464;  -50.519; -161.005; -301.991
789.720;  -20.917;  150.995;  110.009
789.977; -175.990;-1003.005; -671.992
790.234;  -42.538;   44.996;  -66.992
790.490; -147.487; -884.004;-1031.993
790.747;  -32.710;  -85.004;   22.007
791.004;  -27.633; -426.004; -348.993
791.260;  -84.181; -430.004; -560.994
791.517; -101.179; -843.003; -788.994
791.773;  -34.352; -379.003; -342.994
792.030; -111.576; -596.003; -660.995
792.286; -105.799; -686.003; -636.995
792.543;  -32.222;  -74.002; -159.995
792.799;  -66.870; -584.002; -382.996
793.055; -157.818;-1179.002;-1210.996
793.312; -111.666; -827.002; -816.997
793.568;  -54.940; -746.002; -599.997
793.824;    0.162; -226.001; -284.997
794.081;   17.689; -447.001; -508.998
794.337;   47.341; -664.001; -561.998
794.593; 1179.693; -319.001; -271.999
794.849; 6669.570; -746.001; -772.999
795.105;  346.071; -270.000; -261.999
795.361;    3.648; -490.000; -457.000
795.617;  -76.700; -875.000; -945.000
795.873;  -61.500; -360.000; -407.000
796.129;  -40.425; -368.000; -306.000
796.385;  -30.550; -124.000; -156.000
796.641;   52.850;  412.000;  550.000
796.897;  -88.025; -666.000; -635.000
797.153;   55.125;  453.000;  357.000
797.409; -110.850; -785.000; -868.000
797.665;  -88.100; -625.000; -732.000
797.921;  -94.800; -775.000; -762.000
798.176;  -64.925; -744.000; -747.000
798.432;  -73.175; -824.000; -596.000
798.688;  -84.825;-1174.000;-1078.000
798.943;   75.275; -165.000; -147.000
799.199;    0.575;-1005.000; -959.000
799.455;  219.250;  369.000;  316.000
799.710;  120.250; -813.000; -380.000
799.966;  294.950; -162.000; -160.000
800.221;  456.975; -638.000; -721.000
800.477; 9838.300; -743.000; -710.000
800.732; 9752.375; -773.000; -800.000
800.988;  620.725;  205.000;  -19.000
801.243; 1525.875; -454.000; -344.000
801.498; 7345.650; -814.000; -739.000
801.754;  436.125; -289.000; -163.000
802.009;   60.825; -257.000; -335.000
802.264;  -57.950; -967.000;-1033.000
802.520;   10.925;  222.000;   -3.000
802.775;  -51.375; -524.000; -359.000
803.030;   51.625;  395.000;  356.000
803.285; -111.275; -840.000; -903.000
803.540;  -64.650; -686.000; -699.000
803.795;  -39.225; -648.000; -583.000
804.051;  -48.350; -279.000; -346.000
804.306;    0.575;  168.000;  128.000
804.561;  142.325;  451.000;  362.000
804.816;  118.000;  714.000;  861.000
805.071;   -9.100; -185.000; -280.000
805.325;  225.675; -257.000; -427.000
805.580;  -97.000; -841.000; -877.000
805.835;  -23.725; -204.000; -297.000
806.090;  -79.325; -760.000; -676.000
806.345;  -30.325; -344.000; -264.000
806.600;  -34.775; -549.000; -632.000
806.854;  -37.975; -408.000; -538.000
807.109;  -23.850; -493.000; -577.000
807.364;  -10.150; -407.000; -328.000
807.618;   -3.375; -415.000; -381.000
807.873;   51.350; -470.000; -494.000
808.128;   97.225; -257.000; -518.000
808.382;  109.350; -224.000; -332.000
808.637;   84.000; -440.000; -511.000
808.891;  190.250; -257.000; -180.000
809.146;  100.650; -902.000; -794.000
809.400;  265.450; -848.000; -923.000
809.654;  346.750; -779.000; -551.000
809.909;  509.575; -841.000; -927.000
810.163; 6297.825; -813.000; -651.000
810.418;18450.950; -940.000; -861.000
810.672; 1127.600; -685.000; -690.000
810.926;  706.000; -993.000; -973.000
811.180; 1313.825; -439.000; -372.000
811.434;30039.925;  240.000;  135.000
811.689;13643.325; -231.000; -365.000
811.943;  648.975; -936.000; -953.000
812.197;  311.825; -893.000; -671.000
812.451;  120.800; -379.000; -514.000
812.705;  -29.200; -809.000; -619.000
812.959;   -0.975; -263.000; -388.000
813.213;  -16.125; -283.000; -209.000
813.467;   56.700;  470.000;  253.000
813.721;  -97.900; -764.000; -792.000
813.975; -119.325; -826.000; -877.000
814.229;   39.175;  430.000;  353.000
814.482;  -75.825; -517.000; -566.000
814.736; -122.625; -766.000; -744.000
814.990; -133.600; -779.000; -872.000
815.244;  -55.325; -228.000; -285.000
815.497;  -80.375; -636.000; -601.000
815.751;  -32.900; -141.000;   82.000
816.005;  -89.650; -470.000; -586.000
816.258;  -74.000; -510.000; -363.000
816.512; -111.825; -693.000; -610.000
816.766;   -3.000;  121.000;  157.000
817.019;   10.275;  148.000;  149.000
817.273; -128.450;-1000.000; -802.000
817.526;  -31.250; -206.000; -173.000
817.779;  -39.625;-1049.000; -960.000
818.033;  -76.875; -693.000; -807.000
818.286; -125.700; -725.000; -792.000
818.540;  -89.900; -403.000; -403.000
818.793;  -88.450; -402.000; -489.000
819.046; -112.500; -582.000; -520.000
819.299;  -41.500; -157.000; -166.000
819.553; -116.950; -552.000; -592.000
819.806; -172.150;-1016.000; -838.000
820.059;  -62.125; -334.000; -354.000
820.312;    4.775;  152.000;  185.000
820.565;  -12.025;  110.000;  -27.000
820.818;  -56.175;  -59.000; -173.000
821.071; -172.400;-1041.000; -957.000
821.324; -112.325; -536.000; -540.000
821.577; -104.475; -457.000; -483.000
821.830;  -76.600; -270.000; -172.000
822.083; -136.775; -733.000; -288.000
822.336;  -54.725; -261.000; -167.000
822.589; -137.075; -805.000; -688.000
822.842; -141.600; -875.000; -770.000
823.094; -186.650;-1076.000;-1114.000
823.347; -128.925; -925.000; -729.000
823.600;    7.075;  402.000;  187.000
823.853;  -63.075; -311.000; -267.000
824.105;  -85.175; -331.000; -575.000
824.358; -122.100; -617.000; -716.000
824.611;    4.200;  234.000;   40.000
824.863;  -55.825; -612.000; -591.000
825.116;   27.700;  -33.000;   27.000
825.368;   61.225; -366.000; -372.000
825.621;  158.775; -186.000; -240.000
825.873;   79.850; -704.000; -737.000
826.126;  541.425; -669.000; -641.000
826.378;11410.175; -389.000; -505.000
826.630; 3257.475; -890.000; -898.000
826.883;   44.775; -754.000; -693.000
827.135;   34.400; -279.000; -270.000
827.387; -107.725; -893.000; -839.000
827.639;  -40.750;  -86.000;   32.000
827.892; -140.525; -742.000; -582.000
828.144; -154.575; -848.000; -804.000
828.396;  -48.550;  104.000;  -80.000
828.648; -103.325; -440.000; -333.000
828.900; -152.875; -702.000; -795.000
829.152; -118.425; -684.000; -683.000
829.404;  -73.000; -215.000; -267.000
829.656;  -18.650;  321.000;  214.000
829.908;  -30.500;  393.000;  229.000
830.160; -166.425;-1064.000;-1047.000
830.412;  -94.375; -481.000; -430.000
830.664; -119.350; -557.000; -665.000
830.916;  -87.050; -268.000; -206.000
831.167; -175.250;-1073.000; -951.000
831.419; -120.575; -623.000; -566.000
831.671; -142.250; -764.000; -809.000
831.923;  -93.075; -311.000; -447.000
832.174;  -92.575; -273.000; -331.000
832.426; -128.425; -493.000; -582.000
832.678; -187.175;-1043.000;-1091.000
832.929; -161.375; -947.000; -935.000
833.181;  -76.525; -575.000; -677.000
833.432;  -53.450;  -59.000; -186.000
833.684;  -30.150;  112.000;  -27.000
833.935; -132.325; -610.000; -566.000
834.187; -127.550; -829.000; -823.000
834.438;  -59.725;  -58.000;  -25.000
834.689;  -58.625; -255.000; -123.000
834.941;  -63.650; -343.000; -244.000
835.192;  -94.225; -590.000; -533.000
835.443; -108.250; -419.000; -506.000
835.695;  -28.225;  138.000;  -16.000
835.946; -102.450; -608.000; -378.000
836.197; -100.400; -599.000; -622.000
836.448;  -93.750; -528.000; -395.000
836.699;  -60.875; -253.000; -341.000
836.950;  -17.200;   72.000;    7.000
837.201; -150.500;-1003.000; -987.000
837.452;  -58.850; -356.000; -170.000
837.703; -114.500; -791.000; -737.000
837.954;  -37.500; -205.000; -365.000
838.205;  -77.900;-1029.000;-1008.000
838.456;  182.275; -196.000; -282.000
838.707;   -1.450; -423.000; -519.000
838.958;   14.100; -634.000; -647.000
839.209;  285.325;   18.000;   40.000
839.460;  127.625; -439.000; -201.000
839.710;  156.550; -135.000; -297.000
839.961;  424.600;  730.000;  612.000
840.212;  352.950; -382.000; -497.000
840.462; 1066.275; -328.000; -277.000
840.713;17458.950; -571.000; -536.000
840.964; 8004.250;  -62.000; -143.000
841.214;  523.975; -384.000; -624.000
841.465;  594.150; -214.000; -141.000
841.715;  536.750; -417.000; -380.000
841.966;  677.750; -746.000; -685.000
842.216; 8726.375; -330.000; -431.000
842.466;37176.075; -169.000; -313.000
842.717; 2361.750; -964.000; -952.000
842.967;  331.650; -635.000; -641.000
843.217;  277.750;   20.000;   28.000
843.468;   91.075; -104.000; -132.000
843.718;  -37.300; -718.000; -726.000
843.968;  -93.500; -837.000; -765.000
844.218;   20.400; -315.000; -262.000
844.469;  -48.575; -577.000; -561.000
844.719; -117.250; -537.000; -682.000
844.969; -103.700; -550.000; -580.000
845.219; -149.800; -814.000; -862.000
845.469;  -84.350; -392.000; -342.000
845.719; -144.975; -792.000; -884.000
845.969;  -29.650;  119.000;  174.000
846.219; -125.950; -738.000; -720.000
846.469;   -4.325;  464.000;  432.000
846.718;  -48.100; -115.000;   31.000
846.968; -137.625; -827.000; -827.000
847.218;  -56.650; -224.000; -371.000
847.468; -115.000; -586.000; -555.000
847.718; -156.225; -827.000; -798.000
847.967; -149.500; -826.000; -915.000
848.217; -102.600; -449.000; -569.000
848.467;  -79.700; -405.000; -376.000
848.716; -114.425; -708.000; -725.000
848.966;  -12.850; -372.000; -358.000
849.215;  -62.700; -428.000; -419.000
849.465;  -95.275; -785.000; -615.000
849.714; -142.475;-1132.000;-1150.000
849.964;  -75.450; -551.000; -613.000
850.213;  -23.750; -393.000; -355.000
850.463;   59.175;  137.000;  340.000
850.712;   -5.925; -542.000; -567.000
850.961;    8.525; -739.000; -678.000
851.211;  107.075; -513.000; -504.000
851.460;  150.975; -635.000; -650.000
851.709;  541.450;  -25.000;   18.000
851.958; 9767.075; -912.000; -750.000
852.208;13550.800; -859.000; -879.000
852.457;  516.400; -181.000;  -13.000
852.706;   69.175; -791.000; -823.000
852.955;    0.425; -507.000; -528.000
853.204;  -81.900; -521.000; -461.000
853.453;  -91.825; -418.000; -458.000
853.702; -148.550; -660.000; -750.000
853.951; -112.950; -532.000; -520.000
854.200; -107.175; -613.000; -562.000
854.449; -135.175; -695.000; -661.000
854.698; -108.050; -340.000; -279.000
854.946;  -77.975; -181.000; -284.000
855.195; -151.425; -843.000; -868.000
855.444;  -94.925; -395.000; -420.000
855.693; -130.025; -345.000; -432.000
855.941; -111.825; -387.000; -516.000
856.190;  -69.875; -256.000; -382.000
856.439; -131.000; -652.000; -703.000
856.687;  -62.550;  -99.000;  -72.000
856.936; -138.825; -621.000; -323.000
857.184; -188.875;-1067.000;-1020.000
857.433; -120.475; -423.000; -512.000
857.681; -171.925; -989.000; -953.000
857.930;  -88.525; -282.000; -433.000
858.178; -172.750; -856.000; -929.000
858.427; -156.450; -802.000; -781.000
858.675; -126.950; -377.000; -544.000
858.923; -118.925; -527.000; -819.000
859.172; -197.775;-1094.000;-1070.000
859.420;  -89.925; -339.000; -239.000
859.668; -138.500; -624.000; -628.000
859.916;  -27.300;  109.000;  115.000
860.164; -124.400; -699.000; -603.000
860.413;  271.075; -878.000; -696.000
860.661;  290.550; -709.000; -577.000
860.909;  -81.500; -339.000; -325.000
861.157;  -90.150; -277.000; -444.000
861.405; -119.075; -534.000; -670.000
861.653;    6.450;  310.000;  310.000
861.901;  165.550; -543.000; -613.000
862.149;   20.825; -801.000; -824.000
862.396; -101.675; -297.000; -187.000
862.644;  -95.175; -368.000; -347.000
862.892;  -61.400;   98.000;  138.000
863.140; -120.050; -549.000; -530.000
863.388; -176.575; -815.000; -759.000
863.635; -138.475; -642.000; -601.000
863.883;  -23.900;  231.000;  190.000
864.131; -103.325; -288.000; -357.000
864.378; -137.650; -675.000; -540.000
864.626; -108.625; -347.000; -415.000
864.873; -131.350; -556.000; -505.000
865.121; -163.375; -714.000; -799.000
865.368;  -48.550; -173.000;   75.000
865.616;  -43.975;  -33.000;  -40.000
865.863;  -85.650; -462.000; -506.000
866.111; -122.250; -795.000; -824.000
866.358;   20.225; -426.000; -420.000
866.605; 1956.775;  -64.000; -804.000
866.853; 2323.900; -621.000; -537.000
867.100;  -36.850; -728.000; -775.000
867.347; -102.075; -672.000; -611.000
867.594;  -93.650; -740.000; -714.000
867.841;   70.200;   97.000;   17.000
868.089; -148.375; -746.000; -698.000
868.336; -113.950; -477.000; -420.000
868.583; -147.175; -637.000; -741.000
868.830;  -57.525; -131.000; -170.000
869.077; -158.875; -859.000; -787.000
869.324; -136.325; -502.000; -458.000
869.571; -135.550; -398.000; -430.000
869.818; -135.200; -485.000; -439.000
870.065; -104.225; -439.000; -513.000
870.311; -118.300; -456.000; -542.000
870.558; -118.025; -332.000; -311.000
870.805;  -94.250; -320.000; -384.000
871.052; -111.025; -494.000; -369.000
871.298;  -60.800; -204.000; -131.000
871.545;  -66.500; -151.000; -185.000
871.792;  -91.975; -173.000; -222.000
872.038;  -82.225;   43.000; -126.000
872.285; -126.425; -496.000; -387.000
872.532; -111.925; -357.000; -387.000
872.778;    2.125;  556.000;  403.000
873.025; -106.150; -384.000; -359.000
873.271;   -2.575;  501.000;  578.000
873.517;  -27.450; -133.000; -209.000
873.764;  -41.675; -193.000;  -80.000
874.010;  -91.425; -143.000; -230.000
874.257;  -66.425;  123.000;   90.000
874.503; -139.025; -579.000; -479.000
874.749;  -69.225;   31.000;  275.000
874.995;  -85.925;  -80.000;  -20.000
875.242; -133.450; -540.000; -478.000
875.488; -123.900; -414.000; -439.000
875.734;  -64.275; -106.000; -234.000
875.980;  197.275; -872.000;-1032.000
876.226;  401.750; -157.000; -255.000
876.472;   -9.075;  343.000;  237.000
876.718;  -44.250;  184.000;  158.000
876.964;  -59.250;   56.000;   55.000
877.210; -151.675; -547.000; -677.000
877.456; -143.675; -630.000; -557.000
877.702; -179.600; -821.000; -832.000
877.948; -127.700; -377.000; -497.000
878.193;  -45.275;  361.000;  255.000
878.439;  -96.175; -487.000; -472.000
878.685; -111.625; -272.000; -343.000
878.931; -147.925; -618.000; -676.000
879.176;  -98.950; -201.000; -201.000
879.422; -182.300; -933.000; -820.000
879.668;   14.850;   10.000;   79.000
879.913;  140.250;   53.000;  137.000
880.159;  -63.875; -112.000;  -17.000
880.404;  -68.750; -152.000; -162.000
880.650;  -50.700;   91.000;  141.000
880.895; -164.975; -670.000; -710.000
881.141; -122.825; -454.000; -428.000
881.386; -154.625; -503.000; -658.000
881.631; -100.775; -311.000; -166.000
881.877;  -45.500;  112.000;  -13.000
882.122; -154.700; -684.000; -600.000
882.367;  -96.450; -136.000; -186.000
882.612;  -82.075;  -80.000; -176.000
882.858; -180.225; -877.000; -823.000
883.103; -107.525; -297.000; -267.000
883.348; -149.525; -759.000; -852.000
883.593; -156.775; -677.000; -602.000
883.838;  -60.825; -311.000;  -24.000
884.083;   18.600;  353.000;  288.000
884.328;  -97.650; -564.000; -545.000
884.573;  -55.000; -196.000; -143.000
884.818;  188.775; -694.000; -531.000
885.063;  216.050; -348.000; -315.000
885.308; -106.900; -475.000; -398.000
885.553;  -20.800;  245.000;  325.000
885.797; -125.800; -545.000; -615.000
886.042;  -63.625;    8.000;   58.000
886.287; -102.600; -253.000; -211.000
886.532;  -54.400;   26.000;  204.000
886.776; -115.625; -407.000; -525.000
887.021; -150.525; -621.000; -574.000
887.265; -163.925; -685.000; -689.000
887.510; -145.000; -557.000; -496.000
887.755; -107.575; -194.000; -164.000
887.999; -151.050; -552.000; -575.000
888.244;  -61.975;  -58.000;  161.000
888.488;  -23.650;  371.000;  393.000
888.732; -137.700; -368.000; -520.000
888.977; -142.225; -622.000; -567.000
889.221; -164.500; -683.000; -659.000
889.465; -114.350; -422.000; -566.000
889.710;  -92.825;  -56.000; -299.000
889.954;  -10.750;  579.000;  467.000
890.198; -161.125; -584.000; -707.000
890.442; -175.825; -716.000; -712.000
890.687; -166.250; -800.000; -753.000
890.931; -105.600; -273.000; -210.000
891.175; -136.550; -502.000; -500.000
891.419;  -88.000; -105.000; -110.000
891.663; -101.000; -239.000; -112.000
891.907; -186.425; -801.000; -545.000
892.151; -175.400; -920.000; -815.000
892.395; -123.800; -274.000; -387.000
892.638;  -36.875;  408.000;  291.000
892.882; -182.650; -780.000; -867.000
893.126;   -0.450;  758.000;  558.000
893.370; -101.500; -167.000; -168.000
893.614; -156.275; -714.000; -715.000
893.857; -116.000; -183.000; -197.000
894.101; -145.850; -527.000; -631.000
894.345;  -69.725;  300.000;  150.000
894.588;   -0.100;  569.000;  380.000
894.832;  -89.225; -178.000;  -84.000
895.075;  -86.650;   15.000;  -92.000
895.319; -132.475; -552.000; -420.000
895.563; -123.975; -413.000; -353.000
895.806; -166.125; -628.000; -741.000
896.049;  -75.200; -576.000; -368.000
896.293;   98.950;  527.000;  405.000
896.536;  -75.725; -465.000; -468.000
896.779;  -63.975; -149.000;   -1.000
897.023; -130.700; -751.000; -714.000
897.266;  -39.250;  325.000;  269.000
897.509; -189.950; -900.000; -901.000
897.752;  -52.575;  149.000;  171.000
897.996; -197.200; -972.000; -864.000
898.239;  -53.725;  168.000;  102.000
898.482; -138.150; -431.000; -453.000
898.725;  -36.550;  101.000;   53.000
898.968; -146.025; -609.000; -744.000
899.211; -109.375; -513.000; -361.000
899.454; -128.950; -633.000; -539.000
899.697;  -75.125;   90.000;  -43.000
899.940; -173.550; -761.000; -757.000
900.182; -122.850; -335.000; -405.000
900.425;  -96.325; -150.000; -298.000
900.668;  -29.450;  491.000;  350.000
900.911; -116.550; -292.000; -345.000
901.154;  -74.250;  141.000;   -3.000
901.396; -134.625; -407.000; -412.000
901.639; -148.450; -430.000; -496.000
901.882; -181.700; -790.000; -809.000
902.124;  -95.500;  -29.000; -143.000
902.367; -124.950; -315.000; -361.000
902.609; -144.250; -476.000; -453.000
902.852; -103.575; -108.000; -260.000
903.094; -138.200; -458.000; -337.000
903.337;  -72.200;  -26.000;   53.000
903.579; -116.000; -228.000; -441.000
903.821; -155.875; -597.000; -744.000
904.064;  -80.925;   85.000;  127.000
904.306;  -84.950; -126.000; -166.000
904.548; -115.700; -152.000; -366.000
904.790; -110.350; -195.000; -340.000
905.033; -134.575; -625.000; -577.000
905.275; -135.975; -513.000; -524.000
905.517;   39.225;  468.000;  256.000
905.759;  -65.700; -667.000; -761.000
906.001; -109.575; -322.000; -369.000
906.243;  -83.050; -162.000; -224.000
906.485;  110.900; -265.000; -207.000
906.727;  141.625; -499.000; -542.000
906.969;  -36.525;  -30.000; -135.000
907.211;  115.800; -316.000; -382.000
907.453;  297.800; -188.000; -237.000
907.695;   20.700; -158.000; -385.000
907.936;   37.725;  818.000;  706.000
908.178;  -80.775;   92.000; -135.000
908.420;  -74.825; -111.000; -162.000
908.662; -143.250; -633.000; -682.000
908.903;  -94.200; -208.000; -123.000
909.145;  -70.175; -240.000; -305.000
909.386;   -0.950;  315.000;  280.000
909.628;   27.900;  363.000;  397.000
909.870;  -18.250;   29.000;  264.000
910.111; -103.175; -809.000; -949.000
910.353;    6.900; -123.000; -161.000
910.594;    5.975; -574.000; -606.000
910.835;   67.450; -265.000; -326.000
911.077;  134.625; -503.000; -604.000
911.318;  292.275; -505.000; -471.000
911.559;  433.925; -577.000; -880.000
911.801; 1265.725; -284.000; -280.000
912.042; 9734.900;  -50.000; -159.000
912.283;27478.200;  404.000;  371.000
912.524; 4666.550; -396.000; -457.000
912.765;  516.250; -193.000;   79.000
913.006;  241.575; -307.000; -338.000
913.247;   52.850; -270.000; -290.000
913.488;   -6.475;  -43.000;   30.000
913.729;  -83.150; -373.000; -373.000
913.970;  -60.375;  -96.000; -292.000
914.211;  -85.050; -160.000; -198.000
914.452;  -53.700; -118.000;  -11.000
914.693;    2.175;  510.000;  592.000
914.934;    0.100;  510.000;  440.000
915.175;  -79.950;   53.000;  -95.000
915.415;  -74.425; -137.000;   27.000
915.656;  -63.575;  -28.000;  192.000
915.897; -101.275; -252.000;  -82.000
916.137;  -87.450;   74.000;   -9.000
916.378; -139.575; -573.000; -517.000
916.619;  -87.875; -159.000;  -63.000
916.859;  -39.825;  303.000;  330.000
917.100;  116.525; 1655.000; 1070.000
917.340;   34.025;  930.000;  728.000
917.581;   46.750;  965.000;  789.000
917.821;  -24.725; -171.000;  143.000
918.061;   13.425; -199.000;  -72.000
918.302;  -50.675; -152.000; -211.000
918.542;  -44.525;  -22.000;    3.000
918.782;   27.125;  369.000;  377.000
919.023;  111.500;  360.000;  427.000
919.263; 1327.475; 8131.000;  202.000
919.503; 1187.450; -137.000;  -54.000
919.743;  665.550;  390.000;  266.000
919.983;  293.425; -134.000;  -26.000
920.223;   78.050;  135.000;   14.000
920.463;  125.275;  631.000;  554.000
920.703;  108.500;   84.000;   39.000
920.943;  149.550; -110.000;   90.000
921.183;  212.025; -414.000; -405.000
921.423;  492.400;  307.000;  546.000
921.663;  693.150; -174.000; -257.000
921.903; 1507.375;  237.000;  173.000
922.143; 8192.225;  372.000;  389.000
922.383;32802.275;  158.000;  115.000
922.622;12342.300; -120.000;  -15.000
922.862; 1275.350;  796.000;  785.000
923.102;  475.050;  -51.000;   33.000
923.341;  183.175;   59.000;   74.000
923.581;   71.825;  450.000;  360.000
923.821;    6.625;  301.000;  398.000
924.060;   -1.500;  351.000;  193.000
924.300;  -55.100;  -16.000; -128.000
924.539;  -18.950;  584.000;  473.000
924.779;  -13.850;  812.000;  597.000
925.018;  -48.450;  247.000;  353.000
925.257;   -9.725;  595.000;  666.000
925.497;  -54.600;  447.000;  412.000
925.736;  -88.550;  -35.000;  102.000
925.975;   -3.775;  687.000;  669.000
926.214;   14.725;  907.000;  850.000
926.454;   11.450;  706.000;  757.000
926.693;  -45.025;  419.000;  543.000
926.932;   29.900; 1021.000;  825.000
927.171;   63.575; 1107.000; 1044.000
927.410;   51.425; 1144.000;  967.000
927.649;    7.300;  924.000;  742.000
927.888;  -12.225;  590.000;  564.000
928.127;  -12.700;  680.000;  678.000
928.366;   30.075;  842.000;  826.000
928.605;   25.800;  831.000;  737.000
928.844;  214.375; 1451.000; 1393.000
929.083;  604.550;  770.000;  613.000
929.321;  349.875; 1335.000; 1359.000
929.560;   71.750; 1158.000; 1122.000
929.799;  -33.775;  574.000;  475.000
930.038;   79.675; 1025.000; 1394.000
930.276;  -50.900;  334.000;  397.000
930.515;  -10.250;  827.000;  681.000
930.753;  -19.700;  614.000;  589.000
930.992;  -26.025;  664.000;  717.000
931.230;    0.900;  847.000;  847.000
931.469;  165.650; 2162.000;  892.000
931.707;   82.100;  840.000;  751.000
931.946;   59.325; 1278.000; 1344.000
932.184;   41.675; 1437.000; 1175.000
932.423;   49.050; 1265.000;  963.000
932.661;   92.200; 1296.000; 1428.000
932.899;   21.275;  987.000;  821.000
933.137;    8.850;  754.000;  564.000
933.376;  133.250; 1664.000; 1335.000
933.614;  148.725; 1759.000; 1196.000
933.852;   37.400; 1357.000; 1171.000
934.090;  129.975; 1722.000; 1747.000
934.328;   80.000; 1252.000; 1457.000
934.566;   89.725; 1431.000; 1110.000
934.804;  133.400; 1263.000; 1309.000
935.042;  423.725; 1861.000; 1850.000
935.280; 1604.325; 2088.000; 2063.000
935.518; 1677.350; 2113.000; 2007.000
935.756;  365.600; 2481.000; 2316.000
935.994;  148.275; 1808.000; 1751.000
936.231;  350.950; 2890.000; 2950.000
936.469;  189.650; 2367.000; 2378.000
936.707;  161.425; 2220.000; 2167.000
936.945;  232.225; 2825.000; 2882.000
937.182;  201.650; 2679.000; 2741.000
937.420;  310.475; 3602.000; 3031.000
937.657;  396.925; 3365.000; 3478.000
937.895;  353.725; 3331.000; 3488.000
938.133;  299.625; 3540.000; 3528.000
938.370;  340.400; 3896.000; 4191.000
938.607;  378.375; 4488.000; 4205.000
938.845;  523.950; 5587.000; 5549.000
939.082;  470.025; 5387.000; 5177.000
939.320;  532.225; 5799.000; 5728.000
939.557;  625.850; 6549.000; 6491.000
939.794;  726.625; 7285.000; 7097.000
940.031;  889.200; 8421.000; 8368.000
940.269; 1109.225; 9552.000; 9107.000
940.506; 1120.875;10901.000;10507.000

