
Integration time [ms]: 100.000
Averaging Nr. [scans]: 40
Smoothing Nr. [pixels]: 0
Data measured with spectrometer [name]: 2101013U2
Wave   ;Sample   ;Dark     ;Reference
[nm]   ;[counts] ;[counts] ;[counts] 

394.013;   72.557; -450.257; -315.536
394.305;  279.830; -461.258; -419.536
394.596; 1043.653; -676.269; -527.514
394.887; 2383.845; -796.268; -654.518
395.178;  916.100;  145.736;   11.476
395.470;   86.436; -210.263; -356.526
395.761;  268.359;  305.734;  394.479
396.052;  483.230; -545.284; -306.489
396.343;  485.474; -557.276; -454.503
396.634;  159.618; -200.279; -290.497
396.926;  195.267; -618.268; -565.517
397.217;  166.078;   11.725;  -17.504
397.508;   90.669; -366.273; -154.507
397.799;   81.918; -555.279; -571.497
398.090;   28.612; -973.280; -902.495
398.381;  164.356;   11.708;  -11.473
398.672;   25.132; -585.292; -742.473
398.963;   86.599; -348.279; -373.498
399.254;  134.966;   54.709; -209.475
399.545;  -11.844;-1017.266; -883.520
399.836;   94.388; -407.277; -343.501
400.127;   72.258; -205.295; -209.468
400.418;   92.138; -423.274; -392.506
400.709;   99.000; -359.281; -333.493
401.000;   85.395; -268.291; -309.476
401.290;  127.095;  225.698;  115.545
401.581;   87.338; -166.286; -228.485
401.872;   33.480; -542.298; -486.462
402.163;   69.625; -313.296; -252.467
402.454;  120.167; -123.291; -163.475
402.744;  117.617; -844.297; -813.465
403.035;  582.573; -226.293;  -86.471
403.326;  786.110; -366.292; -384.474
403.617;  469.400;  204.701;  165.539
403.907;  251.736; -593.283; -679.490
404.198; 2171.175; -545.307; -599.446
404.489; 5694.965; -618.283; -588.491
404.779; 2093.774; -618.302; -660.456
405.070;  233.478;  -67.304; -174.451
405.360;  324.074; -259.293; -238.472
405.651;  348.535;  125.699;   98.542
405.942;  214.708;  209.714;  127.516
406.232;  413.098; -432.285; -413.487
406.523;  636.967;  641.706;  758.530
406.813;  153.260; -579.286; -644.484
407.104;  474.405;  261.708;  144.527
407.394;  304.551; -604.299; -591.462
407.685;  185.172;  336.715;  222.513
407.975;   92.414; -400.283; -382.490
408.265;  139.581; -134.289; -190.478
408.556;  102.289; -472.291; -459.475
408.846;  166.968;  474.706;  429.530
409.137;   95.314;   -1.288; -216.480
409.427;   60.097; -193.285; -271.487
409.717;   55.272; -776.273; -692.508
410.007;  157.716;    4.715; -170.486
410.298;  110.910; -360.295; -342.469
410.588;   87.620; -495.285; -510.486
410.878;   54.125; -792.287; -873.482
411.168;  136.158; -481.298; -478.463
411.459;  137.759; -295.283; -242.489
411.749;   73.512; -609.292; -507.474
412.039;   90.938; -755.289; -386.480
412.329;  220.506;   40.722;  132.501
412.619;  227.561;  -62.286; -148.485
412.909;  399.109;  639.711;  594.521
413.199;  402.163; -130.280; -251.495
413.490;  454.449;  521.710;  352.523
413.780;  172.242;-1013.279; -913.496
414.070;  360.200;  -46.276;  235.497
414.360;  429.552; -729.278; -666.498
414.650;  434.346; -726.288; -688.482
414.940;  522.991; -538.280; -441.496
415.230;  893.343;   50.712;   74.519
415.520; 5676.477;  155.730;   66.486
415.809;22224.299; -305.281; -125.493
416.099;16821.765; -388.277; -229.501
416.389; 4511.336;  435.726;  236.494
416.679; 2633.764;   91.738;   85.473
416.969;  484.855; -527.287; -503.483
417.259;  461.393;  341.721;  171.503
417.549;  696.323;  522.718;  318.508
417.838; 1488.194; -205.268; -147.518
418.128; 4837.405;  650.710;  492.522
418.418; 3967.728; -491.272; -579.509
418.708; 2741.261;    9.726;  -48.506
418.997;10125.957; -474.275; -480.505
419.287;10443.543; -733.273; -790.507
419.577; 9562.308; -160.283; -123.489
419.866;32319.663; -588.277; -498.501
420.156;33974.398; -242.270;  -55.513
420.446; 6231.007; -112.263;  -26.526
420.735; 1026.292; -376.271; -446.512
421.025;  871.651; 1830.722;  315.502
421.314;  876.966; -203.271; -226.512
421.604; 2115.687;   89.732;  233.484
421.893; 1210.762; -705.271; -602.511
422.183;  252.682; -487.263; -461.526
422.472;  410.363;  -36.271; -107.511
422.762;  516.237; -416.266; -379.521
423.051;  284.400; -916.276; -916.503
423.341;  364.295; -491.273; -439.507
423.630;  461.893; -121.265;   15.477
423.919;  412.581;   58.725;   49.495
424.209;  370.937;  -31.263;   56.473
424.498;  488.366;   68.732;  161.483
424.787; 1052.148; -535.267; -601.518
425.077; 3229.516;   34.735;   29.478
425.366; 5126.843; -734.262; -744.528
425.655; 8941.295;  639.727;  259.493
425.945;17099.670; -313.247; -268.554
426.234; 9507.315;  117.741;  300.467
426.523; 4647.470;  -86.259; -350.534
426.812; 6348.908;  107.734;  159.480
427.101; 9143.983; -127.269; -323.515
427.390;11878.877;  -55.270;  -86.514
427.680; 3305.240; -624.257; -411.538
427.969;  543.900; -330.255; -301.540
428.258;  367.156; -385.257; -477.536
428.547;  599.982;  449.728;  397.490
428.836; 1632.641; -421.253; -398.543
429.125; 2396.472; -199.259;  -72.534
429.414;  963.488; -330.251; -294.548
429.703; 2854.163; -231.251; -213.548
429.992; 8358.517; -938.250; -828.549
430.281; 5410.175; -397.264; -331.524
430.570;  653.804;  -21.252;   32.454
430.859;  725.745;  279.741;  352.466
431.148;  527.291;  636.752;  631.446
431.437;  349.204;  391.748;  367.454
431.725;  177.583; -544.257; -481.536
432.014;  135.448; -845.253; -756.545
432.303;  428.765; -149.239; -105.569
432.592;  750.406; -460.263; -178.525
432.881; 1030.542; -601.248; -437.554
433.169; 5324.926; -343.255;  -61.540
433.458;10868.898;  445.765;  540.424
433.747; 4697.773; -397.261; -289.529
434.036; 1089.541; -275.242; -280.564
434.324; 2006.929; -395.249; -379.551
434.613; 3340.660;   40.757;  159.437
434.902; 1234.380;  333.760;  439.433
435.190;  900.339;   75.761;  295.431
435.479;  499.842;  -52.245;   83.441
435.767;  154.400; -411.244; -427.561
436.056;  288.987; -340.242; -294.563
436.345;  391.533; -372.240; -223.568
436.633;  415.574;   60.750;  383.450
436.922;  369.110;  208.760;  414.432
437.210;  990.238; -194.236;    1.426
437.499; 3246.521; -583.235; -432.576
437.787; 3466.838; -339.236;  -10.574
438.075;  819.444;   56.761;  162.430
438.364; 1126.122;  -44.238;  250.429
438.652;  676.275; -286.226; -138.592
438.941;  190.064;    3.770;  269.415
439.229;   41.851; -665.252; -466.545
439.517;   63.555; -160.234;  -85.577
439.806;   27.640; -501.225; -290.595
440.094;  229.562;  377.766;  650.421
440.382;  310.916; -653.233; -302.580
440.670;  323.996; -361.235; -285.576
440.959;   60.332; -347.223; -170.599
441.247;  105.576; -151.229; -109.587
441.535;  150.078; -266.235;   31.423
441.823;   80.959; -497.234; -305.578
442.111;  224.305;  173.771;  327.412
442.400;  759.791; -628.245; -335.559
442.688; 2221.962; -111.234; -620.579
442.976; 1655.919; -786.213; -450.617
443.264;  175.847; -324.224; -364.597
443.552;  145.551; -258.226;   51.408
443.840;  200.827;  602.765;  876.423
444.128;  134.665;  265.767;  269.420
444.416;   16.282; -694.228; -312.588
444.704;   48.111; -465.219;  -92.605
444.992;  114.029;   -0.226;  240.407
445.280;   91.240; -517.230;  -94.585
445.568;  109.997; -694.212; -396.618
445.856;  495.721; -174.221;  357.398
446.143; 1146.808;  -54.220;   -7.604
446.431;  896.361;  -25.228;  625.411
446.719;  303.455;  489.783;  675.391
447.007;  216.935;  481.769;  705.416
447.295;  190.179;  597.777;  871.402
447.583;  100.173; -464.229;  -34.587
447.870;  194.443; -434.221; -202.601
448.158;  544.414; -104.230;  129.415
448.446;  459.359; -800.219; -338.604
448.733;  215.698;   13.776;  269.403
449.021;  315.047;   60.788;  341.382
449.309;  199.236; -296.210;  208.379
449.596;  234.327;  128.783;   59.392
449.884;  175.186; -571.222; -325.600
450.172;  134.466; -756.227; -406.590
450.459;  399.177;  645.786;  780.387
450.747; 1950.300; -411.218; -147.608
451.034; 6285.412;  493.772;  889.411
451.322; 5056.430; -413.214; -170.614
451.609;  450.475;  292.777;  508.403
451.897;  515.298; -550.203; -183.634
452.184; 1550.255; -622.223; -400.598
452.472; 1491.207;   97.792;  269.375
452.759;  361.584;  512.781;  864.395
453.047;  158.044; -407.212; -125.617
453.334;  126.517; -732.219; -216.606
453.621;  131.157; -438.214; -161.615
453.909;  159.190;   13.796;  384.368
454.196;  138.185; -299.199; -123.641
454.483;  253.586;  317.798;  540.364
454.771;  185.685; -215.208;  196.374
455.058;   53.064; -316.207;  102.374
455.345;  109.289;   71.807;  344.347
455.632;   80.092; -128.207;  235.373
455.919;   68.257;  -82.196;  182.354
456.207;  -48.461; -774.198; -450.642
456.494;    2.373; -475.200;  -66.639
456.781;   15.007; -399.202; -198.635
457.068;   74.773; -253.206;  -29.628
457.355;    1.549; -698.206; -401.629
457.642;   21.455; -552.205; -290.630
457.929;   24.630; -778.194; -417.651
458.216;   68.770; -575.212; -354.617
458.503;  183.810; -173.193;  -19.652
458.790;  197.383; -864.208; -630.625
459.077;  272.912;  -77.202;  110.364
459.364;  698.598; -350.195; -210.649
459.651; 1490.896;  -46.206;  220.372
459.938;  701.399; -864.209; -665.623
460.225;  192.565;  132.799;  276.363
460.512;  -26.021; -836.197; -688.645
460.799;  131.424;  -32.218;  320.392
461.086;  105.477; -370.200; -251.640
461.372;   82.615; -509.198; -279.642
461.659;  164.958; -165.196;  108.354
461.946;  112.709; -445.193;  -54.651
462.233;  272.100;  842.800;  888.361
462.519;  349.947; -814.201; -464.639
462.806;  919.005; -768.197; -497.645
463.093;  771.629; -445.191;  -66.656
463.380;  -19.681; -920.186; -824.664
463.666;   71.007; -259.197;  -18.646
463.953;  105.318; -406.195; -243.648
464.239;  177.343; -173.195;  -77.648
464.526;  442.629;  413.806;  743.350
464.813;  419.390; -565.190; -304.658
465.099;  418.985;  606.807;  607.348
465.386;  406.113;  903.807;  921.348
465.672;   68.580; -694.197; -522.645
465.959;   66.908; -598.188; -520.662
466.245;   24.114; -468.193; -359.652
466.532;  129.766; -109.195;   63.352
466.818;  122.319; -357.186; -216.664
467.104;   26.309; -488.182; -415.672
467.391;   -3.858; -628.189; -459.658
467.677;   55.873; -289.186;    9.335
467.964;   33.649; -682.189; -471.660
468.250;   91.900; -331.186; -160.665
468.536;   95.643;   90.811;  180.341
468.822;  -20.088; -821.184; -574.668
469.109;  147.813;  351.827;  471.311
469.395;  206.273;  729.808;  787.346
469.681;  198.946;   46.811;  156.341
469.967; 1101.301; -699.188; -382.660
470.254; 2373.234; -494.188; -306.662
470.540; 1464.232; -601.196; -476.646
470.826;  217.070; -488.181; -397.675
471.112;  264.115;  288.816;  113.331
471.398;  112.170; -253.183;  -58.670
471.684;   53.022; -626.177; -447.680
471.970;    6.323; -918.180; -981.675
472.256;   33.197; -521.192; -441.654
472.542;   41.999; -499.171; -434.691
472.828;   35.630; -743.182; -607.672
473.114;   53.791; -380.166; -283.700
473.400;   33.614; -504.175; -293.684
473.686;   62.423; -452.166; -400.701
473.972;   66.728; -230.174; -131.687
474.258;  -39.062; -925.173; -843.689
474.544;  165.214; -183.178;   -2.679
474.830;  243.515;  -65.175;   45.316
475.116;  360.417; -123.190; -196.658
475.401;  505.576; -558.180; -467.676
475.687;  165.275; -725.180; -718.676
475.973;   46.838; -673.181; -770.673
476.259;  280.842;  736.825;  764.315
476.544;  360.630; -539.176; -437.682
476.830;  676.245; -398.172; -322.690
477.116;  541.104; -430.177; -336.682
477.401;  141.125;  346.820;  358.324
477.687;  -14.611; -289.175; -405.684
477.973;   41.741;   21.819;   28.326
478.258;    9.243; -448.163; -348.706
478.544;   61.381;   21.815;   61.334
478.829;  -25.871; -818.171; -738.692
479.115;  -38.331; -749.172; -651.690
479.401;    1.148; -444.174; -449.686
479.686;   27.224; -253.180;  -74.676
479.972;  -29.206; -886.178; -776.680
480.257;   49.543; -258.166;  -65.700
480.542;    9.108; -614.170; -469.693
480.828;  228.212; 1288.824; 1392.317
481.113;  -17.990; -464.176; -426.683
481.399;    7.866; -236.161; -202.711
481.684;  -45.883; -620.166; -462.700
481.969;   21.604; -158.159;  -73.713
482.255;    5.318; -439.169; -285.695
482.540;    8.720; -569.178; -441.680
482.825;    2.190; -395.187; -404.663
483.110;   88.697;  -85.169; -105.696
483.396;  132.700; -840.157; -652.718
483.681;  404.353;  543.826;  730.313
483.966;  106.523; -696.160; -700.712
484.251;   20.202; -404.174; -310.687
484.536;   13.428; -356.165; -378.703
484.822;   13.955; -205.173; -218.687
485.107;  -32.387; -599.152; -502.726
485.392;  126.408;  662.836;  541.296
485.677;   97.556;  354.832;  163.302
485.962;  115.448;  160.843;  270.283
486.247;   90.550;  -14.162;   -8.707
486.532;   47.619; -178.166; -325.701
486.817;  173.935;  381.839;  431.291
487.102;  121.996; -453.154; -514.722
487.387;  557.527; -637.156; -652.718
487.672;  902.288; -154.164;  -38.705
487.957;  587.567; -394.160; -286.711
488.241;  170.479; -290.150; -314.729
488.526;  575.389; -280.152; -148.726
488.811;  953.946; -881.177; -818.680
489.096;  742.624; -666.154; -702.723
489.381;  416.186;    3.847;  162.275
489.666;  266.641; -428.161; -510.710
489.950;  156.152;  558.846;  627.277
490.235;  -24.376; -480.151; -458.728
490.520;  -40.810; -756.161; -723.710
490.804;  -45.071; -827.156; -736.719
491.089;   12.445; -469.149; -299.732
491.374;   37.487; -132.164;  -75.704
491.658;   22.181; -817.147; -717.735
491.943;  205.268; -657.152; -609.727
492.227;  306.667; -178.155;  -38.721
492.512;   73.498; -294.157; -341.717
492.797;  -63.711; -713.149; -716.731
493.081;  -37.116; -588.147; -598.735
493.366;  -26.834; -751.161; -635.711
493.650;  200.036;  831.859;  917.254
493.935;   31.180; -648.147; -447.734
494.219;  -32.977; -778.142; -687.743
494.503;  -35.316; -585.150; -487.730
494.788;   59.714;   46.842;   74.285
495.072;  100.306;  184.850;  434.271
495.356;  154.123; -463.148; -343.733
495.641;  465.065; -812.146; -736.736
495.925;  466.084; -976.156; -903.719
496.209;   50.919; -599.149; -451.732
496.494;  -26.826; -763.142; -544.744
496.778;   12.346; -364.154; -360.722
497.062;  -64.016; -819.156; -627.719
497.346;  -38.606; -869.160; -640.711
497.631;  129.126;  580.852;  560.266
497.915;   82.850;  -64.145;  175.261
498.199;   71.725; -341.157; -277.718
498.483;   71.063; -562.152; -508.725
498.767;  170.032;  301.850;  300.271
499.051;  167.142; -126.149; -100.732
499.335;   15.990; -693.149; -739.731
499.619;  -36.140; -381.129; -423.767
499.903;   40.716; -272.155;  -65.721
500.187;   32.703; -588.153; -316.724
500.471;   40.968; -796.152; -595.727
500.755;  122.665;   62.839;  -96.710
501.039;   49.616; -270.155; -357.721
501.323;  107.963;  -21.141;  264.254
501.607;   63.293; -447.163; -503.706
501.891;   19.377; -607.156; -512.718
502.174;  -20.789; -726.144; -585.741
502.458;   78.472;   89.849;  370.273
502.742;   32.911; -180.138; -191.751
503.026;   84.155; -412.147; -254.734
503.310;  134.428; -437.159; -375.713
503.593;  105.182; -464.147; -325.735
503.877;  135.501; -232.133; -156.760
504.161;  204.331;    2.847;  -50.724
504.444;  142.867; -841.158; -710.716
504.728;  345.886; -487.164; -522.704
505.012;  595.704; -257.150;  -76.729
505.295;  469.741; -417.161; -212.711
505.579;  437.483; -256.156; -496.719
505.862;  584.572; -555.145; -333.738
506.146;  573.481; -681.159; -758.714
506.429;  345.756;  568.841;  461.286
506.713;   64.376; -732.151; -667.728
506.996;  276.896;   90.846;  295.278
507.280;  265.682; -633.165; -474.703
507.563;  188.539; -469.155; -261.721
507.847;   82.004; -423.153; -112.724
508.130;   60.117; -665.161; -456.711
508.413;   83.864; -758.167; -577.700
508.697;  199.214; -151.167;   12.300
508.980;  118.980; -422.153; -312.724
509.263;  -15.289; -466.155; -450.720
509.547;   52.003; -124.150;   82.271
509.830;   46.844; -172.160;  140.289
510.113;   93.158;  128.844;  298.281
510.396;   51.211; -530.152; -300.725
510.680;  288.548; -818.145; -812.738
510.963; 1002.900;  184.846;  180.277
511.246;  927.436; -493.150; -357.730
511.529;  297.728; -482.145;  -83.739
511.812;  300.297; -250.134;   10.241
512.095;  200.398; -740.151; -396.728
512.378;   63.786; -317.147; -245.736
512.661;   12.443; -703.137; -623.753
512.944;   22.550; -750.142; -637.744
513.227;   59.416; -170.137; -171.752
513.510;   28.311; -479.144; -671.741
513.793;   45.267; -485.140; -435.747
514.076;  145.030;  -43.127;  -39.771
514.359;  121.295; -294.149; -135.732
514.642;   74.978; -442.142; -567.744
514.925;  595.190;  581.860;  561.253
515.208;  778.419; -498.134; -443.758
515.491;  505.332; -276.133; -182.761
515.773;  273.940; -410.143; -337.742
516.056; 1632.625;  249.864;  409.246
516.339; 2366.504; -754.136; -652.755
516.622; 2097.359; -518.150; -488.730
516.904; 1812.222;  882.857;  975.257
517.187;  862.264; -730.138; -523.752
517.470;  408.396; -568.143; -510.743
517.752;  334.231; -624.136; -470.756
518.035;  260.152; -708.139; -725.749
518.318;  280.729; -799.136; -744.755
518.600; 1807.811; -300.132; -325.762
518.883; 2537.628;  310.858;   88.256
519.165; 1254.807; -585.138; -426.751
519.448;  421.385;  -61.132;  -19.762
519.730;  244.963; -573.126; -415.773
520.013;  380.328;  588.867;  664.240
520.295; 1242.149;  -94.134;  -15.759
520.578; 2839.773; -335.131; -305.764
520.860; 3084.210; -254.132;   56.238
521.143; 1496.433; -763.135; -584.756
521.425;  493.301; -251.125; -279.775
521.707;  582.906; -622.127; -380.771
521.990; 1430.906; -199.127;  167.229
522.272; 1623.093; -116.140;   -4.748
522.554;  887.441; -237.143; -157.742
522.836;  470.197;  -24.134;   99.241
523.119;  259.504; -496.148; -189.734
523.401;  168.380; -448.130; -314.766
523.683;   76.669; -865.137; -693.753
523.965;  214.487;  408.862;  260.248
524.247;  234.671;   54.878;  170.220
524.529;  170.049; -451.134; -367.759
524.812;  314.107;   -3.130;  191.234
525.094;  675.887; -773.138; -631.751
525.376; 1051.659; -143.124;   78.223
525.658;  643.026; -441.136; -339.754
525.940;   12.945; -805.131; -671.764
526.222;   62.829; -188.136;  -88.755
526.504;  169.968; -190.131;   32.237
526.786;  305.276; -960.133; -647.760
527.068;  453.690; -124.123;  -67.778
527.349;  224.698; -865.137; -774.754
527.631;  148.160; -137.132;   22.238
527.913;  107.480; -664.127; -450.771
528.195;  116.044; -761.125; -639.774
528.477;  187.994;  -93.134;  -30.758
528.759;   93.032; -648.130; -522.766
529.040;   25.214; -569.123; -293.778
529.322;   59.571; -235.125;  -10.774
529.604;  183.184;  -47.130;   93.233
529.886;  181.088; -546.126; -302.773
530.167;  158.751;  232.870;  192.235
530.449;   56.135;    1.853;   63.265
530.731;   17.071; -572.122; -459.779
531.012;   39.741; -513.120; -216.784
531.294;   51.879; -118.116;  -43.792
531.575;  128.026;  290.875;  538.225
531.857;   16.839; -548.135; -266.757
532.138;   99.711; -113.141;   40.254
532.420;  199.185;  294.865;  403.244
532.701;  315.078; -722.133; -751.760
532.983;  443.081;  232.867;  182.239
533.264;  169.086; -243.126;  175.228
533.546;  -21.621; -491.136; -508.755
533.827;   69.050;  173.867;   -1.759
534.109;   87.539; -352.135;  -80.757
534.390;  124.789; -725.132; -582.762
534.671;  261.710; -270.135;  -82.756
534.953;  138.091; -751.123; -611.779
535.234;   26.665; -426.117; -255.789
535.515;  -73.901; -891.119; -735.785
535.796;  -29.624; -431.128; -193.770
536.078; -100.091;-1050.124; -904.777
536.359;   11.392;  -22.123;    3.221
536.640;    5.745; -480.125; -197.774
536.921;  158.664;  225.871;  143.232
537.202;  327.684;  -87.138;  -16.751
537.483;  372.023;  251.869;  377.236
537.764;  133.376;   17.870;   98.235
538.045;  -41.207; -543.134; -371.758
538.326;  -30.984; -596.129; -447.768
538.607;   15.882; -686.127; -476.771
538.888;  147.107;   98.879;    5.218
539.169;  151.577; -704.122; -535.781
539.450;  314.888;  236.871;   16.233
539.731;  223.311; -361.121; -182.783
540.012;  153.066;  199.880;  412.216
540.293;   85.579;   82.876;  158.224
540.574;   39.125; -895.113; -717.796
540.855;  475.759;  435.879;  377.218
541.136;  524.174;   47.878;  139.220
541.416;  255.707; -161.130; -220.766
541.697;  143.493; -274.131; -170.763
541.978;  824.937; -270.135; -315.757
542.259; 1042.782; -211.127; -236.771
542.539;  500.048; -191.116; -186.790
542.820;  192.200;  461.875;  480.225
543.101;  134.075;  -52.145;  -77.738
543.381;   48.656; -638.127; -591.771
543.662;  225.504;  159.873; -254.771
543.942;  445.502; -751.127; -830.770
544.223;  851.351;  193.878;  161.219
544.504;  545.234; -275.124; -182.777
544.784;  488.262; -592.126; -408.773
545.065; 1384.727;  104.884; -254.791
545.345; 1634.049;  227.881;   14.215
545.626; 1013.274;  -14.113; -108.796
545.906;  692.750;   77.869;   98.235
546.186;  270.167;   92.874;  -95.773
546.467;  151.961;   99.877;  -95.778
546.747;  254.273;  264.884;  327.210
547.027;  311.257;   91.876;  111.223
547.308;  249.401; -376.127; -530.770
547.588;  323.991;  299.871;  371.232
547.868;  179.526;  458.870;  588.235
548.149;  172.009;  609.885;  593.207
548.429;   89.030; -347.127; -299.771
548.709;  145.816; -645.120; -461.784
548.989;  365.034;   84.882;   88.213
549.269; 1617.934;   10.868;  139.239
549.550; 3790.165;  215.877;  117.222
549.830; 3363.491; -758.111; -556.799
550.110;  659.199; -468.110; -320.801
550.390;  652.421; -128.122;  -56.779
550.670;  890.095; -868.114; -783.795
550.950;  622.284; -509.121; -471.782
551.230;  169.655;  549.879;  460.218
551.510;   -2.492; -381.121; -326.782
551.790;    3.431; -173.109; -127.803
552.070;  220.361;  940.877; 1181.223
552.350;  303.278; -492.119; -377.786
552.630;  432.853;   -2.121;   77.219
552.909;  281.977;  181.884;   73.209
553.189;  158.865;  -49.132;   33.237
553.469;  124.278; -703.119; -514.786
553.749;  138.908; -469.127; -357.772
554.029;  117.694;   33.883;  -24.790
554.308;  112.838; -154.115;  -37.794
554.588;   49.200; -196.128; -204.770
554.868;   41.485; -366.121;  -47.782
555.147;  111.985; -114.115;  -46.793
555.427;  429.730; -260.116; -250.792
555.707; 2992.108; -284.115; -200.793
555.986; 3632.470; -719.111; -538.800
556.266; 1912.247;   23.884;   72.210
556.546;   58.583; -888.121; -675.782
556.825;  175.368; -657.114; -556.794
557.105; 1371.148; -125.128;   17.230
557.384; 1620.101;  122.884;  187.209
557.664;  588.954; -717.116; -508.792
557.943;   71.034; -557.121; -411.782
558.222;  117.537; -345.118; -344.788
558.502;  230.987; -116.115;  -76.793
558.781;  412.857;  194.885;  499.208
559.061;  306.811; -232.118; -227.788
559.340;  212.266;  302.883;  353.211
559.619;  508.572;   93.884;  148.210
559.899;  757.693; -239.117; -266.789
560.178;  700.586; -778.115; -593.793
560.457; 2380.995; -623.117; -562.790
560.736; 3378.571; -472.111; -482.800
561.015; 2204.996; -500.128; -502.769
561.295;  313.201;  180.893;  215.193
561.574;  301.259;  119.885;  116.207
561.853;  409.011;  274.891;  303.197
562.132;  374.889;  -45.114;  182.206
562.411;  357.254;  396.879;  553.219
562.690;   89.507; -592.115; -458.792
562.969;  136.931;  472.888;  630.203
563.248;  462.326; 2966.878; 2487.219
563.527;  209.145; -290.111; -408.800
563.806;  274.680; -650.127; -521.771
564.085;  322.641; -297.105; -206.810
564.364;  167.171; -594.117; -405.790
564.643;  373.654; -276.121; -223.781
564.922; 1425.255;  221.890;  397.198
565.201; 1406.508; -640.109; -700.803
565.479;  599.731; -297.115; -219.792
565.758;  246.098; -810.128; -712.770
566.037;  371.059; -155.109; -100.803
566.316;  196.327; -286.116;  -28.791
566.595;   35.209;  -17.115;  -12.793
566.873;   85.047; -166.111;  -79.801
567.152;  -56.770; -490.113; -590.797
567.431;   -5.902; -113.116;    6.210
567.709;    4.826; -344.107; -212.807
567.988;  188.142; -810.114; -769.794
568.266;  421.184; -160.115;  -68.793
568.545;  275.962; -644.100; -514.819
568.824;  434.080;  160.885;  356.208
569.102;  394.867; -351.114; -235.794
569.381;  152.954; -492.116; -407.792
569.659;  -39.898; -553.113; -553.796
569.938;   -3.150; -743.122; -465.780
570.216;   72.712; -225.109; -225.804
570.494;  -31.530; -632.114; -572.795
570.773;   23.108;  202.879;  114.218
571.051;   -7.236; -373.123; -357.778
571.330;   36.524; -221.113; -174.796
571.608;   17.004; -181.098; -173.823
571.886;  -86.785; -671.111; -581.799
572.164;  -69.215; -739.121; -621.782
572.443;  -54.881; -562.105; -512.811
572.721;  -38.380; -399.117; -289.790
572.999;  -34.036; -280.117; -168.788
573.277;   71.888;  379.894;  620.191
573.555;  202.265;   94.894;   37.190
573.834;  992.963;  -86.117; -114.788
574.112; 1213.128;  880.893;  811.193
574.390;  351.596; -143.111;  -96.801
574.668;    0.831;  -91.112;  -61.797
574.946;  -13.985; -165.106; -187.810
575.224;   13.558;   71.891;  -16.803
575.502;  -27.801; -200.116; -204.791
575.780;  -81.543; -767.112; -829.798
576.058;  224.820; 1589.889; 1004.200
576.336;  -20.524; -210.110; -129.801
576.614;  -56.267; -511.112; -340.798
576.891;   17.038; -711.115; -823.794
577.169;  345.670; -158.108; -285.805
577.447;  454.103;  169.893;  202.193
577.725;  221.112;  629.888;  854.201
578.003;    0.910;  -71.112; -371.798
578.280;   80.153; -208.104; -242.812
578.558;   67.862; -450.115; -422.793
578.836;  115.995; -210.114; -145.795
579.114;   56.156; -630.112; -670.797
579.391;   66.840;   -6.117;  -18.789
579.669;  -58.861; -595.114; -704.794
579.947;  119.750; -326.107; -127.806
580.224;  229.700; -692.107; -524.806
580.502;  238.579;  127.893;   76.193
580.779;   13.496;  -42.117;   75.210
581.057;  -69.338; -584.109; -470.804
581.334;  -89.357; -726.102; -695.815
581.612;   42.516;   54.895;  511.190
581.889;  -23.144;  -83.101; -129.818
582.167;  -27.805; -298.099; -190.821
582.444; -101.175; -845.102; -814.817
582.721;   99.476;  657.899;  715.183
582.999;   28.967; -326.100; -167.821
583.276;  361.393; -812.123; -713.779
583.553;  539.121; -364.102; -294.816
583.831;  144.025; -607.104; -631.812
584.108;   43.318;  349.892;  174.195
584.385;    7.867; -122.102;  -98.815
584.662;  -82.602; -651.111; -828.801
584.940;   20.022;  204.889;  204.199
585.217;  -23.824;  -73.113; -303.796
585.494;   35.981;   71.890;  118.198
585.771;  163.338; -250.109; -354.804
586.048;  414.601; -196.113;  -76.796
586.325;  241.950; -721.110; -773.801
586.602;   79.204;  230.896;  213.188
586.879;  -26.261; -499.100; -580.820
587.156;   20.442; -156.105; -331.810
587.433;  -41.977; -701.102; -667.817
587.710;   57.133;  152.888;  234.202
587.987;  250.747; -264.105; -236.811
588.264;  676.035;  315.888;  387.202
588.541; 1137.456;  -61.104;   26.187
588.818; 2251.515;   72.892;  171.196
589.095; 1901.752; -163.104; -174.812
589.371;  309.186; -459.109; -414.804
589.648;   22.153; -581.107; -437.807
589.925;    7.296; -517.114; -621.795
590.202;  -21.292; -741.112; -607.798
590.478;   65.924; -166.105;  -73.811
590.755;  194.521; -241.108; -132.806
591.032; 1848.202; -741.110; -699.802
591.308; 2617.419; -732.094; -790.831
591.585; 1310.852; -573.110; -560.802
591.862;   75.450;-1056.102; -950.817
592.138;   35.569; -475.108; -474.805
592.415;   94.304; -486.104; -495.813
592.691; 1201.452;  460.896;  518.188
592.968; 1516.556; -208.098; -123.824
593.244;  716.573; -695.116; -595.790
593.521;   50.200; -105.102;  -42.817
593.797;  -43.878; -810.122; -720.780
594.074;  252.694; -611.096; -588.826
594.350;  544.905;  828.905;  729.172
594.626;  239.623; -303.111; -283.801
594.903;   53.651; -643.101; -645.817
595.179;  141.333;  243.896;  418.187
595.455;   -0.570; -136.107; -150.807
595.731;    4.710;  -19.103;  -38.814
596.008;  -57.208; -464.111; -434.800
596.284;   15.466; -187.100; -242.820
596.560;   21.375; -501.093; -493.833
596.836;  149.644; -173.105;  -70.810
597.112;  269.569; -582.108; -437.805
597.388;  211.692;  -49.097;  -48.826
597.665;   89.454;  437.887;  530.203
597.941;  -59.771; -572.089; -658.839
598.217;   -3.145; -323.110; -293.802
598.493;  187.489;   61.891; -204.804
598.769;  414.785; -175.100;  -50.819
599.045;  223.347; -490.108; -562.806
599.321;   31.440; -193.100; -261.820
599.597;   95.814; -355.109; -476.804
599.872;  379.756;  409.896;  429.187
600.148;  283.093;  -61.097; -172.826
600.424;  209.202;   91.893;  202.193
600.700;  171.104; -170.107; -280.807
600.976;   82.187; -442.097; -464.825
601.252;  176.085; -226.109; -272.803
601.527;  145.207; -833.104; -840.813
601.803;   94.299; -453.105; -404.812
602.079;  140.235; -124.100; -118.819
602.354;  439.660; -620.092; -531.835
602.630;  620.276; -140.113; -482.796
602.906; 1757.356; -910.101; -863.818
603.181; 5239.328; -627.119; -534.786
603.457; 4479.241;   98.903; -278.826
603.733;  627.862; -605.120; -626.783
604.008;  742.516; -245.106; -164.810
604.284; 2483.277; -636.101; -580.817
604.559; 2107.012;   -3.112;  -42.799
604.835;  367.119; -163.105; -225.810
605.110;  299.495; -732.099; -892.821
605.385;  560.703;  224.907;  267.167
605.661;  481.307; -625.095; -729.829
605.936;  839.873; -664.108; -737.806
606.211;  758.166;  -17.103; -170.815
606.487;  149.766; -329.114; -376.794
606.762;  -10.422; -791.119; -745.786
607.037;  -45.131; -501.105; -433.810
607.313;  -56.649; -589.096; -574.828
607.588;  -14.560; -375.106; -137.810
607.863;   21.830;  -28.101; -143.818
608.138;  135.804;  513.890;  516.198
608.413;    2.774; -576.099; -592.822
608.688;   20.694; -203.108; -267.805
608.964;  136.735; -509.106; -218.809
609.239;  175.616; -107.105; -212.810
609.514;  180.099;  281.895;  240.188
609.789;  491.203; -187.104; -716.812
610.064;  696.474; -435.096; -609.827
610.339;  642.461; -855.109; -799.804
610.614;  869.990; -131.100; -315.820
610.889;  506.324;  215.895;  107.188
611.163;   19.875; -407.104; -591.812
611.438;   59.667;   81.886; -167.794
611.713;    1.802; -467.101; -499.817
611.988;   39.404; -144.101; -328.818
612.263;  -56.607; -771.102; -717.815
612.538;  166.426;  385.887;  251.204
612.812;   99.317; -832.100; -911.820
613.087;   75.504; -358.098; -338.823
613.362;  -58.421; -497.107; -557.807
613.637;   27.937;  261.897;  138.186
613.911;  -18.890; -256.092; -345.835
614.186;   78.028; -249.107; -292.807
614.460;  490.152; -842.081; -758.854
614.735;  569.902;  -55.087;  -17.843
615.010;  109.017;   43.912;  -82.841
615.284;  194.693;  360.892;  246.195
615.559;  254.109; -792.092; -955.835
615.833;  207.622;  -76.099;  -87.822
616.108;  -15.529; -225.090; -390.837
616.382;  103.728;  274.913;  402.156
616.656;  105.996; -241.090; -232.837
616.931;  377.648; -785.099; -700.822
617.205;  820.957; -973.104; -979.813
617.480;  752.948;  -91.125;    6.225
617.754;  109.596; -396.125; -128.774
618.028;  -13.933; -369.129; -382.768
618.302;   47.567;   73.892;  -25.805
618.577;  -63.586; -371.103; -518.815
618.851;  -61.617; -399.109; -600.803
619.125;  -57.901; -335.134; -378.759
619.399;  -52.417; -244.104; -374.813
619.673;  -43.519; -330.115; -515.792
619.947;  -50.105; -333.114; -448.795
620.222;  -37.726; -198.110; -204.801
620.496;  -13.640;  -47.121;  -96.782
620.770;   -4.924; -187.122;  -93.781
621.044;  174.342;  323.895;  346.190
621.318;  575.062; -653.120; -614.783
621.592;  502.385; -430.121; -409.783
621.866;  239.463; -476.112; -572.799
622.140;   -2.051; -207.116; -356.791
622.413;   33.792;  138.889;  112.200
622.687;  -62.798; -746.101; -492.817
622.961;    2.092; -130.108; -143.805
623.235;  -64.057; -633.111; -661.800
623.509; -105.476; -816.105; -848.811
623.783;  -10.625;  -12.107;   48.193
624.056;  -30.837; -254.120; -280.783
624.330;   43.281;   63.888;   -3.797
624.604;   28.296; -271.116; -355.790
624.877;   48.928;  180.890;   26.198
625.151;   14.540; -249.114; -238.794
625.425;  -32.491; -150.103; -283.814
625.698;  -56.652; -367.119; -374.785
625.972; -100.545; -799.110; -765.802
626.245;   68.723;  685.884;  484.210
626.519;  -41.483; -426.120; -340.784
626.792;  -43.546; -192.107; -380.807
627.066;  -88.956; -485.122; -662.779
627.339; -105.174; -736.110; -663.802
627.613;   25.091;  351.880;  148.216
627.886;   53.957;  187.891; -612.803
628.160;   -6.863;  312.880; -161.783
628.433;  -89.174; -695.125; -703.775
628.706;  -93.658; -517.120; -615.784
628.979;   17.933;  296.876;  117.223
629.253;  -89.298; -785.119; -833.786
629.526;  248.786; -334.126; -253.772
629.799;  231.190; -641.123; -479.778
630.072;  105.719; -497.128; -516.769
630.346;  -92.752;-1115.116;-1080.790
630.619;  306.705; -467.107; -545.808
630.892;  503.993;  709.889;  593.200
631.165;  273.957;  790.896;  679.187
631.438;  -87.990;-1092.112;-1055.798
631.711;   45.418;  453.877;  257.221
631.984;  -59.457; -523.117; -624.789
632.257;  -88.910; -636.117; -681.789
632.530;  -45.577; -412.119; -433.785
632.803;   11.213; -109.115;    7.207
633.076;  -78.214; -360.123; -422.777
633.349;   -1.052;  173.872;  121.231
633.622;  -38.903; -187.119; -240.785
633.895; -141.712; -903.120; -823.783
634.167;  -64.112; -496.126; -525.773
634.440;  -18.846;  -19.116; -137.792
634.713;  -11.824;  -22.119; -120.786
634.986;   68.788;  593.871;  453.233
635.258;  -73.239; -507.115; -597.793
635.531;   77.011;  742.882; -343.788
635.804;  -24.033; -303.117; -318.789
636.077;  -91.875; -830.116; -852.791
636.349;  -22.991; -586.115; -474.793
636.622;  330.160; 1695.874; 1392.228
636.894;  151.418; -474.120; -909.784
637.167;   83.929; -836.127; -789.771
637.439;   18.826; -278.128; -213.770
637.712;  -51.488; -312.126; -293.772
637.984;  -82.774; -635.116; -707.791
638.257;  319.587;  515.877;  488.222
638.529;  471.727; -881.125; -924.776
638.802;  195.168; -508.128; -449.769
639.074; -124.774; -927.122; -952.781
639.346; -133.285; -942.135; -930.757
639.619;   -5.073;  -79.142; -319.744
639.891;   -2.305;  -83.122; -168.779
640.163;  -82.354; -689.122; -756.780
640.435;   22.748;  273.878;  103.220
640.708;   -2.600;  -72.122; -132.780
640.980;  -35.598; -366.122; -362.781
641.252;  156.629;  -25.121;  -71.781
641.524; 1546.905;  580.879;  573.219
641.796; 1564.307;-1094.121; -907.782
642.068;  281.309; -191.121; -300.782
642.340;  -47.139; -486.121; -566.783
642.613;   29.662;  294.880;  323.217
642.885; -117.086; -787.120; -878.783
643.157;  -52.134; -810.120; -658.784
643.428;   60.468;  170.880;  218.216
643.700;  -73.555; -498.120; -425.784
643.972;  -33.204;  -16.119; -133.785
644.244;  -96.027; -474.119; -559.785
644.516;  -48.800; -250.119; -114.786
644.788;   47.602;  662.881;  548.214
645.060;  -22.471;  -12.119; -124.786
645.332; -103.170; -525.118; -535.787
645.603;   26.832;  479.882;  342.213
645.875;  -74.366; -334.118; -369.787
646.147;  151.936; 1487.882; 1242.212
646.418;  -86.437; -931.117; -918.788
646.690;   70.214; -714.117; -715.789
646.962;    3.416; -413.117; -451.789
647.233;  -17.357;   15.883;   11.211
647.505;  -91.930; -595.117; -475.790
647.776;   20.072;  328.884;  229.210
648.048;  -18.052; -248.116; -418.790
648.320;  -82.775; -752.116; -679.791
648.591; -157.823;-1055.116; -958.791
648.862;  -76.721; -505.116; -577.792
649.134;    0.030;  115.885;  198.208
649.405;  -62.968; -661.115; -618.792
649.677;  -59.741; -475.115; -598.793
649.948;   -7.789; -181.115; -296.793
650.219;   -9.762;  -37.115; -147.793
650.491;  -81.761; -431.114; -520.794
650.762;  -99.109; -705.114; -731.794
651.033;  -92.057; -437.114; -424.795
651.304;  -90.730; -743.114; -728.795
651.576;  -64.278; -680.114; -645.795
651.847;  -46.152; -250.113; -140.796
652.118;  -21.800;  -32.113; -189.796
652.389; -112.523; -639.113; -722.796
652.660;  -38.421; -147.113;  -89.797
652.931; -142.419; -897.112; -871.797
653.202;  -91.618; -382.112; -541.798
653.473;  -69.791; -633.112; -533.798
653.744;  109.761; -595.112; -590.798
654.015;   94.213; -356.112; -303.799
654.286;  -71.485; -642.111; -663.799
654.557;  -72.684; -586.111; -521.799
654.828; -148.107;-1114.111;-1088.800
655.099;  -80.030; -404.111; -291.800
655.370; -105.378; -427.111; -543.801
655.641; -112.052; -656.110; -714.801
655.911; -103.200; -618.110; -638.801
656.182;   42.377;  437.890;  387.198
656.453;  102.654;  830.890;  746.198
656.724;  -76.544; -466.110; -426.802
656.994;  -86.668; -553.109; -568.803
657.265; -118.941; -862.109; -873.803
657.536;  -83.539; -500.109; -377.804
657.806;  -98.612; -561.109; -593.804
658.077; -130.585; -866.109; -950.804
658.347;  -87.409; -523.108; -598.805
658.618; -116.582; -646.108; -694.805
658.888;  -26.380;  -41.108;  112.195
659.159;  -77.503; -432.108; -548.806
659.429;  -27.526; -292.108; -349.806
659.700;  -13.425; -435.107; -390.807
659.970;  -18.173; -370.107; -359.807
660.241;  -29.796; -754.107; -921.807
660.511;  388.656; -147.107; -174.808
660.781;   57.583; -793.106; -748.808
661.052;  -56.041; -222.106; -381.808
661.322;  -17.539;   21.894;   -9.809
661.592;    6.263;  257.894;  148.191
661.862;  -88.110; -369.106; -382.810
662.133;  -84.934; -551.105; -502.810
662.403; -123.132; -770.105; -676.810
662.673;  -60.230; -256.105; -213.811
662.943;  -99.478; -612.105; -551.811
663.213;  -15.526;  -85.105;  -81.811
663.483;  -73.375; -593.104; -568.812
663.753;  -44.673; -194.104; -152.812
664.023;   -4.171;   68.896;  -32.813
664.293;  -64.794; -319.104; -126.813
664.563; -108.392; -694.104; -648.813
664.833; -123.766; -743.103; -608.814
665.103; -121.664; -730.103; -793.814
665.373; -123.462; -766.103; -806.814
665.643;  -91.560; -863.103; -918.815
665.913;   12.917; -534.103; -714.815
666.182;   88.918; -685.102; -719.816
666.452;  215.570;  -22.102;  -89.816
666.722;  -36.853; -724.102; -784.816
666.992; -124.951; -948.102; -921.817
667.261;  -89.699; -824.102; -808.817
667.531;  194.227;  134.899;   45.183
667.801;  534.179; -440.101; -412.818
668.070;  233.056;  714.899;  697.182
668.340; -116.092; -883.101; -840.819
668.609;   72.834;  588.900;  301.181
668.879;  -79.939; -490.100; -558.819
669.149;  -84.437; -539.100; -516.820
669.418; -101.085; -698.100; -726.820
669.688;  -49.183; -482.100; -666.820
669.957;   31.018; -423.099; -546.821
670.226;  -27.405; -268.099; -331.821
670.496;  -97.153; -431.099; -635.822
670.765;  -81.976; -418.099; -501.822
671.034; -133.649; -872.099; -828.822
671.304;  -10.198;   55.902; -111.823
671.573; -165.721;-1085.098; -957.823
671.842;   47.656; -380.098; -294.823
672.112;   -7.092; -692.098; -586.824
672.381;  -10.640; -239.098; -214.824
672.650; -129.639;-1005.097;-1021.825
672.919;  -97.537; -631.097; -507.825
673.188; -102.285; -681.097; -878.825
673.457; -163.033;-1101.097;-1143.826
673.726;  -82.781; -579.096; -646.826
673.995;  -49.305; -533.096; -479.826
674.265;  -24.678; -263.096; -333.827
674.534;  -14.201; -183.096; -235.827
674.802;   -7.949; -618.096; -703.828
675.071;  713.703; -886.095; -801.828
675.340; 3109.929; -464.095; -339.828
675.609; 1023.256;  103.905;   82.171
675.878;   32.858; -949.095; -893.829
676.147;   10.885;  -26.095;   -8.829
676.416;   48.686; -210.094; -294.830
676.685;  572.863; 1000.906; -622.830
676.953;   46.215; -603.094; -452.831
677.222;  -31.533; -193.094; -273.831
677.491;  -15.781;  -24.094; -127.831
677.759;  -19.680;   11.907;  172.168
678.028;  -23.478; -279.093; -222.832
678.297;  -11.751;   71.907;  197.168
678.565; -142.974; -898.093; -944.833
678.834;  -72.922; -311.093; -268.833
679.102;  -94.421; -411.092; -391.834
679.371; -148.919; -898.092; -727.834
679.639; -123.267; -797.092; -786.834
679.908; -130.040; -794.092; -724.835
680.176; -153.563; -895.091; -941.835
680.445;  -69.487; -346.091; -352.835
680.713;   -4.310;  -58.091;  -23.836
680.982;  -95.433; -523.091; -525.836
681.250;  -96.781; -578.091; -507.837
681.518; -100.204; -534.090; -751.837
681.787;  -24.203; -204.090; -167.837
682.055;  -65.201; -490.090; -422.838
682.323; -154.674; -993.090; -992.838
682.591;    7.353; -216.090; -538.838
682.859;   56.129;    9.911;  -35.839
683.128;   17.531;  232.911;  497.161
683.396; -160.892;-1102.089;-1122.840
683.664;  -39.090; -241.089;   21.160
683.932;   -7.138;  144.911;  -76.840
684.200;  -86.912; -576.088; -320.841
684.468;  -35.585;  -73.088; -124.841
684.736;  -22.583; -214.088; -175.841
685.004; -120.356;-1024.088; -982.842
685.272;  -70.529; -880.088; -774.842
685.540;  -88.428; -499.087; -557.843
685.808;  -91.001; -651.087; -682.843
686.076; -110.724; -894.087; -969.843
686.343;  -86.147; -601.087; -815.844
686.611;   19.805; -195.087; -224.844
686.879;  326.406; -530.086; -553.844
687.147; 2643.283; -483.086; -480.845
687.414;  756.535;  -12.086; -169.845
687.682;  -17.788; -658.086; -757.846
687.950;  245.314;  259.915;  263.154
688.217;  -10.285; -792.085; -760.846
688.485;  -17.208; -632.085; -636.847
688.753;  387.069;  -11.085; -102.847
689.020;  101.546; -820.085; -851.847
689.288; -106.953; -853.084; -787.848
689.555;  -36.426; -195.084; -148.848
689.823;  -49.074; -241.084; -345.849
690.090;  -89.772; -546.084; -651.849
690.358; -144.445; -877.084; -897.849
690.625;   -6.994;  120.917;   45.150
690.892;  -64.842; -403.083; -369.850
691.160;  -15.040;   72.917;  -35.850
691.427;   -2.738;  141.917;  130.149
691.694; -139.586; -855.083; -929.851
691.962; -147.435;-1177.082;-1060.852
692.229;    2.692;  127.918;   56.148
692.496;   59.919;  130.918;  -49.852
692.763;    7.446; -164.082; -201.853
693.031;  -75.902; -739.082; -716.853
693.298;  -50.051; -509.081; -368.853
693.565;  216.776; -155.081; -163.854
693.832;  987.753;   -5.081;   -9.854
694.099;  105.055; -643.081; -642.855
694.366;  -52.543; -882.081; -896.855
694.633;  -43.817; -920.080; -633.855
694.900;  693.660; 4367.920; -114.856
695.167;  329.887; -214.080; -380.856
695.434;   81.839; -646.080; -623.856
695.701;  176.815;  121.921;  -61.857
695.968;  388.667; -365.079; -361.857
696.234;  910.769; -415.079; -646.858
696.501;10250.671; -776.079; -614.858
696.768; 5405.523; -554.079; -617.858
697.035;  324.699; -632.078; -667.859
697.302;   23.101; -448.078; -552.859
697.568;    5.353; -458.078; -497.859
697.835;  -47.645; -683.078; -624.860
698.102;  -18.118; -498.078; -407.860
698.368;   77.758;  384.923;  396.139
698.635;  -46.165;  -47.077; -424.861
698.901;  -24.538; -240.077; -348.861
699.168;   26.189; -534.077; -456.862
699.435;   63.091;  -72.077;  -13.862
699.701; -105.033; -868.076; -764.862
699.968;    8.169;  144.924; -441.863
700.234; -115.754; -783.076; -822.863
700.500;  -55.252; -448.076; -539.864
700.767;   -6.975;   -1.075;   26.136
701.033; -125.249;-1015.075; -963.864
701.299;  -53.222; -450.075; -483.865
701.566;  114.030;  950.925;  763.135
701.832;   16.907;  -31.075;  -76.865
702.098; -109.842;-1054.074;-1034.866
702.365;  -94.965;-1098.074;-1030.866
702.631;  -50.863;-1038.074;-1063.867
702.897; 1162.214; -765.074; -676.867
703.163; 2029.116;  348.926;  254.133
703.429;  152.717; -256.073; -273.868
703.695;  -36.756; -796.073; -792.868
703.961;    9.371; -214.073; -210.868
704.227;  -56.802; -630.073; -725.869
704.493;  117.225;  613.927;  510.131
704.759;  -17.624; -565.072; -540.870
705.025;   25.028; -203.072; -194.870
705.291;   -8.345; -666.072; -562.870
705.557;  190.607;  719.928;   34.129
705.823;   50.934; -742.072; -694.871
706.089;  152.110; -307.071; -326.871
706.355;  354.587; -315.071; -244.872
706.620; 5862.414; -776.071; -729.872
706.886; 8290.766; -309.071; -362.873
707.152;  727.093; -818.070; -973.873
707.418;    0.369;-1153.070;-1186.873
707.683;   -3.979; -550.070; -530.874
707.949;  -39.802; -547.070; -578.874
708.215;   -7.175; -129.070; -207.874
708.480;  -31.499; -520.069; -420.875
708.746;   59.178;   68.931;   28.125
709.011;  -76.895; -578.069; -612.876
709.277;  -71.393; -538.069; -543.876
709.542;  -55.641; -428.069; -387.876
709.808;   -2.015;  -59.068;   89.123
710.073;  -79.438; -577.068; -695.877
710.339;  -36.486; -242.068; -228.877
710.604;   52.041; -780.068; -845.878
710.869;  283.268; -277.068; -366.878
711.135;  -71.131; -715.067; -628.879
711.400;  -91.179; -507.067; -608.879
711.665;  -76.852; -404.067; -479.879
711.931;  -96.200; -661.067; -677.880
712.196; -110.373; -876.067; -954.880
712.461;   67.578; -402.066; -490.880
712.726;  106.655; -727.066; -771.881
712.991;  -86.943; -647.066; -664.881
713.256;  -51.541; -350.066; -332.882
713.521;  -55.239; -417.065; -381.882
713.787;  -55.438; -454.065; -472.882
714.052;  -32.936; -214.065; -400.883
714.317;  -71.859;-1045.065; -981.883
714.581; 1063.543; -374.065; -268.883
714.846; 1570.245; -822.064; -888.884
715.111;  136.971;  261.936;  257.116
715.376;  -29.852;  -86.064; -223.885
715.641;  -18.200; -365.064; -367.885
715.906;  252.127;   15.936; -551.885
716.171;   97.178;  221.937;  209.114
716.436;   28.180;  -78.063; -104.886
716.700; -111.218; -818.063; -692.886
716.965; -134.666; -794.063; -807.887
717.230;  -77.339; -339.063; -392.887
717.494;  -30.988;  -40.062; -134.888
717.759; -101.286; -784.062; -640.888
718.024;  -17.709;  269.938;  250.112
718.288;   75.818;  685.938;  395.111
718.553; -132.405; -803.062; -977.889
718.817; -157.329; -883.061; -899.889
719.082;  -33.477; -115.061; -125.890
719.346; -150.450;-1000.061; -947.890
719.611;  -45.848; -300.061; -255.891
719.875;  -98.096; -568.060; -537.891
720.140;  -80.370; -453.060; -603.891
720.404;   20.632; -136.060; -249.892
720.668;  674.134; -475.060; -411.892
720.933;  271.086;  146.940;  137.108
721.197; -102.437; -667.059; -600.893
721.461; -138.086; -851.059; -826.893
721.725;  -12.134;  -21.059; -250.894
721.990;  -66.557; -284.059; -204.894
722.254;  -30.455;  -26.059; -108.894
722.518;  -85.529; -286.058; -442.895
722.782; -100.027; -743.058; -594.895
723.046;  111.400;  614.942;  570.105
723.310;   13.552;  374.942;  210.104
723.574; -100.346; -654.058; -614.896
723.838;  -99.145; -576.057; -642.897
724.102;  -39.968; -226.057; -239.897
724.366; -136.641;-1032.057; -978.897
724.630;  -94.639; -749.057; -571.898
724.894;  -82.562; -722.057; -514.898
725.158;  -11.561;   38.944; -295.898
725.422;  -63.934; -394.056; -327.899
725.685;  -65.382; -441.056; -349.899
725.949;  -80.830; -566.056; -519.900
726.213;  -82.378; -732.056; -811.900
726.477;   97.973;-1020.055; -933.900
726.740;  115.300; -274.055; -104.901
727.004;  289.327; -384.055; -510.901
727.268; 3367.979; -442.055; -400.901
727.531; 1023.781; -961.055; -775.902
727.795;  -42.518; -713.054; -673.902
728.059;  -66.166; -552.054; -557.903
728.322;  -81.839; -841.054; -669.903
728.586;    0.288; -692.054; -701.903
728.849; -101.336; -695.053; -756.904
729.112; -115.709; -812.053; -912.904
729.376; -127.757; -959.053; -905.904
729.639;  -68.080; -536.053; -536.905
729.903; -108.103; -733.053; -699.905
730.166;  -56.327; -437.052; -399.906
730.429;  -25.475; -317.052; -468.906
730.693;  -67.623; -355.052; -894.906
730.956;  183.004;  810.948;  651.093
731.219;  595.481; -310.052; -103.907
731.482;   72.257;-1003.051; -894.907
731.745;   51.309; -794.051; -935.908
732.009;   19.686;  -30.051;   50.092
732.272; -102.062; -904.051; -771.909
732.535;  -52.785; -300.051; -310.909
732.798; -153.009;-1083.050;-1166.909
733.061;  -72.257; -430.050; -456.910
733.324;    0.970;   31.950; -180.910
733.587;   65.647;  290.950;  365.090
733.850;  -65.751; -973.049;-1050.911
734.113;   15.575;   33.951;   32.089
734.376;   -7.598; -328.049; -447.912
734.639;  199.429; 1188.951; 1011.088
734.901;   52.631; -180.049; -402.912
735.164;  375.707; -883.048; -837.913
735.427; 1123.359; -166.048; -355.913
735.690;  105.211; -205.048; -234.913
735.952;  -40.962; -923.048; -925.914
736.215;  -43.985;-1113.048;-1009.914
736.478;   14.941; -771.047; -774.915
736.740;  171.543;   33.953;  129.085
737.003;  499.470; -658.047; -672.915
737.266; 3358.697;  -94.047;   46.084
737.528;  377.974; -682.047; -660.916
737.791;  288.725; -316.046; -327.916
738.053;  753.452;  465.954;  649.083
738.316;10210.979; -162.046; -136.917
738.578; 7753.431; -770.046; -736.918
738.841;  425.333; -382.046; -446.918
739.103;  155.834; -875.045; -777.918
739.365;  442.636;   79.955;  -69.919
739.628;   -5.112; -884.045; -805.919
739.890;  -37.010; -758.045; -710.919
740.152;  -40.358; -692.044; -754.920
740.414;   -2.582; -408.044; -359.920
740.677;  -43.555; -785.044; -634.921
740.939;  -47.003; -587.044; -487.921
741.201;  193.474; -432.044; -572.921
741.463;   -2.475; -689.043; -745.922
741.725;    0.727;  -21.043; -199.922
741.987;   37.254;  220.957;  116.078
742.249;   -4.669; -751.043; -859.923
742.511;  142.258; -703.043; -794.923
742.773;   -2.391; -546.042; -546.924
743.035;  125.811;  796.958;  533.076
743.297;  -63.262; -963.042;-1013.924
743.559;  637.565; -278.042; -262.925
743.821;   40.517; -735.042; -744.925
744.083;    7.868;  -44.041; -149.925
744.345; -102.330; -869.041; -892.926
744.607;   33.497;   75.959;  122.074
744.868;  -47.176; -490.041; -554.927
745.130; -121.424; -994.041;-1008.927
745.392;   22.927;   -1.040;  -44.927
745.653;  -18.971; -411.040; -378.928
745.915;  136.381;  896.960;  631.072
746.177;   57.408;   35.960;  -43.928
746.438;   -6.965; -428.040; -543.929
746.700;  -62.014; -947.039; -988.929
746.961;    9.038; -659.039; -740.930
747.223;  118.015; -190.039;  -74.930
747.484;   79.517; -391.039; -471.930
747.746;  117.968;  -23.038; -106.931
748.007;   91.095; -647.038; -689.931
748.269;  240.472; -468.038; -440.931
748.530;  416.299; -852.038; -638.932
748.791;  235.376; -354.038; -420.932
749.053;  384.177;  286.963;  163.067
749.314;  399.504; -236.037; -169.933
749.575;  459.456; -945.037; -905.933
749.836;  760.483; -217.037;   86.066
750.098; 2046.260;  -60.037;  -21.934
750.359;32144.886;  414.964;  555.066
750.620; 8973.813; -121.036; -220.935
750.881;  925.815; -585.036; -513.935
751.142; 1210.292; -950.036; -938.936
751.403;15424.819; -789.036; -705.936
751.664; 7502.470;-1034.035; -999.936
751.925;  475.747; -175.035; -262.937
752.186;  257.224; -298.035; -278.937
752.447;  118.076; -590.035; -445.937
752.708;   30.953; -532.035; -648.938
752.969;    3.154; -566.034; -576.938
753.230;  -13.794; -777.034; -672.939
753.491;   -1.092; -650.034; -631.939
753.751;   71.110;  109.966;   19.061
754.012;   78.586;  258.967;  181.060
754.273;   48.663; -174.033;  -71.940
754.534;   -4.685; -487.033; -580.940
754.794;  -91.058; -926.033; -911.941
755.055;  131.844; 1051.967;  881.059
755.316;  -41.130; -700.032; -566.942
755.576;  -33.253; -606.032; -576.942
755.837;  -55.251; -527.032; -695.942
756.097;  -49.974; -530.032; -564.943
756.358;  -67.922; -725.032; -770.943
756.618;  -51.296; -705.031; -641.943
756.879;   -3.544; -254.031; -349.944
757.139; -120.092;-1098.031;-1116.944
757.400;  -55.940; -538.031; -553.945
757.660;  -25.488; -365.031; -401.945
757.920;   -0.437; -266.030; -228.945
758.181;   -5.285; -468.030; -351.946
758.441;  -87.533; -870.030; -809.946
758.701;  -35.856; -308.030; -215.946
758.961;  -23.754; -220.030; -278.947
759.222;  -52.678; -574.029; -502.947
759.482;  -72.476; -683.029; -723.948
759.742;  -89.249; -706.029; -547.948
760.002;   -7.972;  -83.029; -143.948
760.262;   27.230;   50.972;  182.051
760.522;  -35.019; -498.028; -574.949
760.782;  -69.642; -738.028; -612.949
761.042;  -34.765; -618.028; -573.950
761.302;   36.387;   55.972;  -18.950
761.562;   52.538; -164.027; -154.951
761.822;   60.040; -710.027; -551.951
762.082;  -37.783;-1104.027;-1093.951
762.342;   68.444; -328.027; -403.952
762.601;   72.621; -567.027; -506.952
762.861;  307.622; -281.026; -207.952
763.121;  387.649; -406.026; -411.953
763.381; 6882.601; -499.026; -485.953
763.640; 8452.053; -139.026; -307.954
763.900;  357.455; -242.026; -203.954
764.160;   88.306; -458.025; -491.954
764.419;   -4.267; -726.025; -782.955
764.679;  -75.715; -795.025; -726.955
764.939;   -5.588; -124.025; -210.955
765.198;  -73.461; -608.025; -563.956
765.458;  -78.735; -710.024; -612.956
765.717;  -75.883; -454.024; -590.957
765.976;  -61.781; -428.024; -411.957
766.236;  -76.854; -475.024; -610.957
766.495;   12.198;  260.977;   73.042
766.755; -100.276;-1090.023; -987.958
767.014;  -10.324; -594.023; -665.958
767.273;  -56.197; -373.023; -397.959
767.533;  -45.070; -228.023; -307.959
767.792;  -32.344; -151.022; -188.960
768.051;  -71.117; -228.022; -276.960
768.310;  -84.540; -546.022; -650.960
768.569;  -14.113; -161.022;    4.039
768.828;  -36.061; -285.022; -363.961
769.088; -116.285;-1050.021; -942.961
769.347;  -82.383; -755.021; -599.962
769.606;  -89.156; -876.021; -857.962
769.865;  -95.604;-1016.021;-1033.963
770.124;   -4.327; -411.021; -336.963
770.383;  -35.926; -778.020; -910.963
770.641;   -8.599; -398.020; -400.964
770.900;  -49.547; -953.020; -846.964
771.159;  -41.720; -851.020; -951.964
771.418;  -12.943; -917.020; -779.965
771.677;  143.133; -224.019; -293.965
771.936;  163.835; -794.019; -865.966
772.194; 2196.587; -465.019; -437.966
772.453;12015.164; -213.019; -391.966
772.712;  855.241;  416.982;  329.033
772.970;  126.117;   32.982;   63.033
773.229;   95.269;  -22.018;  102.033
773.488;  -68.154; -814.018; -770.968
773.746;   51.598;  296.982;  335.032
774.005;    5.999;  190.983;  -22.969
774.263;   -1.799;  243.983;  177.031
774.522;  -42.422; -422.017; -548.969
774.780;  -76.370; -484.017; -417.970
775.039;  -94.343; -551.017; -531.970
775.297;  -18.617; -135.016; -351.970
775.555;  -94.590; -489.016; -612.971
775.814; -101.213; -618.016; -570.971
776.072; -117.586; -749.016; -740.971
776.330; -108.959; -630.016; -520.972
776.589; -102.583; -703.015; -721.972
776.847; -118.756; -645.015; -624.973
777.105; -168.204;-1016.015;-1032.973
777.363;  -94.127; -459.015; -454.973
777.621; -129.200; -660.015; -717.974
777.879;  -39.874;  -42.014;   32.026
778.138; -106.622; -554.014; -717.974
778.396;  -94.395; -585.014; -526.975
778.654; -173.318;-1015.014; -970.975
778.912;  -77.741; -269.014; -371.976
779.170; -124.290; -880.013; -803.976
779.427; -158.163; -922.013; -897.976
779.685; -145.311; -880.013; -832.977
779.943;  -85.984; -654.013; -593.977
780.201; -146.308; -964.012; -883.978
780.459; -115.556; -651.012; -610.978
780.717;  -88.079; -440.012; -390.978
780.974; -111.277; -449.012; -490.979
781.232;  -68.350; -358.012; -338.979
781.490;  -82.249; -551.011; -472.979
781.747;  -83.847; -555.011; -476.980
782.005;   12.955;  462.989;  254.020
782.263; -158.943; -542.011;-1004.981
782.520;  -88.591; -326.011; -501.981
782.778; -163.615;-1013.010;-1051.981
783.035; -161.863; -962.010; -938.982
783.293;  -65.611; -248.010; -206.982
783.550;  -64.634; -134.010; -198.982
783.808; -121.557; -764.010; -776.983
784.065; -166.256; -745.009; -874.983
784.322;  -47.554;   25.991;  -86.984
784.580; -133.477; -915.009; -771.984
784.837;  -97.750; -392.009; -466.984
785.094; -131.248; -783.009; -762.985
785.352;  -84.722; -304.008; -404.985
785.609; -125.295; -934.008; -839.985
785.866;  -84.043; -345.008; -401.986
786.123;  -92.441; -639.008; -583.986
786.380; -108.240; -665.008; -604.987
786.637;  -47.463; -225.007; -380.987
786.895;  -40.836; -456.007; -543.987
787.152;  -43.359; -135.007; -267.988
787.409;  -54.957; -123.007; -225.988
787.666;  -89.381; -299.006; -378.988
787.923; -115.179; -616.006; -695.989
788.179; -102.177; -551.006; -584.989
788.436; -110.950; -585.006; -585.990
788.693;  -30.848;  -92.006;  -87.990
788.950;   80.353; -125.005; -112.990
789.207;  155.705; -381.005; -372.991
789.464;  -53.468; -161.005; -301.991
789.720;   -8.166;  150.995;  110.009
789.977; -172.439;-1003.005; -671.992
790.234;  -41.938;   44.996;  -66.992
790.490; -162.911; -884.004;-1031.993
790.747;  -38.409;  -85.004;   22.007
791.004;  -35.557; -426.004; -348.993
791.260;  -89.905; -430.004; -560.994
791.517; -112.404; -843.003; -788.994
791.773;  -57.927; -379.003; -342.994
792.030; -110.600; -596.003; -660.995
792.286; -109.023; -686.003; -636.995
792.543;  -20.047;  -74.002; -159.995
792.799;  -69.020; -584.002; -382.996
793.055; -151.843;-1179.002;-1210.996
793.312;  -99.041; -827.002; -816.997
793.568;  -71.714; -746.002; -599.997
793.824;    8.937; -226.001; -284.997
794.081;    7.289; -447.001; -508.998
794.337;   60.841; -664.001; -561.998
794.593; 1118.093; -319.001; -271.999
794.849; 6346.670; -746.001; -772.999
795.105;  345.746; -270.000; -261.999
795.361;    2.098; -490.000; -457.000
795.617;  -75.075; -875.000; -945.000
795.873;  -59.650; -360.000; -407.000
796.129;  -47.275; -368.000; -306.000
796.385;  -30.650; -124.000; -156.000
796.641;   69.150;  412.000;  550.000
796.897;  -87.375; -666.000; -635.000
797.153;   50.325;  453.000;  357.000
797.409; -112.450; -785.000; -868.000
797.665;  -71.175; -625.000; -732.000
797.921;  -71.100; -775.000; -762.000
798.176;  -53.350; -744.000; -747.000
798.432;  -63.650; -824.000; -596.000
798.688;  -78.100;-1174.000;-1078.000
798.943;   80.725; -165.000; -147.000
799.199;    0.725;-1005.000; -959.000
799.455;  230.000;  369.000;  316.000
799.710;  144.150; -813.000; -380.000
799.966;  281.525; -162.000; -160.000
800.221;  489.925; -638.000; -721.000
800.477; 9633.150; -743.000; -710.000
800.732; 9905.825; -773.000; -800.000
800.988;  675.575;  205.000;  -19.000
801.243; 1896.775; -454.000; -344.000
801.498; 9546.725; -814.000; -739.000
801.754;  584.600; -289.000; -163.000
802.009;  103.050; -257.000; -335.000
802.264;  -33.825; -967.000;-1033.000
802.520;   29.025;  222.000;   -3.000
802.775;  -49.950; -524.000; -359.000
803.030;   47.675;  395.000;  356.000
803.285; -106.625; -840.000; -903.000
803.540;  -75.600; -686.000; -699.000
803.795;  -48.475; -648.000; -583.000
804.051;  -51.350; -279.000; -346.000
804.306;   21.125;  168.000;  128.000
804.561;  112.700;  451.000;  362.000
804.816;  116.650;  714.000;  861.000
805.071;  -11.625; -185.000; -280.000
805.325;  161.700; -257.000; -427.000
805.580; -112.325; -841.000; -877.000
805.835;  -20.250; -204.000; -297.000
806.090;  -89.825; -760.000; -676.000
806.345;  -15.425; -344.000; -264.000
806.600;  -32.675; -549.000; -632.000
806.854;  -40.150; -408.000; -538.000
807.109;  -14.175; -493.000; -577.000
807.364;   -5.350; -407.000; -328.000
807.618;  -16.600; -415.000; -381.000
807.873;   36.825; -470.000; -494.000
808.128;   87.800; -257.000; -518.000
808.382;  107.975; -224.000; -332.000
808.637;   58.075; -440.000; -511.000
808.891;  161.725; -257.000; -180.000
809.146;   99.825; -902.000; -794.000
809.400;  234.675; -848.000; -923.000
809.654;  305.600; -779.000; -551.000
809.909;  439.400; -841.000; -927.000
810.163; 5320.050; -813.000; -651.000
810.418;15876.075; -940.000; -861.000
810.672; 1036.875; -685.000; -690.000
810.926;  716.425; -993.000; -973.000
811.180; 1361.400; -439.000; -372.000
811.434;30887.450;  240.000;  135.000
811.689;14530.750; -231.000; -365.000
811.943;  678.575; -936.000; -953.000
812.197;  355.700; -893.000; -671.000
812.451;  131.050; -379.000; -514.000
812.705;  -18.375; -809.000; -619.000
812.959;  -18.450; -263.000; -388.000
813.213;   -7.125; -283.000; -209.000
813.467;   64.575;  470.000;  253.000
813.721; -104.925; -764.000; -792.000
813.975; -117.850; -826.000; -877.000
814.229;   39.025;  430.000;  353.000
814.482;  -72.150; -517.000; -566.000
814.736; -132.625; -766.000; -744.000
814.990; -126.975; -779.000; -872.000
815.244;  -48.550; -228.000; -285.000
815.497; -100.200; -636.000; -601.000
815.751;  -25.200; -141.000;   82.000
816.005;  -85.700; -470.000; -586.000
816.258;  -71.550; -510.000; -363.000
816.512; -110.250; -693.000; -610.000
816.766;    5.850;  121.000;  157.000
817.019;    1.650;  148.000;  149.000
817.273; -119.350;-1000.000; -802.000
817.526;  -30.100; -206.000; -173.000
817.779;  -72.825;-1049.000; -960.000
818.033;  -68.325; -693.000; -807.000
818.286; -125.875; -725.000; -792.000
818.540;  -74.475; -403.000; -403.000
818.793;  -83.400; -402.000; -489.000
819.046;  -96.175; -582.000; -520.000
819.299;  -57.950; -157.000; -166.000
819.553; -118.400; -552.000; -592.000
819.806; -166.525;-1016.000; -838.000
820.059;  -66.650; -334.000; -354.000
820.312;    3.250;  152.000;  185.000
820.565;  -19.775;  110.000;  -27.000
820.818;  -50.875;  -59.000; -173.000
821.071; -165.250;-1041.000; -957.000
821.324; -106.100; -536.000; -540.000
821.577; -100.825; -457.000; -483.000
821.830;  -79.225; -270.000; -172.000
822.083; -133.175; -733.000; -288.000
822.336;  -52.725; -261.000; -167.000
822.589; -142.425; -805.000; -688.000
822.842; -151.925; -875.000; -770.000
823.094; -184.075;-1076.000;-1114.000
823.347; -136.900; -925.000; -729.000
823.600;   18.800;  402.000;  187.000
823.853;  -68.000; -311.000; -267.000
824.105;  -81.125; -331.000; -575.000
824.358; -112.450; -617.000; -716.000
824.611;   19.925;  234.000;   40.000
824.863;  -71.850; -612.000; -591.000
825.116;   43.575;  -33.000;   27.000
825.368;   47.725; -366.000; -372.000
825.621;  145.425; -186.000; -240.000
825.873;   88.925; -704.000; -737.000
826.126;  511.175; -669.000; -641.000
826.378;10989.800; -389.000; -505.000
826.630; 3236.675; -890.000; -898.000
826.883;   53.250; -754.000; -693.000
827.135;   35.825; -279.000; -270.000
827.387; -110.750; -893.000; -839.000
827.639;  -39.300;  -86.000;   32.000
827.892; -120.975; -742.000; -582.000
828.144; -141.225; -848.000; -804.000
828.396;  -39.875;  104.000;  -80.000
828.648;  -94.475; -440.000; -333.000
828.900; -144.600; -702.000; -795.000
829.152; -114.900; -684.000; -683.000
829.404;  -66.100; -215.000; -267.000
829.656;  -13.500;  321.000;  214.000
829.908;  -26.225;  393.000;  229.000
830.160; -180.100;-1064.000;-1047.000
830.412; -115.400; -481.000; -430.000
830.664; -126.050; -557.000; -665.000
830.916;  -80.725; -268.000; -206.000
831.167; -166.600;-1073.000; -951.000
831.419; -122.725; -623.000; -566.000
831.671; -148.475; -764.000; -809.000
831.923;  -97.750; -311.000; -447.000
832.174;  -72.675; -273.000; -331.000
832.426; -117.900; -493.000; -582.000
832.678; -178.700;-1043.000;-1091.000
832.929; -160.700; -947.000; -935.000
833.181;  -85.525; -575.000; -677.000
833.432;  -52.325;  -59.000; -186.000
833.684;  -39.750;  112.000;  -27.000
833.935; -130.050; -610.000; -566.000
834.187; -129.275; -829.000; -823.000
834.438;  -57.650;  -58.000;  -25.000
834.689;  -63.800; -255.000; -123.000
834.941;  -65.900; -343.000; -244.000
835.192; -117.725; -590.000; -533.000
835.443; -121.750; -419.000; -506.000
835.695;  -19.375;  138.000;  -16.000
835.946; -111.025; -608.000; -378.000
836.197; -114.150; -599.000; -622.000
836.448;  -87.000; -528.000; -395.000
836.699;  -75.775; -253.000; -341.000
836.950;   -7.000;   72.000;    7.000
837.201; -146.875;-1003.000; -987.000
837.452;  -63.475; -356.000; -170.000
837.703; -115.925; -791.000; -737.000
837.954;  -51.450; -205.000; -365.000
838.205;  -80.475;-1029.000;-1008.000
838.456;  154.000; -196.000; -282.000
838.707;   -3.850; -423.000; -519.000
838.958;    0.850; -634.000; -647.000
839.209;  246.975;   18.000;   40.000
839.460;   98.550; -439.000; -201.000
839.710;  156.925; -135.000; -297.000
839.961;  401.725;  730.000;  612.000
840.212;  319.375; -382.000; -497.000
840.462; 1034.500; -328.000; -277.000
840.713;16868.900; -571.000; -536.000
840.964; 7993.225;  -62.000; -143.000
841.214;  483.850; -384.000; -624.000
841.465;  504.125; -214.000; -141.000
841.715;  448.225; -417.000; -380.000
841.966;  546.100; -746.000; -685.000
842.216; 6881.675; -330.000; -431.000
842.466;30562.425; -169.000; -313.000
842.717; 2039.600; -964.000; -952.000
842.967;  247.525; -635.000; -641.000
843.217;  247.800;   20.000;   28.000
843.468;   51.300; -104.000; -132.000
843.718;  -50.025; -718.000; -726.000
843.968;  -90.700; -837.000; -765.000
844.218;   -2.675; -315.000; -262.000
844.469;  -60.050; -577.000; -561.000
844.719; -109.300; -537.000; -682.000
844.969;  -97.625; -550.000; -580.000
845.219; -143.350; -814.000; -862.000
845.469;  -85.725; -392.000; -342.000
845.719; -148.000; -792.000; -884.000
845.969;  -40.650;  119.000;  174.000
846.219; -123.600; -738.000; -720.000
846.469;    9.125;  464.000;  432.000
846.718;  -46.375; -115.000;   31.000
846.968; -133.850; -827.000; -827.000
847.218;  -59.625; -224.000; -371.000
847.468;  -97.625; -586.000; -555.000
847.718; -138.775; -827.000; -798.000
847.967; -141.925; -826.000; -915.000
848.217;  -94.725; -449.000; -569.000
848.467;  -81.525; -405.000; -376.000
848.716; -105.850; -708.000; -725.000
848.966;  -21.875; -372.000; -358.000
849.215;  -61.275; -428.000; -419.000
849.465;  -96.525; -785.000; -615.000
849.714; -148.650;-1132.000;-1150.000
849.964;  -77.150; -551.000; -613.000
850.213;  -26.625; -393.000; -355.000
850.463;   58.275;  137.000;  340.000
850.712;    1.525; -542.000; -567.000
850.961;   -2.200; -739.000; -678.000
851.211;   92.550; -513.000; -504.000
851.460;  144.325; -635.000; -650.000
851.709;  527.200;  -25.000;   18.000
851.958; 9382.000; -912.000; -750.000
852.208;13485.550; -859.000; -879.000
852.457;  513.525; -181.000;  -13.000
852.706;   58.625; -791.000; -823.000
852.955;    2.175; -507.000; -528.000
853.204;  -75.600; -521.000; -461.000
853.453;  -88.875; -418.000; -458.000
853.702; -129.425; -660.000; -750.000
853.951; -104.475; -532.000; -520.000
854.200; -111.800; -613.000; -562.000
854.449; -139.125; -695.000; -661.000
854.698;  -87.625; -340.000; -279.000
854.946;  -83.400; -181.000; -284.000
855.195; -148.700; -843.000; -868.000
855.444;  -91.400; -395.000; -420.000
855.693; -131.175; -345.000; -432.000
855.941; -114.100; -387.000; -516.000
856.190;  -75.250; -256.000; -382.000
856.439; -143.400; -652.000; -703.000
856.687;  -66.900;  -99.000;  -72.000
856.936; -130.125; -621.000; -323.000
857.184; -189.475;-1067.000;-1020.000
857.433; -115.575; -423.000; -512.000
857.681; -170.700; -989.000; -953.000
857.930;  -72.350; -282.000; -433.000
858.178; -185.800; -856.000; -929.000
858.427; -148.400; -802.000; -781.000
858.675; -124.850; -377.000; -544.000
858.923; -113.375; -527.000; -819.000
859.172; -185.375;-1094.000;-1070.000
859.420;  -84.250; -339.000; -239.000
859.668; -122.500; -624.000; -628.000
859.916;  -30.975;  109.000;  115.000
860.164; -113.625; -699.000; -603.000
860.413;  173.475; -878.000; -696.000
860.661;  169.200; -709.000; -577.000
860.909;  -86.150; -339.000; -325.000
861.157;  -95.850; -277.000; -444.000
861.405; -141.175; -534.000; -670.000
861.653;   -9.075;  310.000;  310.000
861.901;   84.550; -543.000; -613.000
862.149;  -11.825; -801.000; -824.000
862.396;  -85.900; -297.000; -187.000
862.644;  -98.400; -368.000; -347.000
862.892;  -33.700;   98.000;  138.000
863.140; -115.600; -549.000; -530.000
863.388; -160.850; -815.000; -759.000
863.635; -142.600; -642.000; -601.000
863.883;  -17.175;  231.000;  190.000
864.131; -100.275; -288.000; -357.000
864.378; -146.850; -675.000; -540.000
864.626; -101.050; -347.000; -415.000
864.873; -126.125; -556.000; -505.000
865.121; -134.350; -714.000; -799.000
865.368;  -44.875; -173.000;   75.000
865.616;  -25.700;  -33.000;  -40.000
865.863;  -72.750; -462.000; -506.000
866.111;  -90.100; -795.000; -824.000
866.358;   48.750; -426.000; -420.000
866.605; 2505.000;  -64.000; -804.000
866.853; 3056.950; -621.000; -537.000
867.100;   -7.500; -728.000; -775.000
867.347;  -89.975; -672.000; -611.000
867.594; -100.475; -740.000; -714.000
867.841;   66.800;   97.000;   17.000
868.089; -143.625; -746.000; -698.000
868.336; -126.050; -477.000; -420.000
868.583; -145.175; -637.000; -741.000
868.830;  -53.175; -131.000; -170.000
869.077; -161.675; -859.000; -787.000
869.324; -136.600; -502.000; -458.000
869.571; -123.150; -398.000; -430.000
869.818; -128.625; -485.000; -439.000
870.065; -116.900; -439.000; -513.000
870.311; -136.775; -456.000; -542.000
870.558; -109.175; -332.000; -311.000
870.805;  -96.700; -320.000; -384.000
871.052; -114.250; -494.000; -369.000
871.298;  -66.325; -204.000; -131.000
871.545;  -72.950; -151.000; -185.000
871.792; -103.825; -173.000; -222.000
872.038;  -74.725;   43.000; -126.000
872.285; -129.125; -496.000; -387.000
872.532; -102.975; -357.000; -387.000
872.778;   -7.800;  556.000;  403.000
873.025;  -99.800; -384.000; -359.000
873.271;   19.775;  501.000;  578.000
873.517;  -45.525; -133.000; -209.000
873.764;  -47.600; -193.000;  -80.000
874.010;  -69.350; -143.000; -230.000
874.257;  -54.025;  123.000;   90.000
874.503; -141.700; -579.000; -479.000
874.749;  -76.250;   31.000;  275.000
874.995;  -70.850;  -80.000;  -20.000
875.242; -139.225; -540.000; -478.000
875.488; -124.875; -414.000; -439.000
875.734;  -65.650; -106.000; -234.000
875.980;   92.025; -872.000;-1032.000
876.226;  293.225; -157.000; -255.000
876.472;   -6.050;  343.000;  237.000
876.718;  -57.575;  184.000;  158.000
876.964;  -49.775;   56.000;   55.000
877.210; -149.000; -547.000; -677.000
877.456; -144.575; -630.000; -557.000
877.702; -158.300; -821.000; -832.000
877.948; -116.725; -377.000; -497.000
878.193;  -12.050;  361.000;  255.000
878.439; -102.100; -487.000; -472.000
878.685; -108.725; -272.000; -343.000
878.931; -125.850; -618.000; -676.000
879.176;  -84.425; -201.000; -201.000
879.422; -181.950; -933.000; -820.000
879.668;   23.925;   10.000;   79.000
879.913;  107.225;   53.000;  137.000
880.159;  -79.975; -112.000;  -17.000
880.404;  -54.850; -152.000; -162.000
880.650;  -44.800;   91.000;  141.000
880.895; -162.600; -670.000; -710.000
881.141; -133.025; -454.000; -428.000
881.386; -156.025; -503.000; -658.000
881.631;  -95.425; -311.000; -166.000
881.877;  -38.175;  112.000;  -13.000
882.122; -128.875; -684.000; -600.000
882.367;  -97.325; -136.000; -186.000
882.612;  -79.725;  -80.000; -176.000
882.858; -169.675; -877.000; -823.000
883.103;  -92.550; -297.000; -267.000
883.348; -160.250; -759.000; -852.000
883.593; -134.700; -677.000; -602.000
883.838;  -64.425; -311.000;  -24.000
884.083;   20.025;  353.000;  288.000
884.328;  -93.075; -564.000; -545.000
884.573;  -78.600; -196.000; -143.000
884.818;  114.300; -694.000; -531.000
885.063;  133.800; -348.000; -315.000
885.308; -103.075; -475.000; -398.000
885.553;  -22.000;  245.000;  325.000
885.797; -128.500; -545.000; -615.000
886.042;  -61.600;    8.000;   58.000
886.287;  -93.700; -253.000; -211.000
886.532;  -60.550;   26.000;  204.000
886.776; -106.200; -407.000; -525.000
887.021; -147.050; -621.000; -574.000
887.265; -150.525; -685.000; -689.000
887.510; -136.475; -557.000; -496.000
887.755;  -97.375; -194.000; -164.000
887.999; -136.725; -552.000; -575.000
888.244;  -62.525;  -58.000;  161.000
888.488;  -24.100;  371.000;  393.000
888.732; -117.250; -368.000; -520.000
888.977; -142.650; -622.000; -567.000
889.221; -156.350; -683.000; -659.000
889.465; -138.800; -422.000; -566.000
889.710;  -71.000;  -56.000; -299.000
889.954;  -11.350;  579.000;  467.000
890.198; -144.950; -584.000; -707.000
890.442; -155.800; -716.000; -712.000
890.687; -166.300; -800.000; -753.000
890.931;  -98.375; -273.000; -210.000
891.175; -132.225; -502.000; -500.000
891.419;  -79.950; -105.000; -110.000
891.663; -105.025; -239.000; -112.000
891.907; -171.425; -801.000; -545.000
892.151; -187.375; -920.000; -815.000
892.395; -118.775; -274.000; -387.000
892.638;  -15.150;  408.000;  291.000
892.882; -182.300; -780.000; -867.000
893.126;   16.300;  758.000;  558.000
893.370;  -94.275; -167.000; -168.000
893.614; -141.975; -714.000; -715.000
893.857; -103.300; -183.000; -197.000
894.101; -139.800; -527.000; -631.000
894.345;  -70.850;  300.000;  150.000
894.588;    3.975;  569.000;  380.000
894.832; -101.525; -178.000;  -84.000
895.075;  -85.725;   15.000;  -92.000
895.319; -128.925; -552.000; -420.000
895.563; -128.125; -413.000; -353.000
895.806; -166.875; -628.000; -741.000
896.049;  -80.425; -576.000; -368.000
896.293;   64.400;  527.000;  405.000
896.536;  -82.450; -465.000; -468.000
896.779;  -79.125; -149.000;   -1.000
897.023; -132.575; -751.000; -714.000
897.266;  -43.075;  325.000;  269.000
897.509; -186.750; -900.000; -901.000
897.752;  -53.325;  149.000;  171.000
897.996; -198.600; -972.000; -864.000
898.239;  -52.850;  168.000;  102.000
898.482; -131.350; -431.000; -453.000
898.725;  -55.550;  101.000;   53.000
898.968; -149.950; -609.000; -744.000
899.211; -124.725; -513.000; -361.000
899.454; -134.150; -633.000; -539.000
899.697;  -88.650;   90.000;  -43.000
899.940; -169.400; -761.000; -757.000
900.182; -116.250; -335.000; -405.000
900.425; -102.800; -150.000; -298.000
900.668;  -37.925;  491.000;  350.000
900.911; -104.225; -292.000; -345.000
901.154;  -53.325;  141.000;   -3.000
901.396; -148.375; -407.000; -412.000
901.639; -147.450; -430.000; -496.000
901.882; -187.100; -790.000; -809.000
902.124; -100.575;  -29.000; -143.000
902.367; -118.500; -315.000; -361.000
902.609; -138.250; -476.000; -453.000
902.852; -100.350; -108.000; -260.000
903.094; -130.725; -458.000; -337.000
903.337;  -73.700;  -26.000;   53.000
903.579; -108.775; -228.000; -441.000
903.821; -151.850; -597.000; -744.000
904.064;  -69.675;   85.000;  127.000
904.306;  -91.625; -126.000; -166.000
904.548; -115.850; -152.000; -366.000
904.790; -101.675; -195.000; -340.000
905.033; -124.825; -625.000; -577.000
905.275; -137.400; -513.000; -524.000
905.517;   20.025;  468.000;  256.000
905.759;  -82.875; -667.000; -761.000
906.001; -111.500; -322.000; -369.000
906.243;  -72.050; -162.000; -224.000
906.485;   57.500; -265.000; -207.000
906.727;   55.925; -499.000; -542.000
906.969;  -55.800;  -30.000; -135.000
907.211;   62.400; -316.000; -382.000
907.453;  195.875; -188.000; -237.000
907.695;  -14.725; -158.000; -385.000
907.936;   42.875;  818.000;  706.000
908.178;  -54.750;   92.000; -135.000
908.420;  -72.150; -111.000; -162.000
908.662; -137.375; -633.000; -682.000
908.903;  -89.050; -208.000; -123.000
909.145;  -55.050; -240.000; -305.000
909.386;   -1.050;  315.000;  280.000
909.628;   26.225;  363.000;  397.000
909.870;   -9.775;   29.000;  264.000
910.111; -103.975; -809.000; -949.000
910.353;   16.275; -123.000; -161.000
910.594;  -11.625; -574.000; -606.000
910.835;   77.775; -265.000; -326.000
911.077;  152.675; -503.000; -604.000
911.318;  274.775; -505.000; -471.000
911.559;  455.600; -577.000; -880.000
911.801; 1265.100; -284.000; -280.000
912.042; 9564.600;  -50.000; -159.000
912.283;27431.925;  404.000;  371.000
912.524; 4893.475; -396.000; -457.000
912.765;  505.975; -193.000;   79.000
913.006;  244.500; -307.000; -338.000
913.247;   54.050; -270.000; -290.000
913.488;   -8.100;  -43.000;   30.000
913.729;  -90.650; -373.000; -373.000
913.970;  -68.475;  -96.000; -292.000
914.211;  -75.625; -160.000; -198.000
914.452;  -64.875; -118.000;  -11.000
914.693;   -8.600;  510.000;  592.000
914.934;   17.050;  510.000;  440.000
915.175;  -74.950;   53.000;  -95.000
915.415;  -84.700; -137.000;   27.000
915.656;  -77.275;  -28.000;  192.000
915.897;  -99.925; -252.000;  -82.000
916.137;  -67.075;   74.000;   -9.000
916.378; -123.925; -573.000; -517.000
916.619;  -99.775; -159.000;  -63.000
916.859;  -25.750;  303.000;  330.000
917.100;  126.350; 1655.000; 1070.000
917.340;   49.050;  930.000;  728.000
917.581;   27.900;  965.000;  789.000
917.821;  -43.600; -171.000;  143.000
918.061;   -7.600; -199.000;  -72.000
918.302;  -53.400; -152.000; -211.000
918.542;  -33.200;  -22.000;    3.000
918.782;   26.100;  369.000;  377.000
919.023;  114.225;  360.000;  427.000
919.263; 1586.850; 8131.000;  202.000
919.503; 1034.950; -137.000;  -54.000
919.743;  506.300;  390.000;  266.000
919.983;  223.500; -134.000;  -26.000
920.223;   74.500;  135.000;   14.000
920.463;  144.700;  631.000;  554.000
920.703;  128.975;   84.000;   39.000
920.943;  163.950; -110.000;   90.000
921.183;  244.400; -414.000; -405.000
921.423;  526.600;  307.000;  546.000
921.663;  783.725; -174.000; -257.000
921.903; 1563.225;  237.000;  173.000
922.143; 8564.250;  372.000;  389.000
922.383;34916.900;  158.000;  115.000
922.622;13561.950; -120.000;  -15.000
922.862; 1390.275;  796.000;  785.000
923.102;  536.925;  -51.000;   33.000
923.341;  204.975;   59.000;   74.000
923.581;   90.575;  450.000;  360.000
923.821;    6.875;  301.000;  398.000
924.060;    4.425;  351.000;  193.000
924.300;  -69.450;  -16.000; -128.000
924.539;  -19.075;  584.000;  473.000
924.779;   18.075;  812.000;  597.000
925.018;  -60.950;  247.000;  353.000
925.257;  -25.225;  595.000;  666.000
925.497;  -36.925;  447.000;  412.000
925.736;  -82.475;  -35.000;  102.000
925.975;  -20.700;  687.000;  669.000
926.214;   21.125;  907.000;  850.000
926.454;    5.075;  706.000;  757.000
926.693;  -28.850;  419.000;  543.000
926.932;   20.650; 1021.000;  825.000
927.171;   51.700; 1107.000; 1044.000
927.410;   52.175; 1144.000;  967.000
927.649;   11.800;  924.000;  742.000
927.888;   -0.700;  590.000;  564.000
928.127;  -23.650;  680.000;  678.000
928.366;   29.800;  842.000;  826.000
928.605;   28.600;  831.000;  737.000
928.844;  209.175; 1451.000; 1393.000
929.083;  543.275;  770.000;  613.000
929.321;  328.025; 1335.000; 1359.000
929.560;   79.600; 1158.000; 1122.000
929.799;  -38.325;  574.000;  475.000
930.038;   82.175; 1025.000; 1394.000
930.276;  -41.875;  334.000;  397.000
930.515;   -3.125;  827.000;  681.000
930.753;  -19.875;  614.000;  589.000
930.992;  -25.250;  664.000;  717.000
931.230;    7.200;  847.000;  847.000
931.469;  170.875; 2162.000;  892.000
931.707;   74.525;  840.000;  751.000
931.946;   57.775; 1278.000; 1344.000
932.184;   57.400; 1437.000; 1175.000
932.423;   45.900; 1265.000;  963.000
932.661;   93.200; 1296.000; 1428.000
932.899;   25.125;  987.000;  821.000
933.137;    5.125;  754.000;  564.000
933.376;  121.300; 1664.000; 1335.000
933.614;  166.425; 1759.000; 1196.000
933.852;   60.475; 1357.000; 1171.000
934.090;  133.250; 1722.000; 1747.000
934.328;  111.800; 1252.000; 1457.000
934.566;  107.500; 1431.000; 1110.000
934.804;  157.500; 1263.000; 1309.000
935.042;  520.875; 1861.000; 1850.000
935.280; 2121.275; 2088.000; 2063.000
935.518; 2255.450; 2113.000; 2007.000
935.756;  456.725; 2481.000; 2316.000
935.994;  163.525; 1808.000; 1751.000
936.231;  317.550; 2890.000; 2950.000
936.469;  197.200; 2367.000; 2378.000
936.707;  170.625; 2220.000; 2167.000
936.945;  219.950; 2825.000; 2882.000
937.182;  191.500; 2679.000; 2741.000
937.420;  309.900; 3602.000; 3031.000
937.657;  360.300; 3365.000; 3478.000
937.895;  337.300; 3331.000; 3488.000
938.133;  307.250; 3540.000; 3528.000
938.370;  336.750; 3896.000; 4191.000
938.607;  389.425; 4488.000; 4205.000
938.845;  539.425; 5587.000; 5549.000
939.082;  483.475; 5387.000; 5177.000
939.320;  521.775; 5799.000; 5728.000
939.557;  617.850; 6549.000; 6491.000
939.794;  699.200; 7285.000; 7097.000
940.031;  872.725; 8421.000; 8368.000
940.269; 1073.000; 9552.000; 9107.000
940.506; 1110.650;10901.000;10507.000

