
Integration time [ms]: 200.000
Averaging Nr. [scans]: 10
Smoothing Nr. [pixels]: 0
Data measured with spectrometer [name]: 2101013U2
Wave   ;Sample   ;Dark     ;Reference
[nm]   ;[counts] ;[counts] ;[counts] 

394.013;  110.679; -450.257; -315.536
394.305;  427.776; -461.258; -419.536
394.596; 1940.324; -676.269; -527.514
394.887; 4622.048; -796.268; -654.518
395.178; 1779.893;  145.736;   11.476
395.470;  176.710; -210.263; -356.526
395.761;  394.170;  305.734;  394.479
396.052;  673.639; -545.284; -306.489
396.343;  637.442; -557.276; -454.503
396.634;  207.896; -200.279; -290.497
396.926;  196.244; -618.268; -565.517
397.217;  227.249;   11.725;  -17.504
397.508;  108.372; -366.273; -154.507
397.799;   61.496; -555.279; -571.497
398.090;  -74.612; -973.280; -902.495
398.381;  208.029;   11.708;  -11.473
398.672;  -34.769; -585.292; -742.473
398.963;   89.805; -348.279; -373.498
399.254;  173.444;   54.709; -209.475
399.545; -121.335;-1017.266; -883.520
399.836;  110.826; -407.277; -343.501
400.127;  110.194; -205.295; -209.468
400.418;  101.764; -423.274; -392.506
400.709;  110.569; -359.281; -333.493
401.000;   73.650; -268.291; -309.476
401.290;  190.200;  225.698;  115.545
401.581;  113.014; -166.286; -228.485
401.872;   28.653; -542.298; -486.462
402.163;   88.383; -313.296; -252.467
402.454;  163.845; -123.291; -163.475
402.744;   78.570; -844.297; -813.465
403.035;  712.916; -226.293;  -86.471
403.326;  916.135; -366.292; -384.474
403.617;  655.344;  204.701;  165.539
403.907;  407.248; -593.283; -679.490
404.198; 3996.433; -545.307; -599.446
404.489;10357.855; -618.283; -588.491
404.779; 3615.206; -618.302; -660.456
405.070;  396.874;  -67.304; -174.451
405.360;  576.819; -259.293; -238.472
405.651;  618.822;  125.699;   98.542
405.942;  370.007;  209.714;  127.516
406.232;  458.428; -432.285; -413.487
406.523;  910.208;  641.706;  758.530
406.813;  151.210; -579.286; -644.484
407.104;  640.627;  261.708;  144.527
407.394;  291.246; -604.299; -591.462
407.685;  275.127;  336.715;  222.513
407.975;  115.553; -400.283; -382.490
408.265;  239.366; -134.289; -190.478
408.556;   91.040; -472.291; -459.475
408.846;  371.710;  474.706;  429.530
409.137;  174.079;   -1.288; -216.480
409.427;  115.828; -193.285; -271.487
409.717;   28.077; -776.273; -692.508
410.007;  287.119;    4.715; -170.486
410.298;  163.098; -360.295; -342.469
410.588;  128.224; -495.285; -510.486
410.878;    0.495; -792.287; -873.482
411.168;  208.356; -481.298; -478.463
411.459;  222.045; -295.283; -242.489
411.749;   86.138; -609.292; -507.474
412.039;   53.976; -755.289; -386.480
412.329;  381.516;   40.722;  132.501
412.619;  357.711;  -62.286; -148.485
412.909;  666.370;  639.711;  594.521
413.199;  527.688; -130.280; -251.495
413.490;  710.156;  521.710;  352.523
413.780;  199.994;-1013.279; -913.496
414.070;  579.744;  -46.276;  235.497
414.360;  568.710; -729.278; -666.498
414.650;  667.689; -726.288; -688.482
414.940;  837.893; -538.280; -441.496
415.230; 1579.185;   50.712;   74.519
415.520;10375.123;  155.730;   66.486
415.809;39987.868; -305.281; -125.493
416.099;31759.629; -388.277; -229.501
416.389; 8741.861;  435.726;  236.494
416.679; 5160.515;   91.738;   85.473
416.969;  892.002; -527.287; -503.483
417.259; 1001.297;  341.721;  171.503
417.549; 1215.267;  522.718;  318.508
417.838; 2776.048; -205.268; -147.518
418.128; 9039.364;  650.710;  492.522
418.418; 7664.686; -491.272; -579.509
418.708; 5173.061;    9.726;  -48.506
418.997;19088.255; -474.275; -480.505
419.287;20031.871; -733.273; -790.507
419.577;18948.044; -160.283; -123.489
419.866;60117.726; -588.277; -498.501
420.156;61938.917; -242.270;  -55.513
420.446;11882.004; -112.263;  -26.526
420.735; 1408.808; -376.271; -446.512
421.025; 1549.609; 1830.722;  315.502
421.314; 1148.205; -203.271; -226.512
421.604; 2322.737;   89.732;  233.484
421.893; 1356.600; -705.271; -602.511
422.183;  409.004; -487.263; -461.526
422.472;  675.702;  -36.271; -107.511
422.762;  787.174; -416.266; -379.521
423.051;  388.545; -916.276; -916.503
423.341;  530.174; -491.273; -439.507
423.630;  697.783; -121.265;   15.477
423.919;  631.454;   58.725;   49.495
424.209;  600.312;  -31.263;   56.473
424.498;  839.944;   68.732;  161.483
424.787; 1759.153; -535.267; -601.518
425.077; 5450.081;   34.735;   29.478
425.366; 7527.821; -734.262; -744.528
425.655;16070.275;  639.727;  259.493
425.945;34306.211; -313.247; -268.554
426.234;19786.954;  117.741;  300.467
426.523; 8417.962;  -86.259; -350.534
426.812;11587.668;  107.734;  159.480
427.101;16729.032; -127.269; -323.515
427.390;21151.122;  -55.270;  -86.514
427.680; 4747.091; -624.257; -411.538
427.969;  811.007; -330.255; -301.540
428.258;  554.078; -385.257; -477.536
428.547;  937.392;  449.728;  397.490
428.836; 2004.230; -421.253; -398.543
429.125; 2866.164; -199.259;  -72.534
429.414; 1339.764; -330.251; -294.548
429.703; 5254.664; -231.251; -213.548
429.992;15247.469; -938.250; -828.549
430.281;10229.294; -397.264; -331.524
430.570; 1049.450;  -21.252;   32.454
430.859; 1002.661;  279.741;  352.466
431.148;  872.705;  636.752;  631.446
431.437;  576.549;  391.748;  367.454
431.725;  251.181; -544.257; -481.536
432.014;  186.141; -845.253; -756.545
432.303;  614.116; -149.239; -105.569
432.592;  992.704; -460.263; -178.525
432.881; 1703.406; -601.248; -437.554
433.169;10115.008; -343.255;  -61.540
433.458;20325.266;  445.765;  540.424
433.747; 8681.129; -397.261; -289.529
434.036; 1510.280; -275.242; -280.564
434.324; 3451.987; -395.249; -379.551
434.613; 5927.771;   40.757;  159.437
434.902; 2072.001;  333.760;  439.433
435.190;  972.014;   75.761;  295.431
435.479;  563.344;  -52.245;   83.441
435.767;  146.656; -411.244; -427.561
436.056;  371.274; -340.242; -294.563
436.345;  613.805; -372.240; -223.568
436.633;  634.080;   60.750;  383.450
436.922;  486.008;  208.760;  414.432
437.210;  968.651; -194.236;    1.426
437.499; 2981.863; -583.235; -432.576
437.787; 3296.050; -339.236;  -10.574
438.075;  902.122;   56.761;  162.430
438.364; 1194.426;  -44.238;  250.429
438.652;  772.780; -286.226; -138.592
438.941;  252.027;    3.770;  269.415
439.229;    8.646; -665.252; -466.545
439.517;   96.275; -160.234;  -85.577
439.806;  -26.197; -501.225; -290.595
440.094;  321.486;  377.766;  650.421
440.382;  283.992; -653.233; -302.580
440.670;  325.462; -361.235; -285.576
440.959;   63.429; -347.223; -170.599
441.247;  159.144; -151.229; -109.587
441.535;  186.973; -266.235;   31.423
441.823;   48.782; -497.234; -305.578
442.111;  346.250;  173.771;  327.412
442.400;  795.343; -628.245; -335.559
442.688; 2212.686; -111.234; -620.579
442.976; 1597.358; -786.213; -450.617
443.264;  179.513; -324.224; -364.597
443.552;  169.282; -258.226;   51.408
443.840;  360.671;  602.765;  876.423
444.128;  210.191;  265.767;  269.420
444.416;   -1.746; -694.228; -312.588
444.704;   47.573; -465.219;  -92.605
444.992;  127.986;   -0.226;  240.407
445.280;  123.228; -517.230;  -94.585
445.568;   18.163; -694.212; -396.618
445.856;  554.949; -174.221;  357.398
446.143; 1125.167;  -54.220;   -7.604
446.431; 1041.060;  -25.228;  625.411
446.719;  468.801;  489.783;  675.391
447.007;  364.020;  481.769;  705.416
447.295;  396.425;  597.777;  871.402
447.583;  146.741; -464.229;  -34.587
447.870;  181.945; -434.221; -202.601
448.158;  681.126; -104.230;  129.415
448.446;  470.569; -800.219; -338.604
448.733;  288.415;   13.776;  269.403
449.021;  437.063;   60.788;  341.382
449.309;  330.585; -296.210;  208.379
449.596;  371.395;  128.783;   59.392
449.884;  214.635; -571.222; -325.600
450.172;  227.567; -756.227; -406.590
450.459;  777.833;  645.786;  780.387
450.747; 3770.293; -411.218; -147.608
451.034;11932.761;  493.772;  889.411
451.322; 9994.238; -413.214; -170.614
451.609;  933.117;  292.777;  508.403
451.897;  986.978; -550.203; -183.634
452.184; 2839.425; -622.223; -400.598
452.472; 2728.616;   97.792;  269.375
452.759;  656.470;  512.781;  864.395
453.047;  174.959; -407.212; -125.617
453.334;  127.181; -732.219; -216.606
453.621;  146.641; -438.214; -161.615
453.909;  238.666;   13.796;  384.368
454.196;  193.932; -299.199; -123.641
454.483;  358.797;  317.798;  540.364
454.771;  231.921; -215.208;  196.374
455.058;   98.026; -316.207;  102.374
455.345;  205.714;   71.807;  344.347
455.632;  163.230; -128.207;  235.373
455.919;  160.665;  -82.196;  182.354
456.207; -111.661; -774.198; -450.642
456.494;  -33.886; -475.200;  -66.639
456.781;   23.590; -399.202; -198.635
457.068;   69.040; -253.206;  -29.628
457.355;    0.542; -698.206; -401.629
457.642;  -33.550; -552.205; -290.630
457.929;   14.000; -778.194; -417.651
458.216;   52.860; -575.212; -354.617
458.503;  392.807; -173.193;  -19.652
458.790;  337.517; -864.208; -630.625
459.077;  423.297;  -77.202;  110.364
459.364; 1263.190; -350.195; -210.649
459.651; 2684.837;  -46.206;  220.372
459.938; 1225.303; -864.209; -665.623
460.225;  267.602;  132.799;  276.363
460.512; -136.739; -836.197; -688.645
460.799;  223.991;  -32.218;  320.392
461.086;  102.421; -370.200; -251.640
461.372;   93.040; -509.198; -279.642
461.659;  177.167; -165.196;  108.354
461.946;  121.205; -445.193;  -54.651
462.233;  469.218;  842.800;  888.361
462.519;  516.513; -814.201; -464.639
462.806; 1552.762; -768.197; -497.645
463.093; 1371.536; -445.191;  -66.656
463.380;  -95.304; -920.186; -824.664
463.666;  117.365; -259.197;  -18.646
463.953;  162.882; -406.195; -243.648
464.239;  319.282; -173.195;  -77.648
464.526;  666.198;  413.806;  743.350
464.813;  524.553; -565.190; -304.658
465.099;  612.507;  606.807;  607.348
465.386;  606.012;  903.807;  921.348
465.672;   11.762; -694.197; -522.645
465.959;   57.879; -598.188; -520.662
466.245;   30.913; -468.193; -359.652
466.532;  191.379; -109.195;   63.352
466.818;  119.396; -357.186; -216.664
467.104;    7.255; -488.182; -415.672
467.391;  -31.345; -628.189; -459.658
467.677;   84.801; -289.186;    9.335
467.964;   20.765; -682.189; -471.660
468.250;  157.705; -331.186; -160.665
468.536;  188.657;   90.811;  180.341
468.822;  -44.377; -821.184; -574.668
469.109;  260.074;  351.827;  471.311
469.395;  394.527;  729.808;  787.346
469.681;  326.262;   46.811;  156.341
469.967; 1922.768; -699.188; -382.660
470.254; 4230.680; -494.188; -306.662
470.540; 2754.765; -601.196; -476.646
470.826;  366.571; -488.181; -397.675
471.112;  532.228;  288.816;  113.331
471.398;  177.335; -253.183;  -58.670
471.684;   89.513; -626.177; -447.680
471.970;  -46.323; -918.180; -981.675
472.256;   60.625; -521.192; -441.654
472.542;    4.190; -499.171; -434.691
472.828;   26.449; -743.182; -607.672
473.114;   53.654; -380.166; -283.700
473.400;   17.937; -504.175; -293.684
473.686;   75.763; -452.166; -400.701
473.972;  116.559; -230.174; -131.687
474.258; -115.526; -925.173; -843.689
474.544;  352.701; -183.178;   -2.679
474.830;  475.340;  -65.175;   45.316
475.116;  734.355; -123.190; -196.658
475.401;  925.780; -558.180; -467.676
475.687;  300.379; -725.180; -718.676
475.973;  -48.139; -673.181; -770.673
476.259;  483.643;  736.825;  764.315
476.544;  536.725; -539.176; -437.682
476.830; 1211.184; -398.172; -322.690
477.116; 1116.323; -430.177; -336.682
477.401;  305.179;  346.820;  358.324
477.687;  -44.563; -289.175; -405.684
477.973;  120.166;   21.819;   28.326
478.258;  -16.407; -448.163; -348.706
478.544;  104.613;   21.815;   61.334
478.829; -103.702; -818.171; -738.692
479.115;  -83.817; -749.172; -651.690
479.401;  -29.848; -444.174; -449.686
479.686;   96.478; -253.180;  -74.676
479.972;  -68.892; -886.178; -776.680
480.257;   71.856; -258.166;  -65.700
480.542;  -21.996; -614.170; -469.693
480.828;  525.835; 1288.824; 1392.317
481.113;  -62.168; -464.176; -426.683
481.399;   -4.972; -236.161; -202.711
481.684;  -85.545; -620.166; -462.700
481.969;   80.648; -158.159;  -73.713
482.255;  -26.281; -439.169; -285.695
482.540;   10.309; -569.178; -441.680
482.825;    7.189; -395.187; -404.663
483.110;  163.224;  -85.169; -105.696
483.396;  287.580; -840.157; -652.718
483.681;  817.059;  543.826;  730.313
483.966;  207.139; -696.160; -700.712
484.251;   40.057; -404.174; -310.687
484.536;   30.971; -356.165; -378.703
484.822;   67.062; -205.173; -218.687
485.107;  -56.664; -599.152; -502.726
485.392;  291.579;  662.836;  541.296
485.677;  178.339;  354.832;  163.302
485.962;  214.876;  160.843;  270.283
486.247;  218.405;  -14.162;   -8.707
486.532;  106.058; -178.166; -325.701
486.817;  300.620;  381.839;  431.291
487.102;  176.911; -453.154; -514.722
487.387; 1023.182; -637.156; -652.718
487.672; 1802.787; -154.164;  -38.705
487.957; 1133.530; -394.160; -286.711
488.241;  318.060; -290.150; -314.729
488.526; 1196.538; -280.152; -148.726
488.811; 1806.511; -881.177; -818.680
489.096; 1319.215; -666.154; -702.723
489.381;  783.132;    3.847;  162.275
489.666;  550.228; -428.161; -510.710
489.950;  354.119;  558.846;  627.277
490.235;  -50.247; -480.151; -458.728
490.520;  -68.374; -756.161; -723.710
490.804; -119.315; -827.156; -736.719
491.089;    7.983; -469.149; -299.732
491.374;   60.785; -132.164;  -75.704
491.658;  -29.500; -817.147; -717.735
491.943;  227.544; -657.152; -609.727
492.227;  395.204; -178.155;  -38.721
492.512;   94.475; -294.157; -341.717
492.797; -100.626; -713.149; -716.731
493.081; -100.596; -588.147; -598.735
493.366;  -80.272; -751.161; -635.711
493.650;  443.282;  831.859;  917.254
493.935;   45.299; -648.147; -447.734
494.219; -117.437; -778.142; -687.743
494.503;  -76.733; -585.150; -487.730
494.788;  129.863;   46.842;   74.285
495.072;  228.462;  184.850;  434.271
495.356;  238.588; -463.148; -343.733
495.641;  646.314; -812.146; -736.736
495.925;  636.992; -976.156; -903.719
496.209;   58.582; -599.149; -451.732
496.494; -106.736; -763.142; -544.744
496.778;   39.411; -364.154; -360.722
497.062; -105.908; -819.156; -627.719
497.346;  -82.267; -869.160; -640.711
497.631;  315.593;  580.852;  560.266
497.915;  160.829;  -64.145;  175.261
498.199;   61.080; -341.157; -277.718
498.483;   76.935; -562.152; -508.725
498.767;  363.864;  301.850;  300.271
499.051;  304.279; -126.149; -100.732
499.335;   -0.724; -693.149; -739.731
499.619;  -80.369; -381.129; -423.767
499.903;   76.102; -272.155;  -65.721
500.187;   47.721; -588.153; -316.724
500.471;   -1.857; -796.152; -595.727
500.755;  182.027;   62.839;  -96.710
501.039;   61.003; -270.155; -357.721
501.323;  216.185;  -21.141;  264.254
501.607;   44.694; -447.163; -503.706
501.891;    2.082; -607.156; -512.718
502.174;  -48.754; -726.144; -585.741
502.458;  147.449;   89.849;  370.273
502.742;   73.820; -180.138; -191.751
503.026;  143.298; -412.147; -254.734
503.310;  241.846; -437.159; -375.713
503.593;  156.401; -464.147; -325.735
503.877;  188.679; -232.133; -156.760
504.161;  273.425;    2.847;  -50.724
504.444;  149.766; -841.158; -710.716
504.728;  649.283; -487.164; -522.704
505.012; 1072.859; -257.150;  -76.729
505.295;  883.428; -417.161; -212.711
505.579;  791.591; -256.156; -496.719
505.862; 1166.224; -555.145; -333.738
506.146; 1071.950; -681.159; -758.714
506.429;  716.850;  568.841;  461.286
506.713;   95.955; -732.151; -667.728
506.996;  570.010;   90.846;  295.278
507.280;  521.676; -633.165; -474.703
507.563;  378.100; -469.155; -261.721
507.847;  121.422; -423.153; -112.724
508.130;  117.429; -665.161; -456.711
508.413;  192.449; -758.167; -577.700
508.697;  428.650; -151.167;   12.300
508.980;  246.424; -422.153; -312.724
509.263;    2.495; -466.155; -450.720
509.547;   86.059; -124.150;   82.271
509.830;  129.632; -172.160;  140.289
510.113;  180.491;  128.844;  298.281
510.396;   42.933; -530.152; -300.725
510.680;  200.526; -818.145; -812.738
510.963;  989.217;  184.846;  180.277
511.246;  799.570; -493.150; -357.730
511.529;  406.633; -482.145;  -83.739
511.812;  558.574; -250.134;   10.241
512.095;  373.151; -740.151; -396.728
512.378;  146.707; -317.147; -245.736
512.661;   40.331; -703.137; -623.753
512.944;   -7.734; -750.142; -637.744
513.227;  122.027; -170.137; -171.752
513.510;   31.946; -479.144; -671.741
513.793;   31.791; -485.140; -435.747
514.076;  229.461;  -43.127;  -39.771
514.359;  199.184; -294.149; -135.732
514.642;   80.171; -442.142; -567.744
514.925; 1180.789;  581.860;  561.253
515.208; 1433.869; -498.134; -443.758
515.491; 1000.989; -276.133; -182.761
515.773;  562.851; -410.143; -337.742
516.056; 3245.340;  249.864;  409.246
516.339; 4169.146; -754.136; -652.755
516.622; 2932.167; -518.150; -488.730
516.904; 2012.961;  882.857;  975.257
517.187;  867.125; -730.138; -523.752
517.470;  594.460; -568.143; -510.743
517.752;  640.550; -624.136; -470.756
518.035;  458.607; -708.139; -725.749
518.318;  486.246; -799.136; -744.755
518.600; 3612.494; -300.132; -325.762
518.883; 4950.170;  310.858;   88.256
519.165; 2442.514; -585.138; -426.751
519.448;  644.494;  -61.132;  -19.762
519.730;  286.772; -573.126; -415.773
520.013;  592.383;  588.867;  664.240
520.295; 1240.277;  -94.134;  -15.759
520.578; 2762.413; -335.131; -305.764
520.860; 3153.994; -254.132;   56.238
521.143; 1672.554; -763.135; -584.756
521.425;  689.591; -251.125; -279.775
521.707; 1050.462; -622.127; -380.771
521.990; 2696.163; -199.127;  167.229
522.272; 3033.294; -116.140;   -4.748
522.554; 1414.052; -237.143; -157.742
522.836;  572.073;  -24.134;   99.241
523.119;  311.897; -496.148; -189.734
523.401;  229.523; -448.130; -314.766
523.683;   71.132; -865.137; -693.753
523.965;  476.322;  408.862;  260.248
524.247;  415.423;   54.878;  170.220
524.529;  305.776; -451.134; -367.759
524.812;  570.526;   -3.130;  191.234
525.094; 1240.021; -773.138; -631.751
525.376; 1967.805; -143.124;   78.223
525.658; 1264.842; -441.136; -339.754
525.940;   42.608; -805.131; -671.764
526.222;   62.647; -188.136;  -88.755
526.504;  183.805; -190.131;   32.237
526.786;  225.580; -960.133; -647.760
527.068;  452.113; -124.123;  -67.778
527.349;  169.537; -865.137; -774.754
527.631;  229.893; -137.132;   22.238
527.913;  198.161; -664.127; -450.771
528.195;  205.781; -761.125; -639.774
528.477;  372.169;  -93.134;  -30.758
528.759;  153.026; -648.130; -522.766
529.040;   81.411; -569.123; -293.778
529.322;  114.585; -235.125;  -10.774
529.604;  203.629;  -47.130;   93.233
529.886;  202.372; -546.126; -302.773
530.167;  206.017;  232.870;  192.235
530.449;  108.606;    1.853;   63.265
530.731;   21.021; -572.122; -459.779
531.012;   92.652; -513.120; -216.784
531.294;  124.909; -118.116;  -43.792
531.575;  283.391;  290.875;  538.225
531.857;   77.861; -548.135; -266.757
532.138;  134.183; -113.141;   40.254
532.420;  294.656;  294.865;  403.244
532.701;  276.084; -722.133; -751.760
532.983;  598.488;  232.867;  182.239
533.264;  193.569; -243.126;  175.228
533.546;  -52.953; -491.136; -508.755
533.827;   91.078;  173.867;   -1.759
534.109;   79.161; -352.135;  -80.757
534.390;  118.499; -725.132; -582.762
534.671;  362.356; -270.135;  -82.756
534.953;  197.415; -751.123; -611.779
535.234;   24.887; -426.117; -255.789
535.515; -189.336; -891.119; -735.785
535.796;  -14.245; -431.128; -193.770
536.078; -212.096;-1050.124; -904.777
536.359;   44.116;  -22.123;    3.221
536.640;   -7.717; -480.125; -197.774
536.921;  296.337;  225.871;  143.232
537.202;  551.816;  -87.138;  -16.751
537.483;  693.012;  251.869;  377.236
537.764;  318.417;   17.870;   98.235
538.045;  -79.132; -543.134; -371.758
538.326;  -78.761; -596.129; -447.768
538.607;   -8.237; -686.127; -476.771
538.888;  265.939;   98.879;    5.218
539.169;  249.631; -704.122; -535.781
539.450;  508.235;  236.871;   16.233
539.731;  332.444; -361.121; -182.783
540.012;  196.152;  199.880;  412.216
540.293;  201.496;   82.876;  158.224
540.574;  -47.960; -895.113; -717.796
540.855;  729.342;  435.879;  377.218
541.136;  757.227;   47.878;  139.220
541.416;  405.127; -161.130; -220.766
541.697;  297.306; -274.131; -170.763
541.978; 1504.459; -270.135; -315.757
542.259; 1880.763; -211.127; -236.771
542.539;  988.000; -191.116; -186.790
542.820;  348.191;  461.875;  480.225
543.101;  217.428;  -52.145;  -77.738
543.381;    9.763; -638.127; -591.771
543.662;  466.159;  159.873; -254.771
543.942;  803.356; -751.127; -830.770
544.223; 1523.029;  193.878;  161.219
544.504;  985.904; -275.124; -182.777
544.784;  886.072; -592.126; -408.773
545.065; 2403.106;  104.884; -254.791
545.345; 2880.564;  227.881;   14.215
545.626; 1963.139;  -14.113; -108.796
545.906; 1313.816;   77.869;   98.235
546.186;  546.779;   92.874;  -95.773
546.467;  311.808;   99.877;  -95.778
546.747;  528.100;  264.884;  327.210
547.027;  577.602;   91.876;  111.223
547.308;  434.355; -376.127; -530.770
547.588;  647.640;  299.871;  371.232
547.868;  316.318;  458.870;  588.235
548.149;  348.317;  609.885;  593.207
548.429;  219.660; -347.127; -299.771
548.709;  288.351; -645.120; -461.784
548.989;  722.978;   84.882;   88.213
549.269; 3209.392;   10.868;  139.239
549.550; 6943.614;  215.877;  117.222
549.830; 6341.565; -758.111; -556.799
550.110; 1294.776; -468.110; -320.801
550.390; 1235.822; -128.122;  -56.779
550.670; 1522.132; -868.114; -783.795
550.950; 1187.942; -509.121; -471.782
551.230;  364.336;  549.879;  460.218
551.510;  -24.360; -381.121; -326.782
551.790;   61.187; -173.109; -127.803
552.070;  522.108;  940.877; 1181.223
552.350;  572.070; -492.119; -377.786
552.630;  878.833;   -2.121;   77.219
552.909;  517.106;  181.884;   73.209
553.189;  381.701;  -49.132;   33.237
553.469;  222.570; -703.119; -514.786
553.749;  275.065; -469.127; -357.772
554.029;  292.793;   33.883;  -24.790
554.308;  211.123; -154.115;  -37.794
554.588;   99.453; -196.128; -204.770
554.868;  113.743; -366.121;  -47.782
555.147;  240.319; -114.115;  -46.793
555.427;  945.510; -260.116; -250.792
555.707; 5767.516; -284.115; -200.793
555.986; 6740.270; -719.111; -538.800
556.266; 3684.698;   23.884;   72.210
556.546;  157.440; -888.121; -675.782
556.825;  375.629; -657.114; -556.794
557.105; 2698.450; -125.128;   17.230
557.384; 3039.905;  122.884;  187.209
557.664; 1219.309; -717.116; -508.792
557.943;  169.442; -557.121; -411.782
558.222;  267.683; -345.118; -344.788
558.502;  403.221; -116.115;  -76.793
558.781;  762.114;  194.885;  499.208
559.061;  596.482; -232.118; -227.788
559.340;  495.290;  302.883;  353.211
559.619; 1050.498;   93.884;  148.210
559.899; 1517.993; -239.117; -266.789
560.178; 1375.720; -778.115; -593.793
560.457; 4757.195; -623.117; -562.790
560.736; 6245.272; -472.111; -482.800
561.015; 4381.747; -500.128; -502.769
561.295;  618.916;  180.893;  215.193
561.574;  515.016;  119.885;  116.207
561.853;  751.994;  274.891;  303.197
562.132;  763.024;  -45.114;  182.206
562.411;  712.933;  396.879;  553.219
562.690;  186.314; -592.115; -458.792
562.969;  306.449;  472.888;  630.203
563.248; 1017.530; 2966.878; 2487.219
563.527;  424.870; -290.111; -408.800
563.806;  511.660; -650.127; -521.771
564.085;  574.239; -297.105; -206.810
564.364;  367.097; -594.117; -405.790
564.643;  779.634; -276.121; -223.781
564.922; 2850.785;  221.890;  397.198
565.201; 2627.290; -640.109; -700.803
565.479; 1211.812; -297.115; -219.792
565.758;  433.051; -810.128; -712.770
566.037;  696.692; -155.109; -100.803
566.316;  375.405; -286.116;  -28.791
566.595;  103.416;  -17.115;  -12.793
566.873;  193.473; -166.111;  -79.801
567.152;  -75.252; -490.113; -590.797
567.431;   40.199; -113.116;    6.210
567.709;   37.217; -344.107; -212.807
567.988;  352.829; -810.114; -769.794
568.266;  745.516; -160.115;  -68.793
568.545;  575.608; -644.100; -514.819
568.824;  910.911;  160.885;  356.208
569.102;  768.028; -351.114; -235.794
569.381;  293.110; -492.116; -407.792
569.659;  -71.657; -553.113; -553.796
569.938;   20.227; -743.122; -465.780
570.216;  157.396; -225.109; -225.804
570.494;  -40.567; -632.114; -572.795
570.773;   90.440;  202.879;  114.218
571.051;  -10.988; -373.123; -357.778
571.330;  117.939; -221.113; -174.796
571.608;   59.234; -181.098; -173.823
571.886; -134.238; -671.111; -581.799
572.164; -160.757; -739.121; -621.782
572.443; -103.256; -562.105; -512.811
572.721;  -31.105; -399.117; -289.790
572.999;  -55.214; -280.117; -168.788
573.277;  197.135;  379.894;  620.191
573.555;  451.738;   94.894;   37.190
573.834; 1986.385;  -86.117; -114.788
574.112; 2312.220;  880.893;  811.193
574.390;  736.872; -143.111;  -96.801
574.668;   31.350;  -91.112;  -61.797
574.946;  -13.262; -165.106; -187.810
575.224;   40.390;   71.891;  -16.803
575.502;   -9.598; -200.116; -204.791
575.780; -166.949; -767.112; -829.798
576.058;  364.071; 1589.889; 1004.200
576.336;    3.479; -210.110; -129.801
576.614;  -71.548; -511.112; -340.798
576.891;   37.222; -711.115; -823.794
577.169;  691.007; -158.108; -285.805
577.447;  880.419;  169.893;  202.193
577.725;  469.658;  629.888;  854.201
578.003;   28.455;  -71.112; -371.798
578.280;  146.457; -208.104; -242.812
578.558;   53.621; -450.115; -422.793
578.836;  214.733; -210.114; -145.795
579.114;   47.549; -630.112; -670.797
579.391;  162.088;   -6.117;  -18.789
579.669; -147.477; -595.114; -704.794
579.947;  277.015; -326.107; -127.806
580.224;  406.814; -692.107; -524.806
580.502;  494.821;  127.893;   76.193
580.779;   65.096;  -42.117;   75.210
581.057; -124.904; -584.109; -470.804
581.334; -169.921; -726.102; -695.815
581.612;  124.339;   54.895;  511.190
581.889;  -36.801;  -83.101; -129.818
582.167;  -43.181; -298.099; -190.821
582.444; -167.409; -845.102; -814.817
582.721;  214.492;  657.899;  715.183
582.999;  138.616; -326.100; -167.821
583.276;  730.518; -812.123; -713.779
583.553;  985.284; -364.102; -294.816
583.831;  319.853; -607.104; -631.812
584.108;  144.004;  349.892;  174.195
584.385;   23.478; -122.102;  -98.815
584.662; -145.726; -651.111; -828.801
584.940;  105.273;  204.889;  204.199
585.217;  -15.158;  -73.113; -303.796
585.494;  102.086;   71.890;  118.198
585.771;  350.897; -250.109; -354.804
586.048;  682.342; -196.113;  -76.796
586.325;  441.278; -721.110; -773.801
586.602;  188.258;  230.896;  213.188
586.879;  -24.189; -499.100; -580.820
587.156;   80.940; -156.105; -331.810
587.433;  -97.212; -701.102; -667.817
587.710;  156.253;  152.888;  234.202
587.987;  464.148; -264.105; -236.811
588.264; 1174.855;  315.888;  387.202
588.541; 2089.761;  -61.104;   26.187
588.818; 3881.900;   72.892;  171.196
589.095; 3419.555; -163.104; -174.812
589.371;  560.794; -459.109; -414.804
589.648;   18.120; -581.107; -437.807
589.925;   22.034; -517.114; -621.795
590.202;   -0.648; -741.112; -607.798
590.478;  170.251; -166.105;  -73.811
590.755;  455.609; -241.108; -132.806
591.032; 3654.481; -741.110; -699.802
591.308; 4848.193; -732.094; -790.831
591.585; 2618.780; -573.110; -560.802
591.862;  136.990;-1056.102; -950.817
592.138;   96.706; -475.108; -474.805
592.415;  187.559; -486.104; -495.813
592.691; 2257.756;  460.896;  518.188
592.968; 2671.937; -208.098; -123.824
593.244; 1328.500; -695.116; -595.790
593.521;  129.490; -105.102;  -42.817
593.797;  -55.376; -810.122; -720.780
594.074;  473.855; -611.096; -588.826
594.350; 1063.372;  828.905;  729.172
594.626;  452.674; -303.111; -283.801
594.903;  143.891; -643.101; -645.817
595.179;  300.965;  243.896;  418.187
595.455;   71.922; -136.107; -150.807
595.731;   82.367;  -19.103;  -38.814
596.008;  -61.634; -464.111; -434.800
596.284;   56.414; -187.100; -242.820
596.560;   65.302; -501.093; -493.833
596.836;  302.443; -173.105;  -70.810
597.112;  532.707; -582.108; -437.805
597.388;  406.452;  -49.097;  -48.826
597.665;  233.146;  437.887;  530.203
597.941; -113.255; -572.089; -658.839
598.217;   26.685; -323.110; -293.802
598.493;  399.199;   61.891; -204.804
598.769;  730.106; -175.100;  -50.819
599.045;  406.811; -490.108; -562.806
599.321;   94.812; -193.100; -261.820
599.597;  195.998; -355.109; -476.804
599.872;  732.061;  409.896;  429.187
600.148;  534.554;  -61.097; -172.826
600.424;  455.018;   91.893;  202.193
600.700;  365.421; -170.107; -280.807
600.976;  153.846; -442.097; -464.825
601.252;  367.793; -226.109; -272.803
601.527;  229.463; -833.104; -840.813
601.803;  181.451; -453.105; -404.812
602.079;  290.206; -124.100; -118.819
602.354;  830.517; -620.092; -531.835
602.630; 1158.942; -140.113; -482.796
602.906; 3481.399; -910.101; -863.818
603.181; 9446.670; -627.119; -534.786
603.457; 8108.051;   98.903; -278.826
603.733; 1217.846; -605.120; -626.783
604.008; 1518.739; -245.106; -164.810
604.284; 4202.293; -636.101; -580.817
604.559; 3944.858;   -3.112;  -42.799
604.835;  754.743; -163.105; -225.810
605.110;  564.320; -732.099; -892.821
605.385; 1066.106;  224.907;  267.167
605.661;  927.876; -625.095; -729.829
605.936; 1628.412; -664.108; -737.806
606.211; 1447.077;  -17.103; -170.815
606.487;  267.127; -329.114; -376.794
606.762;   -1.630; -791.119; -745.786
607.037;  -74.257; -501.105; -433.810
607.313; -114.134; -589.096; -574.828
607.588;  -13.562; -375.106; -137.810
607.863;   85.298;  -28.101; -143.818
608.138;  338.284;  513.890;  516.198
608.413;  -20.274; -576.099; -592.822
608.688;   72.606; -203.108; -267.805
608.964;  241.730; -509.106; -218.809
609.239;  380.139; -107.105; -212.810
609.514;  426.451;  281.895;  240.188
609.789;  875.957; -187.104; -716.812
610.064; 1253.364; -435.096; -609.827
610.339; 1267.694; -855.109; -799.804
610.614; 1602.913; -131.100; -315.820
610.889; 1001.051;  215.895;  107.188
611.163;   58.952; -407.104; -591.812
611.438;  120.528;   81.886; -167.794
611.713;  -15.007; -467.101; -499.817
611.988;   76.496; -144.101; -328.818
612.263;  -94.121; -771.102; -717.815
612.538;  395.641;  385.887;  251.204
612.812;  189.715; -832.100; -911.820
613.087;  200.034; -358.098; -338.823
613.362;  -98.578; -497.107; -557.807
613.637;  122.171;  261.897;  138.186
613.911;    8.018; -256.092; -345.835
614.186;  223.019; -249.107; -292.807
614.460;  902.655; -842.081; -758.854
614.735; 1152.279;  -55.087;  -17.843
615.010;  264.165;   43.912;  -82.841
615.284;  437.305;  360.892;  246.195
615.559;  466.116; -792.092; -955.835
615.833;  446.123;  -76.099;  -87.822
616.108;    4.833; -225.090; -390.837
616.382;  287.582;  274.913;  402.156
616.656;  236.434; -241.090; -232.837
616.931;  698.924; -785.099; -700.822
617.205; 1495.963; -973.104; -979.813
617.480; 1410.588;  -91.125;    6.225
617.754;  225.585; -396.125; -128.774
618.028;   49.441; -369.129; -382.768
618.302;  115.303;   73.892;  -25.805
618.577;  -99.927; -371.103; -518.815
618.851;  -79.711; -399.109; -600.803
619.125;  -42.024; -335.134; -378.759
619.399;  -69.736; -244.104; -374.813
619.673;  -63.389; -330.115; -515.792
619.947;  -85.468; -333.114; -448.795
620.222;    2.776; -198.110; -204.801
620.496;   17.342;  -47.121;  -96.782
620.770;   47.630; -187.122;  -93.781
621.044;  365.040;  323.895;  346.190
621.318; 1045.247; -653.120; -614.783
621.592;  909.443; -430.121; -409.783
621.866;  502.060; -476.112; -572.799
622.140;   16.502; -207.116; -356.791
622.413;  151.766;  138.889;  112.200
622.687;  -79.406; -746.101; -492.817
622.961;   74.603; -130.108; -143.805
623.235; -127.333; -633.111; -661.800
623.509; -188.150; -816.105; -848.811
623.783;   18.116;  -12.107;   48.193
624.056;  -11.752; -254.120; -280.783
624.330;   82.950;   63.888;   -3.797
624.604;   94.697; -271.116; -355.790
624.877;  118.682;  180.890;   26.198
625.151;   78.325; -249.114; -238.794
625.425;  -61.633; -150.103; -283.814
625.698;  -53.138; -367.119; -374.785
625.972; -189.614; -799.110; -765.802
626.245;  213.100;  685.884;  484.210
626.519;  -91.246; -426.120; -340.784
626.792;  -24.379; -192.107; -380.807
627.066; -154.080; -485.122; -662.779
627.339; -143.520; -736.110; -663.802
627.613;   73.952;  351.880;  148.216
627.886;  152.288;  187.891; -612.803
628.160;  -20.454;  312.880; -161.783
628.433; -167.408; -695.125; -703.775
628.706; -159.446; -517.120; -615.784
628.979;  120.602;  296.876;  117.223
629.253; -194.131; -785.119; -833.786
629.526;  519.270; -334.126; -253.772
629.799;  431.012; -641.123; -479.778
630.072;  183.644; -497.128; -516.769
630.346; -145.200;-1115.116;-1080.790
630.619;  626.923; -467.107; -545.808
630.892;  892.368;  709.889;  593.200
631.165;  540.864;  790.896;  679.187
631.438; -198.245;-1092.112;-1055.798
631.711;  146.517;  453.877;  257.221
631.984; -114.807; -523.117; -624.789
632.257; -141.412; -636.117; -681.789
632.530;  -51.938; -412.119; -433.785
632.803;  104.722; -109.115;    7.207
633.076;  -91.793; -360.123; -422.777
633.349;   97.349;  173.872;  121.231
633.622;  -52.940; -187.119; -240.785
633.895; -217.952; -903.120; -823.783
634.167;  -90.527; -496.126; -525.773
634.440;   25.609;  -19.116; -137.792
634.713;   21.767;  -22.119; -120.786
634.986;  215.435;  593.871;  453.233
635.258; -161.381; -507.115; -597.793
635.531;  232.682;  742.882; -343.788
635.804;  -36.009; -303.117; -318.789
636.077; -175.597; -830.116; -852.791
636.349;  -70.783; -586.115; -474.793
636.622;  750.668; 1695.874; 1392.228
636.894;  339.055; -474.120; -909.784
637.167;  182.860; -836.127; -789.771
637.439;   51.954; -278.128; -213.770
637.712;  -44.729; -312.126; -293.772
637.984; -126.896; -635.116; -707.791
638.257;  685.308;  515.877;  488.222
638.529;  722.394; -881.125; -924.776
638.802;  342.643; -508.128; -449.769
639.074; -215.171; -927.122; -952.781
639.346; -218.136; -942.135; -930.757
639.619;    8.268;  -79.142; -319.744
639.891;   16.220;  -83.122; -168.779
640.163; -146.777; -689.122; -756.780
640.435;  103.725;  273.878;  103.220
640.708;   29.428;  -72.122; -132.780
640.980;  -40.769; -366.122; -362.781
641.252;  342.933;  -25.121;  -71.781
641.524; 2681.336;  580.879;  573.219
641.796; 2549.339;-1094.121; -907.782
642.068;  514.041; -191.121; -300.782
642.340; -114.556; -486.121; -566.783
642.613;  132.247;  294.880;  323.217
642.885; -181.551; -787.120; -878.783
643.157; -102.948; -810.120; -658.784
643.428;  145.855;  170.880;  218.216
643.700;  -95.843; -498.120; -425.784
643.972;  -40.540;  -16.119; -133.785
644.244; -134.837; -474.119; -559.785
644.516;  -47.335; -250.119; -114.786
644.788;  172.568;  662.881;  548.214
645.060;   24.071;  -12.119; -124.786
645.332; -167.726; -525.118; -535.787
645.603;  124.976;  479.882;  342.213
645.875; -134.521; -334.118; -369.787
646.147;  367.182; 1487.882; 1242.212
646.418; -141.516; -931.117; -918.788
646.690;  116.987; -714.117; -715.789
646.962;   90.290; -413.117; -451.789
647.233;   20.992;   15.883;   11.211
647.505; -164.605; -595.117; -475.790
647.776;  102.098;  328.884;  229.210
648.048;    3.600; -248.116; -418.790
648.320; -148.697; -752.116; -679.791
648.591; -274.994;-1055.116; -958.791
648.862; -124.192; -505.116; -577.792
649.134;   69.911;  115.885;  198.208
649.405; -111.586; -661.115; -618.792
649.677;  -98.184; -475.115; -598.793
649.948;   10.219; -181.115; -296.793
650.219;   16.022;  -37.115; -147.793
650.491; -145.676; -431.114; -520.794
650.762; -180.773; -705.114; -731.794
651.033; -140.270; -437.114; -424.795
651.304; -171.667; -743.114; -728.795
651.576; -120.765; -680.114; -645.795
651.847;  -17.662; -250.113; -140.796
652.118;    0.741;  -32.113; -189.796
652.389; -166.557; -639.113; -722.796
652.660;  -22.254; -147.113;  -89.797
652.931; -244.551; -897.112; -871.797
653.202; -131.449; -382.112; -541.798
653.473; -143.846; -633.112; -533.798
653.744;  187.057; -595.112; -590.798
654.015;  213.159; -356.112; -303.799
654.286; -143.638; -642.111; -663.799
654.557;  -98.335; -586.111; -521.799
654.828; -280.933;-1114.111;-1088.800
655.099;  -80.030; -404.111; -291.800
655.370; -167.327; -427.111; -543.801
655.641; -221.625; -656.110; -714.801
655.911; -188.422; -618.110; -638.801
656.182;  172.581;  437.890;  387.198
656.453;  238.984;  830.890;  746.198
656.724;  -95.414; -466.110; -426.802
656.994;  -95.811; -553.109; -568.803
657.265; -190.208; -862.109; -873.803
657.536; -130.306; -500.109; -377.804
657.806; -135.803; -561.109; -593.804
658.077; -252.100; -866.109; -950.804
658.347; -111.798; -523.108; -598.805
658.618; -222.695; -646.108; -694.805
658.888;    3.908;  -41.108;  112.195
659.159; -130.190; -432.108; -548.806
659.429;  -13.987; -292.108; -349.806
659.700;   18.716; -435.107; -390.807
659.970;   12.618; -370.107; -359.807
660.241;  -16.679; -754.107; -921.807
660.511;  722.624; -147.107; -174.808
660.781;   90.226; -793.106; -748.808
661.052;  -42.771; -222.106; -381.808
661.322;   -6.868;   21.894;   -9.809
661.592;   90.734;  257.894;  148.191
661.862; -136.463; -369.106; -382.810
662.133; -123.460; -551.105; -502.810
662.403; -192.857; -770.105; -676.810
662.673;  -87.955; -256.105; -213.811
662.943; -160.852; -612.105; -551.811
663.213;   34.651;  -85.105;  -81.811
663.483; -123.347; -593.104; -568.812
663.753;  -37.544; -194.104; -152.812
664.023;    1.459;   68.896;  -32.813
664.293;  -86.039; -319.104; -126.813
664.563; -200.936; -694.104; -648.813
664.833; -194.933; -743.103; -608.814
665.103; -215.431; -730.103; -793.814
665.373; -203.628; -766.103; -806.814
665.643; -161.425; -863.103; -918.815
665.913;    2.077; -534.103; -714.815
666.182;  172.480; -685.102; -719.816
666.452;  390.783;  -22.102;  -89.816
666.722;  -66.615; -724.102; -784.816
666.992; -228.812; -948.102; -921.817
667.261; -198.509; -824.102; -808.817
667.531;  356.193;  134.899;   45.183
667.801;  791.296; -440.101; -412.818
668.070;  441.099;  714.899;  697.182
668.340; -196.798; -883.101; -840.819
668.609;  220.804;  588.900;  301.181
668.879; -129.193; -490.100; -558.819
669.149; -122.990; -539.100; -516.820
669.418; -138.588; -698.100; -726.820
669.688;  -35.985; -482.100; -666.820
669.957;   62.818; -423.099; -546.821
670.226;  -57.380; -268.099; -331.821
670.496; -171.177; -431.099; -635.822
670.765; -108.674; -418.099; -501.822
671.034; -228.172; -872.099; -828.822
671.304;   31.231;   55.902; -111.823
671.573; -272.066;-1085.098; -957.823
671.842;  103.836; -380.098; -294.823
672.112;   -2.861; -692.098; -586.824
672.381;    8.742; -239.098; -214.824
672.650; -234.656;-1005.097;-1021.825
672.919; -137.953; -631.097; -507.825
673.188; -160.250; -681.097; -878.825
673.457; -268.847;-1101.097;-1143.826
673.726; -145.845; -579.096; -646.826
673.995;  -87.642; -533.096; -479.826
674.265;  -50.739; -263.096; -333.827
674.534;   66.863; -183.096; -235.827
674.802;  -23.434; -618.096; -703.828
675.071; 1517.569; -886.095; -801.828
675.340; 5336.071; -464.095; -339.828
675.609; 1878.574;  103.905;   82.171
675.878;   80.477; -949.095; -893.829
676.147;   72.179;  -26.095;   -8.829
676.416;  134.882; -210.094; -294.830
676.685; 1220.085; 1000.906; -622.830
676.953;  118.087; -603.094; -452.831
677.222;  -39.410; -193.094; -273.831
677.491;   11.093;  -24.094; -127.831
677.759;   36.395;   11.907;  172.168
678.028;   -7.402; -279.093; -222.832
678.297;   28.401;   71.907;  197.168
678.565; -249.597; -898.093; -944.833
678.834;  -70.294; -311.093; -268.833
679.102;  -71.291; -411.092; -391.834
679.371; -272.988; -898.092; -727.834
679.639; -236.986; -797.092; -786.834
679.908; -239.383; -794.092; -724.835
680.176; -274.980; -895.091; -941.835
680.445;  -74.078; -346.091; -352.835
680.713;   -1.275;  -58.091;  -23.836
680.982; -135.072; -523.091; -525.836
681.250; -156.470; -578.091; -507.837
681.518; -166.367; -534.090; -751.837
681.787;  -55.564; -204.090; -167.837
682.055;  -73.662; -490.090; -422.838
682.323; -255.559; -993.090; -992.838
682.591;   65.444; -216.090; -538.838
682.859;  125.046;    9.911;  -35.839
683.128;   73.949;  232.911;  497.161
683.396; -298.848;-1102.089;-1122.840
683.664;  -30.046; -241.089;   21.160
683.932;   39.757;  144.911;  -76.840
684.200; -129.040; -576.088; -320.841
684.468;  -10.237;  -73.088; -124.841
684.736;  -31.235; -214.088; -175.841
685.004; -243.132;-1024.088; -982.842
685.272; -104.129; -880.088; -774.842
685.540; -165.527; -499.087; -557.843
685.808; -115.224; -651.087; -682.843
686.076; -192.821; -894.087; -969.843
686.343; -105.819; -601.087; -815.844
686.611;  104.884; -195.087; -224.844
686.879;  723.587; -530.086; -553.844
687.147; 4588.989; -483.086; -480.845
687.414; 1311.192;  -12.086; -169.845
687.682;  -10.505; -658.086; -757.846
687.950;  503.297;  259.915;  263.154
688.217;  -59.800; -792.085; -760.846
688.485;   -6.297; -632.085; -636.847
688.753;  746.105;  -11.085; -102.847
689.020;  187.208; -820.085; -851.847
689.288; -178.289; -853.084; -787.848
689.555;   10.413; -195.084; -148.848
689.823;  -50.784; -241.084; -345.849
690.090;  -94.281; -546.084; -651.849
690.358; -269.178; -877.084; -897.849
690.625;   77.324;  120.917;   45.150
690.892; -113.073; -403.083; -369.850
691.160;   10.030;   72.917;  -35.850
691.427;   58.132;  141.917;  130.149
691.694; -216.565; -855.083; -929.851
691.962; -273.062;-1177.082;-1060.852
692.229;   81.440;  127.918;   56.148
692.496;  143.943;  130.918;  -49.852
692.763;   30.546; -164.082; -201.853
693.031; -110.952; -739.082; -716.853
693.298;  -61.949; -509.081; -368.853
693.565;  500.354; -155.081; -163.854
693.832; 1747.056;   -5.081;   -9.854
694.099;  189.259; -643.081; -642.855
694.366; -124.838; -882.081; -896.855
694.633; -117.736; -920.080; -633.855
694.900; 1557.767; 4367.920; -114.856
695.167;  601.070; -214.080; -380.856
695.434;  106.473; -646.080; -623.856
695.701;  348.275;  121.921;  -61.857
695.968;  706.178; -365.079; -361.857
696.234; 1704.881; -415.079; -646.858
696.501;16221.483; -776.079; -614.858
696.768; 7702.286; -554.079; -617.858
697.035;  512.389; -632.078; -667.859
697.302;  100.491; -448.078; -552.859
697.568;   50.694; -458.078; -497.859
697.835;  -90.603; -683.078; -624.860
698.102;  -34.701; -498.078; -407.860
698.368;  207.602;  384.923;  396.139
698.635;  -40.995;  -47.077; -424.861
698.901;  -16.093; -240.077; -348.861
699.168;  130.310; -534.077; -456.862
699.435;  164.713;  -72.077;  -13.862
699.701; -202.185; -868.076; -764.862
699.968;  -65.482;  144.924; -441.863
700.234; -162.579; -783.076; -822.863
700.500;  -63.677; -448.076; -539.864
700.767;   35.926;   -1.075;   26.136
701.033; -243.171;-1015.075; -963.864
701.299;  -33.968; -450.075; -483.865
701.566;  275.434;  950.925;  763.135
701.832;   72.337;  -31.075;  -76.865
702.098; -189.460;-1054.074;-1034.866
702.365; -151.958;-1098.074;-1030.866
702.631;  -78.955;-1038.074;-1063.867
702.897; 2059.948; -765.074; -676.867
703.163; 3097.550;  348.926;  254.133
703.429;  256.053; -256.073; -273.868
703.695;  -73.644; -796.073; -792.868
703.961;   79.258; -214.073; -210.868
704.227;  -79.339; -630.073; -725.869
704.493;  297.664;  613.927;  510.131
704.759;  -38.634; -565.072; -540.870
705.025;   69.969; -203.072; -194.870
705.291;  -15.528; -666.072; -562.870
705.557;  400.174;  719.928;   34.129
705.823;   29.577; -742.072; -694.871
706.089;  223.780; -307.071; -326.871
706.355;  621.682; -315.071; -244.872
706.620; 8992.885; -776.071; -729.872
706.886;11478.588; -309.071; -362.873
707.152; 1005.191; -818.070; -973.873
707.418;  -47.107;-1153.070;-1186.873
707.683;    2.196; -550.070; -530.874
707.949;  -65.101; -547.070; -578.874
708.215;   60.101; -129.070; -207.874
708.480;  -40.496; -520.069; -420.875
708.746;  212.907;   68.931;   28.125
709.011; -107.691; -578.069; -612.876
709.277; -102.088; -538.069; -543.876
709.542;  -15.785; -428.069; -387.876
709.808;   22.217;  -59.068;   89.123
710.073; -150.380; -577.068; -695.877
710.339;  -33.577; -242.068; -228.877
710.604;  114.925; -780.068; -845.878
710.869;  444.628; -277.068; -366.878
711.135; -121.569; -715.067; -628.879
711.400; -140.067; -507.067; -608.879
711.665;  -75.964; -404.067; -479.879
711.931; -157.161; -661.067; -677.880
712.196; -231.258; -876.067; -954.880
712.461;  173.244; -402.066; -490.880
712.726;  161.647; -727.066; -771.881
712.991; -150.350; -647.066; -664.881
713.256;  -36.348; -350.066; -332.882
713.521;  -81.245; -417.065; -381.882
713.787; -125.842; -454.065; -472.882
714.052;  -41.840; -214.065; -400.883
714.317; -173.637;-1045.065; -981.883
714.581; 1623.566; -374.065; -268.883
714.846; 1893.468; -822.064; -888.884
715.111;  255.171;  261.936;  257.116
715.376;  -20.026;  -86.064; -223.885
715.641;   -7.524; -365.064; -367.885
715.906;  403.779;   15.936; -551.885
716.171;  246.782;  221.937;  209.114
716.436;   89.384;  -78.063; -104.886
716.700; -189.413; -818.063; -692.886
716.965; -188.110; -794.063; -807.887
717.230;  -64.608; -339.063; -392.887
717.494;    0.495;  -40.062; -134.888
717.759; -116.202; -784.062; -640.888
718.024;   36.701;  269.938;  250.112
718.288;  204.003;  685.938;  395.111
718.553; -253.294; -803.062; -977.889
718.817; -236.091; -883.061; -899.889
719.082;    1.911; -115.061; -125.890
719.346; -223.486;-1000.061; -947.890
719.611;  -35.983; -300.061; -255.891
719.875; -142.881; -568.060; -537.891
720.140; -107.078; -453.060; -603.891
720.404;  106.225; -136.060; -249.892
720.668; 1186.627; -475.060; -411.892
720.933;  509.830;  146.940;  137.108
721.197; -134.667; -667.059; -600.893
721.461; -232.965; -851.059; -826.893
721.725;   63.938;  -21.059; -250.894
721.990;  -68.559; -284.059; -204.894
722.254;  -24.957;  -26.059; -108.894
722.518;  -49.754; -286.058; -442.895
722.782; -118.751; -743.058; -594.895
723.046;  304.052;  614.942;  570.105
723.310;  150.254;  374.942;  210.104
723.574; -144.243; -654.058; -614.896
723.838; -166.340; -576.057; -642.897
724.102;  -16.638; -226.057; -239.897
724.366; -251.335;-1032.057; -978.897
724.630; -140.332; -749.057; -571.898
724.894; -117.530; -722.057; -514.898
725.158;   31.273;   38.944; -295.898
725.422;  -68.124; -394.056; -327.899
725.685;  -69.522; -441.056; -349.899
725.949; -145.819; -566.056; -519.900
726.213; -105.516; -732.056; -811.900
726.477;  184.286;-1020.055; -933.900
726.740;  233.589; -274.055; -104.901
727.004;  580.692; -384.055; -510.901
727.268; 4927.894; -442.055; -400.901
727.531; 1203.297; -961.055; -775.902
727.795;  -45.000; -713.054; -673.902
728.059; -104.998; -552.054; -557.903
728.322; -121.195; -841.054; -669.903
728.586;    9.808; -692.054; -701.903
728.849; -127.089; -695.053; -756.904
729.112; -189.987; -812.053; -912.904
729.376; -200.984; -959.053; -905.904
729.639;  -97.981; -536.053; -536.905
729.903; -159.579; -733.053; -699.905
730.166;  -77.476; -437.052; -399.906
730.429;   -0.873; -317.052; -468.906
730.693; -116.271; -355.052; -894.906
730.956;  411.332;  810.948;  651.093
731.219; 1004.835; -310.052; -103.907
731.482;  140.537;-1003.051; -894.907
731.745;   68.940; -794.051; -935.908
732.009;   88.143;  -30.051;   50.092
732.272; -176.355; -904.051; -771.909
732.535;  -35.652; -300.051; -310.909
732.798; -291.149;-1083.050;-1166.909
733.061;  -95.047; -430.050; -456.910
733.324;   30.756;   31.950; -180.910
733.587;  198.259;  290.950;  365.090
733.850; -119.038; -973.049;-1050.911
734.113;   93.864;   33.951;   32.089
734.376;   17.667; -328.049; -447.912
734.639;  467.470; 1188.951; 1011.088
734.901;  137.072; -180.049; -402.912
735.164;  765.975; -883.048; -837.913
735.427; 1716.978; -166.048; -355.913
735.690;  227.580; -205.048; -234.913
735.952;  -63.417; -923.048; -925.914
736.215;  -57.914;-1113.048;-1009.914
736.478;   22.988; -771.047; -774.915
736.740;  379.991;   33.953;  129.085
737.003; 1153.194; -658.047; -672.915
737.266; 5645.996;  -94.047;   46.084
737.528;  604.299; -682.047; -660.916
737.791;  493.302; -316.046; -327.916
738.053; 1403.204;  465.954;  649.083
738.316;17039.607; -162.046; -136.917
738.578;10437.010; -770.046; -736.918
738.841;  687.512; -382.046; -446.918
739.103;  260.315; -875.045; -777.918
739.365;  775.818;   79.955;  -69.919
739.628;  -35.879; -884.045; -805.919
739.890;  -23.877; -758.045; -710.919
740.152;  -66.474; -692.044; -754.920
740.414;   26.929; -408.044; -359.920
740.677;  -96.469; -785.044; -634.921
740.939;  -61.666; -587.044; -487.921
741.201;  387.437; -432.044; -572.921
741.463;   42.939; -689.043; -745.922
741.725;   47.542;  -21.043; -199.922
741.987;  154.545;  220.957;  116.078
742.249;  -20.253; -751.043; -859.923
742.511;  300.050; -703.043; -794.923
742.773;  -17.147; -546.042; -546.924
743.035;  273.855;  796.958;  533.076
743.297; -100.542; -963.042;-1013.924
743.559; 1139.961; -278.042; -262.925
743.821;   52.963; -735.042; -744.925
744.083;   89.766;  -44.041; -149.925
744.345; -176.131; -869.041; -892.926
744.607;  139.771;   75.959;  122.074
744.868;  -70.726; -490.041; -554.927
745.130; -203.523; -994.041;-1008.927
745.392;  103.180;   -1.040;  -44.927
745.653;   11.682; -411.040; -378.928
745.915;  338.885;  896.960;  631.072
746.177;  144.888;   35.960;  -43.928
746.438;    2.590; -428.040; -543.929
746.700;  -63.707; -947.039; -988.929
746.961;   34.096; -659.039; -740.930
747.223;  275.898; -190.039;  -74.930
747.484;  151.201; -391.039; -471.930
747.746;  274.404;  -23.038; -106.931
748.007;  159.206; -647.038; -689.931
748.269;  470.609; -468.038; -440.931
748.530;  629.712; -852.038; -638.932
748.791;  408.014; -354.038; -420.932
749.053;  705.017;  286.963;  163.067
749.314;  725.820; -236.037; -169.933
749.575;  670.922; -945.037; -905.933
749.836; 1298.825; -217.037;   86.066
750.098; 4190.928;  -60.037;  -21.934
750.359;51997.331;  414.964;  555.066
750.620;11839.133; -121.036; -220.935
750.881; 1514.336; -585.036; -513.935
751.142; 2071.839; -950.036; -938.936
751.403;25839.341; -789.036; -705.936
751.664; 9793.444;-1034.035; -999.936
751.925;  790.447; -175.035; -262.937
752.186;  439.949; -298.035; -278.937
752.447;  226.952; -590.035; -445.937
752.708;  114.255; -532.035; -648.938
752.969;   46.057; -566.034; -576.938
753.230;  -38.040; -777.034; -672.939
753.491;    7.263; -650.034; -631.939
753.751;  165.565;  109.966;   19.061
754.012;  235.968;  258.967;  181.060
754.273;  122.971; -174.033;  -71.940
754.534;   18.173; -487.033; -580.940
754.794; -141.524; -926.033; -911.941
755.055;  345.079; 1051.967;  881.059
755.316;  -83.419; -700.032; -566.942
755.576;  -23.216; -606.032; -576.942
755.837;  -53.013; -527.032; -695.942
756.097;  -16.410; -530.032; -564.943
756.358; -125.008; -725.032; -770.943
756.618;  -54.605; -705.031; -641.943
756.879;  -17.002; -254.031; -349.944
757.139; -220.000;-1098.031;-1116.944
757.400;  -79.997; -538.031; -553.945
757.660;   46.406; -365.031; -401.945
757.920;   12.708; -266.030; -228.945
758.181;   -6.489; -468.030; -351.946
758.441; -186.686; -870.030; -809.946
758.701;   -2.884; -308.030; -215.946
758.961;    1.719; -220.030; -278.947
759.222;  -46.778; -574.029; -502.947
759.482; -127.776; -683.029; -723.948
759.742; -133.373; -706.029; -547.948
760.002;   99.830;  -83.029; -143.948
760.262;  142.832;   50.972;  182.051
760.522;  -33.965; -498.028; -574.949
760.782;  -69.662; -738.028; -612.949
761.042;  -27.859; -618.028; -573.950
761.302;  128.143;   55.972;  -18.950
761.562;  165.246; -164.027; -154.951
761.822;  135.649; -710.027; -551.951
762.082;  -58.449;-1104.027;-1093.951
762.342;  140.454; -328.027; -403.952
762.601;  158.357; -567.027; -506.952
762.861;  584.459; -281.026; -207.952
763.121;  731.562; -406.026; -411.953
763.381;13787.065; -499.026; -485.953
763.640;12601.467; -139.026; -307.954
763.900;  673.170; -242.026; -203.954
764.160;  168.873; -458.025; -491.954
764.419;   16.075; -726.025; -782.955
764.679; -121.222; -795.025; -726.955
764.939;   38.781; -124.025; -210.955
765.198;  -86.517; -608.025; -563.956
765.458; -123.814; -710.024; -612.956
765.717; -113.211; -454.024; -590.957
765.976;  -54.109; -428.024; -411.957
766.236; -109.606; -475.024; -610.957
766.495;   80.397;  260.977;   73.042
766.755; -176.900;-1090.023; -987.958
767.014;   15.802; -594.023; -665.958
767.273;  -70.695; -373.023; -397.959
767.533;  -18.392; -228.023; -307.959
767.792;   -0.790; -151.022; -188.960
768.051;  -29.687; -228.022; -276.960
768.310; -146.884; -546.022; -650.960
768.569;   91.818; -161.022;    4.039
768.828;  -12.279; -285.022; -363.961
769.088; -188.176;-1050.021; -942.961
769.347; -128.574; -755.021; -599.962
769.606; -154.871; -876.021; -857.962
769.865; -208.768;-1016.021;-1033.963
770.124;   46.334; -411.021; -336.963
770.383; -101.563; -778.020; -910.963
770.641;   41.240; -398.020; -400.964
770.900; -151.558; -953.020; -846.964
771.159;  -72.055; -851.020; -951.964
771.418;  -33.552; -917.020; -779.965
771.677;  246.351; -224.019; -293.965
771.936;  191.253; -794.019; -865.966
772.194; 4133.756; -465.019; -437.966
772.453;16375.859; -213.019; -391.966
772.712; 1238.761;  416.982;  329.033
772.970;  229.764;   32.982;   63.033
773.229;  214.467;  -22.018;  102.033
773.488; -144.931; -814.018; -770.968
773.746;  169.572;  296.982;  335.032
774.005;   81.775;  190.983;  -22.969
774.263;   95.977;  243.983;  177.031
774.522; -129.720; -422.017; -548.969
774.780;  -92.717; -484.017; -417.970
775.039; -102.915; -551.017; -531.970
775.297;   39.788; -135.016; -351.970
775.555; -172.709; -489.016; -612.971
775.814; -165.107; -618.016; -570.971
776.072; -196.404; -749.016; -740.971
776.330; -151.601; -630.016; -520.972
776.589; -179.799; -703.015; -721.972
776.847; -216.296; -645.015; -624.973
777.105; -309.293;-1016.015;-1032.973
777.363; -115.090; -459.015; -454.973
777.621; -236.988; -660.015; -717.974
777.879;   30.515;  -42.014;   32.026
778.138; -187.982; -554.014; -717.974
778.396; -160.480; -585.014; -526.975
778.654; -293.877;-1015.014; -970.975
778.912;  -67.774; -269.014; -371.976
779.170; -233.972; -880.013; -803.976
779.427; -238.169; -922.013; -897.976
779.685; -221.966; -880.013; -832.977
779.943; -154.864; -654.013; -593.977
780.201; -278.561; -964.012; -883.978
780.459; -170.858; -651.012; -610.978
780.717; -120.156; -440.012; -390.978
780.974; -118.853; -449.012; -490.979
781.232;  -76.450; -358.012; -338.979
781.490; -119.348; -551.011; -472.979
781.747; -130.645; -555.011; -476.980
782.005;  100.358;  462.989;  254.020
782.263; -278.140; -542.011;-1004.981
782.520; -109.837; -326.011; -501.981
782.778; -310.934;-1013.010;-1051.981
783.035; -285.031; -962.010; -938.982
783.293;  -70.129; -248.010; -206.982
783.550;  -35.726; -134.010; -198.982
783.808; -206.523; -764.010; -776.983
784.065; -249.221; -745.009; -874.983
784.322;  -26.818;   25.991;  -86.984
784.580; -218.315; -915.009; -771.984
784.837; -143.913; -392.009; -466.984
785.094; -196.010; -783.009; -762.985
785.352;  -84.607; -304.008; -404.985
785.609; -170.805; -934.008; -839.985
785.866; -130.802; -345.008; -401.986
786.123; -109.999; -639.008; -583.986
786.380; -144.297; -665.008; -604.987
786.637;  -45.194; -225.007; -380.987
786.895;  -45.791; -456.007; -543.987
787.152;   -6.689; -135.007; -267.988
787.409;  -25.586; -123.007; -225.988
787.666; -119.083; -299.006; -378.988
787.923; -174.780; -616.006; -695.989
788.179; -128.878; -551.006; -584.989
788.436; -143.275; -585.006; -585.990
788.693;   32.628;  -92.006;  -87.990
788.950;  291.730; -125.005; -112.990
789.207;  299.933; -381.005; -372.991
789.464;  -72.264; -161.005; -301.991
789.720;   49.238;  150.995;  110.009
789.977; -294.059;-1003.005; -671.992
790.234;   -5.056;   44.996;  -66.992
790.490; -250.054; -884.004;-1031.993
790.747;    2.349;  -85.004;   22.007
791.004;    6.352; -426.004; -348.993
791.260;  -61.946; -430.004; -560.994
791.517; -156.743; -843.003; -788.994
791.773;  -54.840; -379.003; -342.994
792.030; -150.038; -596.003; -660.995
792.286; -127.235; -686.003; -636.995
792.543;   22.068;  -74.002; -159.995
792.799;  -38.430; -584.002; -382.996
793.055; -286.727;-1179.002;-1210.996
793.312; -161.524; -827.002; -816.997
793.568;  -71.621; -746.002; -599.997
793.824;   50.681; -226.001; -284.997
794.081;   70.284; -447.001; -508.998
794.337;  154.587; -664.001; -561.998
794.593; 2643.889; -319.001; -271.999
794.849;10277.192; -746.001; -772.999
795.105;  535.395; -270.000; -261.999
795.361;   37.497; -490.000; -457.000
795.617;  -89.300; -875.000; -945.000
795.873;  -44.200; -360.000; -407.000
796.129;  -39.400; -368.000; -306.000
796.385;   48.800; -124.000; -156.000
796.641;  199.300;  412.000;  550.000
796.897;  -94.100; -666.000; -635.000
797.153;  197.200;  453.000;  357.000
797.409; -172.200; -785.000; -868.000
797.665;  -86.200; -625.000; -732.000
797.921; -124.500; -775.000; -762.000
798.176;  -63.000; -744.000; -747.000
798.432;  -77.000; -824.000; -596.000
798.688; -176.400;-1174.000;-1078.000
798.943;  169.000; -165.000; -147.000
799.199;  -32.900;-1005.000; -959.000
799.455;  443.600;  369.000;  316.000
799.710;  196.900; -813.000; -380.000
799.966;  496.600; -162.000; -160.000
800.221;  739.300; -638.000; -721.000
800.477;17753.100; -743.000; -710.000
800.732;12226.700; -773.000; -800.000
800.988; 1047.000;  205.000;  -19.000
801.243; 3583.800; -454.000; -344.000
801.498;12127.200; -814.000; -739.000
801.754;  711.200; -289.000; -163.000
802.009;  187.300; -257.000; -335.000
802.264;  -98.800; -967.000;-1033.000
802.520;  127.100;  222.000;   -3.000
802.775;  -37.700; -524.000; -359.000
803.030;  161.300;  395.000;  356.000
803.285; -180.600; -840.000; -903.000
803.540;  -78.300; -686.000; -699.000
803.795;  -71.300; -648.000; -583.000
804.051;    3.200; -279.000; -346.000
804.306;  115.800;  168.000;  128.000
804.561;  305.000;  451.000;  362.000
804.816;  351.400;  714.000;  861.000
805.071;   67.200; -185.000; -280.000
805.325;  327.800; -257.000; -427.000
805.580; -148.100; -841.000; -877.000
805.835;   36.400; -204.000; -297.000
806.090; -124.400; -760.000; -676.000
806.345;   22.800; -344.000; -264.000
806.600;  -21.700; -549.000; -632.000
806.854;  -34.600; -408.000; -538.000
807.109;   45.500; -493.000; -577.000
807.364;   18.900; -407.000; -328.000
807.618;   33.900; -415.000; -381.000
807.873;   81.700; -470.000; -494.000
808.128;  173.100; -257.000; -518.000
808.382;  206.500; -224.000; -332.000
808.637;  149.300; -440.000; -511.000
808.891;  352.400; -257.000; -180.000
809.146;  136.400; -902.000; -794.000
809.400;  384.500; -848.000; -923.000
809.654;  530.400; -779.000; -551.000
809.909;  746.600; -841.000; -927.000
810.163;12340.700; -813.000; -651.000
810.418;24548.300; -940.000; -861.000
810.672; 1599.400; -685.000; -690.000
810.926; 1204.900; -993.000; -973.000
811.180; 2664.900; -439.000; -372.000
811.434;55915.500;  240.000;  135.000
811.689;17219.800; -231.000; -365.000
811.943;  924.800; -936.000; -953.000
812.197;  545.300; -893.000; -671.000
812.451;  261.500; -379.000; -514.000
812.705;  -13.300; -809.000; -619.000
812.959;  -55.500; -263.000; -388.000
813.213;   87.500; -283.000; -209.000
813.467;  202.500;  470.000;  253.000
813.721; -131.600; -764.000; -792.000
813.975; -174.300; -826.000; -877.000
814.229;  139.400;  430.000;  353.000
814.482;  -62.600; -517.000; -566.000
814.736; -169.500; -766.000; -744.000
814.990; -216.500; -779.000; -872.000
815.244;  -21.200; -228.000; -285.000
815.497; -137.100; -636.000; -601.000
815.751;   27.200; -141.000;   82.000
816.005; -118.400; -470.000; -586.000
816.258;  -60.600; -510.000; -363.000
816.512; -176.700; -693.000; -610.000
816.766;   97.800;  121.000;  157.000
817.019;   94.000;  148.000;  149.000
817.273; -176.700;-1000.000; -802.000
817.526;   -2.000; -206.000; -173.000
817.779; -120.600;-1049.000; -960.000
818.033; -129.000; -693.000; -807.000
818.286; -167.300; -725.000; -792.000
818.540; -129.900; -403.000; -403.000
818.793;  -87.600; -402.000; -489.000
819.046; -141.100; -582.000; -520.000
819.299;   14.700; -157.000; -166.000
819.553; -164.100; -552.000; -592.000
819.806; -253.700;-1016.000; -838.000
820.059;  -68.500; -334.000; -354.000
820.312;   78.200;  152.000;  185.000
820.565;   57.600;  110.000;  -27.000
820.818;   -0.400;  -59.000; -173.000
821.071; -290.100;-1041.000; -957.000
821.324; -134.100; -536.000; -540.000
821.577; -159.700; -457.000; -483.000
821.830;  -50.500; -270.000; -172.000
822.083; -199.600; -733.000; -288.000
822.336;  -50.200; -261.000; -167.000
822.589; -187.900; -805.000; -688.000
822.842; -219.000; -875.000; -770.000
823.094; -295.700;-1076.000;-1114.000
823.347; -226.600; -925.000; -729.000
823.600;   99.200;  402.000;  187.000
823.853;  -51.300; -311.000; -267.000
824.105;  -96.800; -331.000; -575.000
824.358; -162.200; -617.000; -716.000
824.611;   52.500;  234.000;   40.000
824.863;  -59.000; -612.000; -591.000
825.116;  118.000;  -33.000;   27.000
825.368;  149.800; -366.000; -372.000
825.621;  240.300; -186.000; -240.000
825.873;  122.500; -704.000; -737.000
826.126; 1096.000; -669.000; -641.000
826.378;18493.900; -389.000; -505.000
826.630; 3242.800; -890.000; -898.000
826.883;   41.300; -754.000; -693.000
827.135;   88.000; -279.000; -270.000
827.387; -168.200; -893.000; -839.000
827.639;   -2.200;  -86.000;   32.000
827.892; -194.100; -742.000; -582.000
828.144; -211.300; -848.000; -804.000
828.396;   20.200;  104.000;  -80.000
828.648; -141.600; -440.000; -333.000
828.900; -216.300; -702.000; -795.000
829.152; -168.500; -684.000; -683.000
829.404;  -69.600; -215.000; -267.000
829.656;  -94.900;  321.000;  214.000
829.908;   72.400;  393.000;  229.000
830.160; -275.700;-1064.000;-1047.000
830.412; -128.000; -481.000; -430.000
830.664; -180.700; -557.000; -665.000
830.916; -105.300; -268.000; -206.000
831.167; -298.000;-1073.000; -951.000
831.419; -160.700; -623.000; -566.000
831.671; -228.100; -764.000; -809.000
831.923;  -81.800; -311.000; -447.000
832.174; -113.000; -273.000; -331.000
832.426; -159.300; -493.000; -582.000
832.678; -318.400;-1043.000;-1091.000
832.929; -225.000; -947.000; -935.000
833.181; -112.800; -575.000; -677.000
833.432;  -67.900;  -59.000; -186.000
833.684;   11.400;  112.000;  -27.000
833.935; -159.200; -610.000; -566.000
834.187; -217.200; -829.000; -823.000
834.438;   -9.000;  -58.000;  -25.000
834.689;  -56.600; -255.000; -123.000
834.941;  -43.200; -343.000; -244.000
835.192; -128.500; -590.000; -533.000
835.443; -102.100; -419.000; -506.000
835.695;   42.000;  138.000;  -16.000
835.946; -140.500; -608.000; -378.000
836.197; -185.400; -599.000; -622.000
836.448; -120.600; -528.000; -395.000
836.699;  -70.500; -253.000; -341.000
836.950;   89.600;   72.000;    7.000
837.201; -242.500;-1003.000; -987.000
837.452;  -50.600; -356.000; -170.000
837.703; -179.000; -791.000; -737.000
837.954;  -25.400; -205.000; -365.000
838.205; -166.500;-1029.000;-1008.000
838.456;  263.000; -196.000; -282.000
838.707;   -3.600; -423.000; -519.000
838.958;   32.700; -634.000; -647.000
839.209;  442.500;   18.000;   40.000
839.460;  184.800; -439.000; -201.000
839.710;  299.400; -135.000; -297.000
839.961;  758.400;  730.000;  612.000
840.212;  520.500; -382.000; -497.000
840.462; 2007.000; -328.000; -277.000
840.713;29942.000; -571.000; -536.000
840.964; 8996.700;  -62.000; -143.000
841.214;  744.100; -384.000; -624.000
841.465;  934.600; -214.000; -141.000
841.715;  833.800; -417.000; -380.000
841.966; 1023.000; -746.000; -685.000
842.216;17602.900; -330.000; -431.000
842.466;50961.400; -169.000; -313.000
842.717; 2000.200; -964.000; -952.000
842.967;  528.900; -635.000; -641.000
843.217;  492.500;   20.000;   28.000
843.468;  155.500; -104.000; -132.000
843.718;  -45.800; -718.000; -726.000
843.968; -137.800; -837.000; -765.000
844.218;   85.500; -315.000; -262.000
844.469;  -65.000; -577.000; -561.000
844.719; -155.600; -537.000; -682.000
844.969; -118.600; -550.000; -580.000
845.219; -235.800; -814.000; -862.000
845.469;  -90.700; -392.000; -342.000
845.719; -225.600; -792.000; -884.000
845.969;   57.000;  119.000;  174.000
846.219; -190.300; -738.000; -720.000
846.469;  128.800;  464.000;  432.000
846.718;  -22.200; -115.000;   31.000
846.968; -227.200; -827.000; -827.000
847.218;  -29.600; -224.000; -371.000
847.468; -144.100; -586.000; -555.000
847.718; -244.400; -827.000; -798.000
847.967; -221.400; -826.000; -915.000
848.217; -112.500; -449.000; -569.000
848.467;  -45.600; -405.000; -376.000
848.716; -170.200; -708.000; -725.000
848.966;   -2.700; -372.000; -358.000
849.215;  -89.800; -428.000; -419.000
849.465; -169.500; -785.000; -615.000
849.714; -269.700;-1132.000;-1150.000
849.964;  -86.000; -551.000; -613.000
850.213;  -18.900; -393.000; -355.000
850.463;  194.900;  137.000;  340.000
850.712;  -19.500; -542.000; -567.000
850.961;   49.900; -739.000; -678.000
851.211;  148.700; -513.000; -504.000
851.460;  271.600; -635.000; -650.000
851.709;  923.500;  -25.000;   18.000
851.958;18052.400; -912.000; -750.000
852.208;16674.100; -859.000; -879.000
852.457;  683.300; -181.000;  -13.000
852.706;   41.300; -791.000; -823.000
852.955;   31.100; -507.000; -528.000
853.204;  -90.700; -521.000; -461.000
853.453; -128.800; -418.000; -458.000
853.702; -177.900; -660.000; -750.000
853.951; -128.600; -532.000; -520.000
854.200; -182.500; -613.000; -562.000
854.449; -219.200; -695.000; -661.000
854.698; -104.500; -340.000; -279.000
854.946;  -36.100; -181.000; -284.000
855.195; -236.100; -843.000; -868.000
855.444; -114.600; -395.000; -420.000
855.693; -169.300; -345.000; -432.000
855.941; -163.600; -387.000; -516.000
856.190;  -65.400; -256.000; -382.000
856.439; -192.400; -652.000; -703.000
856.687;    4.100;  -99.000;  -72.000
856.936; -148.700; -621.000; -323.000
857.184; -307.100;-1067.000;-1020.000
857.433; -148.900; -423.000; -512.000
857.681; -269.000; -989.000; -953.000
857.930;  -54.000; -282.000; -433.000
858.178; -274.200; -856.000; -929.000
858.427; -254.000; -802.000; -781.000
858.675; -185.300; -377.000; -544.000
858.923; -137.700; -527.000; -819.000
859.172; -311.900;-1094.000;-1070.000
859.420; -137.900; -339.000; -239.000
859.668; -220.000; -624.000; -628.000
859.916;   17.700;  109.000;  115.000
860.164; -151.800; -699.000; -603.000
860.413;  438.800; -878.000; -696.000
860.661;  184.000; -709.000; -577.000
860.909; -124.700; -339.000; -325.000
861.157; -116.700; -277.000; -444.000
861.405; -179.700; -534.000; -670.000
861.653;   92.300;  310.000;  310.000
861.901;  341.300; -543.000; -613.000
862.149;  -64.400; -801.000; -824.000
862.396;  -94.300; -297.000; -187.000
862.644; -100.600; -368.000; -347.000
862.892;   41.800;   98.000;  138.000
863.140; -192.600; -549.000; -530.000
863.388; -227.300; -815.000; -759.000
863.635; -210.000; -642.000; -601.000
863.883;   57.200;  231.000;  190.000
864.131; -155.000; -288.000; -357.000
864.378; -180.500; -675.000; -540.000
864.626; -160.200; -347.000; -415.000
864.873; -160.800; -556.000; -505.000
865.121; -232.600; -714.000; -799.000
865.368;  -33.800; -173.000;   75.000
865.616;  -15.600;  -33.000;  -40.000
865.863;  -71.200; -462.000; -506.000
866.111; -206.800; -795.000; -824.000
866.358;   82.900; -426.000; -420.000
866.605; 4176.000;  -64.000; -804.000
866.853; 3126.100; -621.000; -537.000
867.100; -106.900; -728.000; -775.000
867.347; -159.200; -672.000; -611.000
867.594; -123.000; -740.000; -714.000
867.841;  176.400;   97.000;   17.000
868.089; -239.800; -746.000; -698.000
868.336; -148.800; -477.000; -420.000
868.583; -209.800; -637.000; -741.000
868.830;  -44.500; -131.000; -170.000
869.077; -274.900; -859.000; -787.000
869.324; -183.200; -502.000; -458.000
869.571; -193.600; -398.000; -430.000
869.818; -162.100; -485.000; -439.000
870.065; -170.500; -439.000; -513.000
870.311; -165.200; -456.000; -542.000
870.558; -143.200; -332.000; -311.000
870.805; -100.400; -320.000; -384.000
871.052; -174.700; -494.000; -369.000
871.298;  -73.400; -204.000; -131.000
871.545;  -68.100; -151.000; -185.000
871.792;  -68.700; -173.000; -222.000
872.038;  -69.500;   43.000; -126.000
872.285; -187.700; -496.000; -387.000
872.532; -146.100; -357.000; -387.000
872.778;  142.000;  556.000;  403.000
873.025; -114.400; -384.000; -359.000
873.271;  127.100;  501.000;  578.000
873.517;    6.900; -133.000; -209.000
873.764;    2.600; -193.000;  -80.000
874.010;  -71.700; -143.000; -230.000
874.257;  -11.900;  123.000;   90.000
874.503; -205.000; -579.000; -479.000
874.749;  -51.600;   31.000;  275.000
874.995;  -65.800;  -80.000;  -20.000
875.242; -154.200; -540.000; -478.000
875.488; -151.800; -414.000; -439.000
875.734;  -22.200; -106.000; -234.000
875.980;  304.800; -872.000;-1032.000
876.226;  490.900; -157.000; -255.000
876.472;   79.400;  343.000;  237.000
876.718;   -1.000;  184.000;  158.000
876.964;  -12.200;   56.000;   55.000
877.210; -208.200; -547.000; -677.000
877.456; -210.600; -630.000; -557.000
877.702; -267.600; -821.000; -832.000
877.948; -169.300; -377.000; -497.000
878.193;  107.300;  361.000;  255.000
878.439; -118.400; -487.000; -472.000
878.685; -129.400; -272.000; -343.000
878.931; -188.000; -618.000; -676.000
879.176;  -75.800; -201.000; -201.000
879.422; -283.700; -933.000; -820.000
879.668;  203.400;   10.000;   79.000
879.913;  282.300;   53.000;  137.000
880.159;  -38.100; -112.000;  -17.000
880.404;  -63.400; -152.000; -162.000
880.650;   12.600;   91.000;  141.000
880.895; -239.300; -670.000; -710.000
881.141; -153.200; -454.000; -428.000
881.386; -204.700; -503.000; -658.000
881.631; -125.100; -311.000; -166.000
881.877;  -14.900;  112.000;  -13.000
882.122; -187.200; -684.000; -600.000
882.367;  -95.800; -136.000; -186.000
882.612;  -70.800;  -80.000; -176.000
882.858; -260.500; -877.000; -823.000
883.103; -101.400; -297.000; -267.000
883.348; -247.000; -759.000; -852.000
883.593; -221.500; -677.000; -602.000
883.838;  -34.900; -311.000;  -24.000
884.083;  127.900;  353.000;  288.000
884.328; -119.400; -564.000; -545.000
884.573;  -15.200; -196.000; -143.000
884.818;  342.200; -694.000; -531.000
885.063;  216.200; -348.000; -315.000
885.308; -144.200; -475.000; -398.000
885.553;   82.800;  245.000;  325.000
885.797; -196.900; -545.000; -615.000
886.042;  -51.500;    8.000;   58.000
886.287; -106.700; -253.000; -211.000
886.532;  -16.000;   26.000;  204.000
886.776; -142.000; -407.000; -525.000
887.021; -218.600; -621.000; -574.000
887.265; -252.200; -685.000; -689.000
887.510; -188.300; -557.000; -496.000
887.755; -121.000; -194.000; -164.000
887.999; -213.300; -552.000; -575.000
888.244;  -44.400;  -58.000;  161.000
888.488;   57.600;  371.000;  393.000
888.732; -188.700; -368.000; -520.000
888.977; -177.800; -622.000; -567.000
889.221; -241.800; -683.000; -659.000
889.465; -191.100; -422.000; -566.000
889.710;  -65.200;  -56.000; -299.000
889.954;   77.300;  579.000;  467.000
890.198; -219.000; -584.000; -707.000
890.442; -227.800; -716.000; -712.000
890.687; -232.300; -800.000; -753.000
890.931;  -96.600; -273.000; -210.000
891.175; -223.800; -502.000; -500.000
891.419;  -79.100; -105.000; -110.000
891.663; -100.600; -239.000; -112.000
891.907; -250.100; -801.000; -545.000
892.151; -290.600; -920.000; -815.000
892.395; -110.500; -274.000; -387.000
892.638;   46.900;  408.000;  291.000
892.882; -262.900; -780.000; -867.000
893.126;  115.300;  758.000;  558.000
893.370;  -99.700; -167.000; -168.000
893.614; -229.000; -714.000; -715.000
893.857; -133.400; -183.000; -197.000
894.101; -190.900; -527.000; -631.000
894.345;  -14.000;  300.000;  150.000
894.588;   91.100;  569.000;  380.000
894.832;  -90.400; -178.000;  -84.000
895.075;  -77.500;   15.000;  -92.000
895.319; -153.900; -552.000; -420.000
895.563; -137.600; -413.000; -353.000
895.806; -245.600; -628.000; -741.000
896.049;  -53.900; -576.000; -368.000
896.293;  209.600;  527.000;  405.000
896.536; -102.500; -465.000; -468.000
896.779;  -29.400; -149.000;   -1.000
897.023; -234.300; -751.000; -714.000
897.266;   18.500;  325.000;  269.000
897.509; -306.000; -900.000; -901.000
897.752;  -13.300;  149.000;  171.000
897.996; -288.300; -972.000; -864.000
898.239;    2.700;  168.000;  102.000
898.482; -176.900; -431.000; -453.000
898.725;   19.600;  101.000;   53.000
898.968; -272.000; -609.000; -744.000
899.211; -143.100; -513.000; -361.000
899.454; -196.900; -633.000; -539.000
899.697;  -48.200;   90.000;  -43.000
899.940; -281.000; -761.000; -757.000
900.182; -122.700; -335.000; -405.000
900.425; -108.200; -150.000; -298.000
900.668;   48.600;  491.000;  350.000
900.911; -155.900; -292.000; -345.000
901.154;  -24.500;  141.000;   -3.000
901.396; -227.500; -407.000; -412.000
901.639; -201.400; -430.000; -496.000
901.882; -298.600; -790.000; -809.000
902.124;  -59.900;  -29.000; -143.000
902.367; -164.400; -315.000; -361.000
902.609; -204.600; -476.000; -453.000
902.852; -120.500; -108.000; -260.000
903.094; -174.800; -458.000; -337.000
903.337;  -27.500;  -26.000;   53.000
903.579; -141.700; -228.000; -441.000
903.821; -234.900; -597.000; -744.000
904.064;    9.900;   85.000;  127.000
904.306;  -95.000; -126.000; -166.000
904.548; -119.600; -152.000; -366.000
904.790; -114.800; -195.000; -340.000
905.033; -177.200; -625.000; -577.000
905.275; -183.600; -513.000; -524.000
905.517;  171.800;  468.000;  256.000
905.759; -129.100; -667.000; -761.000
906.001; -151.000; -322.000; -369.000
906.243;  -53.900; -162.000; -224.000
906.485;  261.300; -265.000; -207.000
906.727;  122.800; -499.000; -542.000
906.969;    3.900;  -30.000; -135.000
907.211;  244.000; -316.000; -382.000
907.453;  435.400; -188.000; -237.000
907.695;   27.700; -158.000; -385.000
907.936;  159.600;  818.000;  706.000
908.178;  -65.500;   92.000; -135.000
908.420;  -57.000; -111.000; -162.000
908.662; -233.800; -633.000; -682.000
908.903; -117.200; -208.000; -123.000
909.145;  -56.200; -240.000; -305.000
909.386;   83.400;  315.000;  280.000
909.628;  145.600;  363.000;  397.000
909.870;   81.700;   29.000;  264.000
910.111; -166.800; -809.000; -949.000
910.353;   60.000; -123.000; -161.000
910.594;   38.900; -574.000; -606.000
910.835;  218.400; -265.000; -326.000
911.077;  295.400; -503.000; -604.000
911.318;  554.600; -505.000; -471.000
911.559;  869.400; -577.000; -880.000
911.801; 2609.000; -284.000; -280.000
912.042;22800.300;  -50.000; -159.000
912.283;47480.600;  404.000;  371.000
912.524; 5665.000; -396.000; -457.000
912.765;  879.600; -193.000;   79.000
913.006;  462.900; -307.000; -338.000
913.247;  122.600; -270.000; -290.000
913.488;   37.800;  -43.000;   30.000
913.729; -104.700; -373.000; -373.000
913.970;  -74.300;  -96.000; -292.000
914.211;  -64.900; -160.000; -198.000
914.452;  -74.900; -118.000;  -11.000
914.693;  114.000;  510.000;  592.000
914.934;   76.100;  510.000;  440.000
915.175;  -43.300;   53.000;  -95.000
915.415;  -90.500; -137.000;   27.000
915.656;  -35.400;  -28.000;  192.000
915.897; -107.500; -252.000;  -82.000
916.137;  -89.200;   74.000;   -9.000
916.378; -239.100; -573.000; -517.000
916.619; -117.100; -159.000;  -63.000
916.859;   13.100;  303.000;  330.000
917.100;  384.400; 1655.000; 1070.000
917.340;  177.400;  930.000;  728.000
917.581;  181.600;  965.000;  789.000
917.821;   -8.900; -171.000;  143.000
918.061;    8.100; -199.000;  -72.000
918.302;  -33.200; -152.000; -211.000
918.542;    6.200;  -22.000;    3.000
918.782;  125.300;  369.000;  377.000
919.023;  283.800;  360.000;  427.000
919.263; 3593.000; 8131.000;  202.000
919.503; 1681.900; -137.000;  -54.000
919.743; 1073.100;  390.000;  266.000
919.983;  431.100; -134.000;  -26.000
920.223;  141.500;  135.000;   14.000
920.463;  320.800;  631.000;  554.000
920.703;  261.600;   84.000;   39.000
920.943;  298.900; -110.000;   90.000
921.183;  389.900; -414.000; -405.000
921.423;  928.900;  307.000;  546.000
921.663; 1194.400; -174.000; -257.000
921.903; 2854.000;  237.000;  173.000
922.143;16859.200;  372.000;  389.000
922.383;56786.300;  158.000;  115.000
922.622;14532.600; -120.000;  -15.000
922.862; 1832.500;  796.000;  785.000
923.102;  732.600;  -51.000;   33.000
923.341;  321.300;   59.000;   74.000
923.581;  154.900;  450.000;  360.000
923.821;   75.100;  301.000;  398.000
924.060;   86.100;  351.000;  193.000
924.300;  -62.400;  -16.000; -128.000
924.539;   38.300;  584.000;  473.000
924.779;   91.800;  812.000;  597.000
925.018;   -9.600;  247.000;  353.000
925.257;   97.900;  595.000;  666.000
925.497;  -15.900;  447.000;  412.000
925.736;  -84.900;  -35.000;  102.000
925.975;   61.800;  687.000;  669.000
926.214;  144.000;  907.000;  850.000
926.454;  105.000;  706.000;  757.000
926.693;   12.100;  419.000;  543.000
926.932;  149.800; 1021.000;  825.000
927.171;  225.300; 1107.000; 1044.000
927.410;  201.600; 1144.000;  967.000
927.649;  143.500;  924.000;  742.000
927.888;   67.300;  590.000;  564.000
928.127;   81.900;  680.000;  678.000
928.366;  160.800;  842.000;  826.000
928.605;  179.900;  831.000;  737.000
928.844;  519.700; 1451.000; 1393.000
929.083; 1055.100;  770.000;  613.000
929.321;  568.900; 1335.000; 1359.000
929.560;  235.300; 1158.000; 1122.000
929.799;    5.100;  574.000;  475.000
930.038;  277.700; 1025.000; 1394.000
930.276;  -43.300;  334.000;  397.000
930.515;   81.000;  827.000;  681.000
930.753;   22.800;  614.000;  589.000
930.992;   36.100;  664.000;  717.000
931.230;   79.400;  847.000;  847.000
931.469;  439.500; 2162.000;  892.000
931.707;  229.600;  840.000;  751.000
931.946;  272.700; 1278.000; 1344.000
932.184;  211.500; 1437.000; 1175.000
932.423;  204.100; 1265.000;  963.000
932.661;  233.800; 1296.000; 1428.000
932.899;  132.700;  987.000;  821.000
933.137;  102.300;  754.000;  564.000
933.376;  368.700; 1664.000; 1335.000
933.614;  392.400; 1759.000; 1196.000
933.852;  189.000; 1357.000; 1171.000
934.090;  350.100; 1722.000; 1747.000
934.328;  313.900; 1252.000; 1457.000
934.566;  238.900; 1431.000; 1110.000
934.804;  307.000; 1263.000; 1309.000
935.042;  932.300; 1861.000; 1850.000
935.280; 3484.200; 2088.000; 2063.000
935.518; 2640.700; 2113.000; 2007.000
935.756;  698.900; 2481.000; 2316.000
935.994;  376.800; 1808.000; 1751.000
936.231;  809.000; 2890.000; 2950.000
936.469;  447.700; 2367.000; 2378.000
936.707;  418.100; 2220.000; 2167.000
936.945;  556.800; 2825.000; 2882.000
937.182;  526.300; 2679.000; 2741.000
937.420;  719.300; 3602.000; 3031.000
937.657;  920.500; 3365.000; 3478.000
937.895;  754.400; 3331.000; 3488.000
938.133;  737.200; 3540.000; 3528.000
938.370;  793.500; 3896.000; 4191.000
938.607;  874.500; 4488.000; 4205.000
938.845; 1237.200; 5587.000; 5549.000
939.082; 1074.700; 5387.000; 5177.000
939.320; 1146.100; 5799.000; 5728.000
939.557; 1357.100; 6549.000; 6491.000
939.794; 1531.200; 7285.000; 7097.000
940.031; 1978.900; 8421.000; 8368.000
940.269; 2196.900; 9552.000; 9107.000
940.506; 2368.500;10901.000;10507.000

