
Integration time [ms]: 100.000
Averaging Nr. [scans]: 40
Smoothing Nr. [pixels]: 0
Data measured with spectrometer [name]: 2101013U2
Wave   ;Sample   ;Dark     ;Reference
[nm]   ;[counts] ;[counts] ;[counts] 

394.013;   60.653; -450.257; -315.536
394.305;  162.951; -461.258; -419.536
394.596; 1603.898; -676.269; -527.514
394.887; 4325.218; -796.268; -654.518
395.178; 1549.081;  145.736;   11.476
395.470;   96.245; -210.263; -356.526
395.761;  157.712;  305.734;  394.479
396.052;   76.967; -545.284; -306.489
396.343;   66.004; -557.276; -454.503
396.634;   41.515; -200.279; -290.497
396.926;   24.915; -618.268; -565.517
397.217;   74.510;   11.725;  -17.504
397.508;   44.829; -366.273; -154.507
397.799;   35.440; -555.279; -571.497
398.090;    6.458; -973.280; -902.495
398.381;   54.799;   11.708;  -11.473
398.672;  -13.574; -585.292; -742.473
398.963;   22.648; -348.279; -373.498
399.254;   95.787;   54.709; -209.475
399.545;  -21.692;-1017.266; -883.520
399.836;   55.915; -407.277; -343.501
400.127;   49.195; -205.295; -209.468
400.418;   31.397; -423.274; -392.506
400.709;   38.492; -359.281; -333.493
401.000;   56.417; -268.291; -309.476
401.290;  114.291;  225.698;  115.545
401.581;   83.596; -166.286; -228.485
401.872;   42.635; -542.298; -486.462
402.163;   82.211; -313.296; -252.467
402.454;  116.388; -123.291; -163.475
402.744;   59.575; -844.297; -813.465
403.035;  247.814; -226.293;  -86.471
403.326;  322.004; -366.292; -384.474
403.617;  331.353;  204.701;  165.539
403.907;  383.824; -593.283; -679.490
404.198; 3681.959; -545.307; -599.446
404.489; 9447.981; -618.283; -588.491
404.779; 2601.846; -618.302; -660.456
405.070;  328.219;  -67.304; -174.451
405.360;  515.691; -259.293; -238.472
405.651;  498.259;  125.699;   98.542
405.942;  179.140;  209.714;  127.516
406.232;  100.908; -432.285; -413.487
406.523;  251.757;  641.706;  758.530
406.813;   78.968; -579.286; -644.484
407.104;  223.798;  261.708;  144.527
407.394;  102.780; -604.299; -591.462
407.685;  162.857;  336.715;  222.513
407.975;   85.679; -400.283; -382.490
408.265;  120.956; -134.289; -190.478
408.556;   81.284; -472.291; -459.475
408.846;  186.358;  474.706;  429.530
409.137;  118.741;   -1.288; -216.480
409.427;   90.833; -193.285; -271.487
409.717;   76.058; -776.273; -692.508
410.007;  146.300;    4.715; -170.486
410.298;  132.698; -360.295; -342.469
410.588;  103.830; -495.285; -510.486
410.878;   64.880; -792.287; -873.482
411.168;  133.888; -481.298; -478.463
411.459;  170.797; -295.283; -242.489
411.749;   95.707; -609.292; -507.474
412.039;  106.214; -755.289; -386.480
412.329;  230.057;   40.722;  132.501
412.619;  234.818;  -62.286; -148.485
412.909;  376.534;  639.711;  594.521
413.199;  322.534; -130.280; -251.495
413.490;  393.322;  521.710;  352.523
413.780;  230.989;-1013.279; -913.496
414.070;  392.980;  -46.276;  235.497
414.360;  430.602; -729.278; -666.498
414.650;  568.350; -726.288; -688.482
414.940;  788.913; -538.280; -441.496
415.230; 1293.621;   50.712;   74.519
415.520; 8750.197;  155.730;   66.486
415.809;35433.367; -305.281; -125.493
416.099;26469.768; -388.277; -229.501
416.389; 7986.745;  435.726;  236.494
416.679; 4621.575;   91.738;   85.473
416.969;  804.686; -527.287; -503.483
417.259;  707.566;  341.721;  171.503
417.549;  936.865;  522.718;  318.508
417.838; 2486.393; -205.268; -147.518
418.128; 8558.329;  650.710;  492.522
418.418; 6967.566; -491.272; -579.509
418.708; 4672.420;    9.726;  -48.506
418.997;18341.865; -474.275; -480.505
419.287;18523.303; -733.273; -790.507
419.577;18187.571; -160.283; -123.489
419.866;57965.691; -588.277; -498.501
420.156;56269.717; -242.270;  -55.513
420.446; 9228.090; -112.263;  -26.526
420.735;  931.509; -376.271; -446.512
421.025;  948.076; 1830.722;  315.502
421.314;  585.432; -203.271; -226.512
421.604;  665.909;   89.732;  233.484
421.893;  438.952; -705.271; -602.511
422.183;  320.366; -487.263; -461.526
422.472;  424.479;  -36.271; -107.511
422.762;  424.665; -416.266; -379.521
423.051;  297.406; -916.276; -916.503
423.341;  361.606; -491.273; -439.507
423.630;  431.697; -121.265;   15.477
423.919;  459.464;   58.725;   49.495
424.209;  513.797;  -31.263;   56.473
424.498;  677.765;   68.732;  161.483
424.787; 1524.247; -535.267; -601.518
425.077; 4439.321;   34.735;   29.478
425.366; 4626.279; -734.262; -744.528
425.655;13704.781;  639.727;  259.493
425.945;35619.964; -313.247; -268.554
426.234;18614.882;  117.741;  300.467
426.523; 7538.514;  -86.259; -350.534
426.812;10109.160;  107.734;  159.480
427.101;15326.279; -127.269; -323.515
427.390;17826.122;  -55.270;  -86.514
427.680; 2445.788; -624.257; -411.538
427.969;  515.652; -330.255; -301.540
428.258;  392.803; -385.257; -477.536
428.547;  520.146;  449.728;  397.490
428.836;  717.897; -421.253; -398.543
429.125;  937.541; -199.259;  -72.534
429.414;  809.050; -330.251; -294.548
429.703; 4628.325; -231.251; -213.548
429.992;14493.504; -938.250; -828.549
430.281; 9076.882; -397.264; -331.524
430.570;  642.488;  -21.252;   32.454
430.859;  458.488;  279.741;  352.466
431.148;  487.209;  636.752;  631.446
431.437;  355.762;  391.748;  367.454
431.725;  230.905; -544.257; -481.536
432.014;  258.056; -845.253; -756.545
432.303;  462.803; -149.239; -105.569
432.592;  589.715; -460.263; -178.525
432.881; 1498.135; -601.248; -437.554
433.169; 9837.728; -343.255;  -61.540
433.458;19783.895;  445.765;  540.424
433.747; 7681.586; -397.261; -289.529
434.036;  983.898; -275.242; -280.564
434.324; 3021.020; -395.249; -379.551
434.613; 5439.215;   40.757;  159.437
434.902; 1554.166;  333.760;  439.433
435.190;  304.426;   75.761;  295.431
435.479;  186.642;  -52.245;   83.441
435.767;  131.627; -411.244; -427.561
436.056;  241.418; -340.242; -294.563
436.345;  545.219; -372.240; -223.568
436.633;  474.364;   60.750;  383.450
436.922;  230.471;  208.760;  414.432
437.210;  223.707; -194.236;    1.426
437.499;  434.142; -583.235; -432.576
437.787;  501.357; -339.236;  -10.574
438.075;  213.358;   56.761;  162.430
438.364;  206.111;  -44.238;  250.429
438.652;  136.791; -286.226; -138.592
438.941;   99.822;    3.770;  269.415
439.229;   20.034; -665.252; -466.545
439.517;   45.853; -160.234;  -85.577
439.806;   24.186; -501.225; -290.595
440.094;  167.262;  377.766;  650.421
440.382;   62.342; -653.233; -302.580
440.670;   69.117; -361.235; -285.576
440.959;   21.807; -347.223; -170.599
441.247;   57.011; -151.229; -109.587
441.535;   67.001; -266.235;   31.423
441.823;   13.209; -497.234; -305.578
442.111;  175.016;  173.771;  327.412
442.400;  304.617; -628.245; -335.559
442.688;  475.987; -111.234; -620.579
442.976;  228.791; -786.213; -450.617
443.264;   63.794; -324.224; -364.597
443.552;   61.393; -258.226;   51.408
443.840;  137.874;  602.765;  876.423
444.128;  102.366;  265.767;  269.420
444.416;   -0.106; -694.228; -312.588
444.704;   42.269; -465.219;  -92.605
444.992;   64.521;   -0.226;  240.407
445.280;   23.573; -517.230;  -94.585
445.568;    4.370; -694.212; -396.618
445.856;  146.449; -174.221;  357.398
446.143;  251.514;  -54.220;   -7.604
446.431;  218.999;  -25.228;  625.411
446.719;  164.318;  489.783;  675.391
447.007;  152.841;  481.769;  705.416
447.295;  180.954;  597.777;  871.402
447.583;  109.233; -464.229;  -34.587
447.870;  116.970; -434.221; -202.601
448.158;  254.121; -104.230;  129.415
448.446;  157.566; -800.219; -338.604
448.733;  160.896;   13.776;  269.403
449.021;  215.770;   60.788;  341.382
449.309;  192.514; -296.210;  208.379
449.596;  261.188;  128.783;   59.392
449.884;  239.512; -571.222; -325.600
450.172;  314.855; -756.227; -406.590
450.459;  684.745;  645.786;  780.387
450.747; 3905.461; -411.218; -147.608
451.034;12542.250;  493.772;  889.411
451.322;10005.999; -413.214; -170.614
451.609;  784.673;  292.777;  508.403
451.897;  962.167; -550.203; -183.634
452.184; 2836.354; -622.223; -400.598
452.472; 2489.665;   97.792;  269.375
452.759;  407.166;  512.781;  864.395
453.047;  122.417; -407.212; -125.617
453.334;   76.176; -732.219; -216.606
453.621;   84.027; -438.214; -161.615
453.909;  126.582;   13.796;  384.368
454.196;  150.363; -299.199; -123.641
454.483;  285.308;  317.798;  540.364
454.771;  183.919; -215.208;  196.374
455.058;   82.248; -316.207;  102.374
455.345;  193.906;   71.807;  344.347
455.632;  146.002; -128.207;  235.373
455.919;   96.791;  -82.196;  182.354
456.207;  -19.957; -774.198; -450.642
456.494;   24.898; -475.200;  -66.639
456.781;   44.327; -399.202; -198.635
457.068;   96.560; -253.206;  -29.628
457.355;   16.111; -698.206; -401.629
457.642;   27.268; -552.205; -290.630
457.929;   61.420; -778.194; -417.651
458.216;  146.542; -575.212; -354.617
458.503;  422.501; -173.193;  -19.652
458.790;  454.816; -864.208; -630.625
459.077;  411.433;  -77.202;  110.364
459.364; 1254.986; -350.195; -210.649
459.651; 2643.232;  -46.206;  220.372
459.938; 1174.929; -864.209; -665.623
460.225;  123.887;  132.799;  276.363
460.512;   -9.113; -836.197; -688.645
460.799;  148.935;  -32.218;  320.392
461.086;  136.553; -370.200; -251.640
461.372;   46.519; -509.198; -279.642
461.659;   78.417; -165.196;  108.354
461.946;   57.824; -445.193;  -54.651
462.233;  229.500;  842.800;  888.361
462.519;  529.571; -814.201; -464.639
462.806; 1577.388; -768.197; -497.645
463.093; 1326.125; -445.191;  -66.656
463.380;   29.776; -920.186; -824.664
463.666;   82.990; -259.197;  -18.646
463.953;  153.605; -406.195; -243.648
464.239;  318.955; -173.195;  -77.648
464.526;  431.193;  413.806;  743.350
464.813;  331.089; -565.190; -304.658
465.099;  376.450;  606.807;  607.348
465.386;  284.330;  903.807;  921.348
465.672;   65.313; -694.197; -522.645
465.959;   76.161; -598.188; -520.662
466.245;   19.930; -468.193; -359.652
466.532;   77.652; -109.195;   63.352
466.818;   47.925; -357.186; -216.664
467.104;   13.075; -488.182; -415.672
467.391;   11.491; -628.189; -459.658
467.677;   54.530; -289.186;    9.335
467.964;   29.300; -682.189; -471.660
468.250;   79.983; -331.186; -160.665
468.536;  101.043;   90.811;  180.341
468.822;   16.998; -821.184; -574.668
469.109;  160.025;  351.827;  471.311
469.395;  224.442;  729.808;  787.346
469.681;  252.197;   46.811;  156.341
469.967; 1887.202; -699.188; -382.660
470.254; 4176.787; -494.188; -306.662
470.540; 2548.790; -601.196; -476.646
470.826;  402.814; -488.181; -397.675
471.112;  446.327;  288.816;  113.331
471.398;  120.733; -253.183;  -58.670
471.684;   72.399; -626.177; -447.680
471.970;   71.844; -918.180; -981.675
472.256;  100.466; -521.192; -441.654
472.542;   62.239; -499.171; -434.691
472.828;   56.795; -743.182; -607.672
473.114;   66.443; -380.166; -283.700
473.400;   43.469; -504.175; -293.684
473.686;   66.275; -452.166; -400.701
473.972;   85.763; -230.174; -131.687
474.258;   30.975; -925.173; -843.689
474.544;  372.914; -183.178;   -2.679
474.830;  544.697;  -65.175;   45.316
475.116;  859.541; -123.190; -196.658
475.401; 1133.047; -558.180; -467.676
475.687;  323.070; -725.180; -718.676
475.973;   16.530; -673.181; -770.673
476.259;  269.649;  736.825;  764.315
476.544;  595.634; -539.176; -437.682
476.830; 1453.309; -398.172; -322.690
477.116; 1276.407; -430.177; -336.682
477.401;  189.146;  346.820;  358.324
477.687;   20.045; -289.175; -405.684
477.973;   57.334;   21.819;   28.326
478.258;    8.451; -448.163; -348.706
478.544;   49.615;   21.815;   61.334
478.829;  -25.579; -818.171; -738.692
479.115;   -9.542; -749.172; -651.690
479.401;   26.057; -444.174; -449.686
479.686;   87.619; -253.180;  -74.676
479.972;   34.020; -886.178; -776.680
480.257;   78.144; -258.166;  -65.700
480.542;   63.825; -614.170; -469.693
480.828;  272.067; 1288.824; 1392.317
481.113;   -0.260; -464.176; -426.683
481.399;   23.305; -236.161; -202.711
481.684;  -22.306; -620.166; -462.700
481.969;   47.847; -158.159;  -73.713
482.255;   28.364; -439.169; -285.695
482.540;   40.021; -569.178; -441.680
482.825;   78.895; -395.187; -404.663
483.110;  181.693;  -85.169; -105.696
483.396;  420.324; -840.157; -652.718
483.681;  791.963;  543.826;  730.313
483.966;  321.039; -696.160; -700.712
484.251;   13.536; -404.174; -310.687
484.536;   32.582; -356.165; -378.703
484.822;   62.890; -205.173; -218.687
485.107;   11.721; -599.152; -502.726
485.392;  161.164;  662.836;  541.296
485.677;  100.605;  354.832;  163.302
485.962;  128.795;  160.843;  270.283
486.247;  139.261;  -14.162;   -8.707
486.532;   98.896; -178.166; -325.701
486.817;  200.148;  381.839;  431.291
487.102;  161.800; -453.154; -514.722
487.387; 1120.201; -637.156; -652.718
487.672; 2006.595; -154.164;  -38.705
487.957; 1223.282; -394.160; -286.711
488.241;  360.091; -290.150; -314.729
488.526; 1201.997; -280.152; -148.726
488.811; 2025.023; -881.177; -818.680
489.096; 1424.928; -666.154; -702.723
489.381;  732.018;    3.847;  162.275
489.666;  687.680; -428.161; -510.710
489.950;  228.207;  558.846;  627.277
490.235;   -3.990; -480.151; -458.728
490.520;   -0.046; -756.161; -723.710
490.804;   -4.422; -827.156; -736.719
491.089;   51.886; -469.149; -299.732
491.374;   59.119; -132.164;  -75.704
491.658;   15.825; -817.147; -717.735
491.943;  134.253; -657.152; -609.727
492.227;  218.295; -178.155;  -38.721
492.512;   39.320; -294.157; -341.717
492.797;  -30.797; -713.149; -716.731
493.081;  -22.696; -588.147; -598.735
493.366;   -6.294; -751.161; -635.711
493.650;  252.169;  831.859;  917.254
493.935;   88.874; -648.147; -447.734
494.219;   -6.947; -778.142; -687.743
494.503;  -21.453; -585.150; -487.730
494.788;   71.010;   46.842;   74.285
495.072;  138.793;  184.850;  434.271
495.356;  245.465; -463.148; -343.733
495.641;  555.337; -812.146; -736.736
495.925;  464.634; -976.156; -903.719
496.209;   54.660; -599.149; -451.732
496.494;   -6.071; -763.142; -544.744
496.778;   30.400; -364.154; -360.722
497.062;  -12.291; -819.156; -627.719
497.346;   26.759; -869.160; -640.711
497.631;  213.844;  580.852;  560.266
497.915;   95.875;  -64.145;  175.261
498.199;   53.399; -341.157; -277.718
498.483;   41.920; -562.152; -508.725
498.767;  271.769;  301.850;  300.271
499.051;  302.307; -126.149; -100.732
499.335;   90.805; -693.149; -739.731
499.619;   -6.581; -381.129; -423.767
499.903;   42.043; -272.155;  -65.721
500.187;   45.309; -588.153; -316.724
500.471;   53.952; -796.152; -595.727
500.755;  111.379;   62.839;  -96.710
501.039;   27.469; -270.155; -357.721
501.323;   86.496;  -21.141;  264.254
501.607;   46.926; -447.163; -503.706
501.891;    8.250; -607.156; -512.718
502.174;  -25.161; -726.144; -585.741
502.458;   73.457;   89.849;  370.273
502.742;   65.201; -180.138; -191.751
503.026;  217.749; -412.147; -254.734
503.310;  348.945; -437.159; -375.713
503.593;  216.626; -464.147; -325.735
503.877;  166.826; -232.133; -156.760
504.161;  188.387;    2.847;  -50.724
504.444;  202.887; -841.158; -710.716
504.728;  804.093; -487.164; -522.704
505.012; 1123.166; -257.150;  -76.729
505.295;  830.030; -417.161; -212.711
505.579;  854.059; -256.156; -496.719
505.862; 1301.745; -555.145; -333.738
506.146; 1303.573; -681.159; -758.714
506.429;  607.074;  568.841;  461.286
506.713;  167.137; -732.151; -667.728
506.996;  511.474;   90.846;  295.278
507.280;  590.837; -633.165; -474.703
507.563;  396.291; -469.155; -261.721
507.847;  215.910; -423.153; -112.724
508.130;  199.356; -665.161; -456.711
508.413;  262.964; -758.167; -577.700
508.697;  425.389; -151.167;   12.300
508.980;  301.386; -422.153; -312.724
509.263;   30.462; -466.155; -450.720
509.547;   61.740; -124.150;   82.271
509.830;   74.684; -172.160;  140.289
510.113;  110.033;  128.844;  298.281
510.396;   75.668; -530.152; -300.725
510.680;   48.997; -818.145; -812.738
510.963;  196.380;  184.846;  180.277
511.246;  110.625; -493.150; -357.730
511.529;  301.653; -482.145;  -83.739
511.812;  649.172; -250.134;   10.241
512.095;  473.633; -740.151; -396.728
512.378;  119.181; -317.147; -245.736
512.661;   93.460; -703.137; -623.753
512.944;  106.506; -750.142; -637.744
513.227;  123.957; -170.137; -171.752
513.510;   76.263; -479.144; -671.741
513.793;   51.127; -485.140; -435.747
514.076;  186.145;  -43.127;  -39.771
514.359;  181.711; -294.149; -135.732
514.642;  164.960; -442.142; -567.744
514.925; 1153.700;  581.860;  561.253
515.208; 1725.942; -498.134; -443.758
515.491; 1051.634; -276.133; -182.761
515.773;  607.368; -410.143; -337.742
516.056; 3394.443;  249.864;  409.246
516.339; 4431.948; -754.136; -652.755
516.622; 2005.322; -518.150; -488.730
516.904;  520.902;  882.857;  975.257
517.187;  205.580; -730.138; -523.752
517.470;  448.275; -568.143; -510.743
517.752;  741.127; -624.136; -470.756
518.035;  609.715; -708.139; -725.749
518.318;  640.948; -799.136; -744.755
518.600; 4084.864; -300.132; -325.762
518.883; 5625.184;  310.858;   88.256
519.165; 2570.921; -585.138; -426.751
519.448;  458.438;  -61.132;  -19.762
519.730;  231.054; -573.126; -415.773
520.013;  256.804;  588.867;  664.240
520.295;  286.224;  -94.134;  -15.759
520.578;  578.179; -335.131; -305.764
520.860;  786.413; -254.132;   56.238
521.143;  618.029; -763.135; -584.756
521.425;  592.470; -251.125; -279.775
521.707;  997.746; -622.127; -380.771
521.990; 2851.421; -199.127;  167.229
522.272; 3271.154; -116.140;   -4.748
522.554; 1186.244; -237.143; -157.742
522.836;  256.721;  -24.134;   99.241
523.119;  201.722; -496.148; -189.734
523.401;  190.188; -448.130; -314.766
523.683;  199.836; -865.137; -693.753
523.965;  430.853;  408.862;  260.248
524.247;  473.422;   54.878;  170.220
524.529;  350.848; -451.134; -367.759
524.812;  514.040;   -3.130;  191.234
525.094; 1408.452; -773.138; -631.751
525.376; 2242.307; -143.124;   78.223
525.658; 1366.145; -441.136; -339.754
525.940;  120.975; -805.131; -671.764
526.222;   48.399; -188.136;  -88.755
526.504;   74.023; -190.131;   32.237
526.786;   34.627; -960.133; -647.760
527.068;  102.013; -124.123;  -67.778
527.349;  -12.659; -865.137; -774.754
527.631;  152.438; -137.132;   22.238
527.913;  233.595; -664.127; -450.771
528.195;  345.137; -761.125; -639.774
528.477;  404.042;  -93.134;  -30.758
528.759;  296.415; -648.130; -522.766
529.040;  160.587; -569.123; -293.778
529.322;   98.540; -235.125;  -10.774
529.604;   93.193;  -47.130;   93.233
529.886;   54.179; -546.126; -302.773
530.167;   86.707;  232.870;  192.235
530.449;   56.205;    1.853;   63.265
530.731;   86.196; -572.122; -459.779
531.012;  184.096; -513.120; -216.784
531.294;  143.195; -118.116;  -43.792
531.575;  236.395;  290.875;  538.225
531.857;  155.661; -548.135; -266.757
532.138;  133.120; -113.141;   40.254
532.420;  123.056;  294.865;  403.244
532.701;   77.780; -722.133; -751.760
532.983;  181.833;  232.867;  182.239
533.264;   59.702; -243.126;  175.228
533.546;  -25.001; -491.136; -508.755
533.827;   42.950;  173.867;   -1.759
534.109;   46.311; -352.135;  -80.757
534.390;  116.693; -725.132; -582.762
534.671;  339.306; -270.135;  -82.756
534.953;  230.465; -751.123; -611.779
535.234;   70.151; -426.117; -255.789
535.515;  -27.943; -891.119; -735.785
535.796;   27.790; -431.128; -193.770
536.078;  -81.469;-1050.124; -904.777
536.359;   25.841;  -22.123;    3.221
536.640;    6.239; -480.125; -197.774
536.921;  175.724;  225.871;  143.232
537.202;  555.673;  -87.138;  -16.751
537.483;  702.279;  251.869;  377.236
537.764;  279.758;   17.870;   98.235
538.045;  -19.784; -543.134; -371.758
538.326;    2.201; -596.129; -447.768
538.607;   77.897; -686.127; -476.771
538.888;  292.885;   98.879;    5.218
539.169;  326.003; -704.122; -535.781
539.450;  429.798;  236.871;   16.233
539.731;  271.240; -361.121; -182.783
540.012;  164.871;  199.880;  412.216
540.293;  114.000;   82.876;  158.224
540.574;   12.420; -895.113; -717.796
540.855;  517.113;  435.879;  377.218
541.136;  685.650;   47.878;  139.220
541.416;  402.191; -161.130; -220.766
541.697;  311.648; -274.131; -170.763
541.978; 1709.209; -270.135; -315.757
542.259; 2182.371; -211.127; -236.771
542.539;  999.062; -191.116; -186.790
542.820;  232.020;  461.875;  480.225
543.101;  167.974;  -52.145;  -77.738
543.381;   68.071; -638.127; -591.771
543.662;  383.718;  159.873; -254.771
543.942; 1004.266; -751.127; -830.770
544.223; 1696.777;  193.878;  161.219
544.504; 1116.956; -275.124; -182.777
544.784;  905.479; -592.126; -408.773
545.065; 2576.667;  104.884; -254.791
545.345; 2999.582;  227.881;   14.215
545.626; 2008.294;  -14.113; -108.796
545.906; 1442.682;   77.869;   98.235
546.186;  617.585;   92.874;  -95.773
546.467;  332.159;   99.877;  -95.778
546.747;  534.937;  264.884;  327.210
547.027;  616.554;   91.876;  111.223
547.308;  594.040; -376.127; -530.770
547.588;  606.652;  299.871;  371.232
547.868;  265.783;  458.870;  588.235
548.149;  278.901;  609.885;  593.207
548.429;  251.619; -347.127; -299.771
548.709;  391.996; -645.120; -461.784
548.989;  808.719;   84.882;   88.213
549.269; 3372.211;   10.868;  139.239
549.550; 7942.939;  215.877;  117.222
549.830; 7042.016; -758.111; -556.799
550.110; 1399.701; -468.110; -320.801
550.390; 1356.121; -128.122;  -56.779
550.670; 1963.114; -868.114; -783.795
550.950; 1341.188; -509.121; -471.782
551.230;  282.108;  549.879;  460.218
551.510;   60.061; -381.121; -326.782
551.790;   89.335; -173.109; -127.803
552.070;  354.484;  940.877; 1181.223
552.350;  756.187; -492.119; -377.786
552.630; 1000.405;   -2.121;   77.219
552.909;  598.642;  181.884;   73.209
553.189;  411.469;  -49.132;   33.237
553.469;  394.136; -703.119; -514.786
553.749;  397.873; -469.127; -357.772
554.029;  298.631;   33.883;  -24.790
554.308;  289.331; -154.115;  -37.794
554.588;  166.163; -196.128; -204.770
554.868;  166.989; -366.121;  -47.782
555.147;  289.502; -114.115;  -46.793
555.427;  957.595; -260.116; -250.792
555.707; 6293.475; -284.115; -200.793
555.986; 7857.671; -719.111; -538.800
556.266; 3988.535;   23.884;   72.210
556.546;  250.411; -888.121; -675.782
556.825;  454.986; -657.114; -556.794
557.105; 2938.411; -125.128;   17.230
557.384; 3491.316;  122.884;  187.209
557.664; 1368.819; -717.116; -508.792
557.943;  264.913; -557.121; -411.782
558.222;  354.022; -345.118; -344.788
558.502;  450.154; -116.115;  -76.793
558.781;  746.999;  194.885;  499.208
559.061;  722.197; -232.118; -227.788
559.340;  483.053;  302.883;  353.211
559.619; 1206.885;   93.884;  148.210
559.899; 1759.131; -239.117; -266.789
560.178; 1577.104; -778.115; -593.793
560.457; 4933.783; -623.117; -562.790
560.736; 7035.747; -472.111; -482.800
561.015; 4582.158; -500.128; -502.769
561.295;  567.360;  180.893;  215.193
561.574;  458.051;  119.885;  116.207
561.853;  722.091;  274.891;  303.197
562.132;  819.132;  -45.114;  182.206
562.411;  703.431;  396.879;  553.219
562.690;  295.748; -592.115; -458.792
562.969;  206.228;  472.888;  630.203
563.248;  558.478; 2966.878; 2487.219
563.527;  488.096; -290.111; -408.800
563.806;  693.969; -650.127; -521.771
564.085;  726.279; -297.105; -206.810
564.364;  467.859; -594.117; -405.790
564.643;  837.856; -276.121; -223.781
564.922; 3106.783;  221.890;  397.198
565.201; 3207.338; -640.109; -700.803
565.479; 1338.822; -297.115; -219.792
565.758;  603.961; -810.128; -712.770
566.037;  817.839; -155.109; -100.803
566.316;  403.266; -286.116;  -28.791
566.595;  101.550;  -17.115;  -12.793
566.873;  130.199; -166.111;  -79.801
567.152;   -8.973; -490.113; -590.797
567.431;   50.661; -113.116;    6.210
567.709;   69.985; -344.107; -212.807
567.988;  509.286; -810.114; -769.794
568.266;  916.450; -160.115;  -68.793
568.545;  668.312; -644.100; -514.819
568.824;  973.071;  160.885;  356.208
569.102; 1018.586; -351.114; -235.794
569.381;  448.895; -492.116; -407.792
569.659;   -6.177; -553.113; -553.796
569.938;  152.426; -743.122; -465.780
570.216;  218.942; -225.109; -225.804
570.494;   46.340; -632.114; -572.795
570.773;   68.711;  202.879;  114.218
571.051;   52.613; -373.123; -357.778
571.330;  137.420; -221.113; -174.796
571.608;   94.734; -181.098; -173.823
571.886;   -8.036; -671.111; -581.799
572.164;  -22.811; -739.121; -621.782
572.443;   -7.192; -562.105; -512.811
572.721;   -2.067; -399.117; -289.790
572.999;    4.100; -280.117; -168.788
573.277;  113.625;  379.894;  620.191
573.555;  494.228;   94.894;   37.190
573.834; 2274.124;  -86.117; -114.788
574.112; 2587.163;  880.893;  811.193
574.390;  789.573; -143.111;  -96.801
574.668;   59.329;  -91.112;  -61.797
574.946;   17.353; -165.106; -187.810
575.224;   31.637;   71.891;  -16.803
575.502;    5.088; -200.116; -204.791
575.780;  -44.845; -767.112; -829.798
576.058;  237.121; 1589.889; 1004.200
576.336;    6.328; -210.110; -129.801
576.614;   -7.744; -511.112; -340.798
576.891;  163.931; -711.115; -823.794
577.169;  853.402; -158.108; -285.805
577.447;  952.412;  169.893;  202.193
577.725;  389.961;  629.888;  854.201
578.003;   64.658;  -71.112; -371.798
578.280;  155.019; -208.104; -242.812
578.558;  116.954; -450.115; -422.793
578.836;  177.889; -210.114; -145.795
579.114;  112.203; -630.112; -670.797
579.391;   98.502;   -6.117;  -18.789
579.669;   -6.418; -595.114; -704.794
579.947;  283.758; -326.107; -127.806
580.224;  591.633; -692.107; -524.806
580.502;  545.638;  127.893;   76.193
580.779;   54.084;  -42.117;   75.210
581.057;  -40.707; -584.109; -470.804
581.334;  -61.812; -726.102; -695.815
581.612;   46.604;   54.895;  511.190
581.889;   -9.321;  -83.101; -129.818
582.167;    0.122; -298.099; -190.821
582.444;  -71.778; -845.102; -814.817
582.721;   94.748;  657.899;  715.183
582.999;  117.318; -326.100; -167.821
583.276;  930.018; -812.123; -713.779
583.553; 1278.792; -364.102; -294.816
583.831;  466.265; -607.104; -631.812
584.108;   84.875;  349.892;  174.195
584.385;   62.262; -122.102;  -98.815
584.662;  -15.826; -651.111; -828.801
584.940;   68.898;  204.889;  204.199
585.217;   -2.303;  -73.113; -303.796
585.494;   60.684;   71.890;  118.198
585.771;  335.569; -250.109; -354.804
586.048;  819.222; -196.113;  -76.796
586.325;  574.327; -721.110; -773.801
586.602;  147.495;  230.896;  213.188
586.879;   54.339; -499.100; -580.820
587.156;  106.580; -156.105; -331.810
587.433;   17.545; -701.102; -667.817
587.710;  110.931;  152.888;  234.202
587.987;  476.262; -264.105; -236.811
588.264; 1198.083;  315.888;  387.202
588.541; 2010.348;  -61.104;   26.187
588.818; 4107.846;   72.892;  171.196
589.095; 3545.917; -163.104; -174.812
589.371;  585.791; -459.109; -414.804
589.648;   72.738; -581.107; -437.807
589.925;   97.516; -517.114; -621.795
590.202;   95.781; -741.112; -607.798
590.478;  157.989; -166.105;  -73.811
590.755;  444.304; -241.108; -132.806
591.032; 3914.405; -741.110; -699.802
591.308; 5583.083; -732.094; -790.831
591.585; 2844.054; -573.110; -560.802
591.862;  330.997;-1056.102; -950.817
592.138;  176.301; -475.108; -474.805
592.415;  269.221; -486.104; -495.813
592.691; 2211.043;  460.896;  518.188
592.968; 2984.311; -208.098; -123.824
593.244; 1441.737; -695.116; -595.790
593.521;  128.322; -105.102;  -42.817
593.797;   59.298; -810.122; -720.780
594.074;  571.777; -611.096; -588.826
594.350;  967.716;  828.905;  729.172
594.626;  505.724; -303.111; -283.801
594.903;  250.323; -643.101; -645.817
595.179;  312.775;  243.896;  418.187
595.455;   21.690; -136.107; -150.807
595.731;   19.502;  -19.103;  -38.814
596.008;   -0.958; -464.111; -434.800
596.284;  107.692; -187.100; -242.820
596.560;  154.666; -501.093; -493.833
596.836;  337.983; -173.105;  -70.810
597.112;  602.477; -582.108; -437.805
597.388;  489.574;  -49.097;  -48.826
597.665;  160.751;  437.887;  530.203
597.941;  -21.422; -572.089; -658.839
598.217;   65.184; -323.110; -293.802
598.493;  444.371;   61.891; -204.804
598.769;  872.485; -175.100;  -50.819
599.045;  530.030; -490.108; -562.806
599.321;  136.716; -193.100; -261.820
599.597;  279.120; -355.109; -476.804
599.872;  756.673;  409.896;  429.187
600.148;  621.526;  -61.097; -172.826
600.424;  461.661;   91.893;  202.193
600.700;  430.989; -170.107; -280.807
600.976;  255.444; -442.097; -464.825
601.252;  439.615; -226.109; -272.803
601.527;  427.449; -833.104; -840.813
601.803;  294.014; -453.105; -404.812
602.079;  300.910; -124.100; -118.819
602.354;  932.428; -620.092; -531.835
602.630; 1330.622; -140.113; -482.796
602.906; 3485.179; -910.101; -863.818
603.181;10715.936; -627.119; -534.786
603.457; 9007.748;   98.903; -278.826
603.733; 1363.591; -605.120; -626.783
604.008; 1440.554; -245.106; -164.810
604.284; 4856.600; -636.101; -580.817
604.559; 4247.261;   -3.112;  -42.799
604.835;  812.482; -163.105; -225.810
605.110;  729.397; -732.099; -892.821
605.385; 1087.445;  224.907;  267.167
605.661; 1084.944; -625.095; -729.829
605.936; 2001.931; -664.108; -737.806
606.211; 1657.611;  -17.103; -170.815
606.487;  399.784; -329.114; -376.794
606.762;  112.512; -791.119; -745.786
607.037;   30.433; -501.105; -433.810
607.313;    0.186; -589.096; -574.828
607.588;   33.928; -375.106; -137.810
607.863;   98.504;  -28.101; -143.818
608.138;  282.307;  513.890;  516.198
608.413;  123.127; -576.099; -592.822
608.688;  124.376; -203.108; -267.805
608.964;  376.171; -509.106; -218.809
609.239;  443.104; -107.105; -212.810
609.514;  370.114;  281.895;  240.188
609.789; 1096.894; -187.104; -716.812
610.064; 1408.784; -435.096; -609.827
610.339; 1463.066; -855.109; -799.804
610.614; 2020.541; -131.100; -315.820
610.889; 1082.139;  215.895;  107.188
611.163;  126.590; -407.104; -591.812
611.438;  164.436;   81.886; -167.794
611.713;   79.700; -467.101; -499.817
611.988;  135.527; -144.101; -328.818
612.263;   71.513; -771.102; -717.815
612.538;  312.572;  385.887;  251.204
612.812;  375.218; -832.100; -911.820
613.087;  315.333; -358.098; -338.823
613.362;   -0.661; -497.107; -557.807
613.637;   78.656;  261.897;  138.186
613.911;   34.379; -256.092; -345.835
614.186;  243.712; -249.107; -292.807
614.460; 1209.445; -842.081; -758.854
614.735; 1344.556;  -55.087;  -17.843
615.010;  273.669;   43.912;  -82.841
615.284;  372.675;  360.892;  246.195
615.559;  674.703; -792.092; -955.835
615.833;  475.975;  -76.099;  -87.822
616.108;   56.592; -225.090; -390.837
616.382;  215.108;  274.913;  402.156
616.656;  293.168; -241.090; -232.837
616.931;  820.925; -785.099; -700.822
617.205; 1750.949; -973.104; -979.813
617.480; 1597.793;  -91.125;    6.225
617.754;  325.415; -396.125; -128.774
618.028;   78.903; -369.129; -382.768
618.302;  117.174;   73.892;  -25.805
618.577;  -16.018; -371.103; -518.815
618.851;  -21.113; -399.109; -600.803
619.125;  -24.277; -335.134; -378.759
619.399;   -5.325; -244.104; -374.813
619.673;  -12.829; -330.115; -515.792
619.947;   -4.111; -333.114; -448.795
620.222;   14.975; -198.110; -204.801
620.496;   27.038;  -47.121;  -96.782
620.770;   44.303; -187.122;  -93.781
621.044;  308.855;  323.895;  346.190
621.318; 1200.217; -653.120; -614.783
621.592; 1108.639; -430.121; -409.783
621.866;  663.162; -476.112; -572.799
622.140;   78.563; -207.116; -356.791
622.413;  102.642;  138.889;  112.200
622.687;   -0.600; -746.101; -492.817
622.961;   57.749; -130.108; -143.805
623.235;   -9.482; -633.111; -661.800
623.509;  -80.736; -816.105; -848.811
623.783;   31.359;  -12.107;   48.193
624.056;   24.418; -254.120; -280.783
624.330;   76.729;   63.888;   -3.797
624.604;  124.109; -271.116; -355.790
624.877;  129.181;  180.890;   26.198
625.151;  108.283; -249.114; -238.794
625.425;    7.277; -150.103; -283.814
625.698;  -35.395; -367.119; -374.785
625.972;  -49.991; -799.110; -765.802
626.245;   93.062;  685.884;  484.210
626.519;  -31.177; -426.120; -340.784
626.792;  -15.761; -192.107; -380.807
627.066;  -73.656; -485.122; -662.779
627.339;  -58.821; -736.110; -663.802
627.613;   61.171;  351.880;  148.216
627.886;   81.036;  187.891; -612.803
628.160;   18.691;  312.880; -161.783
628.433;  -68.554; -695.125; -703.775
628.706;  -54.377; -517.120; -615.784
628.979;   43.204;  296.876;  117.223
629.253;  -41.614; -785.119; -833.786
629.526;  628.077; -334.126; -253.772
629.799;  666.813; -641.123; -479.778
630.072;  337.205; -497.128; -516.769
630.346;   22.887;-1115.116;-1080.790
630.619;  777.490; -467.107; -545.808
630.892;  970.994;  709.889;  593.200
631.165;  482.800;  790.896;  679.187
631.438;    2.408;-1092.112;-1055.798
631.711;   65.592;  453.877;  257.221
631.984;  -34.544; -523.117; -624.789
632.257;  -32.348; -636.117; -681.789
632.530;  -16.820; -412.119; -433.785
632.803;   34.055; -109.115;    7.207
633.076;  -41.991; -360.123; -422.777
633.349;   28.710;  173.872;  121.231
633.622;  -24.171; -187.119; -240.785
633.895; -113.507; -903.120; -823.783
634.167;  -36.045; -496.126; -525.773
634.440;   -0.381;  -19.116; -137.792
634.713;   13.759;  -22.119; -120.786
634.986;   91.648;  593.871;  453.233
635.258;  -53.372; -507.115; -597.793
635.531;  110.547;  742.882; -343.788
635.804;  -22.871; -303.117; -318.789
636.077;  -77.835; -830.116; -852.791
636.349;   49.801; -586.115; -474.793
636.622;  452.376; 1695.874; 1392.228
636.894;  438.249; -474.120; -909.784
637.167;  323.394; -836.127; -789.771
637.439;   87.189; -278.128; -213.770
637.712;  -19.547; -312.126; -293.772
637.984;  -50.109; -635.116; -707.791
638.257;  502.209;  515.877;  488.222
638.529;  944.147; -881.125; -924.776
638.802;  415.880; -508.128; -449.769
639.074;  -78.598; -927.122; -952.781
639.346;  -84.487; -942.135; -930.757
639.619;   22.233;  -79.142; -319.744
639.891;    9.669;  -83.122; -168.779
640.163;  -64.403; -689.122; -756.780
640.435;   53.274;  273.878;  103.220
640.708;   25.076;  -72.122; -132.780
640.980;    8.803; -366.122; -362.781
641.252;  257.931;  -25.121;  -71.781
641.524; 2499.758;  580.879;  573.219
641.796; 2724.335;-1094.121; -907.782
642.068;  490.587; -191.121; -300.782
642.340;  -20.435; -486.121; -566.783
642.613;   53.742;  294.880;  323.217
642.885;  -77.481; -787.120; -878.783
643.157;   17.171; -810.120; -658.784
643.428;   87.124;  170.880;  218.216
643.700;  -48.974; -498.120; -425.784
643.972;  -29.322;  -16.119; -133.785
644.244;  -87.320; -474.119; -559.785
644.516;  -34.717; -250.119; -114.786
644.788;   57.885;  662.881;  548.214
645.060;  -19.113;  -12.119; -124.786
645.332;  -88.310; -525.118; -535.787
645.603;   45.967;  479.882;  342.213
645.875;  -71.606; -334.118; -369.787
646.147;  182.121; 1487.882; 1242.212
646.418;    3.499; -931.117; -918.788
646.690;  330.026; -714.117; -715.789
646.962;  121.928; -413.117; -451.789
647.233;    8.630;   15.883;   11.211
647.505;  -80.192; -595.117; -475.790
647.776;   39.460;  328.884;  229.210
648.048;   29.037; -248.116; -418.790
648.320;  -25.811; -752.116; -679.791
648.591; -123.358;-1055.116; -958.791
648.862;  -69.331; -505.116; -577.792
649.134;   27.096;  115.885;  198.208
649.405;    5.273; -661.115; -618.792
649.677;  -20.599; -475.115; -598.793
649.948;   29.503; -181.115; -296.793
650.219;    8.805;  -37.115; -147.793
650.491;  -67.793; -431.114; -520.794
650.762; -103.890; -705.114; -731.794
651.033;  -61.388; -437.114; -424.795
651.304;  -57.186; -743.114; -728.795
651.576;  -26.959; -680.114; -645.795
651.847;  -26.681; -250.113; -140.796
652.118;  -14.604;  -32.113; -189.796
652.389;  -87.602; -639.113; -722.796
652.660;  -19.999; -147.113;  -89.797
652.931; -114.322; -897.112; -871.797
653.202;  -55.495; -382.112; -541.798
653.473;  -38.943; -633.112; -533.798
653.744;  297.710; -595.112; -590.798
654.015;  285.037; -356.112; -303.799
654.286;  -22.936; -642.111; -663.799
654.557;  -14.884; -586.111; -521.799
654.828; -135.781;-1114.111;-1088.800
655.099;  -66.454; -404.111; -291.800
655.370;  -78.027; -427.111; -543.801
655.641; -112.075; -656.110; -714.801
655.911;  -92.297; -618.110; -638.801
656.182;   53.380;  437.890;  387.198
656.453;   98.107;  830.890;  746.198
656.724;  -45.541; -466.110; -426.802
656.994;  -58.788; -553.109; -568.803
657.265;  -77.386; -862.109; -873.803
657.536;  -73.459; -500.109; -377.804
657.806;  -96.482; -561.109; -593.804
658.077; -115.904; -866.109; -950.804
658.347;  -76.427; -523.108; -598.805
658.618;  -97.100; -646.108; -694.805
658.888;   -4.098;  -41.108;  112.195
659.159;  -75.820; -432.108; -548.806
659.429;   19.682; -292.108; -349.806
659.700;   78.259; -435.107; -390.807
659.970;   33.062; -370.107; -359.807
660.241;   96.539; -754.107; -921.807
660.511;  827.891; -147.107; -174.808
660.781;  237.068; -793.106; -748.808
661.052;  -39.329; -222.106; -381.808
661.322;   -8.352;   21.894;   -9.809
661.592;    3.450;  257.894;  148.191
661.862;  -59.848; -369.106; -382.810
662.133;  -90.895; -551.105; -502.810
662.403; -106.118; -770.105; -676.810
662.673;  -41.091; -256.105; -213.811
662.943; -104.564; -612.105; -551.811
663.213;   17.214;  -85.105;  -81.811
663.483;  -55.409; -593.104; -568.812
663.753;  -36.982; -194.104; -152.812
664.023;   -6.955;   68.896;  -32.813
664.293;  -43.152; -319.104; -126.813
664.563;  -82.800; -694.104; -648.813
664.833; -105.373; -743.103; -608.814
665.103; -105.671; -730.103; -793.814
665.373;  -96.993; -766.103; -806.814
665.643;  -20.116; -863.103; -918.815
665.913;  113.061; -534.103; -714.815
666.182;  264.738; -685.102; -719.816
666.452;  445.516;  -22.102;  -89.816
666.722;   65.993; -724.102; -784.816
666.992;  -91.480; -948.102; -921.817
667.261;  -69.252; -824.102; -808.817
667.531;  276.275;  134.899;   45.183
667.801;  861.427; -440.101; -412.818
668.070;  314.954;  714.899;  697.182
668.340;  -66.818; -883.101; -840.819
668.609;  118.159;  588.900;  301.181
668.879;  -62.064; -490.100; -558.819
669.149;  -38.612; -539.100; -516.820
669.418;  -93.109; -698.100; -726.820
669.688;    8.193; -482.100; -666.820
669.957;  169.595; -423.099; -546.821
670.226;    1.672; -268.099; -331.821
670.496;  -73.300; -431.099; -635.822
670.765;  -66.498; -418.099; -501.822
671.034; -111.596; -872.099; -828.822
671.304;   -6.969;   55.902; -111.823
671.573; -117.666;-1085.098; -957.823
671.842;  157.161; -380.098; -294.823
672.112;  122.813; -692.098; -586.824
672.381;   29.165; -239.098; -214.824
672.650;  -97.832;-1005.097;-1021.825
672.919;  -59.580; -631.097; -507.825
673.188;  -66.928; -681.097; -878.825
673.457; -124.126;-1101.097;-1143.826
673.726;  -48.898; -579.096; -646.826
673.995;  -10.196; -533.096; -479.826
674.265;   19.056; -263.096; -333.827
674.534;   45.534; -183.096; -235.827
674.802;   52.386; -618.096; -703.828
675.071; 1439.463; -886.095; -801.828
675.340; 6299.590; -464.095; -339.828
675.609; 2065.868;  103.905;   82.171
675.878;  214.670; -949.095; -893.829
676.147;   78.147;  -26.095;   -8.829
676.416;  156.974; -210.094; -294.830
676.685; 1071.377; 1000.906; -622.830
676.953;  234.504; -603.094; -452.831
677.222;   -2.294; -193.094; -273.831
677.491;   -2.442;  -24.094; -127.831
677.759;   14.586;   11.907;  172.168
678.028;   18.763; -279.093; -222.832
678.297;    3.765;   71.907;  197.168
678.565; -127.458; -898.093; -944.833
678.834;  -46.805; -311.093; -268.833
679.102;  -54.703; -411.092; -391.834
679.371; -132.901; -898.092; -727.834
679.639; -107.824; -797.092; -786.834
679.908;  -95.171; -794.092; -724.835
680.176; -134.269; -895.091; -941.835
680.445;  -54.517; -346.091; -352.835
680.713;    3.885;  -58.091;  -23.836
680.982;  -64.887; -523.091; -525.836
681.250;  -86.685; -578.091; -507.837
681.518;  -91.458; -534.090; -751.837
681.787;   23.070; -204.090; -167.837
682.055;  -38.328; -490.090; -422.838
682.323; -123.176; -993.090; -992.838
682.591;   67.876; -216.090; -538.838
682.859;  164.779;    9.911;  -35.839
683.128;   28.706;  232.911;  497.161
683.396; -143.092;-1102.089;-1122.840
683.664;  -14.040; -241.089;   21.160
683.932;   21.038;  144.911;  -76.840
684.200;  -62.810; -576.088; -320.841
684.468;    1.792;  -73.088; -124.841
684.736;  -18.331; -214.088; -175.841
685.004;  -83.378;-1024.088; -982.842
685.272;   19.149; -880.088; -774.842
685.540;  -42.024; -499.087; -557.843
685.808;  -47.472; -651.087; -682.843
686.076;  -53.169; -894.087; -969.843
686.343;  -16.292; -601.087; -815.844
686.611;   83.060; -195.087; -224.844
686.879;  634.587; -530.086; -553.844
687.147; 5056.040; -483.086; -480.845
687.414; 1515.417;  -12.086; -169.845
687.682;   84.069; -658.086; -757.846
687.950;  466.621;  259.915;  263.154
688.217;  116.249; -792.085; -760.846
688.485;   44.526; -632.085; -636.847
688.753;  866.678;  -11.085; -102.847
689.020;  390.756; -820.085; -851.847
689.288;  -71.292; -853.084; -787.848
689.555;  -14.390; -195.084; -148.848
689.823;  -27.838; -241.084; -345.849
690.090;  -49.685; -546.084; -651.849
690.358; -111.583; -877.084; -897.849
690.625;   21.469;  120.917;   45.150
690.892;  -54.679; -403.083; -369.850
691.160;   -3.401;   72.917;  -35.850
691.427;    1.551;  141.917;  130.149
691.694; -106.447; -855.083; -929.851
691.962; -105.970;-1177.082;-1060.852
692.229;   25.783;  127.918;   56.148
692.496;  122.435;  130.918;  -49.852
692.763;   45.912; -164.082; -201.853
693.031;  -31.811; -739.082; -716.853
693.298;   -2.083; -509.081; -368.853
693.565;  438.444; -155.081; -163.854
693.832; 2051.146;   -5.081;   -9.854
694.099;  311.798; -643.081; -642.855
694.366;   -8.474; -882.081; -896.855
694.633;  -12.922; -920.080; -633.855
694.900;  730.080; 4367.920; -114.856
695.167;  637.607; -214.080; -380.856
695.434;  202.260; -646.080; -623.856
695.701;  266.087;  121.921;  -61.857
695.968;  686.889; -365.079; -361.857
696.234; 1185.542; -415.079; -646.858
696.501;12349.294; -776.079; -614.858
696.768; 7026.046; -554.079; -617.858
697.035;  430.073; -632.078; -667.859
697.302;   88.626; -448.078; -552.859
697.568;   56.478; -458.078; -497.859
697.835;    7.330; -683.078; -624.860
698.102;   12.382; -498.078; -407.860
698.368;   94.585;  384.923;  396.139
698.635;  -13.763;  -47.077; -424.861
698.901;   11.964; -240.077; -348.861
699.168;  147.841; -534.077; -456.862
699.435;  149.744;  -72.077;  -13.862
699.701;  -78.279; -868.076; -764.862
699.968;   31.548;  144.924; -441.863
700.234;  -66.050; -783.076; -822.863
700.500;  -35.647; -448.076; -539.864
700.767;   14.605;   -1.075;   26.136
701.033;  -88.843;-1015.075; -963.864
701.299;  -29.141; -450.075; -483.865
701.566;  136.587;  950.925;  763.135
701.832;   62.564;  -31.075;  -76.865
702.098;  -56.234;-1054.074;-1034.866
702.365;  -37.257;-1098.074;-1030.866
702.631;   43.646;-1038.074;-1063.867
702.897; 1802.523; -765.074; -676.867
703.163; 3377.025;  348.926;  254.133
703.429;  282.878; -256.073; -273.868
703.695;   17.005; -796.073; -792.868
703.961;   60.757; -214.073; -210.868
704.227;  -34.291; -630.073; -725.869
704.493;  143.762;  613.927;  510.131
704.759;    8.689; -565.072; -540.870
705.025;   59.016; -203.072; -194.870
705.291;   26.268; -666.072; -562.870
705.557;  231.621;  719.928;   34.129
705.823;   82.573; -742.072; -694.871
706.089;  210.875; -307.071; -326.871
706.355;  450.002; -315.071; -244.872
706.620; 6232.080; -776.071; -729.872
706.886;10399.832; -309.071; -362.873
707.152; 1127.034; -818.070; -973.873
707.418;   58.261;-1153.070;-1186.873
707.683;   43.739; -550.070; -530.874
707.949;   -5.509; -547.070; -578.874
708.215;   31.093; -129.070; -207.874
708.480;   17.670; -520.069; -420.875
708.746;  158.098;   68.931;   28.125
709.011;  -30.725; -578.069; -612.876
709.277;  -47.223; -538.069; -543.876
709.542;  -36.571; -428.069; -387.876
709.808;    6.632;  -59.068;   89.123
710.073;  -45.266; -577.068; -695.877
710.339;    6.311; -242.068; -228.877
710.604;  149.639; -780.068; -845.878
710.869;  520.666; -277.068; -366.878
711.135;  -36.132; -715.067; -628.879
711.400;  -64.555; -507.067; -608.879
711.665;  -45.027; -404.067; -479.879
711.931;  -65.975; -661.067; -677.880
712.196;  -80.798; -876.067; -954.880
712.461;  197.479; -402.066; -490.880
712.726;  320.182; -727.066; -771.881
712.991;  -45.991; -647.066; -664.881
713.256;  -32.739; -350.066; -332.882
713.521;  -43.762; -417.065; -381.882
713.787;  -35.059; -454.065; -472.882
714.052;  -11.682; -214.065; -400.883
714.317;  -44.030;-1045.065; -981.883
714.581; 1254.997; -374.065; -268.883
714.846; 2123.175; -822.064; -888.884
715.111;  196.952;  261.936;  257.116
715.376;    7.129;  -86.064; -223.885
715.641;    5.956; -365.064; -367.885
715.906;  489.209;   15.936; -551.885
716.171;  201.336;  221.937;  209.114
716.436;   78.463;  -78.063; -104.886
716.700;  -83.860; -818.063; -692.886
716.965;  -90.982; -794.063; -807.887
717.230;  -44.180; -339.063; -392.887
717.494;   -1.878;  -40.062; -134.888
717.759;  -63.075; -784.062; -640.888
718.024;   16.627;  269.938;  250.112
718.288;   83.279;  685.938;  395.111
718.553; -127.919; -803.062; -977.889
718.817; -121.716; -883.061; -899.889
719.082;  -31.489; -115.061; -125.890
719.346; -110.212;-1000.061; -947.890
719.611;  -30.285; -300.061; -255.891
719.875;  -71.507; -568.060; -537.891
720.140;  -37.330; -453.060; -603.891
720.404;   68.797; -136.060; -249.892
720.668; 1291.899; -475.060; -411.892
720.933;  573.577;  146.940;  137.108
721.197;  -68.771; -667.059; -600.893
721.461; -108.619; -851.059; -826.893
721.725;    3.408;  -21.059; -250.894
721.990;  -52.239; -284.059; -204.894
722.254;  -20.587;  -26.059; -108.894
722.518;  -52.560; -286.058; -442.895
722.782;  -69.408; -743.058; -594.895
723.046;  160.520;  614.942;  570.105
723.310;   22.397;  374.942;  210.104
723.574;  -75.726; -654.058; -614.896
723.838;  -85.874; -576.057; -642.897
724.102;  -29.521; -226.057; -239.897
724.366; -113.769;-1032.057; -978.897
724.630;  -79.917; -749.057; -571.898
724.894;  -46.089; -722.057; -514.898
725.158;    4.588;   38.944; -295.898
725.422;  -40.835; -394.056; -327.899
725.685;  -32.583; -441.056; -349.899
725.949;  -43.930; -566.056; -519.900
726.213;  -48.028; -732.056; -811.900
726.477;  349.149;-1020.055; -933.900
726.740;  277.751; -274.055; -104.901
727.004;  453.679; -384.055; -510.901
727.268; 4371.181; -442.055; -400.901
727.531; 1506.883; -961.055; -775.902
727.795;   -3.365; -713.054; -673.902
728.059;  -23.712; -552.054; -557.903
728.322;  -43.610; -841.054; -669.903
728.586;  120.792; -692.054; -701.903
728.849;  -37.281; -695.053; -756.904
729.112;  -93.478; -812.053; -912.904
729.376; -102.901; -959.053; -905.904
729.639;  -50.324; -536.053; -536.905
729.903;  -91.647; -733.053; -699.905
730.166;  -36.019; -437.052; -399.906
730.429;   -1.867; -317.052; -468.906
730.693;  -39.040; -355.052; -894.906
730.956;  229.887;  810.948;  651.093
731.219; 1081.915; -310.052; -103.907
731.482;  246.342;-1003.051; -894.907
731.745;  286.769; -794.051; -935.908
732.009;   39.947;  -30.051;   50.092
732.272;  -71.126; -904.051; -771.909
732.535;  -22.474; -300.051; -310.909
732.798; -122.997;-1083.050;-1166.909
733.061;  -20.319; -430.050; -456.910
733.324;   29.133;   31.950; -180.910
733.587;   80.160;  290.950;  365.090
733.850;  -21.438; -973.049;-1050.911
734.113;   64.415;   33.951;   32.089
734.376;   54.617; -328.049; -447.912
734.639;  267.094; 1188.951; 1011.088
734.901;  122.696; -180.049; -402.912
735.164;  737.274; -883.048; -837.913
735.427; 2084.976; -166.048; -355.913
735.690;  211.553; -205.048; -234.913
735.952;   37.855; -923.048; -925.914
736.215;   36.583;-1113.048;-1009.914
736.478;  130.535; -771.047; -774.915
736.740;  320.037;   33.953;  129.085
737.003;  889.614; -658.047; -672.915
737.266; 6165.367;  -94.047;   46.084
737.528;  759.319; -682.047; -660.916
737.791;  471.621; -316.046; -327.916
738.053; 1007.523;  465.954;  649.083
738.316;13137.951; -162.046; -136.917
738.578;11583.853; -770.046; -736.918
738.841;  698.005; -382.046; -446.918
739.103;  302.408; -875.045; -777.918
739.365;  767.510;   79.955;  -69.919
739.628;   88.737; -884.045; -805.919
739.890;   18.939; -758.045; -710.919
740.152;    8.717; -692.044; -754.920
740.414;   46.694; -408.044; -359.920
740.677;   -3.804; -785.044; -634.921
740.939;    1.923; -587.044; -487.921
741.201;  452.051; -432.044; -572.921
741.463;  149.478; -689.043; -745.922
741.725;   45.155;  -21.043; -199.922
741.987;   93.282;  220.957;  116.078
742.249;   83.060; -751.043; -859.923
742.511;  387.362; -703.043; -794.923
742.773;  112.014; -546.042; -546.924
743.035;  148.466;  796.958;  533.076
743.297;    9.769; -963.042;-1013.924
743.559; 1078.796; -278.042; -262.925
743.821;  218.048; -735.042; -744.925
744.083;   58.225;  -44.041; -149.925
744.345;  -40.072; -869.041; -892.926
744.607;   73.880;   75.959;  122.074
744.868;  -17.893; -490.041; -554.927
745.130;  -70.991; -994.041;-1008.927
745.392;   80.087;   -1.040;  -44.927
745.653;   40.189; -411.040; -378.928
745.915;  204.266;  896.960;  631.072
746.177;  101.868;   35.960;  -43.928
746.438;   42.721; -428.040; -543.929
746.700;   27.673; -947.039; -988.929
746.961;   89.775; -659.039; -740.930
747.223;  233.303; -190.039;  -74.930
747.484;  189.955; -391.039; -471.930
747.746;  240.907;  -23.038; -106.931
748.007;  243.709; -647.038; -689.931
748.269;  457.287; -468.038; -440.931
748.530;  836.364; -852.038; -638.932
748.791;  425.941; -354.038; -420.932
749.053;  656.243;  286.963;  163.067
749.314;  717.721; -236.037; -169.933
749.575;  860.573; -945.037; -905.933
749.836; 1248.850; -217.037;   86.066
750.098; 3106.377;  -60.037;  -21.934
750.359;49836.130;  414.964;  555.066
750.620;16249.182; -121.036; -220.935
750.881; 1565.434; -585.036; -513.935
751.142; 1990.261; -950.036; -938.936
751.403;21061.439; -789.036; -705.936
751.664;11930.966;-1034.035; -999.936
751.925;  781.343; -175.035; -262.937
752.186;  446.395; -298.035; -278.937
752.447;  253.973; -590.035; -445.937
752.708;  144.775; -532.035; -648.938
752.969;   83.202; -566.034; -576.938
753.230;   41.604; -777.034; -672.939
753.491;   83.357; -650.034; -631.939
753.751;  123.584;  109.966;   19.061
754.012;  141.411;  258.967;  181.060
754.273;  104.989; -174.033;  -71.940
754.534;   75.266; -487.033; -580.940
754.794;  -29.257; -926.033; -911.941
755.055;  176.595; 1051.967;  881.059
755.316;   -2.327; -700.032; -566.942
755.576;   17.300; -606.032; -576.942
755.837;   -0.798; -527.032; -695.942
756.097;    3.404; -530.032; -564.943
756.358;  -38.368; -725.032; -770.943
756.618;   -0.491; -705.031; -641.943
756.879;   56.786; -254.031; -349.944
757.139;  -78.287;-1098.031;-1116.944
757.400;  -25.359; -538.031; -553.945
757.660;   14.693; -365.031; -401.945
757.920;   53.570; -266.030; -228.945
758.181;   31.722; -468.030; -351.946
758.441;  -45.400; -870.030; -809.946
758.701;    6.227; -308.030; -215.946
758.961;   10.154; -220.030; -278.947
759.222;  -16.444; -574.029; -502.947
759.482;  -43.841; -683.029; -723.948
759.742;  -49.864; -706.029; -547.948
760.002;   30.363;  -83.029; -143.948
760.262;   38.165;   50.972;  182.051
760.522;  -10.082; -498.028; -574.949
760.782;  -15.505; -738.028; -612.949
761.042;  -22.203; -618.028; -573.950
761.302;   55.750;   55.972;  -18.950
761.562;   79.452; -164.027; -154.951
761.822;  167.629; -710.027; -551.951
762.082;   -8.469;-1104.027;-1093.951
762.342;   90.209; -328.027; -403.952
762.601;  104.186; -567.027; -506.952
762.861;  474.538; -281.026; -207.952
763.121;  413.990; -406.026; -411.953
763.381; 6438.118; -499.026; -485.953
763.640; 9382.520; -139.026; -307.954
763.900;  404.897; -242.026; -203.954
764.160;  124.874; -458.025; -491.954
764.419;   12.477; -726.025; -782.955
764.679;  -53.646; -795.025; -726.955
764.939;    5.481; -124.025; -210.955
765.198;  -58.292; -608.025; -563.956
765.458;  -65.289; -710.024; -612.956
765.717;  -72.412; -454.024; -590.957
765.976;  -39.660; -428.024; -411.957
766.236;  -48.883; -475.024; -610.957
766.495;   35.820;  260.977;   73.042
766.755;  -46.028;-1090.023; -987.958
767.014;   59.024; -594.023; -665.958
767.273;  -30.699; -373.023; -397.959
767.533;  -24.521; -228.023; -307.959
767.792;  -16.119; -151.022; -188.960
768.051;  -52.292; -228.022; -276.960
768.310;  -55.989; -546.022; -650.960
768.569;    7.863; -161.022;    4.039
768.828;  -10.310; -285.022; -363.961
769.088;  -85.508;-1050.021; -942.961
769.347;  -61.405; -755.021; -599.962
769.606;  -80.278; -876.021; -857.962
769.865;  -80.276;-1016.021;-1033.963
770.124;   12.526; -411.021; -336.963
770.383;  -13.971; -778.020; -910.963
770.641;   39.481; -398.020; -400.964
770.900;  -40.992; -953.020; -846.964
771.159;  -13.915; -851.020; -951.964
771.418;   21.338; -917.020; -779.965
771.677;  159.465; -224.019; -293.965
771.936;  195.442; -794.019; -865.966
772.194; 1945.119; -465.019; -437.966
772.453;13378.022; -213.019; -391.966
772.712; 1074.999;  416.982;  329.033
772.970;  161.976;   32.982;   63.033
773.229;  110.353;  -22.018;  102.033
773.488;  -65.644; -814.018; -770.968
773.746;   52.108;  296.982;  335.032
774.005;   22.935;  190.983;  -22.969
774.263;   40.287;  243.983;  177.031
774.522;  -35.510; -422.017; -548.969
774.780;  -71.958; -484.017; -417.970
775.039;  -70.556; -551.017; -531.970
775.297;  -18.103; -135.016; -351.970
775.555;  -94.801; -489.016; -612.971
775.814; -105.899; -618.016; -570.971
776.072; -107.322; -749.016; -740.971
776.330;  -80.769; -630.016; -520.972
776.589; -107.342; -703.015; -721.972
776.847; -101.415; -645.015; -624.973
777.105; -138.663;-1016.015;-1032.973
777.363;  -75.810; -459.015; -454.973
777.621; -120.458; -660.015; -717.974
777.879;   -9.631;  -42.014;   32.026
778.138;  -86.504; -554.014; -717.974
778.396;  -94.001; -585.014; -526.975
778.654; -151.399;-1015.014; -970.975
778.912;  -51.372; -269.014; -371.976
779.170; -114.995; -880.013; -803.976
779.427; -156.367; -922.013; -897.976
779.685; -115.815; -880.013; -832.977
779.943;  -52.713; -654.013; -593.977
780.201; -132.561; -964.012; -883.978
780.459;  -98.483; -651.012; -610.978
780.717;  -86.581; -440.012; -390.978
780.974;  -86.429; -449.012; -490.979
781.232;  -64.427; -358.012; -338.979
781.490;  -56.274; -551.011; -472.979
781.747;  -88.447; -555.011; -476.980
782.005;   15.705;  462.989;  254.020
782.263; -136.467; -542.011;-1004.981
782.520;  -76.765; -326.011; -501.981
782.778; -145.063;-1013.010;-1051.981
783.035; -144.786; -962.010; -938.982
783.293;  -56.258; -248.010; -206.982
783.550;  -48.131; -134.010; -198.982
783.808; -119.304; -764.010; -776.983
784.065; -146.902; -745.009; -874.983
784.322;  -37.274;   25.991;  -86.984
784.580; -117.222; -915.009; -771.984
784.837;  -72.395; -392.009; -466.984
785.094; -119.218; -783.009; -762.985
785.352;  -45.840; -304.008; -404.985
785.609;  -77.513; -934.008; -839.985
785.866;  -68.086; -345.008; -401.986
786.123;  -36.859; -639.008; -583.986
786.380;  -67.256; -665.008; -604.987
786.637;  -32.404; -225.007; -380.987
786.895;   58.123; -456.007; -543.987
787.152;  -36.475; -135.007; -267.988
787.409;  -45.947; -123.007; -225.988
787.666;  -74.995; -299.006; -378.988
787.923; -112.868; -616.006; -695.989
788.179;  -93.591; -551.006; -584.989
788.436;  -88.988; -585.006; -585.990
788.693;  -30.986;  -92.006;  -87.990
788.950;  203.991; -125.005; -112.990
789.207;  457.969; -381.005; -372.991
789.464;  -44.779; -161.005; -301.991
789.720;   -2.102;  150.995;  110.009
789.977; -146.750;-1003.005; -671.992
790.234;  -23.722;   44.996;  -66.992
790.490; -133.845; -884.004;-1031.993
790.747;  -13.243;  -85.004;   22.007
791.004;   23.734; -426.004; -348.993
791.260;  -68.863; -430.004; -560.994
791.517;  -73.461; -843.003; -788.994
791.773;   -9.709; -379.003; -342.994
792.030;  -95.132; -596.003; -660.995
792.286;  -92.154; -686.003; -636.995
792.543;   -2.402;  -74.002; -159.995
792.799;  -42.100; -584.002; -382.996
793.055; -132.473;-1179.002;-1210.996
793.312;  -69.695; -827.002; -816.997
793.568;  -31.068; -746.002; -599.997
793.824;   33.284; -226.001; -284.997
794.081;   28.986; -447.001; -508.998
794.337;   83.864; -664.001; -561.998
794.593; 1060.416; -319.001; -271.999
794.849; 7535.643; -746.001; -772.999
795.105;  517.495; -270.000; -261.999
795.361;   42.198; -490.000; -457.000
795.617;  -22.725; -875.000; -945.000
795.873;  -30.800; -360.000; -407.000
796.129;  -18.700; -368.000; -306.000
796.385;  -10.150; -124.000; -156.000
796.641;   72.350;  412.000;  550.000
796.897;  -63.875; -666.000; -635.000
797.153;   72.425;  453.000;  357.000
797.409;  -74.350; -785.000; -868.000
797.665;  -46.275; -625.000; -732.000
797.921;  -50.700; -775.000; -762.000
798.176;  -10.850; -744.000; -747.000
798.432;   -2.775; -824.000; -596.000
798.688;  -23.625;-1174.000;-1078.000
798.943;  112.150; -165.000; -147.000
799.199;   53.025;-1005.000; -959.000
799.455;  294.450;  369.000;  316.000
799.710;  193.775; -813.000; -380.000
799.966;  415.025; -162.000; -160.000
800.221;  601.175; -638.000; -721.000
800.477;11252.350; -743.000; -710.000
800.732;14045.075; -773.000; -800.000
800.988;  828.275;  205.000;  -19.000
801.243; 1455.475; -454.000; -344.000
801.498; 8413.200; -814.000; -739.000
801.754;  643.250; -289.000; -163.000
802.009;  115.075; -257.000; -335.000
802.264;   -0.400; -967.000;-1033.000
802.520;   49.625;  222.000;   -3.000
802.775;  -35.175; -524.000; -359.000
803.030;   69.100;  395.000;  356.000
803.285;  -82.050; -840.000; -903.000
803.540;  -28.675; -686.000; -699.000
803.795;   21.200; -648.000; -583.000
804.051;  -12.950; -279.000; -346.000
804.306;   32.075;  168.000;  128.000
804.561;  207.350;  451.000;  362.000
804.816;  153.750;  714.000;  861.000
805.071;   17.525; -185.000; -280.000
805.325;  365.525; -257.000; -427.000
805.580;  -66.800; -841.000; -877.000
805.835;   12.025; -204.000; -297.000
806.090;  -61.775; -760.000; -676.000
806.345;   10.950; -344.000; -264.000
806.600;   11.800; -549.000; -632.000
806.854;    7.975; -408.000; -538.000
807.109;   15.675; -493.000; -577.000
807.364;   30.475; -407.000; -328.000
807.618;   22.500; -415.000; -381.000
807.873;  106.050; -470.000; -494.000
808.128;  163.875; -257.000; -518.000
808.382;  180.700; -224.000; -332.000
808.637;  104.500; -440.000; -511.000
808.891;  238.575; -257.000; -180.000
809.146;  171.150; -902.000; -794.000
809.400;  369.400; -848.000; -923.000
809.654;  460.100; -779.000; -551.000
809.909;  612.450; -841.000; -927.000
810.163; 6532.000; -813.000; -651.000
810.418;24158.850; -940.000; -861.000
810.672; 1543.500; -685.000; -690.000
810.926;  792.925; -993.000; -973.000
811.180; 1313.900; -439.000; -372.000
811.434;27333.200;  240.000;  135.000
811.689;15845.750; -231.000; -365.000
811.943;  804.000; -936.000; -953.000
812.197;  376.925; -893.000; -671.000
812.451;  167.650; -379.000; -514.000
812.705;    9.325; -809.000; -619.000
812.959;   18.525; -263.000; -388.000
813.213;   15.725; -283.000; -209.000
813.467;   74.475;  470.000;  253.000
813.721;  -80.050; -764.000; -792.000
813.975;  -98.500; -826.000; -877.000
814.229;   56.550;  430.000;  353.000
814.482;  -41.050; -517.000; -566.000
814.736; -104.650; -766.000; -744.000
814.990; -107.050; -779.000; -872.000
815.244;  -26.625; -228.000; -285.000
815.497;  -70.850; -636.000; -601.000
815.751;   -2.950; -141.000;   82.000
816.005;  -71.400; -470.000; -586.000
816.258;  -41.950; -510.000; -363.000
816.512;  -87.175; -693.000; -610.000
816.766;   -0.550;  121.000;  157.000
817.019;   34.250;  148.000;  149.000
817.273;  -75.075;-1000.000; -802.000
817.526;  -20.650; -206.000; -173.000
817.779;   16.575;-1049.000; -960.000
818.033;   -2.350; -693.000; -807.000
818.286;  -92.625; -725.000; -792.000
818.540;  -72.150; -403.000; -403.000
818.793;  -69.325; -402.000; -489.000
819.046;  -91.300; -582.000; -520.000
819.299;  -27.775; -157.000; -166.000
819.553;  -89.625; -552.000; -592.000
819.806; -147.225;-1016.000; -838.000
820.059;  -48.500; -334.000; -354.000
820.312;   36.150;  152.000;  185.000
820.565;  -15.800;  110.000;  -27.000
820.818;  -43.725;  -59.000; -173.000
821.071; -155.700;-1041.000; -957.000
821.324;  -78.000; -536.000; -540.000
821.577;  -87.975; -457.000; -483.000
821.830;  -55.500; -270.000; -172.000
822.083; -113.425; -733.000; -288.000
822.336;  -37.950; -261.000; -167.000
822.589; -117.900; -805.000; -688.000
822.842; -117.150; -875.000; -770.000
823.094; -160.750;-1076.000;-1114.000
823.347; -123.475; -925.000; -729.000
823.600;   16.175;  402.000;  187.000
823.853;  -40.475; -311.000; -267.000
824.105;  -50.775; -331.000; -575.000
824.358;  -94.675; -617.000; -716.000
824.611;   46.525;  234.000;   40.000
824.863;    9.225; -612.000; -591.000
825.116;   91.800;  -33.000;   27.000
825.368;  145.075; -366.000; -372.000
825.621;  262.525; -186.000; -240.000
825.873;  170.275; -704.000; -737.000
826.126;  674.975; -669.000; -641.000
826.378;14026.375; -389.000; -505.000
826.630; 5244.250; -890.000; -898.000
826.883;  152.050; -754.000; -693.000
827.135;  106.100; -279.000; -270.000
827.387;  -74.600; -893.000; -839.000
827.639;  -15.775;  -86.000;   32.000
827.892; -106.425; -742.000; -582.000
828.144; -130.500; -848.000; -804.000
828.396;  -34.325;  104.000;  -80.000
828.648;  -98.050; -440.000; -333.000
828.900; -128.875; -702.000; -795.000
829.152; -103.425; -684.000; -683.000
829.404;  -54.225; -215.000; -267.000
829.656;   -8.300;  321.000;  214.000
829.908;  -19.300;  393.000;  229.000
830.160; -145.200;-1064.000;-1047.000
830.412;  -83.600; -481.000; -430.000
830.664;  -99.325; -557.000; -665.000
830.916;  -64.050; -268.000; -206.000
831.167; -161.000;-1073.000; -951.000
831.419;  -91.675; -623.000; -566.000
831.671; -125.200; -764.000; -809.000
831.923;  -76.100; -311.000; -447.000
832.174;  -62.875; -273.000; -331.000
832.426; -101.875; -493.000; -582.000
832.678; -163.825;-1043.000;-1091.000
832.929; -141.950; -947.000; -935.000
833.181;  -27.875; -575.000; -677.000
833.432;  -46.475;  -59.000; -186.000
833.684;   -5.650;  112.000;  -27.000
833.935;  -87.700; -610.000; -566.000
834.187; -117.075; -829.000; -823.000
834.438;  -48.275;  -58.000;  -25.000
834.689;  -44.950; -255.000; -123.000
834.941;  -34.575; -343.000; -244.000
835.192;  -67.675; -590.000; -533.000
835.443;  -77.325; -419.000; -506.000
835.695;    1.375;  138.000;  -16.000
835.946;  -81.200; -608.000; -378.000
836.197;  -78.875; -599.000; -622.000
836.448;  -72.250; -528.000; -395.000
836.699;  -36.400; -253.000; -341.000
836.950;    8.150;   72.000;    7.000
837.201; -136.750;-1003.000; -987.000
837.452;  -28.750; -356.000; -170.000
837.703;  -81.450; -791.000; -737.000
837.954;  -13.425; -205.000; -365.000
838.205;  -26.325;-1029.000;-1008.000
838.456;  303.925; -196.000; -282.000
838.707;   63.850; -423.000; -519.000
838.958;   60.600; -634.000; -647.000
839.209;  441.900;   18.000;   40.000
839.460;  190.725; -439.000; -201.000
839.710;  254.800; -135.000; -297.000
839.961;  532.625;  730.000;  612.000
840.212;  472.750; -382.000; -497.000
840.462; 1316.250; -328.000; -277.000
840.713;20311.350; -571.000; -536.000
840.964;11970.775;  -62.000; -143.000
841.214;  772.550; -384.000; -624.000
841.465;  781.125; -214.000; -141.000
841.715;  707.300; -417.000; -380.000
841.966;  876.125; -746.000; -685.000
842.216; 8699.250; -330.000; -431.000
842.466;45834.425; -169.000; -313.000
842.717; 3980.900; -964.000; -952.000
842.967;  452.600; -635.000; -641.000
843.217;  415.650;   20.000;   28.000
843.468;  123.175; -104.000; -132.000
843.718;    7.225; -718.000; -726.000
843.968;  -48.875; -837.000; -765.000
844.218;   69.375; -315.000; -262.000
844.469;    2.075; -577.000; -561.000
844.719;  -79.075; -537.000; -682.000
844.969;  -72.075; -550.000; -580.000
845.219; -116.000; -814.000; -862.000
845.469;  -66.625; -392.000; -342.000
845.719; -116.475; -792.000; -884.000
845.969;   -5.550;  119.000;  174.000
846.219; -105.975; -738.000; -720.000
846.469;   33.175;  464.000;  432.000
846.718;  -31.900; -115.000;   31.000
846.968; -120.425; -827.000; -827.000
847.218;  -32.125; -224.000; -371.000
847.468;    2.575; -586.000; -555.000
847.718; -134.075; -827.000; -798.000
847.967; -113.325; -826.000; -915.000
848.217;  -55.525; -449.000; -569.000
848.467;  -43.150; -405.000; -376.000
848.716;  -84.775; -708.000; -725.000
848.966;   55.425; -372.000; -358.000
849.215;  -23.275; -428.000; -419.000
849.465;  -67.875; -785.000; -615.000
849.714;  -96.550;-1132.000;-1150.000
849.964;  -34.800; -551.000; -613.000
850.213;   16.200; -393.000; -355.000
850.463;  108.550;  137.000;  340.000
850.712;   50.525; -542.000; -567.000
850.961;   73.050; -739.000; -678.000
851.211;  190.350; -513.000; -504.000
851.460;  268.950; -635.000; -650.000
851.709;  696.700;  -25.000;   18.000
851.958;11211.800; -912.000; -750.000
852.208;20116.850; -859.000; -879.000
852.457;  891.000; -181.000;  -13.000
852.706;  168.150; -791.000; -823.000
852.955;   97.275; -507.000; -528.000
853.204;  -28.650; -521.000; -461.000
853.453;  -46.450; -418.000; -458.000
853.702; -118.200; -660.000; -750.000
853.951;  -91.575; -532.000; -520.000
854.200; -109.600; -613.000; -562.000
854.449; -119.750; -695.000; -661.000
854.698;  -80.575; -340.000; -279.000
854.946;  -69.850; -181.000; -284.000
855.195; -138.875; -843.000; -868.000
855.444;  -82.075; -395.000; -420.000
855.693; -123.225; -345.000; -432.000
855.941;  -87.550; -387.000; -516.000
856.190;  -28.725; -256.000; -382.000
856.439; -118.600; -652.000; -703.000
856.687;  -45.850;  -99.000;  -72.000
856.936; -106.175; -621.000; -323.000
857.184; -156.350;-1067.000;-1020.000
857.433;  -89.300; -423.000; -512.000
857.681; -149.400; -989.000; -953.000
857.930;  -72.100; -282.000; -433.000
858.178; -158.250; -856.000; -929.000
858.427; -138.375; -802.000; -781.000
858.675; -102.750; -377.000; -544.000
858.923;  -96.350; -527.000; -819.000
859.172; -169.625;-1094.000;-1070.000
859.420;  -79.875; -339.000; -239.000
859.668; -114.100; -624.000; -628.000
859.916;   -8.200;  109.000;  115.000
860.164;  -85.350; -699.000; -603.000
860.413;  433.050; -878.000; -696.000
860.661;  556.075; -709.000; -577.000
860.909;  -50.250; -339.000; -325.000
861.157;  -70.425; -277.000; -444.000
861.405; -105.075; -534.000; -670.000
861.653;   27.900;  310.000;  310.000
861.901;  273.125; -543.000; -613.000
862.149;  169.050; -801.000; -824.000
862.396;  -70.850; -297.000; -187.000
862.644;  -81.950; -368.000; -347.000
862.892;  -36.500;   98.000;  138.000
863.140; -118.875; -549.000; -530.000
863.388; -140.750; -815.000; -759.000
863.635; -124.050; -642.000; -601.000
863.883;  -20.975;  231.000;  190.000
864.131;  -89.750; -288.000; -357.000
864.378; -127.250; -675.000; -540.000
864.626;  -93.200; -347.000; -415.000
864.873; -115.675; -556.000; -505.000
865.121; -134.350; -714.000; -799.000
865.368;  -36.325; -173.000;   75.000
865.616;  -15.125;  -33.000;  -40.000
865.863;  -56.250; -462.000; -506.000
866.111;  -77.475; -795.000; -824.000
866.358;   64.800; -426.000; -420.000
866.605; 2259.325;  -64.000; -804.000
866.853; 3335.750; -621.000; -537.000
867.100;   33.150; -728.000; -775.000
867.347;  -70.950; -672.000; -611.000
867.594;  -56.775; -740.000; -714.000
867.841;  170.100;   97.000;   17.000
868.089; -125.625; -746.000; -698.000
868.336; -115.600; -477.000; -420.000
868.583; -135.625; -637.000; -741.000
868.830;  -42.900; -131.000; -170.000
869.077; -149.900; -859.000; -787.000
869.324; -129.300; -502.000; -458.000
869.571; -113.450; -398.000; -430.000
869.818; -113.300; -485.000; -439.000
870.065;  -87.125; -439.000; -513.000
870.311; -104.175; -456.000; -542.000
870.558;  -99.500; -332.000; -311.000
870.805;  -79.425; -320.000; -384.000
871.052; -101.400; -494.000; -369.000
871.298;  -47.800; -204.000; -131.000
871.545;  -58.200; -151.000; -185.000
871.792;  -90.275; -173.000; -222.000
872.038;  -58.775;   43.000; -126.000
872.285; -118.475; -496.000; -387.000
872.532;  -90.550; -357.000; -387.000
872.778;   -4.725;  556.000;  403.000
873.025;  -94.625; -384.000; -359.000
873.271;   19.650;  501.000;  578.000
873.517;   -0.025; -133.000; -209.000
873.764;   12.475; -193.000;  -80.000
874.010;  -48.225; -143.000; -230.000
874.257;  -45.725;  123.000;   90.000
874.503; -126.050; -579.000; -479.000
874.749;  -65.475;   31.000;  275.000
874.995;  -61.650;  -80.000;  -20.000
875.242; -117.250; -540.000; -478.000
875.488; -104.825; -414.000; -439.000
875.734;  -27.875; -106.000; -234.000
875.980;  300.250; -872.000;-1032.000
876.226;  729.050; -157.000; -255.000
876.472;   36.925;  343.000;  237.000
876.718;  -38.450;  184.000;  158.000
876.964;  -42.825;   56.000;   55.000
877.210; -125.175; -547.000; -677.000
877.456; -130.575; -630.000; -557.000
877.702; -160.175; -821.000; -832.000
877.948; -104.225; -377.000; -497.000
878.193;    8.750;  361.000;  255.000
878.439;  -60.550; -487.000; -472.000
878.685;  -90.550; -272.000; -343.000
878.931; -108.300; -618.000; -676.000
879.176;  -74.250; -201.000; -201.000
879.422; -172.425; -933.000; -820.000
879.668;   85.050;   10.000;   79.000
879.913;  276.125;   53.000;  137.000
880.159;  -30.750; -112.000;  -17.000
880.404;  -47.625; -152.000; -162.000
880.650;  -23.500;   91.000;  141.000
880.895; -142.700; -670.000; -710.000
881.141; -113.125; -454.000; -428.000
881.386; -133.850; -503.000; -658.000
881.631;  -89.525; -311.000; -166.000
881.877;  -30.800;  112.000;  -13.000
882.122; -145.550; -684.000; -600.000
882.367;  -87.675; -136.000; -186.000
882.612;  -84.750;  -80.000; -176.000
882.858; -160.725; -877.000; -823.000
883.103;  -97.050; -297.000; -267.000
883.348; -128.600; -759.000; -852.000
883.593; -128.475; -677.000; -602.000
883.838;  -58.925; -311.000;  -24.000
884.083;   51.875;  353.000;  288.000
884.328;  -84.500; -564.000; -545.000
884.573;  -26.850; -196.000; -143.000
884.818;  296.575; -694.000; -531.000
885.063;  440.000; -348.000; -315.000
885.308;  -74.925; -475.000; -398.000
885.553;  -19.975;  245.000;  325.000
885.797; -107.425; -545.000; -615.000
886.042;  -60.875;    8.000;   58.000
886.287;  -80.150; -253.000; -211.000
886.532;  -60.250;   26.000;  204.000
886.776;  -93.400; -407.000; -525.000
887.021; -140.175; -621.000; -574.000
887.265; -148.775; -685.000; -689.000
887.510; -123.150; -557.000; -496.000
887.755;  -88.950; -194.000; -164.000
887.999; -134.250; -552.000; -575.000
888.244;  -54.975;  -58.000;  161.000
888.488;   -7.025;  371.000;  393.000
888.732; -117.050; -368.000; -520.000
888.977; -118.150; -622.000; -567.000
889.221; -117.825; -683.000; -659.000
889.465; -118.575; -422.000; -566.000
889.710;  -63.925;  -56.000; -299.000
889.954;   -6.325;  579.000;  467.000
890.198; -137.050; -584.000; -707.000
890.442; -137.250; -716.000; -712.000
890.687; -161.925; -800.000; -753.000
890.931;  -90.650; -273.000; -210.000
891.175; -127.075; -502.000; -500.000
891.419;  -74.600; -105.000; -110.000
891.663;  -91.925; -239.000; -112.000
891.907; -150.975; -801.000; -545.000
892.151; -167.475; -920.000; -815.000
892.395; -109.925; -274.000; -387.000
892.638;  -25.025;  408.000;  291.000
892.882; -172.800; -780.000; -867.000
893.126;    7.575;  758.000;  558.000
893.370;  -82.775; -167.000; -168.000
893.614; -138.275; -714.000; -715.000
893.857;  -98.625; -183.000; -197.000
894.101; -127.800; -527.000; -631.000
894.345;  -53.275;  300.000;  150.000
894.588;   14.350;  569.000;  380.000
894.832;  -84.225; -178.000;  -84.000
895.075;  -71.425;   15.000;  -92.000
895.319; -128.650; -552.000; -420.000
895.563; -106.475; -413.000; -353.000
895.806; -136.575; -628.000; -741.000
896.049;  -47.500; -576.000; -368.000
896.293;  158.850;  527.000;  405.000
896.536;  -17.025; -465.000; -468.000
896.779;  -56.975; -149.000;   -1.000
897.023; -121.125; -751.000; -714.000
897.266;  -18.500;  325.000;  269.000
897.509; -165.425; -900.000; -901.000
897.752;  -50.550;  149.000;  171.000
897.996; -162.950; -972.000; -864.000
898.239;  -51.775;  168.000;  102.000
898.482; -113.600; -431.000; -453.000
898.725;  -25.550;  101.000;   53.000
898.968; -131.175; -609.000; -744.000
899.211;  -99.050; -513.000; -361.000
899.454;  -92.125; -633.000; -539.000
899.697;  -67.100;   90.000;  -43.000
899.940; -161.825; -761.000; -757.000
900.182; -101.375; -335.000; -405.000
900.425;  -88.250; -150.000; -298.000
900.668;  -21.950;  491.000;  350.000
900.911; -106.100; -292.000; -345.000
901.154;  -54.900;  141.000;   -3.000
901.396; -124.200; -407.000; -412.000
901.639; -134.525; -430.000; -496.000
901.882; -172.350; -790.000; -809.000
902.124;  -69.825;  -29.000; -143.000
902.367;  -97.225; -315.000; -361.000
902.609; -136.175; -476.000; -453.000
902.852;  -95.350; -108.000; -260.000
903.094; -118.625; -458.000; -337.000
903.337;  -52.500;  -26.000;   53.000
903.579; -101.650; -228.000; -441.000
903.821; -142.750; -597.000; -744.000
904.064;  -57.100;   85.000;  127.000
904.306;  -73.150; -126.000; -166.000
904.548;  -99.150; -152.000; -366.000
904.790;  -84.425; -195.000; -340.000
905.033; -117.075; -625.000; -577.000
905.275; -121.275; -513.000; -524.000
905.517;   61.750;  468.000;  256.000
905.759;    9.200; -667.000; -761.000
906.001;  -66.725; -322.000; -369.000
906.243;  -48.575; -162.000; -224.000
906.485;  173.550; -265.000; -207.000
906.727;  296.950; -499.000; -542.000
906.969;    5.425;  -30.000; -135.000
907.211;  227.750; -316.000; -382.000
907.453;  494.375; -188.000; -237.000
907.695;  112.900; -158.000; -385.000
907.936;   37.825;  818.000;  706.000
908.178;  -47.125;   92.000; -135.000
908.420;  -62.400; -111.000; -162.000
908.662; -128.775; -633.000; -682.000
908.903;  -95.400; -208.000; -123.000
909.145;  -53.575; -240.000; -305.000
909.386;    2.500;  315.000;  280.000
909.628;   48.200;  363.000;  397.000
909.870;    7.100;   29.000;  264.000
910.111;  -66.475; -809.000; -949.000
910.353;   28.175; -123.000; -161.000
910.594;   32.925; -574.000; -606.000
910.835;  104.425; -265.000; -326.000
911.077;  187.275; -503.000; -604.000
911.318;  314.300; -505.000; -471.000
911.559;  500.725; -577.000; -880.000
911.801; 1292.000; -284.000; -280.000
912.042; 8914.875;  -50.000; -159.000
912.283;29311.400;  404.000;  371.000
912.524; 6377.200; -396.000; -457.000
912.765;  639.675; -193.000;   79.000
913.006;  303.025; -307.000; -338.000
913.247;  100.925; -270.000; -290.000
913.488;   17.400;  -43.000;   30.000
913.729;  -57.350; -373.000; -373.000
913.970;  -70.600;  -96.000; -292.000
914.211;  -64.625; -160.000; -198.000
914.452;  -50.875; -118.000;  -11.000
914.693;   22.775;  510.000;  592.000
914.934;   28.000;  510.000;  440.000
915.175;  -65.225;   53.000;  -95.000
915.415;  -75.625; -137.000;   27.000
915.656;  -55.025;  -28.000;  192.000
915.897;  -65.075; -252.000;  -82.000
916.137;  -58.800;   74.000;   -9.000
916.378; -106.750; -573.000; -517.000
916.619;  -89.525; -159.000;  -63.000
916.859;  -23.100;  303.000;  330.000
917.100;  142.825; 1655.000; 1070.000
917.340;   56.625;  930.000;  728.000
917.581;   55.525;  965.000;  789.000
917.821;   11.850; -171.000;  143.000
918.061;   84.250; -199.000;  -72.000
918.302;  -26.975; -152.000; -211.000
918.542;   -1.275;  -22.000;    3.000
918.782;   69.575;  369.000;  377.000
919.023;  174.825;  360.000;  427.000
919.263; 1528.575; 8131.000;  202.000
919.503; 1858.675; -137.000;  -54.000
919.743;  980.675;  390.000;  266.000
919.983;  532.625; -134.000;  -26.000
920.223;  154.375;  135.000;   14.000
920.463;  190.550;  631.000;  554.000
920.703;  196.300;   84.000;   39.000
920.943;  254.025; -110.000;   90.000
921.183;  345.050; -414.000; -405.000
921.423;  637.325;  307.000;  546.000
921.663;  929.775; -174.000; -257.000
921.903; 1877.250;  237.000;  173.000
922.143; 9513.700;  372.000;  389.000
922.383;40678.025;  158.000;  115.000
922.622;19469.850; -120.000;  -15.000
922.862; 2002.875;  796.000;  785.000
923.102;  705.575;  -51.000;   33.000
923.341;  308.325;   59.000;   74.000
923.581;  161.050;  450.000;  360.000
923.821;   47.125;  301.000;  398.000
924.060;   32.075;  351.000;  193.000
924.300;  -25.850;  -16.000; -128.000
924.539;    3.300;  584.000;  473.000
924.779;   28.650;  812.000;  597.000
925.018;  -34.100;  247.000;  353.000
925.257;  -10.300;  595.000;  666.000
925.497;  -27.850;  447.000;  412.000
925.736;  -62.425;  -35.000;  102.000
925.975;   17.525;  687.000;  669.000
926.214;   39.650;  907.000;  850.000
926.454;   15.950;  706.000;  757.000
926.693;  -16.425;  419.000;  543.000
926.932;   51.600; 1021.000;  825.000
927.171;   78.900; 1107.000; 1044.000
927.410;   59.025; 1144.000;  967.000
927.649;   12.600;  924.000;  742.000
927.888;  -17.950;  590.000;  564.000
928.127;    7.375;  680.000;  678.000
928.366;   49.050;  842.000;  826.000
928.605;   56.575;  831.000;  737.000
928.844;  278.475; 1451.000; 1393.000
929.083;  827.400;  770.000;  613.000
929.321;  545.850; 1335.000; 1359.000
929.560;  102.450; 1158.000; 1122.000
929.799;   -0.325;  574.000;  475.000
930.038;   95.375; 1025.000; 1394.000
930.276;  -33.450;  334.000;  397.000
930.515;    7.950;  827.000;  681.000
930.753;  -17.900;  614.000;  589.000
930.992;   -6.075;  664.000;  717.000
931.230;   12.275;  847.000;  847.000
931.469;  164.650; 2162.000;  892.000
931.707;   89.625;  840.000;  751.000
931.946;   56.000; 1278.000; 1344.000
932.184;   75.450; 1437.000; 1175.000
932.423;   41.650; 1265.000;  963.000
932.661;  110.550; 1296.000; 1428.000
932.899;   50.100;  987.000;  821.000
933.137;   31.100;  754.000;  564.000
933.376;  176.650; 1664.000; 1335.000
933.614;  204.450; 1759.000; 1196.000
933.852;   64.225; 1357.000; 1171.000
934.090;  142.650; 1722.000; 1747.000
934.328;  122.350; 1252.000; 1457.000
934.566;  127.875; 1431.000; 1110.000
934.804;  171.325; 1263.000; 1309.000
935.042;  517.875; 1861.000; 1850.000
935.280; 2012.575; 2088.000; 2063.000
935.518; 2477.900; 2113.000; 2007.000
935.756;  522.975; 2481.000; 2316.000
935.994;  197.625; 1808.000; 1751.000
936.231;  394.675; 2890.000; 2950.000
936.469;  217.175; 2367.000; 2378.000
936.707;  175.600; 2220.000; 2167.000
936.945;  245.050; 2825.000; 2882.000
937.182;  210.325; 2679.000; 2741.000
937.420;  318.100; 3602.000; 3031.000
937.657;  459.975; 3365.000; 3478.000
937.895;  418.900; 3331.000; 3488.000
938.133;  315.450; 3540.000; 3528.000
938.370;  356.800; 3896.000; 4191.000
938.607;  394.650; 4488.000; 4205.000
938.845;  533.050; 5587.000; 5549.000
939.082;  473.125; 5387.000; 5177.000
939.320;  540.450; 5799.000; 5728.000
939.557;  638.550; 6549.000; 6491.000
939.794;  729.300; 7285.000; 7097.000
940.031;  900.325; 8421.000; 8368.000
940.269; 1201.875; 9552.000; 9107.000
940.506; 1163.200;10901.000;10507.000

