
Integration time [ms]: 100.000
Averaging Nr. [scans]: 40
Smoothing Nr. [pixels]: 0
Data measured with spectrometer [name]: 2101013U2
Wave   ;Sample   ;Dark     ;Reference
[nm]   ;[counts] ;[counts] ;[counts] 

394.013;   44.509; -450.257; -315.536
394.305;  203.832; -461.258; -419.536
394.596; 1057.603; -676.269; -527.514
394.887; 2704.770; -796.268; -654.518
395.178; 1040.076;  145.736;   11.476
395.470;   81.562; -210.263; -356.526
395.761;  211.760;  305.734;  394.479
396.052;  269.077; -545.284; -306.489
396.343;  279.623; -557.276; -454.503
396.634;  108.516; -200.279; -290.497
396.926;  127.292; -618.268; -565.517
397.217;  122.377;   11.725;  -17.504
397.508;   58.018; -366.273; -154.507
397.799;   46.066; -555.279; -571.497
398.090;   -4.165; -973.280; -902.495
398.381;  117.302;   11.708;  -11.473
398.672;   -4.172; -585.292; -742.473
398.963;   46.822; -348.279; -373.498
399.254;  105.237;   54.709; -209.475
399.545;  -23.918;-1017.266; -883.520
399.836;   50.437; -407.277; -343.501
400.127;   57.253; -205.295; -209.468
400.418;   58.813; -423.274; -392.506
400.709;   63.073; -359.281; -333.493
401.000;   49.966; -268.291; -309.476
401.290;  117.714;  225.698;  115.545
401.581;   61.535; -166.286; -228.485
401.872;   23.150; -542.298; -486.462
402.163;   47.821; -313.296; -252.467
402.454;   89.788; -123.291; -163.475
402.744;   84.812; -844.297; -813.465
403.035;  421.568; -226.293;  -86.471
403.326;  584.106; -366.292; -384.474
403.617;  383.294;  204.701;  165.539
403.907;  249.858; -593.283; -679.490
404.198; 2409.093; -545.307; -599.446
404.489; 6261.413; -618.283; -588.491
404.779; 2120.818; -618.302; -660.456
405.070;  239.296;  -67.304; -174.451
405.360;  344.670; -259.293; -238.472
405.651;  382.929;  125.699;   98.542
405.942;  196.130;  209.714;  127.516
406.232;  272.445; -432.285; -413.487
406.523;  488.988;  641.706;  758.530
406.813;  103.832; -579.286; -644.484
407.104;  358.576;  261.708;  144.527
407.394;  180.146; -604.299; -591.462
407.685;  156.519;  336.715;  222.513
407.975;   61.712; -400.283; -382.490
408.265;  114.327; -134.289; -190.478
408.556;   65.485; -472.291; -459.475
408.846;  169.839;  474.706;  429.530
409.137;   72.911;   -1.288; -216.480
409.427;   59.545; -193.285; -271.487
409.717;   51.971; -776.273; -692.508
410.007;  157.763;    4.715; -170.486
410.298;   97.806; -360.295; -342.469
410.588;   71.342; -495.285; -510.486
410.878;   27.997; -792.287; -873.482
411.168;  105.577; -481.298; -478.463
411.459;  126.231; -295.283; -242.489
411.749;   77.808; -609.292; -507.474
412.039;   65.409; -755.289; -386.480
412.329;  211.054;   40.722;  132.501
412.619;  204.133;  -62.286; -148.485
412.909;  376.930;  639.711;  594.521
413.199;  335.936; -130.280; -251.495
413.490;  414.271;  521.710;  352.523
413.780;  139.490;-1013.279; -913.496
414.070;  347.674;  -46.276;  235.497
414.360;  386.151; -729.278; -666.498
414.650;  418.943; -726.288; -688.482
414.940;  529.064; -538.280; -441.496
415.230;  950.615;   50.712;   74.519
415.520; 6119.452;  155.730;   66.486
415.809;24057.247; -305.281; -125.493
416.099;18671.014; -388.277; -229.501
416.389; 5166.235;  435.726;  236.494
416.679; 3044.141;   91.738;   85.473
416.969;  524.727; -527.287; -503.483
417.259;  586.092;  341.721;  171.503
417.549;  702.296;  522.718;  318.508
417.838; 1640.369; -205.268; -147.518
418.128; 5478.676;  650.710;  492.522
418.418; 4607.403; -491.272; -579.509
418.708; 3107.585;    9.726;  -48.506
418.997;11560.756; -474.275; -480.505
419.287;12182.792; -733.273; -790.507
419.577;11442.506; -160.283; -123.489
419.866;37851.562; -588.277; -498.501
420.156;38926.848; -242.270;  -55.513
420.446; 7063.608; -112.263;  -26.526
420.735;  877.192; -376.271; -446.512
421.025;  858.050; 1830.722;  315.502
421.314;  694.790; -203.271; -226.512
421.604; 1468.262;   89.732;  233.484
421.893;  859.262; -705.271; -602.511
422.183;  240.608; -487.263; -461.526
422.472;  369.763;  -36.271; -107.511
422.762;  448.062; -416.266; -379.521
423.051;  243.899; -916.276; -916.503
423.341;  329.069; -491.273; -439.507
423.630;  419.018; -121.265;   15.477
423.919;  386.381;   58.725;   49.495
424.209;  371.264;  -31.263;   56.473
424.498;  503.492;   68.732;  161.483
424.787; 1085.923; -535.267; -601.518
425.077; 3375.767;   34.735;   29.478
425.366; 4746.194; -734.262; -744.528
425.655; 9916.120;  639.727;  259.493
425.945;21421.274; -313.247; -268.554
426.234;12072.717;  117.741;  300.467
426.523; 5035.197;  -86.259; -350.534
426.812; 6964.758;  107.734;  159.480
427.101;10219.109; -127.269; -323.515
427.390;12980.377;  -55.270;  -86.514
427.680; 2976.842; -624.257; -411.538
427.969;  490.728; -330.255; -301.540
428.258;  310.934; -385.257; -477.536
428.547;  548.682;  449.728;  397.490
428.836; 1251.494; -421.253; -398.543
429.125; 1811.149; -199.259;  -72.534
429.414;  823.842; -330.251; -294.548
429.703; 3135.142; -231.251; -213.548
429.992; 9306.446; -938.250; -828.549
430.281; 6180.376; -397.264; -331.524
430.570;  588.482;  -21.252;   32.454
430.859;  586.947;  279.741;  352.466
431.148;  434.395;  636.752;  631.446
431.437;  287.582;  391.748;  367.454
431.725;  157.185; -544.257; -481.536
432.014;  121.102; -845.253; -756.545
432.303;  384.946; -149.239; -105.569
432.592;  612.358; -460.263; -178.525
432.881; 1084.921; -601.248; -437.554
433.169; 6151.279; -343.255;  -61.540
433.458;12594.605;  445.765;  540.424
433.747; 5283.350; -397.261; -289.529
434.036;  902.122; -275.242; -280.564
434.324; 2060.833; -395.249; -379.551
434.613; 3667.665;   40.757;  159.437
434.902; 1230.586;  333.760;  439.433
435.190;  580.495;   75.761;  295.431
435.479;  340.547;  -52.245;   83.441
435.767;  106.830; -411.244; -427.561
436.056;  212.217; -340.242; -294.563
436.345;  344.263; -372.240; -223.568
436.633;  398.228;   60.750;  383.450
436.922;  272.640;  208.760;  414.432
437.210;  610.870; -194.236;    1.426
437.499; 1931.103; -583.235; -432.576
437.787; 2157.744; -339.236;  -10.574
438.075;  539.075;   56.761;  162.430
438.364;  725.628;  -44.238;  250.429
438.652;  450.858; -286.226; -138.592
438.941;  152.322;    3.770;  269.415
439.229;    8.605; -665.252; -466.545
439.517;   57.636; -160.234;  -85.577
439.806;   -8.576; -501.225; -290.595
440.094;  185.469;  377.766;  650.421
440.382;  184.373; -653.233; -302.580
440.670;  201.752; -361.235; -285.576
440.959;   30.991; -347.223; -170.599
441.247;   71.808; -151.229; -109.587
441.535;   94.910; -266.235;   31.423
441.823;   37.866; -497.234; -305.578
442.111;  192.762;  173.771;  327.412
442.400;  534.321; -628.245; -335.559
442.688; 1454.218; -111.234; -620.579
442.976; 1042.304; -786.213; -450.617
443.264;  121.980; -324.224; -364.597
443.552;  108.959; -258.226;   51.408
443.840;  165.933;  602.765;  876.423
444.128;  110.347;  265.767;  269.420
444.416;   -2.485; -694.228; -312.588
444.704;   45.246; -465.219;  -92.605
444.992;   84.987;   -0.226;  240.407
445.280;   55.772; -517.230;  -94.585
445.568;   53.833; -694.212; -396.618
445.856;  351.480; -174.221;  357.398
446.143;  762.617;  -54.220;   -7.604
446.431;  645.519;  -25.228;  625.411
446.719;  257.315;  489.783;  675.391
447.007;  188.617;  481.769;  705.416
447.295;  177.963;  597.777;  871.402
447.583;   91.656; -464.229;  -34.587
447.870;  164.702; -434.221; -202.601
448.158;  420.421; -104.230;  129.415
448.446;  330.418; -800.219; -338.604
448.733;  163.007;   13.776;  269.403
449.021;  261.532;   60.788;  341.382
449.309;  191.672; -296.210;  208.379
449.596;  221.861;  128.783;   59.392
449.884;  161.545; -571.222; -325.600
450.172;  164.174; -756.227; -406.590
450.459;  450.637;  645.786;  780.387
450.747; 2422.010; -411.218; -147.608
451.034; 7570.095;  493.772;  889.411
451.322; 6328.090; -413.214; -170.614
451.609;  546.433;  292.777;  508.403
451.897;  595.086; -550.203; -183.634
452.184; 1827.913; -622.223; -400.598
452.472; 1707.369;   97.792;  269.375
452.759;  341.169;  512.781;  864.395
453.047;  105.330; -407.212; -125.617
453.334;   73.802; -732.219; -216.606
453.621;   87.418; -438.214; -161.615
453.909;  112.828;   13.796;  384.368
454.196;   93.598; -299.199; -123.641
454.483;  206.424;  317.798;  540.364
454.771;  135.497; -215.208;  196.374
455.058;   37.375; -316.207;  102.374
455.345;   99.703;   71.807;  344.347
455.632;   92.478; -128.207;  235.373
455.919;   40.371;  -82.196;  182.354
456.207;  -64.922; -774.198; -450.642
456.494;  -10.764; -475.200;  -66.639
456.781;   15.744; -399.202; -198.635
457.068;   50.610; -253.206;  -29.628
457.355;  -14.464; -698.206; -401.629
457.642;   -5.858; -552.205; -290.630
457.929;    8.895; -778.194; -417.651
458.216;   64.255; -575.212; -354.617
458.503;  240.524; -173.193;  -19.652
458.790;  224.670; -864.208; -630.625
459.077;  271.924;  -77.202;  110.364
459.364;  805.462; -350.195; -210.649
459.651; 1684.133;  -46.206;  220.372
459.938;  793.010; -864.209; -665.623
460.225;  158.177;  132.799;  276.363
460.512;  -40.807; -836.197; -688.645
460.799;  117.959;  -32.218;  320.392
461.086;   74.890; -370.200; -251.640
461.372;   51.978; -509.198; -279.642
461.659;  110.022; -165.196;  108.354
461.946;   76.098; -445.193;  -54.651
462.233;  235.438;  842.800;  888.361
462.519;  338.285; -814.201; -464.639
462.806; 1021.118; -768.197; -497.645
463.093;  863.969; -445.191;  -66.656
463.380;  -25.540; -920.186; -824.664
463.666;   50.495; -259.197;  -18.646
463.953;   95.407; -406.195; -243.648
464.239;  199.882; -173.195;  -77.648
464.526;  398.018;  413.806;  743.350
464.813;  345.880; -565.190; -304.658
465.099;  355.949;  606.807;  607.348
465.386;  344.553;  903.807;  921.348
465.672;   15.619; -694.197; -522.645
465.959;   18.823; -598.188; -520.662
466.245;    1.853; -468.193; -359.652
466.532;   91.280; -109.195;   63.352
466.818;   74.085; -357.186; -216.664
467.104;    6.450; -488.182; -415.672
467.391;  -26.268; -628.189; -459.658
467.677;   28.088; -289.186;    9.335
467.964;    4.964; -682.189; -471.660
468.250;   56.141; -331.186; -160.665
468.536;   75.058;   90.811;  180.341
468.822;  -34.047; -821.184; -574.668
469.109;  138.631;  351.827;  471.311
469.395;  206.438;  729.808;  787.346
469.681;  171.936;   46.811;  156.341
469.967; 1231.991; -699.188; -382.660
470.254; 2695.874; -494.188; -306.662
470.540; 1759.696; -601.196; -476.646
470.826;  255.511; -488.181; -397.675
471.112;  309.881;  288.816;  113.331
471.398;   81.736; -253.183;  -58.670
471.684;   44.989; -626.177; -447.680
471.970;  -17.035; -918.180; -981.675
472.256;   28.762; -521.192; -441.654
472.542;   35.042; -499.171; -434.691
472.828;   19.221; -743.182; -607.672
473.114;   20.036; -380.166; -283.700
473.400;   24.181; -504.175; -293.684
473.686;   24.842; -452.166; -400.701
473.972;   62.246; -230.174; -131.687
474.258;  -45.794; -925.173; -843.689
474.544;  193.431; -183.178;   -2.679
474.830;  310.358;  -65.175;   45.316
475.116;  477.507; -123.190; -196.658
475.401;  666.192; -558.180; -467.676
475.687;  190.241; -725.180; -718.676
475.973;   11.429; -673.181; -770.673
476.259;  245.285;  736.825;  764.315
476.544;  365.198; -539.176; -437.682
476.830;  815.938; -398.172; -322.690
477.116;  714.096; -430.177; -336.682
477.401;  139.467;  346.820;  358.324
477.687;  -20.069; -289.175; -405.684
477.973;   41.882;   21.819;   28.326
478.258;  -15.688; -448.163; -348.706
478.544;   52.496;   21.815;   61.334
478.829;  -50.653; -818.171; -738.692
479.115;  -60.112; -749.172; -651.690
479.401;  -11.234; -444.174; -449.686
479.686;   37.166; -253.180;  -74.676
479.972;  -28.089; -886.178; -776.680
480.257;   42.187; -258.166;  -65.700
480.542;   -2.349; -614.170; -469.693
480.828;  241.479; 1288.824; 1392.317
481.113;  -40.073; -464.176; -426.683
481.399;   -8.939; -236.161; -202.711
481.684;  -58.489; -620.166; -462.700
481.969;   26.950; -158.159;  -73.713
482.255;    1.062; -439.169; -285.695
482.540;    3.062; -569.178; -441.680
482.825;    7.130; -395.187; -404.663
483.110;  101.565;  -85.169; -105.696
483.396;  177.046; -840.157; -652.718
483.681;  493.046;  543.826;  730.313
483.966;  165.569; -696.160; -700.712
484.251;    2.220; -404.174; -310.687
484.536;   -1.203; -356.165; -378.703
484.822;    9.548; -205.173; -218.687
485.107;  -31.815; -599.152; -502.726
485.392;  127.928;  662.836;  541.296
485.677;   68.400;  354.832;  163.302
485.962;   94.344;  160.843;  270.283
486.247;   84.795;  -14.162;   -8.707
486.532;   45.763; -178.166; -325.701
486.817;  165.381;  381.839;  431.291
487.102;  111.468; -453.154; -514.722
487.387;  663.198; -637.156; -652.718
487.672; 1179.558; -154.164;  -38.705
487.957;  737.788; -394.160; -286.711
488.241;  205.476; -290.150; -314.729
488.526;  745.286; -280.152; -148.726
488.811; 1186.164; -881.177; -818.680
489.096;  896.270; -666.154; -702.723
489.381;  493.582;    3.847;  162.275
489.666;  359.886; -428.161; -510.710
489.950;  186.773;  558.846;  627.277
490.235;  -28.854; -480.151; -458.728
490.520;  -48.715; -756.161; -723.710
490.804;  -58.150; -827.156; -736.719
491.089;    0.867; -469.149; -299.732
491.374;   36.932; -132.164;  -75.704
491.658;  -12.246; -817.147; -717.735
491.943;  157.415; -657.152; -609.727
492.227;  268.863; -178.155;  -38.721
492.512;   58.718; -294.157; -341.717
492.797;  -59.839; -713.149; -716.731
493.081;  -52.669; -588.147; -598.735
493.366;  -36.538; -751.161; -635.711
493.650;  208.260;  831.859;  917.254
493.935;   46.978; -648.147; -447.734
494.219;  -32.428; -778.142; -687.743
494.503;  -56.019; -585.150; -487.730
494.788;   49.185;   46.842;   74.285
495.072;  104.578;  184.850;  434.271
495.356;  173.770; -463.148; -343.733
495.641;  488.788; -812.146; -736.736
495.925;  442.255; -976.156; -903.719
496.209;   41.167; -599.149; -451.732
496.494;  -51.702; -763.142; -544.744
496.778;    4.768; -364.154; -360.722
497.062;  -62.320; -819.156; -627.719
497.346;  -30.485; -869.160; -640.711
497.631;  153.024;  580.852;  560.266
497.915;   70.424;  -64.145;  175.261
498.199;   41.346; -341.157; -277.718
498.483;   45.884; -562.152; -508.725
498.767;  170.979;  301.850;  300.271
499.051;  190.089; -126.149; -100.732
499.335;   37.137; -693.149; -739.731
499.619;  -35.539; -381.129; -423.767
499.903;   15.912; -272.155;  -65.721
500.187;   44.075; -588.153; -316.724
500.471;    0.515; -796.152; -595.727
500.755;  111.660;   62.839;  -96.710
501.039;   21.688; -270.155; -357.721
501.323;  100.062;  -21.141;  264.254
501.607;   35.938; -447.163; -503.706
501.891;   -7.702; -607.156; -512.718
502.174;  -33.890; -726.144; -585.741
502.458;   82.144;   89.849;  370.273
502.742;   33.360; -180.138; -191.751
503.026;  104.928; -412.147; -254.734
503.310;  167.224; -437.159; -375.713
503.593;  120.654; -464.147; -325.735
503.877;  125.276; -232.133; -156.760
504.161;  180.227;    2.847;  -50.724
504.444;  135.212; -841.158; -710.716
504.728;  478.981; -487.164; -522.704
505.012;  696.376; -257.150;  -76.729
505.295;  521.886; -417.161; -212.711
505.579;  547.705; -256.156; -496.719
505.862;  732.295; -555.145; -333.738
506.146;  735.176; -681.159; -758.714
506.429;  421.552;  568.841;  461.286
506.713;   56.323; -732.151; -667.728
506.996;  319.067;   90.846;  295.278
507.280;  329.476; -633.165; -474.703
507.563;  247.761; -469.155; -261.721
507.847;   92.251; -423.153; -112.724
508.130;   92.637; -665.161; -456.711
508.413;  129.458; -758.167; -577.700
508.697;  235.858; -151.167;   12.300
508.980;  165.802; -422.153; -312.724
509.263;    7.957; -466.155; -450.720
509.547;   29.225; -124.150;   82.271
509.830;   42.189; -172.160;  140.289
510.113;   88.354;  128.844;  298.281
510.396;   52.983; -530.152; -300.725
510.680;  156.521; -818.145; -812.738
510.963;  654.097;  184.846;  180.277
511.246;  541.408; -493.150; -357.730
511.529;  274.701; -482.145;  -83.739
511.812;  370.722; -250.134;   10.241
512.095;  279.220; -740.151; -396.728
512.378;   59.533; -317.147; -245.736
512.661;   22.093; -703.137; -623.753
512.944;   33.424; -750.142; -637.744
513.227;   78.665; -170.137; -171.752
513.510;   26.360; -479.144; -671.741
513.793;   20.666; -485.140; -435.747
514.076;  134.357;  -43.127;  -39.771
514.359;  120.043; -294.149; -135.732
514.642;   78.152; -442.142; -567.744
514.925;  747.064;  581.860;  561.253
515.208;  997.269; -498.134; -443.758
515.491;  663.558; -276.133; -182.761
515.773;  383.763; -410.143; -337.742
516.056; 2080.624;  249.864;  409.246
516.339; 2783.053; -754.136; -652.755
516.622; 1957.481; -518.150; -488.730
516.904; 1281.045;  882.857;  975.257
517.187;  618.839; -730.138; -523.752
517.470;  390.094; -568.143; -510.743
517.752;  422.756; -624.136; -470.756
518.035;  348.376; -708.139; -725.749
518.318;  364.204; -799.136; -744.755
518.600; 2415.186; -300.132; -325.762
518.883; 3289.976;  310.858;   88.256
519.165; 1643.357; -585.138; -426.751
519.448;  395.411;  -61.132;  -19.762
519.730;  203.065; -573.126; -415.773
520.013;  319.129;  588.867;  664.240
520.295;  880.124;  -94.134;  -15.759
520.578; 1886.199; -335.131; -305.764
520.860; 2186.836; -254.132;   56.238
521.143; 1138.658; -763.135; -584.756
521.425;  475.952; -251.125; -279.775
521.707;  684.982; -622.127; -380.771
521.990; 1773.308; -199.127;  167.229
522.272; 1978.918; -116.140;   -4.748
522.554;  928.164; -237.143; -157.742
522.836;  379.822;  -24.134;   99.241
523.119;  213.976; -496.148; -189.734
523.401;  149.031; -448.130; -314.766
523.683;   83.694; -865.137; -693.753
523.965;  297.012;  408.862;  260.248
524.247;  278.574;   54.878;  170.220
524.529;  211.549; -451.134; -367.759
524.812;  330.758;   -3.130;  191.234
525.094;  856.886; -773.138; -631.751
525.376; 1339.187; -143.124;   78.223
525.658;  833.951; -441.136; -339.754
525.940;   20.696; -805.131; -671.764
526.222;   34.604; -188.136;  -88.755
526.504;  111.168; -190.131;   32.237
526.786;  189.826; -960.133; -647.760
527.068;  310.667; -124.123;  -67.778
527.349;  145.172; -865.137; -774.754
527.631;  141.436; -137.132;   22.238
527.913;  134.507; -664.127; -450.771
528.195;  165.170; -761.125; -639.774
528.477;  253.194;  -93.134;  -30.758
528.759;  133.483; -648.130; -522.766
529.040;   63.766; -569.123; -293.778
529.322;   59.023; -235.125;  -10.774
529.604;  158.435;  -47.130;   93.233
529.886;  130.089; -546.126; -302.773
530.167;  137.726;  232.870;  192.235
530.449;   51.983;    1.853;   63.265
530.731;   14.173; -572.122; -459.779
531.012;   65.019; -513.120; -216.784
531.294;   64.308; -118.116;  -43.792
531.575;  155.002;  290.875;  538.225
531.857;   55.239; -548.135; -266.757
532.138;   90.460; -113.141;   40.254
532.420;  181.410;  294.865;  403.244
532.701;  209.754; -722.133; -751.760
532.983;  360.307;  232.867;  182.239
533.264;  126.337; -243.126;  175.228
533.546;  -50.821; -491.136; -508.755
533.827;   63.325;  173.867;   -1.759
534.109;   42.414; -352.135;  -80.757
534.390;   95.340; -725.132; -582.762
534.671;  256.660; -270.135;  -82.756
534.953;  148.969; -751.123; -611.779
535.234;   30.568; -426.117; -255.789
535.515;  -90.148; -891.119; -735.785
535.796;  -34.597; -431.128; -193.770
536.078; -118.089;-1050.124; -904.777
536.359;    0.644;  -22.123;    3.221
536.640;  -12.303; -480.125; -197.774
536.921;  155.090;  225.871;  143.232
537.202;  380.883;  -87.138;  -16.751
537.483;  449.323;  251.869;  377.236
537.764;  176.952;   17.870;   98.235
538.045;  -45.057; -543.134; -371.758
538.326;  -38.958; -596.129; -447.768
538.607;   12.558; -686.127; -476.771
538.888;  170.985;   98.879;    5.218
539.169;  183.429; -704.122; -535.781
539.450;  350.364;  236.871;   16.233
539.731;  237.014; -361.121; -182.783
540.012;  139.419;  199.880;  412.216
540.293;   83.731;   82.876;  158.224
540.574;    6.879; -895.113; -717.796
540.855;  463.712;  435.879;  377.218
541.136;  518.777;   47.878;  139.220
541.416;  277.183; -161.130; -220.766
541.697;  203.394; -274.131; -170.763
541.978; 1020.912; -270.135; -315.757
542.259; 1299.083; -211.127; -236.771
542.539;  637.477; -191.116; -186.790
542.820;  191.977;  461.875;  480.225
543.101;  124.873;  -52.145;  -77.738
543.381;   26.558; -638.127; -591.771
543.662;  270.580;  159.873; -254.771
543.942;  570.054; -751.127; -830.770
544.223; 1045.878;  193.878;  161.219
544.504;  676.911; -275.124; -182.777
544.784;  591.239; -592.126; -408.773
545.065; 1662.655;  104.884; -254.791
545.345; 1953.052;  227.881;   14.215
545.626; 1290.828;  -14.113; -108.796
545.906;  879.851;   77.869;   98.235
546.186;  369.569;   92.874;  -95.773
546.467;  209.114;   99.877;  -95.778
546.747;  330.276;  264.884;  327.210
547.027;  378.985;   91.876;  111.223
547.308;  323.003; -376.127; -530.770
547.588;  399.043;  299.871;  371.232
547.868;  195.077;  458.870;  588.235
548.149;  177.363;  609.885;  593.207
548.429;  131.706; -347.127; -299.771
548.709;  197.818; -645.120; -461.784
548.989;  471.187;   84.882;   88.213
549.269; 2117.409;   10.868;  139.239
549.550; 4778.093;  215.877;  117.222
549.830; 4293.621; -758.111; -556.799
550.110;  875.603; -468.110; -320.801
550.390;  838.673; -128.122;  -56.779
550.670; 1124.399; -868.114; -783.795
550.950;  796.537; -509.121; -471.782
551.230;  192.158;  549.879;  460.218
551.510;  -13.239; -381.121; -326.782
551.790;   31.811; -173.109; -127.803
552.070;  264.863;  940.877; 1181.223
552.350;  390.731; -492.119; -377.786
552.630;  584.831;   -2.121;   77.219
552.909;  377.581;  181.884;   73.209
553.189;  245.516;  -49.132;   33.237
553.469;  182.381; -703.119; -514.786
553.749;  187.534; -469.127; -357.772
554.029;  157.122;   33.883;  -24.790
554.308;  154.717; -154.115;  -37.794
554.588;   59.777; -196.128; -204.770
554.868;   62.913; -366.121;  -47.782
555.147;  148.539; -114.115;  -46.793
555.427;  576.108; -260.116; -250.792
555.707; 3849.287; -284.115; -200.793
555.986; 4618.974; -719.111; -538.800
556.266; 2452.975;   23.884;   72.210
556.546;  112.836; -888.121; -675.782
556.825;  254.246; -657.114; -556.794
557.105; 1795.224; -125.128;   17.230
557.384; 2090.005;  122.884;  187.209
557.664;  791.683; -717.116; -508.792
557.943;  106.412; -557.121; -411.782
558.222;  171.065; -345.118; -344.788
558.502;  279.041; -116.115;  -76.793
558.781;  490.836;  194.885;  499.208
559.061;  406.865; -232.118; -227.788
559.340;  302.845;  302.883;  353.211
559.619;  697.800;   93.884;  148.210
559.899; 1013.146; -239.117; -266.789
560.178;  947.115; -778.115; -593.793
560.457; 3157.448; -623.117; -562.790
560.736; 4347.325; -472.111; -482.800
561.015; 2955.122; -500.128; -502.769
561.295;  382.531;  180.893;  215.193
561.574;  345.188;  119.885;  116.207
561.853;  482.065;  274.891;  303.197
562.132;  491.718;  -45.114;  182.206
562.411;  429.156;  396.879;  553.219
562.690;  144.261; -592.115; -458.792
562.969;  148.510;  472.888;  630.203
563.248;  492.304; 2966.878; 2487.219
563.527;  260.300; -290.111; -408.800
563.806;  376.806; -650.127; -521.771
564.085;  407.846; -297.105; -206.810
564.364;  238.775; -594.117; -405.790
564.643;  510.532; -276.121; -223.781
564.922; 1852.984;  221.890;  397.198
565.201; 1888.038; -640.109; -700.803
565.479;  809.435; -297.115; -219.792
565.758;  328.850; -810.128; -712.770
566.037;  462.839; -155.109; -100.803
566.316;  239.230; -286.116;  -28.791
566.595;   52.062;  -17.115;  -12.793
566.873;   86.802; -166.111;  -79.801
567.152;  -49.191; -490.113; -590.797
567.431;    9.026; -113.116;    6.210
567.709;   12.981; -344.107; -212.807
567.988;  250.371; -810.114; -769.794
568.266;  518.912; -160.115;  -68.793
568.545;  397.093; -644.100; -514.819
568.824;  585.009;  160.885;  356.208
569.102;  536.521; -351.114; -235.794
569.381;  230.508; -492.116; -407.792
569.659;  -49.844; -553.113; -553.796
569.938;   49.677; -743.122; -465.780
570.216;  111.292; -225.109; -225.804
570.494;  -20.101; -632.114; -572.795
570.773;   33.210;  202.879;  114.218
571.051;    4.066; -373.123; -357.778
571.330;   43.303; -221.113; -174.796
571.608;   31.761; -181.098; -173.823
571.886;  -74.956; -671.111; -581.799
572.164;  -65.837; -739.121; -621.782
572.443;  -38.475; -562.105; -512.811
572.721;  -34.002; -399.117; -289.790
572.999;  -21.258; -280.117; -168.788
573.277;   99.593;  379.894;  620.191
573.555;  276.346;   94.894;   37.190
573.834; 1330.191;  -86.117; -114.788
574.112; 1566.834;  880.893;  811.193
574.390;  482.126; -143.111;  -96.801
574.668;   -8.189;  -91.112;  -61.797
574.946;  -22.104; -165.106; -187.810
575.224;   -0.062;   71.891;  -16.803
575.502;  -25.697; -200.116; -204.791
575.780;  -94.213; -767.112; -829.798
576.058;  204.725; 1589.889; 1004.200
576.336;  -15.245; -210.110; -129.801
576.614;  -44.413; -511.112; -340.798
576.891;   37.817; -711.115; -823.794
577.169;  489.125; -158.108; -285.805
577.447;  567.908;  169.893;  202.193
577.725;  269.841;  629.888;  854.201
578.003;   21.289;  -71.112; -371.798
578.280;   93.584; -208.104; -242.812
578.558;   60.716; -450.115; -422.793
578.836;  131.824; -210.114; -145.795
579.114;   59.110; -630.112; -670.797
579.391;   67.218;   -6.117;  -18.789
579.669;  -74.707; -595.114; -704.794
579.947;  162.280; -326.107; -127.806
580.224;  316.605; -692.107; -524.806
580.502;  325.659;  127.893;   76.193
580.779;   27.449;  -42.117;   75.210
581.057;  -76.583; -584.109; -470.804
581.334;  -91.401; -726.102; -695.815
581.612;   45.572;   54.895;  511.190
581.889;  -37.638;  -83.101; -129.818
582.167;  -39.949; -298.099; -190.821
582.444;  -95.343; -845.102; -814.817
582.721;  123.832;  657.899;  715.183
582.999;   59.149; -326.100; -167.821
583.276;  513.646; -812.123; -713.779
583.553;  701.377; -364.102; -294.816
583.831;  220.056; -607.104; -631.812
584.108;   66.598;  349.892;  174.195
584.385;   12.323; -122.102;  -98.815
584.662;  -80.423; -651.111; -828.801
584.940;   31.701;  204.889;  204.199
585.217;  -23.795;  -73.113; -303.796
585.494;   45.535;   71.890;  118.198
585.771;  204.918; -250.109; -354.804
586.048;  483.255; -196.113;  -76.796
586.325;  317.130; -721.110; -773.801
586.602;   94.109;  230.896;  213.188
586.879;  -17.180; -499.100; -580.820
587.156;   56.522; -156.105; -331.810
587.433;  -40.695; -701.102; -667.817
587.710;   68.962;  152.888;  234.202
587.987;  310.503; -264.105; -236.811
588.264;  783.464;  315.888;  387.202
588.541; 1342.087;  -61.104;   26.187
588.818; 2630.745;   72.892;  171.196
589.095; 2270.982; -163.104; -174.812
589.371;  376.541; -459.109; -414.804
589.648;    7.959; -581.107; -437.807
589.925;   31.875; -517.114; -621.795
590.202;   17.787; -741.112; -607.798
590.478;   91.454; -166.105;  -73.811
590.755;  263.926; -241.108; -132.806
591.032; 2449.882; -741.110; -699.802
591.308; 3397.651; -732.094; -790.831
591.585; 1777.156; -573.110; -560.802
591.862;  137.106;-1056.102; -950.817
592.138;   64.574; -475.108; -474.805
592.415;  135.985; -486.104; -495.813
592.691; 1466.258;  460.896;  518.188
592.968; 1837.138; -208.098; -123.824
593.244;  911.351; -695.116; -595.790
593.521;   69.681; -105.102;  -42.817
593.797;  -19.101; -810.122; -720.780
594.074;  339.076; -611.096; -588.826
594.350;  657.637;  828.905;  729.172
594.626;  304.877; -303.111; -283.801
594.903;  107.607; -643.101; -645.817
595.179;  182.689;  243.896;  418.187
595.455;   33.885; -136.107; -150.807
595.731;    1.990;  -19.103;  -38.814
596.008;  -38.379; -464.111; -434.800
596.284;   46.298; -187.100; -242.820
596.560;   55.733; -501.093; -493.833
596.836;  194.274; -173.105;  -70.810
597.112;  327.149; -582.108; -437.805
597.388;  292.999;  -49.097;  -48.826
597.665;  110.983;  437.887;  530.203
597.941;  -58.238; -572.089; -658.839
598.217;   10.610; -323.110; -293.802
598.493;  259.969;   61.891; -204.804
598.769;  507.767; -175.100;  -50.819
599.045;  288.377; -490.108; -562.806
599.321;   41.872; -193.100; -261.820
599.597;  122.994; -355.109; -476.804
599.872;  468.487;  409.896;  429.187
600.148;  362.800;  -61.097; -172.826
600.424;  285.132;   91.893;  202.193
600.700;  214.234; -170.107; -280.807
600.976;  111.894; -442.097; -464.825
601.252;  239.165; -226.109; -272.803
601.527;  203.388; -833.104; -840.813
601.803;  146.080; -453.105; -404.812
602.079;  193.042; -124.100; -118.819
602.354;  552.143; -620.092; -531.835
602.630;  802.530; -140.113; -482.796
602.906; 2284.512; -910.101; -863.818
603.181; 6558.806; -627.119; -534.786
603.457; 5617.048;   98.903; -278.826
603.733;  836.939; -605.120; -626.783
604.008;  954.771; -245.106; -164.810
604.284; 3019.408; -636.101; -580.817
604.559; 2636.516;   -3.112;  -42.799
604.835;  483.999; -163.105; -225.810
605.110;  393.327; -732.099; -892.821
605.385;  681.235;  224.907;  267.167
605.661;  652.265; -625.095; -729.829
605.936; 1146.303; -664.108; -737.806
606.211;  981.697;  -17.103; -170.815
606.487;  205.545; -329.114; -376.794
606.762;   11.531; -791.119; -745.786
607.037;  -24.251; -501.105; -433.810
607.313;  -48.842; -589.096; -574.828
607.588;   -4.679; -375.106; -137.810
607.863;   45.012;  -28.101; -143.818
608.138;  186.109;  513.890;  516.198
608.413;   19.581; -576.099; -592.822
608.688;   57.349; -203.108; -267.805
608.964;  201.540; -509.106; -218.809
609.239;  234.147; -107.105; -212.810
609.514;  257.855;  281.895;  240.188
609.789;  666.509; -187.104; -716.812
610.064;  857.507; -435.096; -609.827
610.339;  848.316; -855.109; -799.804
610.614; 1142.222; -131.100; -315.820
610.889;  659.880;  215.895;  107.188
611.163;   32.481; -407.104; -591.812
611.438;   78.921;   81.886; -167.794
611.713;   -3.817; -467.101; -499.817
611.988;   52.636; -144.101; -328.818
612.263;  -34.351; -771.102; -717.815
612.538;  197.430;  385.887;  251.204
612.812;  165.348; -832.100; -911.820
613.087;  129.836; -358.098; -338.823
613.362;  -58.290; -497.107; -557.807
613.637;   44.793;  261.897;  138.186
613.911;   -8.982; -256.092; -345.835
614.186;  111.908; -249.107; -292.807
614.460;  660.037; -842.081; -758.854
614.735;  757.560;  -55.087;  -17.843
615.010;  161.575;   43.912;  -82.841
615.284;  249.498;  360.892;  246.195
615.559;  359.317; -792.092; -955.835
615.833;  296.104;  -76.099;  -87.822
616.108;    3.179; -225.090; -390.837
616.382;  142.712;  274.913;  402.156
616.656;  161.679; -241.090; -232.837
616.931;  475.804; -785.099; -700.822
617.205; 1048.813; -973.104; -979.813
617.480;  973.550;  -91.125;    6.225
617.754;  148.623; -396.125; -128.774
618.028;   21.168; -369.129; -382.768
618.302;   60.472;   73.892;  -25.805
618.577;  -38.681; -371.103; -518.815
618.851;  -70.313; -399.109; -600.803
619.125;  -47.251; -335.134; -378.759
619.399;  -35.687; -244.104; -374.813
619.673;  -43.766; -330.115; -515.792
619.947;  -44.926; -333.114; -448.795
620.222;  -26.647; -198.110; -204.801
620.496;    7.237;  -47.121;  -96.782
620.770;    8.454; -187.122;  -93.781
621.044;  203.222;  323.895;  346.190
621.318;  738.165; -653.120; -614.783
621.592;  656.538; -430.121; -409.783
621.866;  340.667; -476.112; -572.799
622.140;   20.103; -207.116; -356.791
622.413;   56.996;  138.889;  112.200
622.687;  -38.841; -746.101; -492.817
622.961;    9.072; -130.108; -143.805
623.235;  -69.478; -633.111; -661.800
623.509; -106.321; -816.105; -848.811
623.783;   -3.894;  -12.107;   48.193
624.056;  -23.659; -254.120; -280.783
624.330;   45.736;   63.888;   -3.797
624.604;   39.850; -271.116; -355.790
624.877;   67.283;  180.890;   26.198
625.151;   49.668; -249.114; -238.794
625.425;  -39.610; -150.103; -283.814
625.698;  -55.024; -367.119; -374.785
625.972; -109.415; -799.110; -765.802
626.245;   76.051;  685.884;  484.210
626.519;  -37.855; -426.120; -340.784
626.792;  -37.066; -192.107; -380.807
627.066;  -98.403; -485.122; -662.779
627.339;  -94.569; -736.110; -663.802
627.613;   33.719;  351.880;  148.216
627.886;   45.312;  187.891; -612.803
628.160;  -23.610;  312.880; -161.783
628.433;  -96.997; -695.125; -703.775
628.706;  -94.255; -517.120; -615.784
628.979;   27.485;  296.876;  117.223
629.253;  -74.670; -785.119; -833.786
629.526;  363.713; -334.126; -253.772
629.799;  320.992; -641.123; -479.778
630.072;  160.295; -497.128; -516.769
630.346;  -83.449;-1115.116;-1080.790
630.619;  445.210; -467.107; -545.808
630.892;  597.173;  709.889;  593.200
631.165;  336.563;  790.896;  679.187
631.438;  -81.311;-1092.112;-1055.798
631.711;   51.120;  453.877;  257.221
631.984;  -66.353; -523.117; -624.789
632.257;  -63.582; -636.117; -681.789
632.530;  -47.574; -412.119; -433.785
632.803;   11.491; -109.115;    7.207
633.076;  -69.687; -360.123; -422.777
633.349;   15.599;  173.872;  121.231
633.622;  -39.700; -187.119; -240.785
633.895; -131.934; -903.120; -823.783
634.167;  -61.410; -496.126; -525.773
634.440;  -10.267;  -19.116; -137.792
634.713;   -8.671;  -22.119; -120.786
634.986;   72.964;  593.871;  453.233
635.258;  -86.585; -507.115; -597.793
635.531;   90.464;  742.882; -343.788
635.804;  -32.380; -303.117; -318.789
636.077;  -98.396; -830.116; -852.791
636.349;  -20.362; -586.115; -474.793
636.622;  374.637; 1695.874; 1392.228
636.894;  235.171; -474.120; -909.784
637.167;  130.456; -836.127; -789.771
637.439;   25.352; -278.128; -213.770
637.712;  -53.786; -312.126; -293.772
637.984;  -99.120; -635.116; -707.791
638.257;  385.264;  515.877;  488.222
638.529;  537.879; -881.125; -924.776
638.802;  229.570; -508.128; -449.769
639.074; -107.072; -927.122; -952.781
639.346; -125.960; -942.135; -930.757
639.619;    6.600;  -79.142; -319.744
639.891;  -18.478;  -83.122; -168.779
640.163;  -72.451; -689.122; -756.780
640.435;   33.501;  273.878;  103.220
640.708;   -0.673;  -72.122; -132.780
640.980;  -33.846; -366.122; -362.781
641.252;  202.906;  -25.121;  -71.781
641.524; 1793.933;  580.879;  573.219
641.796; 1797.735;-1094.121; -907.782
642.068;  341.862; -191.121; -300.782
642.340;  -63.062; -486.121; -566.783
642.613;   31.165;  294.880;  323.217
642.885; -103.108; -787.120; -878.783
643.157;  -52.556; -810.120; -658.784
643.428;   55.271;  170.880;  218.216
643.700;  -77.128; -498.120; -425.784
643.972;  -47.026;  -16.119; -133.785
644.244;  -91.949; -474.119; -559.785
644.516;  -33.897; -250.119; -114.786
644.788;   66.080;  662.881;  548.214
645.060;  -35.493;  -12.119; -124.786
645.332;  -94.167; -525.118; -535.787
645.603;   32.460;  479.882;  342.213
645.875;  -80.963; -334.118; -369.787
646.147;  158.714; 1487.882; 1242.212
646.418;  -73.184; -931.117; -918.788
646.690;  132.918; -714.117; -715.789
646.962;   30.344; -413.117; -451.789
647.233;  -17.179;   15.883;   11.211
647.505; -109.502; -595.117; -475.790
647.776;   22.150;  328.884;  229.210
648.048;   -8.998; -248.116; -418.790
648.320;  -78.371; -752.116; -679.791
648.591; -160.520;-1055.116; -958.791
648.862;  -82.843; -505.116; -577.792
649.134;   26.559;  115.885;  198.208
649.405;  -49.864; -661.115; -618.792
649.677;  -44.362; -475.115; -598.793
649.948;   -2.885; -181.115; -296.793
650.219;    4.791;  -37.115; -147.793
650.491;  -79.582; -431.114; -520.794
650.762; -134.430; -705.114; -731.794
651.033;  -97.153; -437.114; -424.795
651.304;  -93.451; -743.114; -728.795
651.576;  -78.324; -680.114; -645.795
651.847;  -39.548; -250.113; -140.796
652.118;  -36.271;  -32.113; -189.796
652.389; -109.019; -639.113; -722.796
652.660;  -35.317; -147.113;  -89.797
652.931; -141.840; -897.112; -871.797
653.202;  -96.188; -382.112; -541.798
653.473;  -56.187; -633.112; -533.798
653.744;  142.715; -595.112; -590.798
654.015;  131.317; -356.112; -303.799
654.286;  -69.606; -642.111; -663.799
654.557;  -57.829; -586.111; -521.799
654.828; -165.427;-1114.111;-1088.800
655.099;  -86.276; -404.111; -291.800
655.370;  -98.274; -427.111; -543.801
655.641; -119.372; -656.110; -714.801
655.911; -121.520; -618.110; -638.801
656.182;   61.457;  437.890;  387.198
656.453;   98.709;  830.890;  746.198
656.724;  -66.290; -466.110; -426.802
656.994;  -85.313; -553.109; -568.803
657.265; -110.211; -862.109; -873.803
657.536;  -87.359; -500.109; -377.804
657.806; -105.332; -561.109; -593.804
658.077; -142.330; -866.109; -950.804
658.347;  -82.129; -523.108; -598.805
658.618; -118.177; -646.108; -694.805
658.888;  -28.050;  -41.108;  112.195
659.159;  -74.723; -432.108; -548.806
659.429;   -6.346; -292.108; -349.806
659.700;   15.305; -435.107; -390.807
659.970;  -12.268; -370.107; -359.807
660.241;   11.384; -754.107; -921.807
660.511;  479.436; -147.107; -174.808
660.781;   82.313; -793.106; -748.808
661.052;  -47.935; -222.106; -381.808
661.322;  -28.234;   21.894;   -9.809
661.592;    6.343;  257.894;  148.191
661.862;  -82.830; -369.106; -382.810
662.133;  -86.128; -551.105; -502.810
662.403; -134.301; -770.105; -676.810
662.673;  -72.424; -256.105; -213.811
662.943;  -98.348; -612.105; -551.811
663.213;   -6.221;  -85.105;  -81.811
663.483;  -81.094; -593.104; -568.812
663.753;  -54.717; -194.104; -152.812
664.023;  -21.190;   68.896;  -32.813
664.293;  -67.413; -319.104; -126.813
664.563; -111.612; -694.104; -648.813
664.833; -140.510; -743.103; -608.814
665.103; -136.108; -730.103; -793.814
665.373; -120.906; -766.103; -806.814
665.643;  -81.954; -863.103; -918.815
665.913;   23.423; -534.103; -714.815
666.182;  135.774; -685.102; -719.816
666.452;  257.301;  -22.102;  -89.816
666.722;  -33.622; -724.102; -784.816
666.992; -140.795; -948.102; -921.817
667.261;  -99.568; -824.102; -808.817
667.531;  197.159;  134.899;   45.183
667.801;  542.060; -440.101; -412.818
668.070;  237.587;  714.899;  697.182
668.340; -111.086; -883.101; -840.819
668.609;   97.491;  588.900;  301.181
668.879;  -88.957; -490.100; -558.819
669.149;  -72.580; -539.100; -516.820
669.418; -105.304; -698.100; -726.820
669.688;  -32.877; -482.100; -666.820
669.957;   58.550; -423.099; -546.821
670.226;  -30.523; -268.099; -331.821
670.496;  -92.871; -431.099; -635.822
670.765;  -91.269; -418.099; -501.822
671.034; -140.268; -872.099; -828.822
671.304;  -14.741;   55.902; -111.823
671.573; -156.014;-1085.098; -957.823
671.842;   95.038; -380.098; -294.823
672.112;   20.815; -692.098; -586.824
672.381;   12.217; -239.098; -214.824
672.650; -134.357;-1005.097;-1021.825
672.919;  -98.455; -631.097; -507.825
673.188; -110.078; -681.097; -878.825
673.457; -158.951;-1101.097;-1143.826
673.726;  -87.349; -579.096; -646.826
673.995;  -43.122; -533.096; -479.826
674.265;  -15.746; -263.096; -333.827
674.534;  -12.044; -183.096; -235.827
674.802;   -2.042; -618.096; -703.828
675.071;  998.385; -886.095; -801.828
675.340; 3799.512; -464.095; -339.828
675.609; 1319.963;  103.905;   82.171
675.878;   71.890; -949.095; -893.829
676.147;   35.267;  -26.095;   -8.829
676.416;   85.269; -210.094; -294.830
676.685;  741.821; 1000.906; -622.830
676.953;  111.723; -603.094; -452.831
677.222;  -31.576; -193.094; -273.831
677.491;  -19.524;  -24.094; -127.831
677.759;  -12.797;   11.907;  172.168
678.028;  -31.870; -279.093; -222.832
678.297;    1.532;   71.907;  197.168
678.565; -141.416; -898.093; -944.833
678.834;  -53.165; -311.093; -268.833
679.102;  -89.813; -411.092; -391.834
679.371; -141.186; -898.092; -727.834
679.639; -142.709; -797.092; -786.834
679.908; -125.682; -794.092; -724.835
680.176; -162.855; -895.091; -941.835
680.445;  -67.729; -346.091; -352.835
680.713;  -22.627;  -58.091;  -23.836
680.982; -106.750; -523.091; -525.836
681.250; -114.498; -578.091; -507.837
681.518; -103.821; -534.090; -751.837
681.787;  -21.544; -204.090; -167.837
682.055;  -55.168; -490.090; -422.838
682.323; -139.191; -993.090; -992.838
682.591;   38.061; -216.090; -538.838
682.859;   60.663;    9.911;  -35.839
683.128;   14.290;  232.911;  497.161
683.396; -166.383;-1102.089;-1122.840
683.664;  -38.232; -241.089;   21.160
683.932;   -5.480;  144.911;  -76.840
684.200;  -76.953; -576.088; -320.841
684.468;  -22.601;  -73.088; -124.841
684.736;  -35.999; -214.088; -175.841
685.004; -118.872;-1024.088; -982.842
685.272;  -56.521; -880.088; -774.842
685.540;  -76.669; -499.087; -557.843
685.808;  -81.267; -651.087; -682.843
686.076; -116.390; -894.087; -969.843
686.343;  -66.713; -601.087; -815.844
686.611;   37.989; -195.087; -224.844
686.879;  468.015; -530.086; -553.844
687.147; 3270.567; -483.086; -480.845
687.414;  923.919;  -12.086; -169.845
687.682;  -12.854; -658.086; -757.846
687.950;  327.798;  259.915;  263.154
688.217;    2.225; -792.085; -760.846
688.485;    5.326; -632.085; -636.847
688.753;  521.328;  -11.085; -102.847
689.020;  151.105; -820.085; -851.847
689.288; -113.993; -853.084; -787.848
689.555;  -35.416; -195.084; -148.848
689.823;  -39.864; -241.084; -345.849
690.090;  -98.438; -546.084; -651.849
690.358; -154.411; -877.084; -897.849
690.625;    9.616;  120.917;   45.150
690.892;  -88.007; -403.083; -369.850
691.160;  -23.430;   72.917;  -35.850
691.427;  -10.504;  141.917;  130.149
691.694; -139.502; -855.083; -929.851
691.962; -149.000;-1177.082;-1060.852
692.229;    7.602;  127.918;   56.148
692.496;   71.129;  130.918;  -49.852
692.763;    2.356; -164.082; -201.853
693.031;  -74.543; -739.082; -716.853
693.298;  -47.616; -509.081; -368.853
693.565;  306.961; -155.081; -163.854
693.832; 1243.838;   -5.081;   -9.854
694.099;  131.790; -643.081; -642.855
694.366;  -61.958; -882.081; -896.855
694.633;  -57.382; -920.080; -633.855
694.900;  746.945; 4367.920; -114.856
695.167;  422.772; -214.080; -380.856
695.434;   91.374; -646.080; -623.856
695.701;  199.876;  121.921;  -61.857
695.968;  445.828; -365.079; -361.857
696.234; 1028.604; -415.079; -646.858
696.501;10404.756; -776.079; -614.858
696.768; 5244.533; -554.079; -617.858
697.035;  304.160; -632.078; -667.859
697.302;   39.887; -448.078; -552.859
697.568;   14.739; -458.078; -497.859
697.835;  -42.360; -683.078; -624.860
698.102;  -19.058; -498.078; -407.860
698.368;   80.894;  384.923;  396.139
698.635;  -40.504;  -47.077; -424.861
698.901;  -36.977; -240.077; -348.861
699.168;   69.750; -534.077; -456.862
699.435;   66.926;  -72.077;  -13.862
699.701; -112.772; -868.076; -764.862
699.968;   11.080;  144.924; -441.863
700.234;  -94.718; -783.076; -822.863
700.500;  -62.191; -448.076; -539.864
700.767;  -18.689;   -1.075;   26.136
701.033; -135.338;-1015.075; -963.864
701.299;  -60.186; -450.075; -483.865
701.566;  116.616;  950.925;  763.135
701.832;   27.868;  -31.075;  -76.865
702.098;  -98.380;-1054.074;-1034.866
702.365;  -81.953;-1098.074;-1030.866
702.631;  -29.752;-1038.074;-1063.867
702.897; 1392.875; -765.074; -676.867
703.163; 2214.627;  348.926;  254.133
703.429;  156.179; -256.073; -273.868
703.695;  -29.969; -796.073; -792.868
703.961;   16.233; -214.073; -210.868
704.227;  -62.891; -630.073; -725.869
704.493;  139.336;  613.927;  510.131
704.759;  -29.362; -565.072; -540.870
705.025;   31.740; -203.072; -194.870
705.291;  -27.358; -666.072; -562.870
705.557;  187.693;  719.928;   34.129
705.823;   20.195; -742.072; -694.871
706.089;  144.047; -307.071; -326.871
706.355;  353.999; -315.071; -244.872
706.620; 5680.526; -776.071; -729.872
706.886; 7813.003; -309.071; -362.873
707.152;  740.304; -818.070; -973.873
707.418;  -30.269;-1153.070;-1186.873
707.683;   -6.692; -550.070; -530.874
707.949;  -50.665; -547.070; -578.874
708.215;   -5.263; -129.070; -207.874
708.480;  -27.786; -520.069; -420.875
708.746;   98.665;   68.931;   28.125
709.011;  -76.683; -578.069; -612.876
709.277;  -74.356; -538.069; -543.876
709.542;  -52.204; -428.069; -387.876
709.808;  -10.427;  -59.068;   89.123
710.073;  -86.525; -577.068; -695.877
710.339;  -25.724; -242.068; -228.877
710.604;   63.803; -780.068; -845.878
710.869;  307.555; -277.068; -366.878
711.135;  -79.893; -715.067; -628.879
711.400;  -76.166; -507.067; -608.879
711.665;  -72.389; -404.067; -479.879
711.931;  -95.263; -661.067; -677.880
712.196; -130.836; -876.067; -954.880
712.461;  113.716; -402.066; -490.880
712.726;  121.318; -727.066; -771.881
712.991;  -93.105; -647.066; -664.881
713.256;  -40.628; -350.066; -332.882
713.521;  -58.902; -417.065; -381.882
713.787;  -83.150; -454.065; -472.882
714.052;  -47.648; -214.065; -400.883
714.317;  -90.971;-1045.065; -981.883
714.581; 1069.481; -374.065; -268.883
714.846; 1397.208; -822.064; -888.884
715.111;  131.284;  261.936;  257.116
715.376;  -27.939;  -86.064; -223.885
715.641;   -4.837; -365.064; -367.885
715.906;  306.665;   15.936; -551.885
716.171;  137.342;  221.937;  209.114
716.436;   21.819;  -78.063; -104.886
716.700; -117.005; -818.063; -692.886
716.965; -123.928; -794.063; -807.887
717.230;  -70.451; -339.063; -392.887
717.494;  -29.799;  -40.062; -134.888
717.759; -108.447; -784.062; -640.888
718.024;   12.080;  269.938;  250.112
718.288;   52.981;  685.938;  395.111
718.553; -145.017; -803.062; -977.889
718.817; -159.240; -883.061; -899.889
719.082;  -39.688; -115.061; -125.890
719.346; -145.636;-1000.061; -947.890
719.611;  -34.134; -300.061; -255.891
719.875; -104.983; -568.060; -537.891
720.140;  -88.856; -453.060; -603.891
720.404;   35.221; -136.060; -249.892
720.668;  828.873; -475.060; -411.892
720.933;  321.950;  146.940;  137.108
721.197;  -89.949; -667.059; -600.893
721.461; -135.647; -851.059; -826.893
721.725;  -21.995;  -21.059; -250.894
721.990;  -58.118; -284.059; -204.894
722.254;  -38.716;  -26.059; -108.894
722.518;  -66.414; -286.058; -442.895
722.782; -100.288; -743.058; -594.895
723.046;  124.739;  614.942;  570.105
723.310;   27.741;  374.942;  210.104
723.574;  -96.157; -654.058; -614.896
723.838; -106.480; -576.057; -642.897
724.102;  -48.353; -226.057; -239.897
724.366; -138.977;-1032.057; -978.897
724.630;  -87.100; -749.057; -571.898
724.894;  -75.823; -722.057; -514.898
725.158;  -10.446;   38.944; -295.898
725.422;  -46.944; -394.056; -327.899
725.685;  -70.367; -441.056; -349.899
725.949;  -84.766; -566.056; -519.900
726.213;  -79.064; -732.056; -811.900
726.477;  174.063;-1020.055; -933.900
726.740;  134.190; -274.055; -104.901
727.004;  341.142; -384.055; -510.901
727.268; 3400.219; -442.055; -400.901
727.531;  896.070; -961.055; -775.902
727.795;  -34.528; -713.054; -673.902
728.059;  -68.601; -552.054; -557.903
728.322;  -85.024; -841.054; -669.903
728.586;   21.803; -692.054; -701.903
728.849;  -87.745; -695.053; -756.904
729.112; -123.269; -812.053; -912.904
729.376; -141.267; -959.053; -905.904
729.639;  -85.190; -536.053; -536.905
729.903; -119.238; -733.053; -699.905
730.166;  -53.386; -437.052; -399.906
730.429;  -29.459; -317.052; -468.906
730.693;  -66.033; -355.052; -894.906
730.956;  204.944;  810.948;  651.093
731.219;  676.746; -310.052; -103.907
731.482;  100.373;-1003.051; -894.907
731.745;   91.375; -794.051; -935.908
732.009;   16.452;  -30.051;   50.092
732.272; -100.822; -904.051; -771.909
732.535;  -45.470; -300.051; -310.909
732.798; -164.743;-1083.050;-1166.909
733.061;  -57.766; -430.050; -456.910
733.324;    4.836;   31.950; -180.910
733.587;   68.113;  290.950;  365.090
733.850;  -65.861; -973.049;-1050.911
734.113;   29.091;   33.951;   32.089
734.376;   -0.757; -328.049; -447.912
734.639;  217.645; 1188.951; 1011.088
734.901;   62.772; -180.049; -402.912
735.164;  520.174; -883.048; -837.913
735.427; 1274.975; -166.048; -355.913
735.690;  118.277; -205.048; -234.913
735.952;  -42.446; -923.048; -925.914
736.215;  -33.869;-1113.048;-1009.914
736.478;   42.183; -771.047; -774.915
736.740;  185.884;   33.953;  129.085
737.003;  703.986; -658.047; -672.915
737.266; 4040.713;  -94.047;   46.084
737.528;  423.315; -682.047; -660.916
737.791;  307.167; -316.046; -327.916
738.053;  838.844;  465.954;  649.083
738.316;11135.720; -162.046; -136.917
738.578; 7541.247; -770.046; -736.918
738.841;  438.274; -382.046; -446.918
739.103;  173.901; -875.045; -777.918
739.365;  500.728;   79.955;  -69.919
739.628;  -10.895; -884.045; -805.919
739.890;  -28.219; -758.045; -710.919
740.152;  -54.217; -692.044; -754.920
740.414;   -2.265; -408.044; -359.920
740.677;  -66.913; -785.044; -634.921
740.939;  -48.886; -587.044; -487.921
741.201;  271.741; -432.044; -572.921
741.463;   27.092; -689.043; -745.922
741.725;   17.494;  -21.043; -199.922
741.987;   66.996;  220.957;  116.078
742.249;   -7.977; -751.043; -859.923
742.511;  204.275; -703.043; -794.923
742.773;   -6.323; -546.042; -546.924
743.035;  137.928;  796.958;  533.076
743.297;  -46.845; -963.042;-1013.924
743.559;  746.382; -278.042; -262.925
743.821;   41.859; -735.042; -744.925
744.083;   20.511;  -44.041; -149.925
744.345; -101.837; -869.041; -892.926
744.607;   43.739;   75.959;  122.074
744.868;  -58.834; -490.041; -554.927
745.130; -106.757; -994.041;-1008.927
745.392;   35.870;   -1.040;  -44.927
745.653;  -11.453; -411.040; -378.928
745.915;  152.499;  896.960;  631.072
746.177;   52.850;   35.960;  -43.928
746.438;    1.652; -428.040; -543.929
746.700;  -49.046; -947.039; -988.929
746.961;    0.806; -659.039; -740.930
747.223;  132.633; -190.039;  -74.930
747.484;   79.685; -391.039; -471.930
747.746;  144.936;  -23.038; -106.931
748.007;  103.888; -647.038; -689.931
748.269;  296.415; -468.038; -440.931
748.530;  473.142; -852.038; -638.932
748.791;  257.894; -354.038; -420.932
749.053;  430.746;  286.963;  163.067
749.314;  444.897; -236.037; -169.933
749.575;  487.699; -945.037; -905.933
749.836;  847.401; -217.037;   86.066
750.098; 2553.103;  -60.037;  -21.934
750.359;37024.430;  414.964;  555.066
750.620; 9013.882; -121.036; -220.935
750.881; 1027.233; -585.036; -513.935
751.142; 1363.110; -950.036; -938.936
751.403;17059.287; -789.036; -705.936
751.664; 7209.439;-1034.035; -999.936
751.925;  489.091; -175.035; -262.937
752.186;  283.442; -298.035; -278.937
752.447;  125.419; -590.035; -445.937
752.708;   46.296; -532.035; -648.938
752.969;    3.348; -566.034; -576.938
753.230;  -20.625; -777.034; -672.939
753.491;  -17.298; -650.034; -631.939
753.751;   61.403;  109.966;   19.061
754.012;   92.855;  258.967;  181.060
754.273;   39.957; -174.033;  -71.940
754.534;   -6.916; -487.033; -580.940
754.794;  -95.664; -926.033; -911.941
755.055;  150.288; 1051.967;  881.059
755.316;  -46.386; -700.032; -566.942
755.576;  -21.509; -606.032; -576.942
755.837;  -50.032; -527.032; -695.942
756.097;  -53.080; -530.032; -564.943
756.358;  -82.753; -725.032; -770.943
756.618;  -44.976; -705.031; -641.943
756.879;   11.400; -254.031; -349.944
757.139; -127.398;-1098.031;-1116.944
757.400;  -78.021; -538.031; -553.945
757.660;  -15.019; -365.031; -401.945
757.920;   11.933; -266.030; -228.945
758.181;   -7.865; -468.030; -351.946
758.441; -105.664; -870.030; -809.946
758.701;  -40.437; -308.030; -215.946
758.961;  -14.310; -220.030; -278.947
759.222;  -56.533; -574.029; -502.947
759.482;  -83.656; -683.029; -723.948
759.742;  -91.954; -706.029; -547.948
760.002;    1.447;  -83.029; -143.948
760.262;   16.349;   50.972;  182.051
760.522;  -37.674; -498.028; -574.949
760.782;  -58.847; -738.028; -612.949
761.042;  -40.170; -618.028; -573.950
761.302;   50.732;   55.972;  -18.950
761.562;   46.333; -164.027; -154.951
761.822;   91.235; -710.027; -551.951
762.082;  -52.888;-1104.027;-1093.951
762.342;   66.639; -328.027; -403.952
762.601;   75.791; -567.027; -506.952
762.861;  360.693; -281.026; -207.952
763.121;  417.119; -406.026; -411.953
763.381; 7663.271; -499.026; -485.953
763.640; 7946.648; -139.026; -307.954
763.900;  347.150; -242.026; -203.954
764.160;   91.827; -458.025; -491.954
764.419;  -12.571; -726.025; -782.955
764.679;  -72.020; -795.025; -726.955
764.939;  -29.268; -124.025; -210.955
765.198;  -82.691; -608.025; -563.956
765.458;  -89.239; -710.024; -612.956
765.717;  -90.937; -454.024; -590.957
765.976;  -55.136; -428.024; -411.957
766.236;  -67.984; -475.024; -610.957
766.495;   13.418;  260.977;   73.042
766.755;  -97.980;-1090.023; -987.958
767.014;    9.772; -594.023; -665.958
767.273;  -65.226; -373.023; -397.959
767.533;  -54.025; -228.023; -307.959
767.792;  -42.523; -151.022; -188.960
768.051;  -60.621; -228.022; -276.960
768.310;  -89.144; -546.022; -650.960
768.569;  -17.142; -161.022;    4.039
768.828;  -24.115; -285.022; -363.961
769.088; -108.189;-1050.021; -942.961
769.347;  -92.037; -755.021; -599.962
769.606;  -97.185; -876.021; -857.962
769.865; -118.983;-1016.021;-1033.963
770.124;   -6.981; -411.021; -336.963
770.383;  -55.604; -778.020; -910.963
770.641;   -1.703; -398.020; -400.964
770.900;  -63.251; -953.020; -846.964
771.159;  -36.574; -851.020; -951.964
771.418;  -21.847; -917.020; -779.965
771.677;  123.455; -224.019; -293.965
771.936;  133.232; -794.019; -865.966
772.194; 2344.358; -465.019; -437.966
772.453;10992.585; -213.019; -391.966
772.712;  764.362;  416.982;  329.033
772.970;  109.989;   32.982;   63.033
773.229;   88.816;  -22.018;  102.033
773.488;  -93.557; -814.018; -770.968
773.746;   60.519;  296.982;  335.032
774.005;   -4.479;  190.983;  -22.969
774.263;   10.698;  243.983;  177.031
774.522;  -98.350; -422.017; -548.969
774.780;  -86.873; -484.017; -417.970
775.039;  -96.296; -551.017; -531.970
775.297;  -41.395; -135.016; -351.970
775.555; -116.143; -489.016; -612.971
775.814; -130.966; -618.016; -570.971
776.072; -130.864; -749.016; -740.971
776.330; -103.187; -630.016; -520.972
776.589; -125.960; -703.015; -721.972
776.847; -126.284; -645.015; -624.973
777.105; -185.182;-1016.015;-1032.973
777.363;  -84.705; -459.015; -454.973
777.621; -151.678; -660.015; -717.974
777.879;  -14.801;  -42.014;   32.026
778.138; -101.049; -554.014; -717.974
778.396; -100.373; -585.014; -526.975
778.654; -175.746;-1015.014; -970.975
778.912;  -68.269; -269.014; -371.976
779.170; -132.342; -880.013; -803.976
779.427; -151.965; -922.013; -897.976
779.685; -141.563; -880.013; -832.977
779.943;  -77.587; -654.013; -593.977
780.201; -165.435; -964.012; -883.978
780.459; -126.733; -651.012; -610.978
780.717;  -80.606; -440.012; -390.978
780.974; -110.479; -449.012; -490.979
781.232;  -78.628; -358.012; -338.979
781.490;  -89.701; -551.011; -472.979
781.747; -107.374; -555.011; -476.980
782.005;   20.928;  462.989;  254.020
782.263; -167.445; -542.011;-1004.981
782.520;  -95.793; -326.011; -501.981
782.778; -175.342;-1013.010;-1051.981
783.035; -169.565; -962.010; -938.982
783.293;  -76.538; -248.010; -206.982
783.550;  -59.986; -134.010; -198.982
783.808; -135.084; -764.010; -776.983
784.065; -167.407; -745.009; -874.983
784.322;  -50.281;   25.991;  -86.984
784.580; -149.429; -915.009; -771.984
784.837; -101.602; -392.009; -466.984
785.094; -131.575; -783.009; -762.985
785.352;  -86.573; -304.008; -404.985
785.609; -130.046; -934.008; -839.985
785.866;  -81.645; -345.008; -401.986
786.123;  -72.668; -639.008; -583.986
786.380;  -99.891; -665.008; -604.987
786.637;  -62.139; -225.007; -380.987
786.895;  -43.962; -456.007; -543.987
787.152;  -45.235; -135.007; -267.988
787.409;  -55.259; -123.007; -225.988
787.666;  -94.682; -299.006; -378.988
787.923; -131.105; -616.006; -695.989
788.179; -101.703; -551.006; -584.989
788.436; -113.926; -585.006; -585.990
788.693;  -24.449;  -92.006;  -87.990
788.950;  140.352; -125.005; -112.990
789.207;  211.429; -381.005; -372.991
789.464;  -63.919; -161.005; -301.991
789.720;  -22.342;  150.995;  110.009
789.977; -167.940;-1003.005; -671.992
790.234;  -27.413;   44.996;  -66.992
790.490; -164.787; -884.004;-1031.993
790.747;  -28.610;  -85.004;   22.007
791.004;  -37.583; -426.004; -348.993
791.260;  -63.606; -430.004; -560.994
791.517; -109.504; -843.003; -788.994
791.773;  -48.502; -379.003; -342.994
792.030; -125.076; -596.003; -660.995
792.286; -100.849; -686.003; -636.995
792.543;  -17.772;  -74.002; -159.995
792.799;  -53.545; -584.002; -382.996
793.055; -168.093;-1179.002;-1210.996
793.312;  -94.866; -827.002; -816.997
793.568;  -60.740; -746.002; -599.997
793.824;   11.012; -226.001; -284.997
794.081;    8.639; -447.001; -508.998
794.337;   57.066; -664.001; -561.998
794.593; 1397.293; -319.001; -271.999
794.849; 6554.520; -746.001; -772.999
795.105;  316.571; -270.000; -261.999
795.361;    2.773; -490.000; -457.000
795.617;  -74.125; -875.000; -945.000
795.873;  -47.375; -360.000; -407.000
796.129;  -44.900; -368.000; -306.000
796.385;  -23.250; -124.000; -156.000
796.641;   58.825;  412.000;  550.000
796.897;  -77.250; -666.000; -635.000
797.153;   66.750;  453.000;  357.000
797.409; -106.850; -785.000; -868.000
797.665;  -91.775; -625.000; -732.000
797.921;  -93.675; -775.000; -762.000
798.176;  -64.925; -744.000; -747.000
798.432;  -46.450; -824.000; -596.000
798.688;  -72.100;-1174.000;-1078.000
798.943;   91.725; -165.000; -147.000
799.199;  -16.850;-1005.000; -959.000
799.455;  237.775;  369.000;  316.000
799.710;  126.450; -813.000; -380.000
799.966;  302.225; -162.000; -160.000
800.221;  491.175; -638.000; -721.000
800.477;10907.950; -743.000; -710.000
800.732; 9064.100; -773.000; -800.000
800.988;  624.400;  205.000;  -19.000
801.243; 1874.350; -454.000; -344.000
801.498; 7808.875; -814.000; -739.000
801.754;  432.375; -289.000; -163.000
802.009;   84.000; -257.000; -335.000
802.264;  -47.200; -967.000;-1033.000
802.520;   23.275;  222.000;   -3.000
802.775;  -51.450; -524.000; -359.000
803.030;   41.350;  395.000;  356.000
803.285; -120.125; -840.000; -903.000
803.540;  -67.100; -686.000; -699.000
803.795;  -48.925; -648.000; -583.000
804.051;  -42.950; -279.000; -346.000
804.306;    7.475;  168.000;  128.000
804.561;  134.725;  451.000;  362.000
804.816;  136.900;  714.000;  861.000
805.071;    0.600; -185.000; -280.000
805.325;  213.775; -257.000; -427.000
805.580; -107.100; -841.000; -877.000
805.835;  -28.150; -204.000; -297.000
806.090;  -65.825; -760.000; -676.000
806.345;  -21.025; -344.000; -264.000
806.600;  -27.100; -549.000; -632.000
806.854;  -38.250; -408.000; -538.000
807.109;  -12.850; -493.000; -577.000
807.364;   -0.125; -407.000; -328.000
807.618;   -3.825; -415.000; -381.000
807.873;   55.875; -470.000; -494.000
808.128;   87.725; -257.000; -518.000
808.382;   84.100; -224.000; -332.000
808.637;   87.625; -440.000; -511.000
808.891;  174.950; -257.000; -180.000
809.146;   90.775; -902.000; -794.000
809.400;  263.025; -848.000; -923.000
809.654;  344.750; -779.000; -551.000
809.909;  488.425; -841.000; -927.000
810.163; 6889.125; -813.000; -651.000
810.418;16840.100; -940.000; -861.000
810.672; 1031.200; -685.000; -690.000
810.926;  731.550; -993.000; -973.000
811.180; 1423.475; -439.000; -372.000
811.434;32555.750;  240.000;  135.000
811.689;12372.625; -231.000; -365.000
811.943;  626.575; -936.000; -953.000
812.197;  312.375; -893.000; -671.000
812.451;  116.075; -379.000; -514.000
812.705;  -10.350; -809.000; -619.000
812.959;  -14.975; -263.000; -388.000
813.213;   -1.900; -283.000; -209.000
813.467;   58.275;  470.000;  253.000
813.721; -103.025; -764.000; -792.000
813.975; -115.425; -826.000; -877.000
814.229;   42.875;  430.000;  353.000
814.482;  -64.175; -517.000; -566.000
814.736; -122.500; -766.000; -744.000
814.990; -136.150; -779.000; -872.000
815.244;  -57.425; -228.000; -285.000
815.497;  -94.100; -636.000; -601.000
815.751;  -10.725; -141.000;   82.000
816.005;  -88.100; -470.000; -586.000
816.258;  -62.950; -510.000; -363.000
816.512; -116.275; -693.000; -610.000
816.766;    5.550;  121.000;  157.000
817.019;   19.450;  148.000;  149.000
817.273; -129.050;-1000.000; -802.000
817.526;  -33.350; -206.000; -173.000
817.779;  -56.250;-1049.000; -960.000
818.033;  -68.150; -693.000; -807.000
818.286; -121.400; -725.000; -792.000
818.540;  -92.050; -403.000; -403.000
818.793;  -83.500; -402.000; -489.000
819.046; -107.375; -582.000; -520.000
819.299;  -37.725; -157.000; -166.000
819.553; -118.975; -552.000; -592.000
819.806; -176.725;-1016.000; -838.000
820.059;  -71.200; -334.000; -354.000
820.312;   19.650;  152.000;  185.000
820.565;  -13.775;  110.000;  -27.000
820.818;  -57.425;  -59.000; -173.000
821.071; -169.550;-1041.000; -957.000
821.324; -124.100; -536.000; -540.000
821.577; -116.275; -457.000; -483.000
821.830;  -67.425; -270.000; -172.000
822.083; -131.500; -733.000; -288.000
822.336;  -44.475; -261.000; -167.000
822.589; -141.250; -805.000; -688.000
822.842; -148.650; -875.000; -770.000
823.094; -189.600;-1076.000;-1114.000
823.347; -135.975; -925.000; -729.000
823.600;    0.850;  402.000;  187.000
823.853;  -54.025; -311.000; -267.000
824.105;  -83.400; -331.000; -575.000
824.358; -121.625; -617.000; -716.000
824.611;    9.325;  234.000;   40.000
824.863;  -52.800; -612.000; -591.000
825.116;   37.725;  -33.000;   27.000
825.368;   87.475; -366.000; -372.000
825.621;  142.175; -186.000; -240.000
825.873;   78.300; -704.000; -737.000
826.126;  589.750; -669.000; -641.000
826.378;11830.500; -389.000; -505.000
826.630; 2704.350; -890.000; -898.000
826.883;   47.200; -754.000; -693.000
827.135;   30.700; -279.000; -270.000
827.387; -115.050; -893.000; -839.000
827.639;  -37.250;  -86.000;   32.000
827.892; -113.575; -742.000; -582.000
828.144; -152.275; -848.000; -804.000
828.396;  -29.875;  104.000;  -80.000
828.648; -110.225; -440.000; -333.000
828.900; -137.900; -702.000; -795.000
829.152; -119.350; -684.000; -683.000
829.404;  -76.450; -215.000; -267.000
829.656;   -6.975;  321.000;  214.000
829.908;  -14.750;  393.000;  229.000
830.160; -172.050;-1064.000;-1047.000
830.412;  -97.825; -481.000; -430.000
830.664; -128.050; -557.000; -665.000
830.916;  -89.675; -268.000; -206.000
831.167; -191.025;-1073.000; -951.000
831.419;  -99.700; -623.000; -566.000
831.671; -158.725; -764.000; -809.000
831.923;  -86.300; -311.000; -447.000
832.174;  -83.150; -273.000; -331.000
832.426; -107.025; -493.000; -582.000
832.678; -203.700;-1043.000;-1091.000
832.929; -160.725; -947.000; -935.000
833.181;  -67.550; -575.000; -677.000
833.432;  -48.200;  -59.000; -186.000
833.684;  -31.125;  112.000;  -27.000
833.935; -118.200; -610.000; -566.000
834.187; -127.550; -829.000; -823.000
834.438;  -48.550;  -58.000;  -25.000
834.689;  -56.725; -255.000; -123.000
834.941;  -66.650; -343.000; -244.000
835.192; -113.075; -590.000; -533.000
835.443; -110.625; -419.000; -506.000
835.695;  -21.800;  138.000;  -16.000
835.946; -101.975; -608.000; -378.000
836.197; -108.400; -599.000; -622.000
836.448;  -98.900; -528.000; -395.000
836.699;  -49.150; -253.000; -341.000
836.950;  -14.275;   72.000;    7.000
837.201; -151.600;-1003.000; -987.000
837.452;  -42.900; -356.000; -170.000
837.703; -118.800; -791.000; -737.000
837.954;  -47.325; -205.000; -365.000
838.205;  -77.250;-1029.000;-1008.000
838.456;  154.150; -196.000; -282.000
838.707;  -10.525; -423.000; -519.000
838.958;    2.625; -634.000; -647.000
839.209;  266.600;   18.000;   40.000
839.460;  110.775; -439.000; -201.000
839.710;  165.800; -135.000; -297.000
839.961;  422.250;  730.000;  612.000
840.212;  340.125; -382.000; -497.000
840.462; 1153.825; -328.000; -277.000
840.713;18345.175; -571.000; -536.000
840.964; 7006.575;  -62.000; -143.000
841.214;  499.900; -384.000; -624.000
841.465;  560.875; -214.000; -141.000
841.715;  493.425; -417.000; -380.000
841.966;  647.925; -746.000; -685.000
842.216; 9497.625; -330.000; -431.000
842.466;34205.000; -169.000; -313.000
842.717; 1743.200; -964.000; -952.000
842.967;  308.025; -635.000; -641.000
843.217;  264.625;   20.000;   28.000
843.468;   66.950; -104.000; -132.000
843.718;  -30.550; -718.000; -726.000
843.968; -102.575; -837.000; -765.000
844.218;   24.750; -315.000; -262.000
844.469;  -57.750; -577.000; -561.000
844.719; -111.700; -537.000; -682.000
844.969; -101.375; -550.000; -580.000
845.219; -161.175; -814.000; -862.000
845.469;  -83.975; -392.000; -342.000
845.719; -135.850; -792.000; -884.000
845.969;  -23.900;  119.000;  174.000
846.219; -116.675; -738.000; -720.000
846.469;   15.725;  464.000;  432.000
846.718;  -49.375; -115.000;   31.000
846.968; -138.725; -827.000; -827.000
847.218;  -58.050; -224.000; -371.000
847.468;    0.000; -586.000; -555.000
847.718; -150.150; -827.000; -798.000
847.967; -126.300; -826.000; -915.000
848.217;  -83.725; -449.000; -569.000
848.467;  -68.375; -405.000; -376.000
848.716; -109.425; -708.000; -725.000
848.966;  -16.775; -372.000; -358.000
849.215;  -68.175; -428.000; -419.000
849.465; -101.925; -785.000; -615.000
849.714; -154.900;-1132.000;-1150.000
849.964;  -58.725; -551.000; -613.000
850.213;  -40.975; -393.000; -355.000
850.463;   70.850;  137.000;  340.000
850.712;   -4.775; -542.000; -567.000
850.961;   23.450; -739.000; -678.000
851.211;  100.375; -513.000; -504.000
851.460;  160.250; -635.000; -650.000
851.709;  578.400;  -25.000;   18.000
851.958;10717.850; -912.000; -750.000
852.208;12467.075; -859.000; -879.000
852.457;  464.325; -181.000;  -13.000
852.706;   51.075; -791.000; -823.000
852.955;    6.950; -507.000; -528.000
853.204;  -70.475; -521.000; -461.000
853.453;  -94.175; -418.000; -458.000
853.702; -148.625; -660.000; -750.000
853.951; -108.250; -532.000; -520.000
854.200; -121.325; -613.000; -562.000
854.449; -140.275; -695.000; -661.000
854.698; -109.500; -340.000; -279.000
854.946;  -74.025; -181.000; -284.000
855.195; -156.575; -843.000; -868.000
855.444;  -91.625; -395.000; -420.000
855.693; -129.450; -345.000; -432.000
855.941; -117.725; -387.000; -516.000
856.190;  -61.950; -256.000; -382.000
856.439; -127.650; -652.000; -703.000
856.687;  -63.225;  -99.000;  -72.000
856.936; -115.950; -621.000; -323.000
857.184; -184.800;-1067.000;-1020.000
857.433; -114.850; -423.000; -512.000
857.681; -168.175; -989.000; -953.000
857.930;  -76.850; -282.000; -433.000
858.178; -170.775; -856.000; -929.000
858.427; -153.900; -802.000; -781.000
858.675; -123.350; -377.000; -544.000
858.923; -113.925; -527.000; -819.000
859.172; -191.325;-1094.000;-1070.000
859.420;  -89.600; -339.000; -239.000
859.668; -132.700; -624.000; -628.000
859.916;  -34.825;  109.000;  115.000
860.164; -115.350; -699.000; -603.000
860.413;  308.375; -878.000; -696.000
860.661;  185.650; -709.000; -577.000
860.909;  -82.800; -339.000; -325.000
861.157;  -81.475; -277.000; -444.000
861.405; -137.875; -534.000; -670.000
861.653;    7.675;  310.000;  310.000
861.901;  172.425; -543.000; -613.000
862.149;  -26.000; -801.000; -824.000
862.396;  -71.075; -297.000; -187.000
862.644;  -96.700; -368.000; -347.000
862.892;  -44.300;   98.000;  138.000
863.140; -117.575; -549.000; -530.000
863.388; -162.475; -815.000; -759.000
863.635; -151.425; -642.000; -601.000
863.883;  -17.000;  231.000;  190.000
864.131;  -97.100; -288.000; -357.000
864.378; -139.575; -675.000; -540.000
864.626; -107.925; -347.000; -415.000
864.873; -128.175; -556.000; -505.000
865.121; -151.425; -714.000; -799.000
865.368;  -60.525; -173.000;   75.000
865.616;  -47.650;  -33.000;  -40.000
865.863;  -81.850; -462.000; -506.000
866.111; -123.775; -795.000; -824.000
866.358;   39.975; -426.000; -420.000
866.605; 2358.300;  -64.000; -804.000
866.853; 2323.750; -621.000; -537.000
867.100;  -49.725; -728.000; -775.000
867.347; -114.825; -672.000; -611.000
867.594;  -98.425; -740.000; -714.000
867.841;   82.875;   97.000;   17.000
868.089; -146.475; -746.000; -698.000
868.336; -109.275; -477.000; -420.000
868.583; -146.950; -637.000; -741.000
868.830;  -43.300; -131.000; -170.000
869.077; -164.675; -859.000; -787.000
869.324; -122.700; -502.000; -458.000
869.571; -128.075; -398.000; -430.000
869.818; -126.825; -485.000; -439.000
870.065; -112.475; -439.000; -513.000
870.311; -122.300; -456.000; -542.000
870.558;  -99.200; -332.000; -311.000
870.805; -108.425; -320.000; -384.000
871.052; -109.325; -494.000; -369.000
871.298;  -60.150; -204.000; -131.000
871.545;  -76.550; -151.000; -185.000
871.792;  -96.800; -173.000; -222.000
872.038;  -80.150;   43.000; -126.000
872.285; -129.550; -496.000; -387.000
872.532; -118.450; -357.000; -387.000
872.778;    6.900;  556.000;  403.000
873.025; -109.175; -384.000; -359.000
873.271;   11.875;  501.000;  578.000
873.517;  -38.900; -133.000; -209.000
873.764;  -29.475; -193.000;  -80.000
874.010;  -90.625; -143.000; -230.000
874.257;  -49.250;  123.000;   90.000
874.503; -135.150; -579.000; -479.000
874.749;  -59.075;   31.000;  275.000
874.995;  -82.725;  -80.000;  -20.000
875.242; -123.825; -540.000; -478.000
875.488; -121.775; -414.000; -439.000
875.734;  -68.950; -106.000; -234.000
875.980;  179.075; -872.000;-1032.000
876.226;  356.075; -157.000; -255.000
876.472;  -14.175;  343.000;  237.000
876.718;  -52.175;  184.000;  158.000
876.964;  -44.775;   56.000;   55.000
877.210; -171.250; -547.000; -677.000
877.456; -156.800; -630.000; -557.000
877.702; -173.825; -821.000; -832.000
877.948; -114.950; -377.000; -497.000
878.193;   -9.525;  361.000;  255.000
878.439;  -99.775; -487.000; -472.000
878.685;  -98.200; -272.000; -343.000
878.931; -138.300; -618.000; -676.000
879.176;  -79.875; -201.000; -201.000
879.422; -187.700; -933.000; -820.000
879.668;   18.525;   10.000;   79.000
879.913;  134.875;   53.000;  137.000
880.159;  -55.325; -112.000;  -17.000
880.404;  -71.525; -152.000; -162.000
880.650;  -39.600;   91.000;  141.000
880.895; -169.150; -670.000; -710.000
881.141; -126.100; -454.000; -428.000
881.386; -150.100; -503.000; -658.000
881.631;  -96.575; -311.000; -166.000
881.877;  -53.025;  112.000;  -13.000
882.122; -137.875; -684.000; -600.000
882.367; -103.300; -136.000; -186.000
882.612;  -84.050;  -80.000; -176.000
882.858; -173.425; -877.000; -823.000
883.103; -100.675; -297.000; -267.000
883.348; -155.850; -759.000; -852.000
883.593; -156.700; -677.000; -602.000
883.838;  -75.600; -311.000;  -24.000
884.083;   33.175;  353.000;  288.000
884.328;  -91.625; -564.000; -545.000
884.573;  -60.725; -196.000; -143.000
884.818;  188.050; -694.000; -531.000
885.063;  166.100; -348.000; -315.000
885.308; -109.300; -475.000; -398.000
885.553;  -11.550;  245.000;  325.000
885.797; -128.050; -545.000; -615.000
886.042;  -44.450;    8.000;   58.000
886.287;  -97.975; -253.000; -211.000
886.532;  -56.400;   26.000;  204.000
886.776; -108.550; -407.000; -525.000
887.021; -152.800; -621.000; -574.000
887.265; -162.525; -685.000; -689.000
887.510; -131.200; -557.000; -496.000
887.755; -101.175; -194.000; -164.000
887.999; -144.700; -552.000; -575.000
888.244;  -56.400;  -58.000;  161.000
888.488;   -9.200;  371.000;  393.000
888.732; -130.150; -368.000; -520.000
888.977; -133.000; -622.000; -567.000
889.221; -167.625; -683.000; -659.000
889.465; -144.650; -422.000; -566.000
889.710;  -84.275;  -56.000; -299.000
889.954;    0.250;  579.000;  467.000
890.198; -160.075; -584.000; -707.000
890.442; -157.500; -716.000; -712.000
890.687; -176.375; -800.000; -753.000
890.931; -109.525; -273.000; -210.000
891.175; -142.600; -502.000; -500.000
891.419;  -74.375; -105.000; -110.000
891.663; -108.275; -239.000; -112.000
891.907; -170.375; -801.000; -545.000
892.151; -176.000; -920.000; -815.000
892.395; -119.900; -274.000; -387.000
892.638;  -24.475;  408.000;  291.000
892.882; -188.125; -780.000; -867.000
893.126;   12.725;  758.000;  558.000
893.370;  -98.650; -167.000; -168.000
893.614; -159.200; -714.000; -715.000
893.857; -104.950; -183.000; -197.000
894.101; -134.400; -527.000; -631.000
894.345;  -60.325;  300.000;  150.000
894.588;   10.125;  569.000;  380.000
894.832;  -89.575; -178.000;  -84.000
895.075;  -93.225;   15.000;  -92.000
895.319; -130.950; -552.000; -420.000
895.563; -134.325; -413.000; -353.000
895.806; -150.300; -628.000; -741.000
896.049;  -66.825; -576.000; -368.000
896.293;   88.725;  527.000;  405.000
896.536;  -78.950; -465.000; -468.000
896.779;  -63.525; -149.000;   -1.000
897.023; -156.650; -751.000; -714.000
897.266;  -31.000;  325.000;  269.000
897.509; -194.425; -900.000; -901.000
897.752;  -54.400;  149.000;  171.000
897.996; -201.600; -972.000; -864.000
898.239;  -48.650;  168.000;  102.000
898.482; -134.975; -431.000; -453.000
898.725;  -33.950;  101.000;   53.000
898.968; -152.075; -609.000; -744.000
899.211; -114.200; -513.000; -361.000
899.454; -126.750; -633.000; -539.000
899.697;  -57.400;   90.000;  -43.000
899.940; -173.425; -761.000; -757.000
900.182; -122.550; -335.000; -405.000
900.425;  -91.350; -150.000; -298.000
900.668;  -35.300;  491.000;  350.000
900.911; -115.750; -292.000; -345.000
901.154;  -57.350;  141.000;   -3.000
901.396; -141.125; -407.000; -412.000
901.639; -137.575; -430.000; -496.000
901.882; -199.650; -790.000; -809.000
902.124;  -78.175;  -29.000; -143.000
902.367; -119.725; -315.000; -361.000
902.609; -144.675; -476.000; -453.000
902.852;  -94.900; -108.000; -260.000
903.094; -133.625; -458.000; -337.000
903.337;  -71.600;  -26.000;   53.000
903.579; -112.600; -228.000; -441.000
903.821; -162.675; -597.000; -744.000
904.064;  -57.375;   85.000;  127.000
904.306;  -97.575; -126.000; -166.000
904.548; -106.300; -152.000; -366.000
904.790; -108.400; -195.000; -340.000
905.033; -130.700; -625.000; -577.000
905.275; -132.175; -513.000; -524.000
905.517;   41.225;  468.000;  256.000
905.759;  -86.200; -667.000; -761.000
906.001; -110.950; -322.000; -369.000
906.243;  -65.500; -162.000; -224.000
906.485;  112.775; -265.000; -207.000
906.727;   88.075; -499.000; -542.000
906.969;  -31.550;  -30.000; -135.000
907.211;  123.450; -316.000; -382.000
907.453;  263.425; -188.000; -237.000
907.695;   -8.500; -158.000; -385.000
907.936;   44.150;  818.000;  706.000
908.178;  -69.975;   92.000; -135.000
908.420;  -89.425; -111.000; -162.000
908.662; -144.475; -633.000; -682.000
908.903; -101.975; -208.000; -123.000
909.145;  -61.250; -240.000; -305.000
909.386;    5.600;  315.000;  280.000
909.628;   31.175;  363.000;  397.000
909.870;   -1.550;   29.000;  264.000
910.111; -114.375; -809.000; -949.000
910.353;   12.950; -123.000; -161.000
910.594;   -6.275; -574.000; -606.000
910.835;   79.550; -265.000; -326.000
911.077;  132.450; -503.000; -604.000
911.318;  298.500; -505.000; -471.000
911.559;  457.125; -577.000; -880.000
911.801; 1380.850; -284.000; -280.000
912.042;10833.225;  -50.000; -159.000
912.283;26905.025;  404.000;  371.000
912.524; 3871.975; -396.000; -457.000
912.765;  458.525; -193.000;   79.000
913.006;  227.600; -307.000; -338.000
913.247;   41.625; -270.000; -290.000
913.488;  -16.850;  -43.000;   30.000
913.729;  -80.150; -373.000; -373.000
913.970;  -75.775;  -96.000; -292.000
914.211;  -75.275; -160.000; -198.000
914.452;  -72.975; -118.000;  -11.000
914.693;   13.750;  510.000;  592.000
914.934;   18.150;  510.000;  440.000
915.175;  -70.125;   53.000;  -95.000
915.415;  -75.025; -137.000;   27.000
915.656;  -59.600;  -28.000;  192.000
915.897; -111.025; -252.000;  -82.000
916.137;  -76.550;   74.000;   -9.000
916.378; -137.900; -573.000; -517.000
916.619;  -77.800; -159.000;  -63.000
916.859;  -46.525;  303.000;  330.000
917.100;  138.225; 1655.000; 1070.000
917.340;   42.275;  930.000;  728.000
917.581;   40.475;  965.000;  789.000
917.821;  -30.525; -171.000;  143.000
918.061;    0.975; -199.000;  -72.000
918.302;  -55.525; -152.000; -211.000
918.542;  -20.325;  -22.000;    3.000
918.782;   36.625;  369.000;  377.000
919.023;  135.025;  360.000;  427.000
919.263; 1798.400; 8131.000;  202.000
919.503; 1107.200; -137.000;  -54.000
919.743;  607.625;  390.000;  266.000
919.983;  253.750; -134.000;  -26.000
920.223;   65.175;  135.000;   14.000
920.463;  134.575;  631.000;  554.000
920.703;  141.325;   84.000;   39.000
920.943;  158.975; -110.000;   90.000
921.183;  226.350; -414.000; -405.000
921.423;  512.050;  307.000;  546.000
921.663;  741.050; -174.000; -257.000
921.903; 1617.550;  237.000;  173.000
922.143; 9086.075;  372.000;  389.000
922.383;34129.050;  158.000;  115.000
922.622;10830.675; -120.000;  -15.000
922.862; 1186.675;  796.000;  785.000
923.102;  445.500;  -51.000;   33.000
923.341;  170.975;   59.000;   74.000
923.581;   78.900;  450.000;  360.000
923.821;    1.125;  301.000;  398.000
924.060;    4.550;  351.000;  193.000
924.300;  -72.725;  -16.000; -128.000
924.539;  -15.075;  584.000;  473.000
924.779;   11.050;  812.000;  597.000
925.018;  -53.200;  247.000;  353.000
925.257;   -4.375;  595.000;  666.000
925.497;  -41.975;  447.000;  412.000
925.736;  -84.225;  -35.000;  102.000
925.975;   -1.225;  687.000;  669.000
926.214;   19.375;  907.000;  850.000
926.454;    4.025;  706.000;  757.000
926.693;  -48.950;  419.000;  543.000
926.932;   30.925; 1021.000;  825.000
927.171;   77.775; 1107.000; 1044.000
927.410;   57.025; 1144.000;  967.000
927.649;   18.375;  924.000;  742.000
927.888;  -13.225;  590.000;  564.000
928.127;   -5.025;  680.000;  678.000
928.366;   14.150;  842.000;  826.000
928.605;   45.925;  831.000;  737.000
928.844;  234.825; 1451.000; 1393.000
929.083;  599.250;  770.000;  613.000
929.321;  283.875; 1335.000; 1359.000
929.560;   87.900; 1158.000; 1122.000
929.799;  -27.200;  574.000;  475.000
930.038;   62.725; 1025.000; 1394.000
930.276;  -50.125;  334.000;  397.000
930.515;    3.075;  827.000;  681.000
930.753;  -30.075;  614.000;  589.000
930.992;  -28.750;  664.000;  717.000
931.230;   -6.350;  847.000;  847.000
931.469;  164.475; 2162.000;  892.000
931.707;   66.900;  840.000;  751.000
931.946;   56.950; 1278.000; 1344.000
932.184;   63.200; 1437.000; 1175.000
932.423;   40.575; 1265.000;  963.000
932.661;   99.075; 1296.000; 1428.000
932.899;   21.375;  987.000;  821.000
933.137;   -5.400;  754.000;  564.000
933.376;  146.375; 1664.000; 1335.000
933.614;  146.775; 1759.000; 1196.000
933.852;   53.225; 1357.000; 1171.000
934.090;  137.200; 1722.000; 1747.000
934.328;  118.975; 1252.000; 1457.000
934.566;   91.450; 1431.000; 1110.000
934.804;  141.250; 1263.000; 1309.000
935.042;  461.750; 1861.000; 1850.000
935.280; 1853.275; 2088.000; 2063.000
935.518; 1677.875; 2113.000; 2007.000
935.756;  351.700; 2481.000; 2316.000
935.994;  163.200; 1808.000; 1751.000
936.231;  330.850; 2890.000; 2950.000
936.469;  192.675; 2367.000; 2378.000
936.707;  168.775; 2220.000; 2167.000
936.945;  236.550; 2825.000; 2882.000
937.182;  199.725; 2679.000; 2741.000
937.420;  287.725; 3602.000; 3031.000
937.657;  402.450; 3365.000; 3478.000
937.895;  350.625; 3331.000; 3488.000
938.133;  322.050; 3540.000; 3528.000
938.370;  332.725; 3896.000; 4191.000
938.607;  390.525; 4488.000; 4205.000
938.845;  545.200; 5587.000; 5549.000
939.082;  494.950; 5387.000; 5177.000
939.320;  542.575; 5799.000; 5728.000
939.557;  652.875; 6549.000; 6491.000
939.794;  704.625; 7285.000; 7097.000
940.031;  908.875; 8421.000; 8368.000
940.269; 1101.575; 9552.000; 9107.000
940.506; 1109.550;10901.000;10507.000

