
Integration time [ms]: 100.000
Averaging Nr. [scans]: 40
Smoothing Nr. [pixels]: 0
Data measured with spectrometer [name]: 2101013U2
Wave   ;Sample   ;Dark     ;Reference
[nm]   ;[counts] ;[counts] ;[counts] 

394.013;   54.609; -450.257; -315.536
394.305;  205.907; -461.258; -419.536
394.596; 1105.003; -676.269; -527.514
394.887; 2654.795; -796.268; -654.518
395.178; 1039.776;  145.736;   11.476
395.470;   91.112; -210.263; -356.526
395.761;  194.510;  305.734;  394.479
396.052;  276.727; -545.284; -306.489
396.343;  309.298; -557.276; -454.503
396.634;  117.566; -200.279; -290.497
396.926;  120.042; -618.268; -565.517
397.217;  111.002;   11.725;  -17.504
397.508;   55.018; -366.273; -154.507
397.799;   50.141; -555.279; -571.497
398.090;    7.710; -973.280; -902.495
398.381;  121.552;   11.708;  -11.473
398.672;    0.978; -585.292; -742.473
398.963;   51.247; -348.279; -373.498
399.254;  120.762;   54.709; -209.475
399.545;  -23.718;-1017.266; -883.520
399.836;   55.512; -407.277; -343.501
400.127;   62.028; -205.295; -209.468
400.418;   71.863; -423.274; -392.506
400.709;   73.648; -359.281; -333.493
401.000;   53.091; -268.291; -309.476
401.290;  106.489;  225.698;  115.545
401.581;   84.210; -166.286; -228.485
401.872;   25.800; -542.298; -486.462
402.163;   66.696; -313.296; -252.467
402.454;   96.238; -123.291; -163.475
402.744;   89.137; -844.297; -813.465
403.035;  453.568; -226.293;  -86.471
403.326;  609.256; -366.292; -384.474
403.617;  412.344;  204.701;  165.539
403.907;  255.558; -593.283; -679.490
404.198; 2380.568; -545.307; -599.446
404.489; 6115.363; -618.283; -588.491
404.779; 2094.868; -618.302; -660.456
405.070;  238.071;  -67.304; -174.451
405.360;  320.970; -259.293; -238.472
405.651;  385.854;  125.699;   98.542
405.942;  204.980;  209.714;  127.516
406.232;  308.145; -432.285; -413.487
406.523;  497.088;  641.706;  758.530
406.813;   97.082; -579.286; -644.484
407.104;  357.776;  261.708;  144.527
407.394;  186.946; -604.299; -591.462
407.685;  155.494;  336.715;  222.513
407.975;   91.512; -400.283; -382.490
408.265;  131.402; -134.289; -190.478
408.556;   84.335; -472.291; -459.475
408.846;  176.964;  474.706;  429.530
409.137;   98.636;   -1.288; -216.480
409.427;   55.370; -193.285; -271.487
409.717;   53.921; -776.273; -692.508
410.007;  148.338;    4.715; -170.486
410.298;  103.106; -360.295; -342.469
410.588;   65.217; -495.285; -510.486
410.878;   37.647; -792.287; -873.482
411.168;  121.827; -481.298; -478.463
411.459;  132.181; -295.283; -242.489
411.749;   67.008; -609.292; -507.474
412.039;   69.434; -755.289; -386.480
412.329;  215.729;   40.722;  132.501
412.619;  213.433;  -62.286; -148.485
412.909;  367.355;  639.711;  594.521
413.199;  357.286; -130.280; -251.495
413.490;  420.971;  521.710;  352.523
413.780;  153.740;-1013.279; -913.496
414.070;  328.449;  -46.276;  235.497
414.360;  372.801; -729.278; -666.498
414.650;  411.968; -726.288; -688.482
414.940;  538.989; -538.280; -441.496
415.230;  923.540;   50.712;   74.519
415.520; 6072.352;  155.730;   66.486
415.809;23619.522; -305.281; -125.493
416.099;18408.739; -388.277; -229.501
416.389; 5046.135;  435.726;  236.494
416.679; 2995.516;   91.738;   85.473
416.969;  529.002; -527.287; -503.483
417.259;  474.017;  341.721;  171.503
417.549;  681.146;  522.718;  318.508
417.838; 1634.144; -205.268; -147.518
418.128; 5347.126;  650.710;  492.522
418.418; 4533.728; -491.272; -579.509
418.708; 3005.360;    9.726;  -48.506
418.997;11319.656; -474.275; -480.505
419.287;11925.492; -733.273; -790.507
419.577;11157.081; -160.283; -123.489
419.866;36875.762; -588.277; -498.501
420.156;37957.273; -242.270;  -55.513
420.446; 6942.833; -112.263;  -26.526
420.735;  906.042; -376.271; -446.512
421.025;  850.025; 1830.722;  315.502
421.314;  730.240; -203.271; -226.512
421.604; 1504.337;   89.732;  233.484
421.893;  894.487; -705.271; -602.511
422.183;  215.658; -487.263; -461.526
422.472;  388.813;  -36.271; -107.511
422.762;  445.062; -416.266; -379.521
423.051;  260.899; -916.276; -916.503
423.341;  326.969; -491.273; -439.507
423.630;  431.493; -121.265;   15.477
423.919;  384.006;   58.725;   49.495
424.209;  369.064;  -31.263;   56.473
424.498;  495.667;   68.732;  161.483
424.787; 1096.298; -535.267; -601.518
425.077; 3289.217;   34.735;   29.478
425.366; 4727.044; -734.262; -744.528
425.655; 9660.595;  639.727;  259.493
425.945;20663.524; -313.247; -268.554
426.234;11594.967;  117.741;  300.467
426.523; 5020.822;  -86.259; -350.534
426.812; 6836.308;  107.734;  159.480
427.101;10044.709; -127.269; -323.515
427.390;12711.677;  -55.270;  -86.514
427.680; 2979.817; -624.257; -411.538
427.969;  498.003; -330.255; -301.540
428.258;  336.284; -385.257; -477.536
428.547;  539.332;  449.728;  397.490
428.836; 1286.969; -421.253; -398.543
429.125; 1842.774; -199.259;  -72.534
429.414;  832.142; -330.251; -294.548
429.703; 3076.842; -231.251; -213.548
429.992; 9201.071; -938.250; -828.549
430.281; 6054.901; -397.264; -331.524
430.570;  608.982;  -21.252;   32.454
430.859;  571.397;  279.741;  352.466
431.148;  471.745;  636.752;  631.446
431.437;  303.282;  391.748;  367.454
431.725;  169.810; -544.257; -481.536
432.014;  120.202; -845.253; -756.545
432.303;  397.196; -149.239; -105.569
432.592;  631.758; -460.263; -178.525
432.881; 1056.321; -601.248; -437.554
433.169; 6003.479; -343.255;  -61.540
433.458;12254.905;  445.765;  540.424
433.747; 5183.975; -397.261; -289.529
434.036;  939.747; -275.242; -280.564
434.324; 2042.158; -395.249; -379.551
434.613; 3613.815;   40.757;  159.437
434.902; 1226.111;  333.760;  439.433
435.190;  601.545;   75.761;  295.431
435.479;  337.422;  -52.245;   83.441
435.767;  126.080; -411.244; -427.561
436.056;  226.042; -340.242; -294.563
436.345;  380.713; -372.240; -223.568
436.633;  421.803;   60.750;  383.450
436.922;  289.740;  208.760;  414.432
437.210;  630.245; -194.236;    1.426
437.499; 2079.628; -583.235; -432.576
437.787; 2292.694; -339.236;  -10.574
438.075;  590.800;   56.761;  162.430
438.364;  757.728;  -44.238;  250.429
438.652;  467.158; -286.226; -138.592
438.941;  140.197;    3.770;  269.415
439.229;   28.555; -665.252; -466.545
439.517;   43.586; -160.234;  -85.577
439.806;   15.624; -501.225; -290.595
440.094;  181.944;  377.766;  650.421
440.382;  209.998; -653.233; -302.580
440.670;  224.427; -361.235; -285.576
440.959;   41.966; -347.223; -170.599
441.247;   82.908; -151.229; -109.587
441.535;  106.985; -266.235;   31.423
441.823;   51.441; -497.234; -305.578
442.111;  206.637;  173.771;  327.412
442.400;  554.546; -628.245; -335.559
442.688; 1505.693; -111.234; -620.579
442.976; 1097.579; -786.213; -450.617
443.264;  130.605; -324.224; -364.597
443.552;  108.334; -258.226;   51.408
443.840;  183.633;  602.765;  876.423
444.128;  119.647;  265.767;  269.420
444.416;    6.165; -694.228; -312.588
444.704;   20.871; -465.219;  -92.605
444.992;   79.287;   -0.226;  240.407
445.280;   60.072; -517.230;  -94.585
445.568;   65.433; -694.212; -396.618
445.856;  371.130; -174.221;  357.398
446.143;  789.192;  -54.220;   -7.604
446.431;  678.194;  -25.228;  625.411
446.719;  256.890;  489.783;  675.391
447.007;  216.592;  481.769;  705.416
447.295;  200.513;  597.777;  871.402
447.583;   95.831; -464.229;  -34.587
447.870;  162.852; -434.221; -202.601
448.158;  439.371; -104.230;  129.415
448.446;  342.393; -800.219; -338.604
448.733;  155.557;   13.776;  269.403
449.021;  267.482;   60.788;  341.382
449.309;  194.672; -296.210;  208.379
449.596;  222.411;  128.783;   59.392
449.884;  175.045; -571.222; -325.600
450.172;  143.899; -756.227; -406.590
450.459;  430.362;  645.786;  780.387
450.747; 2336.885; -411.218; -147.608
451.034; 7362.270;  493.772;  889.411
451.322; 6139.940; -413.214; -170.614
451.609;  545.933;  292.777;  508.403
451.897;  577.911; -550.203; -183.634
452.184; 1763.113; -622.223; -400.598
452.472; 1680.994;   97.792;  269.375
452.759;  356.894;  512.781;  864.395
453.047;  124.105; -407.212; -125.617
453.334;   76.002; -732.219; -216.606
453.621;   86.393; -438.214; -161.615
453.909;  132.978;   13.796;  384.368
454.196;  110.923; -299.199; -123.641
454.483;  227.974;  317.798;  540.364
454.771;  141.447; -215.208;  196.374
455.058;   42.725; -316.207;  102.374
455.345;  127.703;   71.807;  344.347
455.632;   86.153; -128.207;  235.373
455.919;   70.671;  -82.196;  182.354
456.207;  -50.922; -774.198; -450.642
456.494;  -11.139; -475.200;  -66.639
456.781;   13.869; -399.202; -198.635
457.068;   58.385; -253.206;  -29.628
457.355;   -2.314; -698.206; -401.629
457.642;   11.117; -552.205; -290.630
457.929;    4.120; -778.194; -417.651
458.216;   83.105; -575.212; -354.617
458.503;  222.274; -173.193;  -19.652
458.790;  238.645; -864.208; -630.625
459.077;  273.024;  -77.202;  110.364
459.364;  791.537; -350.195; -210.649
459.651; 1658.858;  -46.206;  220.372
459.938;  780.610; -864.209; -665.623
460.225;  166.202;  132.799;  276.363
460.512;  -43.532; -836.197; -688.645
460.799;  112.534;  -32.218;  320.392
461.086;   79.340; -370.200; -251.640
461.372;   41.803; -509.198; -279.642
461.659;  120.822; -165.196;  108.354
461.946;   77.223; -445.193;  -54.651
462.233;  252.538;  842.800;  888.361
462.519;  337.535; -814.201; -464.639
462.806;  999.818; -768.197; -497.645
463.093;  875.094; -445.191;  -66.656
463.380;   -0.815; -920.186; -824.664
463.666;   58.020; -259.197;  -18.646
463.953;  101.557; -406.195; -243.648
464.239;  176.882; -173.195;  -77.648
464.526;  389.768;  413.806;  743.350
464.813;  352.005; -565.190; -304.658
465.099;  373.649;  606.807;  607.348
465.386;  348.353;  903.807;  921.348
465.672;   25.294; -694.197; -522.645
465.959;   18.523; -598.188; -520.662
466.245;   25.303; -468.193; -359.652
466.532;  109.230; -109.195;   63.352
466.818;   76.185; -357.186; -216.664
467.104;    2.425; -488.182; -415.672
467.391;  -19.943; -628.189; -459.658
467.677;   35.338; -289.186;    9.335
467.964;   12.639; -682.189; -471.660
468.250;   71.566; -331.186; -160.665
468.536;   87.133;   90.811;  180.341
468.822;  -33.797; -821.184; -574.668
469.109;  162.456;  351.827;  471.311
469.395;  196.913;  729.808;  787.346
469.681;  206.511;   46.811;  156.341
469.967; 1198.966; -699.188; -382.660
470.254; 2627.299; -494.188; -306.662
470.540; 1695.221; -601.196; -476.646
470.826;  233.736; -488.181; -397.675
471.112;  306.856;  288.816;  113.331
471.398;   93.236; -253.183;  -58.670
471.684;   45.639; -626.177; -447.680
471.970;    2.015; -918.180; -981.675
472.256;   28.362; -521.192; -441.654
472.542;   13.942; -499.171; -434.691
472.828;   13.046; -743.182; -607.672
473.114;   40.586; -380.166; -283.700
473.400;   20.356; -504.175; -293.684
473.686;   48.667; -452.166; -400.701
473.972;   58.996; -230.174; -131.687
474.258;  -25.144; -925.173; -843.689
474.544;  201.781; -183.178;   -2.679
474.830;  325.033;  -65.175;   45.316
475.116;  457.982; -123.190; -196.658
475.401;  634.792; -558.180; -467.676
475.687;  206.241; -725.180; -718.676
475.973;    9.704; -673.181; -770.673
476.259;  235.385;  736.825;  764.315
476.544;  372.948; -539.176; -437.682
476.830;  787.688; -398.172; -322.690
477.116;  687.896; -430.177; -336.682
477.401;  147.367;  346.820;  358.324
477.687;   -7.294; -289.175; -405.684
477.973;   40.157;   21.819;   28.326
478.258;   16.287; -448.163; -348.706
478.544;   52.846;   21.815;   61.334
478.829;  -37.653; -818.171; -738.692
479.115;  -48.437; -749.172; -651.690
479.401;   -1.334; -444.174; -449.686
479.686;   43.441; -253.180;  -74.676
479.972;  -21.689; -886.178; -776.680
480.257;   40.437; -258.166;  -65.700
480.542;   -6.124; -614.170; -469.693
480.828;  228.654; 1288.824; 1392.317
481.113;  -25.848; -464.176; -426.683
481.399;    1.286; -236.161; -202.711
481.684;  -40.589; -620.166; -462.700
481.969;   25.575; -158.159;  -73.713
482.255;   -1.288; -439.169; -285.695
482.540;    0.012; -569.178; -441.680
482.825;    9.130; -395.187; -404.663
483.110;   96.040;  -85.169; -105.696
483.396;  177.796; -840.157; -652.718
483.681;  471.896;  543.826;  730.313
483.966;  149.694; -696.160; -700.712
484.251;    7.895; -404.174; -310.687
484.536;   16.722; -356.165; -378.703
484.822;   27.623; -205.173; -218.687
485.107;  -14.390; -599.152; -502.726
485.392;  131.878;  662.836;  541.296
485.677;   85.050;  354.832;  163.302
485.962;  108.319;  160.843;  270.283
486.247;  104.420;  -14.162;   -8.707
486.532;   49.413; -178.166; -325.701
486.817;  161.081;  381.839;  431.291
487.102;  114.193; -453.154; -514.722
487.387;  661.873; -637.156; -652.718
487.672; 1097.508; -154.164;  -38.705
487.957;  702.913; -394.160; -286.711
488.241;  190.226; -290.150; -314.729
488.526;  704.561; -280.152; -148.726
488.811; 1132.164; -881.177; -818.680
489.096;  872.145; -666.154; -702.723
489.381;  484.157;    3.847;  162.275
489.666;  372.036; -428.161; -510.710
489.950;  184.073;  558.846;  627.277
490.235;  -11.754; -480.151; -458.728
490.520;  -61.590; -756.161; -723.710
490.804;  -42.325; -827.156; -736.719
491.089;  -11.233; -469.149; -299.732
491.374;   36.532; -132.164;  -75.704
491.658;  -11.621; -817.147; -717.735
491.943;  175.740; -657.152; -609.727
492.227;  255.663; -178.155;  -38.721
492.512;   50.443; -294.157; -341.717
492.797;  -62.489; -713.149; -716.731
493.081;  -41.144; -588.147; -598.735
493.366;  -37.838; -751.161; -635.711
493.650;  223.185;  831.859;  917.254
493.935;   24.728; -648.147; -447.734
494.219;  -19.928; -778.142; -687.743
494.503;  -41.044; -585.150; -487.730
494.788;   42.660;   46.842;   74.285
495.072;  106.203;  184.850;  434.271
495.356;  173.195; -463.148; -343.733
495.641;  478.288; -812.146; -736.736
495.925;  452.705; -976.156; -903.719
496.209;   43.792; -599.149; -451.732
496.494;  -28.677; -763.142; -544.744
496.778;    9.093; -364.154; -360.722
497.062;  -45.545; -819.156; -627.719
497.346;  -38.585; -869.160; -640.711
497.631;  158.099;  580.852;  560.266
497.915;   79.574;  -64.145;  175.261
498.199;   69.121; -341.157; -277.718
498.483;   39.334; -562.152; -508.725
498.767;  195.679;  301.850;  300.271
499.051;  173.114; -126.149; -100.732
499.335;   38.012; -693.149; -739.731
499.619;  -36.314; -381.129; -423.767
499.903;   41.887; -272.155;  -65.721
500.187;   27.350; -588.153; -316.724
500.471;   27.015; -796.152; -595.727
500.755;  124.360;   62.839;  -96.710
501.039;   30.263; -270.155; -357.721
501.323;   79.687;  -21.141;  264.254
501.607;   39.388; -447.163; -503.706
501.891;   -2.427; -607.156; -512.718
502.174;  -21.765; -726.144; -585.741
502.458;   71.994;   89.849;  370.273
502.742;   41.685; -180.138; -191.751
503.026;  111.903; -412.147; -254.734
503.310;  185.624; -437.159; -375.713
503.593;  111.779; -464.147; -325.735
503.877;  120.726; -232.133; -156.760
504.161;  184.602;    2.847;  -50.724
504.444;  140.837; -841.158; -710.716
504.728;  437.506; -487.164; -522.704
505.012;  701.076; -257.150;  -76.729
505.295;  537.086; -417.161; -212.711
505.579;  527.580; -256.156; -496.719
505.862;  721.220; -555.145; -333.738
506.146;  726.176; -681.159; -758.714
506.429;  401.802;  568.841;  461.286
506.713;   70.498; -732.151; -667.728
506.996;  325.942;   90.846;  295.278
507.280;  315.726; -633.165; -474.703
507.563;  239.436; -469.155; -261.721
507.847;  105.301; -423.153; -112.724
508.130;   80.537; -665.161; -456.711
508.413;  128.758; -758.167; -577.700
508.697;  247.808; -151.167;   12.300
508.980;  156.302; -422.153; -312.724
509.263;   -8.843; -466.155; -450.720
509.547;   47.675; -124.150;   82.271
509.830;   51.089; -172.160;  140.289
510.113;   99.729;  128.844;  298.281
510.396;   36.658; -530.152; -300.725
510.680;  170.571; -818.145; -812.738
510.963;  676.822;  184.846;  180.277
511.246;  603.383; -493.150; -357.730
511.529;  263.976; -482.145;  -83.739
511.812;  365.972; -250.134;   10.241
512.095;  242.945; -740.151; -396.728
512.378;   78.533; -317.147; -245.736
512.661;   13.318; -703.137; -623.753
512.944;   44.974; -750.142; -637.744
513.227;   64.490; -170.137; -171.752
513.510;   38.860; -479.144; -671.741
513.793;   22.816; -485.140; -435.747
514.076;  142.482;  -43.127;  -39.771
514.359;  108.793; -294.149; -135.732
514.642;   90.377; -442.142; -567.744
514.925;  711.714;  581.860;  561.253
515.208;  974.619; -498.134; -443.758
515.491;  634.108; -276.133; -182.761
515.773;  353.813; -410.143; -337.742
516.056; 2004.024;  249.864;  409.246
516.339; 2731.878; -754.136; -652.755
516.622; 1931.406; -518.150; -488.730
516.904; 1333.545;  882.857;  975.257
517.187;  591.189; -730.138; -523.752
517.470;  383.294; -568.143; -510.743
517.752;  413.331; -624.136; -470.756
518.035;  321.101; -708.139; -725.749
518.318;  369.054; -799.136; -744.755
518.600; 2292.611; -300.132; -325.762
518.883; 3181.201;  310.858;   88.256
519.165; 1523.632; -585.138; -426.751
519.448;  382.436;  -61.132;  -19.762
519.730;  203.540; -573.126; -415.773
520.013;  319.179;  588.867;  664.240
520.295;  895.574;  -94.134;  -15.759
520.578; 1999.349; -335.131; -305.764
520.860; 2238.311; -254.132;   56.238
521.143; 1129.183; -763.135; -584.756
521.425;  465.702; -251.125; -279.775
521.707;  652.007; -622.127; -380.771
521.990; 1698.908; -199.127;  167.229
522.272; 1952.118; -116.140;   -4.748
522.554;  912.689; -237.143; -157.742
522.836;  393.447;  -24.134;   99.241
523.119;  231.026; -496.148; -189.734
523.401;  151.756; -448.130; -314.766
523.683;   90.719; -865.137; -693.753
523.965;  279.337;  408.862;  260.248
524.247;  273.549;   54.878;  170.220
524.529;  191.699; -451.134; -367.759
524.812;  362.058;   -3.130;  191.234
525.094;  808.886; -773.138; -631.751
525.376; 1315.662; -143.124;   78.223
525.658;  782.051; -441.136; -339.754
525.940;   24.846; -805.131; -671.764
526.222;   31.929; -188.136;  -88.755
526.504;  120.943; -190.131;   32.237
526.786;  202.701; -960.133; -647.760
527.068;  330.442; -124.123;  -67.778
527.349;  139.397; -865.137; -774.754
527.631;  152.586; -137.132;   22.238
527.913;  129.407; -664.127; -450.771
528.195;  171.245; -761.125; -639.774
528.477;  221.744;  -93.134;  -30.758
528.759;  152.933; -648.130; -522.766
529.040;   64.691; -569.123; -293.778
529.322;   67.473; -235.125;  -10.774
529.604;  153.885;  -47.130;   93.233
529.886;  164.689; -546.126; -302.773
530.167;  143.901;  232.870;  192.235
530.449;   49.133;    1.853;   63.265
530.731;   23.648; -572.122; -459.779
531.012;   78.794; -513.120; -216.784
531.294;   69.733; -118.116;  -43.792
531.575;  160.677;  290.875;  538.225
531.857;   31.739; -548.135; -266.757
532.138;   91.510; -113.141;   40.254
532.420;  181.010;  294.865;  403.244
532.701;  227.629; -722.133; -751.760
532.983;  345.582;  232.867;  182.239
533.264;  134.187; -243.126;  175.228
533.546;  -41.771; -491.136; -508.755
533.827;   52.850;  173.867;   -1.759
534.109;   37.439; -352.135;  -80.757
534.390;  103.990; -725.132; -582.762
534.671;  251.060; -270.135;  -82.756
534.953;  138.819; -751.123; -611.779
535.234;   16.118; -426.117; -255.789
535.515;  -77.198; -891.119; -735.785
535.796;  -17.047; -431.128; -193.770
536.078; -101.614;-1050.124; -904.777
536.359;    1.569;  -22.123;    3.221
536.640;  -27.153; -480.125; -197.774
536.921;  151.915;  225.871;  143.232
537.202;  378.733;  -87.138;  -16.751
537.483;  457.148;  251.869;  377.236
537.764;  173.652;   17.870;   98.235
538.045;  -51.582; -543.134; -371.758
538.326;  -26.433; -596.129; -447.768
538.607;    7.483; -686.127; -476.771
538.888;  178.660;   98.879;    5.218
539.169;  186.054; -704.122; -535.781
539.450;  339.264;  236.871;   16.233
539.731;  208.439; -361.121; -182.783
540.012;  143.569;  199.880;  412.216
540.293;   95.606;   82.876;  158.224
540.574;   25.679; -895.113; -717.796
540.855;  448.187;  435.879;  377.218
541.136;  531.102;   47.878;  139.220
541.416;  267.283; -161.130; -220.766
541.697;  198.844; -274.131; -170.763
541.978;  986.012; -270.135; -315.757
542.259; 1276.958; -211.127; -236.771
542.539;  608.052; -191.116; -186.790
542.820;  208.527;  461.875;  480.225
543.101;  133.073;  -52.145;  -77.738
543.381;   44.183; -638.127; -591.771
543.662;  269.705;  159.873; -254.771
543.942;  555.079; -751.127; -830.770
544.223; 1010.303;  193.878;  161.219
544.504;  666.761; -275.124; -182.777
544.784;  582.464; -592.126; -408.773
545.065; 1590.305;  104.884; -254.791
545.345; 1875.602;  227.881;   14.215
545.626; 1241.353;  -14.113; -108.796
545.906;  837.251;   77.869;   98.235
546.186;  355.744;   92.874;  -95.773
546.467;  182.989;   99.877;  -95.778
546.747;  327.551;  264.884;  327.210
547.027;  341.260;   91.876;  111.223
547.308;  313.903; -376.127; -530.770
547.588;  375.593;  299.871;  371.232
547.868;  207.552;  458.870;  588.235
548.149;  201.188;  609.885;  593.207
548.429;  133.331; -347.127; -299.771
548.709;  192.343; -645.120; -461.784
548.989;  452.737;   84.882;   88.213
549.269; 2021.584;   10.868;  139.239
549.550; 4623.293;  215.877;  117.222
549.830; 4101.146; -758.111; -556.799
550.110;  841.028; -468.110; -320.801
550.390;  817.523; -128.122;  -56.779
550.670; 1080.524; -868.114; -783.795
550.950;  795.337; -509.121; -471.782
551.230;  199.233;  549.879;  460.218
551.510;   -7.289; -381.121; -326.782
551.790;   32.961; -173.109; -127.803
552.070;  250.813;  940.877; 1181.223
552.350;  404.256; -492.119; -377.786
552.630;  564.981;   -2.121;   77.219
552.909;  367.556;  181.884;   73.209
553.189;  210.116;  -49.132;   33.237
553.469;  188.606; -703.119; -514.786
553.749;  197.659; -469.127; -357.772
554.029;  153.622;   33.883;  -24.790
554.308;  138.392; -154.115;  -37.794
554.588;   59.852; -196.128; -204.770
554.868;   59.463; -366.121;  -47.782
555.147;  156.164; -114.115;  -46.793
555.427;  581.008; -260.116; -250.792
555.707; 3712.812; -284.115; -200.793
555.986; 4501.349; -719.111; -538.800
556.266; 2410.125;   23.884;   72.210
556.546;  115.336; -888.121; -675.782
556.825;  254.546; -657.114; -556.794
557.105; 1717.149; -125.128;   17.230
557.384; 2009.480;  122.884;  187.209
557.664;  770.658; -717.116; -508.792
557.943;  123.562; -557.121; -411.782
558.222;  165.140; -345.118; -344.788
558.502;  272.216; -116.115;  -76.793
558.781;  478.536;  194.885;  499.208
559.061;  392.190; -232.118; -227.788
559.340;  291.620;  302.883;  353.211
559.619;  678.025;   93.884;  148.210
559.899;  978.546; -239.117; -266.789
560.178;  915.615; -778.115; -593.793
560.457; 3040.348; -623.117; -562.790
560.736; 4180.925; -472.111; -482.800
561.015; 2808.972; -500.128; -502.769
561.295;  392.931;  180.893;  215.193
561.574;  357.713;  119.885;  116.207
561.853;  502.990;  274.891;  303.197
562.132;  476.918;  -45.114;  182.206
562.411;  416.356;  396.879;  553.219
562.690;  129.486; -592.115; -458.792
562.969;  155.435;  472.888;  630.203
563.248;  519.329; 2966.878; 2487.219
563.527;  256.625; -290.111; -408.800
563.806;  372.231; -650.127; -521.771
564.085;  418.521; -297.105; -206.810
564.364;  230.825; -594.117; -405.790
564.643;  503.432; -276.121; -223.781
564.922; 1808.884;  221.890;  397.198
565.201; 1819.488; -640.109; -700.803
565.479;  786.085; -297.115; -219.792
565.758;  323.925; -810.128; -712.770
566.037;  468.264; -155.109; -100.803
566.316;  229.005; -286.116;  -28.791
566.595;   43.487;  -17.115;  -12.793
566.873;  120.852; -166.111;  -79.801
567.152;  -59.691; -490.113; -590.797
567.431;   13.526; -113.116;    6.210
567.709;   15.156; -344.107; -212.807
567.988;  253.646; -810.114; -769.794
568.266;  515.862; -160.115;  -68.793
568.545;  392.368; -644.100; -514.819
568.824;  542.959;  160.885;  356.208
569.102;  539.046; -351.114; -235.794
569.381;  223.033; -492.116; -407.792
569.659;  -27.944; -553.113; -553.796
569.938;   33.827; -743.122; -465.780
570.216;  116.242; -225.109; -225.804
570.494;  -12.226; -632.114; -572.795
570.773;   42.235;  202.879;  114.218
571.051;    7.991; -373.123; -357.778
571.330;   62.453; -221.113; -174.796
571.608;   24.761; -181.098; -173.823
571.886;  -50.481; -671.111; -581.799
572.164;  -63.812; -739.121; -621.782
572.443;  -30.400; -562.105; -512.811
572.721;  -23.002; -399.117; -289.790
572.999;  -29.633; -280.117; -168.788
573.277;   96.218;  379.894;  620.191
573.555;  287.221;   94.894;   37.190
573.834; 1282.716;  -86.117; -114.788
574.112; 1500.059;  880.893;  811.193
574.390;  448.776; -143.111;  -96.801
574.668;    8.411;  -91.112;  -61.797
574.946;  -16.679; -165.106; -187.810
575.224;   17.413;   71.891;  -16.803
575.502;  -27.097; -200.116; -204.791
575.780;  -85.413; -767.112; -829.798
576.058;  108.350; 1589.889; 1004.200
576.336;  -13.820; -210.110; -129.801
576.614;  -56.838; -511.112; -340.798
576.891;   67.442; -711.115; -823.794
577.169;  450.000; -158.108; -285.805
577.447;  573.133;  169.893;  202.193
577.725;  264.566;  629.888;  854.201
578.003;   16.489;  -71.112; -371.798
578.280;   77.009; -208.104; -242.812
578.558;   67.491; -450.115; -422.793
578.836;  133.799; -210.114; -145.795
579.114;   60.110; -630.112; -670.797
579.391;   80.918;   -6.117;  -18.789
579.669;  -74.782; -595.114; -704.794
579.947;  166.680; -326.107; -127.806
580.224;  317.355; -692.107; -524.806
580.502;  300.984;  127.893;   76.193
580.779;   35.224;  -42.117;   75.210
581.057;  -77.133; -584.109; -470.804
581.334;  -89.776; -726.102; -695.815
581.612;   35.572;   54.895;  511.190
581.889;  -23.463;  -83.101; -129.818
582.167;  -31.749; -298.099; -190.821
582.444;  -84.218; -845.102; -814.817
582.721;   97.107;  657.899;  715.183
582.999;   57.699; -326.100; -167.821
583.276;  501.146; -812.123; -713.779
583.553;  683.377; -364.102; -294.816
583.831;  220.156; -607.104; -631.812
584.108;   58.673;  349.892;  174.195
584.385;   11.673; -122.102;  -98.815
584.662;  -69.673; -651.111; -828.801
584.940;   28.626;  204.889;  204.199
585.217;  -18.220;  -73.113; -303.796
585.494;   35.710;   71.890;  118.198
585.771;  210.318; -250.109; -354.804
586.048;  483.105; -196.113;  -76.796
586.325;  286.080; -721.110; -773.801
586.602;   94.709;  230.896;  213.188
586.879;  -11.755; -499.100; -580.820
587.156;   44.222; -156.105; -331.810
587.433;  -26.545; -701.102; -667.817
587.710;   79.537;  152.888;  234.202
587.987;  303.328; -264.105; -236.811
588.264;  776.439;  315.888;  387.202
588.541; 1340.312;  -61.104;   26.187
588.818; 2564.395;   72.892;  171.196
589.095; 2232.332; -163.104; -174.812
589.371;  364.216; -459.109; -414.804
589.648;   27.634; -581.107; -437.807
589.925;   29.275; -517.114; -621.795
590.202;   12.312; -741.112; -607.798
590.478;   87.204; -166.105;  -73.811
590.755;  266.576; -241.108; -132.806
591.032; 2373.582; -741.110; -699.802
591.308; 3289.126; -732.094; -790.831
591.585; 1729.931; -573.110; -560.802
591.862;  134.531;-1056.102; -950.817
592.138;   61.999; -475.108; -474.805
592.415;  136.410; -486.104; -495.813
592.691; 1425.058;  460.896;  518.188
592.968; 1824.713; -208.098; -123.824
593.244;  859.651; -695.116; -595.790
593.521;   64.831; -105.102;  -42.817
593.797;  -29.351; -810.122; -720.780
594.074;  311.151; -611.096; -588.826
594.350;  633.662;  828.905;  729.172
594.626;  295.677; -303.111; -283.801
594.903;  104.982; -643.101; -645.817
595.179;  194.514;  243.896;  418.187
595.455;   20.135; -136.107; -150.807
595.731;    8.415;  -19.103;  -38.814
596.008;  -38.529; -464.111; -434.800
596.284;   31.498; -187.100; -242.820
596.560;   44.458; -501.093; -493.833
596.836;  202.474; -173.105;  -70.810
597.112;  330.174; -582.108; -437.805
597.388;  271.324;  -49.097;  -48.826
597.665;  109.308;  437.887;  530.203
597.941;  -63.163; -572.089; -658.839
598.217;   18.360; -323.110; -293.802
598.493;  273.269;   61.891; -204.804
598.769;  483.642; -175.100;  -50.819
599.045;  289.627; -490.108; -562.806
599.321;   48.547; -193.100; -261.820
599.597;  140.394; -355.109; -476.804
599.872;  463.862;  409.896;  429.187
600.148;  348.625;  -61.097; -172.826
600.424;  271.257;   91.893;  202.193
600.700;  226.734; -170.107; -280.807
600.976;  110.894; -442.097; -464.825
601.252;  240.465; -226.109; -272.803
601.527;  191.988; -833.104; -840.813
601.803;  140.630; -453.105; -404.812
602.079;  157.617; -124.100; -118.819
602.354;  549.993; -620.092; -531.835
602.630;  794.330; -140.113; -482.796
602.906; 2255.762; -910.101; -863.818
603.181; 6342.881; -627.119; -534.786
603.457; 5419.398;   98.903; -278.826
603.733;  811.714; -605.120; -626.783
604.008;  936.421; -245.106; -164.810
604.284; 2927.333; -636.101; -580.817
604.559; 2569.891;   -3.112;  -42.799
604.835;  464.049; -163.105; -225.810
605.110;  386.277; -732.099; -892.821
605.385;  660.460;  224.907;  267.167
605.661;  615.290; -625.095; -729.829
605.936; 1085.178; -664.108; -737.806
606.211;  966.247;  -17.103; -170.815
606.487;  182.370; -329.114; -376.794
606.762;   20.856; -791.119; -745.786
607.037;  -30.126; -501.105; -433.810
607.313;  -46.467; -589.096; -574.828
607.588;   -7.379; -375.106; -137.810
607.863;   46.612;  -28.101; -143.818
608.138;  162.584;  513.890;  516.198
608.413;   29.531; -576.099; -592.822
608.688;   42.349; -203.108; -267.805
608.964;  200.765; -509.106; -218.809
609.239;  217.772; -107.105; -212.810
609.514;  256.805;  281.895;  240.188
609.789;  605.734; -187.104; -716.812
610.064;  849.982; -435.096; -609.827
610.339;  853.191; -855.109; -799.804
610.614; 1117.172; -131.100; -315.820
610.889;  646.580;  215.895;  107.188
611.163;   43.556; -407.104; -591.812
611.438;   85.571;   81.886; -167.794
611.713;    2.658; -467.101; -499.817
611.988;   53.211; -144.101; -328.818
612.263;   -8.776; -771.102; -717.815
612.538;  215.780;  385.887;  251.204
612.812;  165.098; -832.100; -911.820
613.087;  114.661; -358.098; -338.823
613.362;  -51.390; -497.107; -557.807
613.637;   39.118;  261.897;  138.186
613.911;  -26.107; -256.092; -345.835
614.186;  109.658; -249.107; -292.807
614.460;  626.137; -842.081; -758.854
614.735;  722.060;  -55.087;  -17.843
615.010;  169.575;   43.912;  -82.841
615.284;  238.073;  360.892;  246.195
615.559;  358.317; -792.092; -955.835
615.833;  268.504;  -76.099;  -87.822
616.108;    5.279; -225.090; -390.837
616.382;  138.037;  274.913;  402.156
616.656;  146.104; -241.090; -232.837
616.931;  459.229; -785.099; -700.822
617.205; 1049.163; -973.104; -979.813
617.480;  914.900;  -91.125;    6.225
617.754;  167.848; -396.125; -128.774
618.028;    7.568; -369.129; -382.768
618.302;   64.197;   73.892;  -25.805
618.577;  -56.006; -371.103; -518.815
618.851;  -53.638; -399.109; -600.803
619.125;  -39.301; -335.134; -378.759
619.399;  -27.137; -244.104; -374.813
619.673;  -47.291; -330.115; -515.792
619.947;  -38.926; -333.114; -448.795
620.222;   -4.547; -198.110; -204.801
620.496;    9.362;  -47.121;  -96.782
620.770;   18.429; -187.122;  -93.781
621.044;  200.372;  323.895;  346.190
621.318;  690.890; -653.120; -614.783
621.592;  630.038; -430.121; -409.783
621.866;  334.767; -476.112; -572.799
622.140;   32.778; -207.116; -356.791
622.413;   56.971;  138.889;  112.200
622.687;  -36.116; -746.101; -492.817
622.961;    7.697; -130.108; -143.805
623.235;  -55.603; -633.111; -661.800
623.509; -114.196; -816.105; -848.811
623.783;    5.806;  -12.107;   48.193
624.056;  -24.559; -254.120; -280.783
624.330;   55.211;   63.888;   -3.797
624.604;   52.600; -271.116; -355.790
624.877;   83.808;  180.890;   26.198
625.151;   28.993; -249.114; -238.794
625.425;  -28.485; -150.103; -283.814
625.698;  -67.174; -367.119; -374.785
625.972;  -85.115; -799.110; -765.802
626.245;   84.901;  685.884;  484.210
626.519;  -42.155; -426.120; -340.784
626.792;  -35.891; -192.107; -380.807
627.066;  -81.653; -485.122; -662.779
627.339; -103.219; -736.110; -663.802
627.613;   45.794;  351.880;  148.216
627.886;   50.362;  187.891; -612.803
628.160;  -17.110;  312.880; -161.783
628.433;  -93.022; -695.125; -703.775
628.706;  -72.280; -517.120; -615.784
628.979;   23.685;  296.876;  117.223
629.253;  -82.020; -785.119; -833.786
629.526;  340.513; -334.126; -253.772
629.799;  336.467; -641.123; -479.778
630.072;  137.920; -497.128; -516.769
630.346;  -57.549;-1115.116;-1080.790
630.619;  445.960; -467.107; -545.808
630.892;  620.348;  709.889;  593.200
631.165;  314.713;  790.896;  679.187
631.438;  -84.036;-1092.112;-1055.798
631.711;   45.645;  453.877;  257.221
631.984;  -51.778; -523.117; -624.789
632.257;  -80.007; -636.117; -681.789
632.530;  -44.724; -412.119; -433.785
632.803;   37.616; -109.115;    7.207
633.076;  -62.037; -360.123; -422.777
633.349;   13.149;  173.872;  121.231
633.622;  -23.150; -187.119; -240.785
633.895; -129.184; -903.120; -823.783
634.167;  -60.710; -496.126; -525.773
634.440;  -11.667;  -19.116; -137.792
634.713;   13.504;  -22.119; -120.786
634.986;   82.614;  593.871;  453.233
635.258;  -56.760; -507.115; -597.793
635.531;   89.339;  742.882; -343.788
635.804;  -16.805; -303.117; -318.789
636.077;  -91.921; -830.116; -852.791
636.349;    2.338; -586.115; -474.793
636.622;  380.812; 1695.874; 1392.228
636.894;  233.221; -474.120; -909.784
637.167;  139.856; -836.127; -789.771
637.439;   29.977; -278.128; -213.770
637.712;  -40.836; -312.126; -293.772
637.984;  -79.295; -635.116; -707.791
638.257;  381.714;  515.877;  488.222
638.529;  557.104; -881.125; -924.776
638.802;  238.270; -508.128; -449.769
639.074; -108.047; -927.122; -952.781
639.346; -118.560; -942.135; -930.757
639.619;    1.475;  -79.142; -319.744
639.891;  -17.078;  -83.122; -168.779
640.163;  -61.101; -689.122; -756.780
640.435;   49.951;  273.878;  103.220
640.708;    8.352;  -72.122; -132.780
640.980;  -34.996; -366.122; -362.781
641.252;  193.081;  -25.121;  -71.781
641.524; 1770.833;  580.879;  573.219
641.796; 1759.910;-1094.121; -907.782
642.068;  325.512; -191.121; -300.782
642.340;  -53.537; -486.121; -566.783
642.613;   29.015;  294.880;  323.217
642.885;  -84.733; -787.120; -878.783
643.157;  -51.456; -810.120; -658.784
643.428;   74.871;  170.880;  218.216
643.700;  -71.278; -498.120; -425.784
643.972;  -23.401;  -16.119; -133.785
644.244;  -92.774; -474.119; -559.785
644.516;  -44.472; -250.119; -114.786
644.788;   64.155;  662.881;  548.214
645.060;  -21.518;  -12.119; -124.786
645.332; -100.942; -525.118; -535.787
645.603;   52.685;  479.882;  342.213
645.875;  -79.338; -334.118; -369.787
646.147;  177.614; 1487.882; 1242.212
646.418;  -87.759; -931.117; -918.788
646.690;  123.543; -714.117; -715.789
646.962;   26.144; -413.117; -451.789
647.233;   -5.404;   15.883;   11.211
647.505; -104.127; -595.117; -475.790
647.776;   37.675;  328.884;  229.210
648.048;   -4.573; -248.116; -418.790
648.320;  -64.946; -752.116; -679.791
648.591; -160.995;-1055.116; -958.791
648.862;  -71.718; -505.116; -577.792
649.134;   17.284;  115.885;  198.208
649.405;  -46.514; -661.115; -618.792
649.677;  -44.337; -475.115; -598.793
649.948;    1.190; -181.115; -296.793
650.219;   -4.084;  -37.115; -147.793
650.491;  -76.807; -431.114; -520.794
650.762; -115.530; -705.114; -731.794
651.033;  -78.953; -437.114; -424.795
651.304;  -99.701; -743.114; -728.795
651.576;  -61.524; -680.114; -645.795
651.847;  -29.448; -250.113; -140.796
652.118;  -31.696;  -32.113; -189.796
652.389; -100.219; -639.113; -722.796
652.660;  -22.617; -147.113;  -89.797
652.931; -139.840; -897.112; -871.797
653.202;  -76.588; -382.112; -541.798
653.473;  -67.487; -633.112; -533.798
653.744;  151.540; -595.112; -590.798
654.015;  130.917; -356.112; -303.799
654.286;  -67.456; -642.111; -663.799
654.557;  -56.479; -586.111; -521.799
654.828; -157.377;-1114.111;-1088.800
655.099;  -83.126; -404.111; -291.800
655.370;  -72.849; -427.111; -543.801
655.641; -119.422; -656.110; -714.801
655.911; -103.470; -618.110; -638.801
656.182;   47.282;  437.890;  387.198
656.453;   95.209;  830.890;  746.198
656.724;  -71.365; -466.110; -426.802
656.994;  -75.538; -553.109; -568.803
657.265; -107.836; -862.109; -873.803
657.536;  -84.659; -500.109; -377.804
657.806; -101.082; -561.109; -593.804
658.077; -124.355; -866.109; -950.804
658.347;  -80.429; -523.108; -598.805
658.618; -109.227; -646.108; -694.805
658.888;  -30.125;  -41.108;  112.195
659.159;  -75.523; -432.108; -548.806
659.429;  -17.496; -292.108; -349.806
659.700;   19.480; -435.107; -390.807
659.970;  -16.118; -370.107; -359.807
660.241;   13.984; -754.107; -921.807
660.511;  475.011; -147.107; -174.808
660.781;   86.613; -793.106; -748.808
661.052;  -63.585; -222.106; -381.808
661.322;  -31.459;   21.894;   -9.809
661.592;    9.343;  257.894;  148.191
661.862;  -80.130; -369.106; -382.810
662.133;  -94.178; -551.105; -502.810
662.403; -107.951; -770.105; -676.810
662.673;  -62.449; -256.105; -213.811
662.943;  -91.448; -612.105; -551.811
663.213;  -15.846;  -85.105;  -81.811
663.483;  -70.519; -593.104; -568.812
663.753;  -43.042; -194.104; -152.812
664.023;   -7.690;   68.896;  -32.813
664.293;  -54.013; -319.104; -126.813
664.563; -102.362; -694.104; -648.813
664.833; -124.060; -743.103; -608.814
665.103; -122.058; -730.103; -793.814
665.373; -119.106; -766.103; -806.814
665.643;  -96.354; -863.103; -918.815
665.913;   28.273; -534.103; -714.815
666.182;  132.774; -685.102; -719.816
666.452;  238.401;  -22.102;  -89.816
666.722;  -36.672; -724.102; -784.816
666.992; -137.445; -948.102; -921.817
667.261;  -89.768; -824.102; -808.817
667.531;  193.459;  134.899;   45.183
667.801;  542.810; -440.101; -412.818
668.070;  243.712;  714.899;  697.182
668.340; -103.936; -883.101; -840.819
668.609;   92.866;  588.900;  301.181
668.879;  -75.157; -490.100; -558.819
669.149;  -86.555; -539.100; -516.820
669.418;  -91.904; -698.100; -726.820
669.688;  -37.302; -482.100; -666.820
669.957;   68.875; -423.099; -546.821
670.226;  -41.848; -268.099; -331.821
670.496;  -80.596; -431.099; -635.822
670.765;  -81.419; -418.099; -501.822
671.034; -134.468; -872.099; -828.822
671.304;   -3.791;   55.902; -111.823
671.573; -142.464;-1085.098; -957.823
671.842;   67.138; -380.098; -294.823
672.112;   26.915; -692.098; -586.824
672.381;   -6.333; -239.098; -214.824
672.650; -128.857;-1005.097;-1021.825
672.919;  -89.105; -631.097; -507.825
673.188;  -88.028; -681.097; -878.825
673.457; -154.751;-1101.097;-1143.826
673.726;  -69.449; -579.096; -646.826
673.995;  -35.047; -533.096; -479.826
674.265;  -32.846; -263.096; -333.827
674.534;   -0.519; -183.096; -235.827
674.802;    7.133; -618.096; -703.828
675.071;  963.960; -886.095; -801.828
675.340; 3702.387; -464.095; -339.828
675.609; 1230.488;  103.905;   82.171
675.878;   57.990; -949.095; -893.829
676.147;   29.842;  -26.095;   -8.829
676.416;   88.819; -210.094; -294.830
676.685;  722.946; 1000.906; -622.830
676.953;  116.248; -603.094; -452.831
677.222;  -45.201; -193.094; -273.831
677.491;  -22.724;  -24.094; -127.831
677.759;  -10.197;   11.907;  172.168
678.028;  -11.020; -279.093; -222.832
678.297;   -7.418;   71.907;  197.168
678.565; -145.816; -898.093; -944.833
678.834;  -54.365; -311.093; -268.833
679.102;  -83.913; -411.092; -391.834
679.371; -127.386; -898.092; -727.834
679.639; -127.509; -797.092; -786.834
679.908; -116.157; -794.092; -724.835
680.176; -150.955; -895.091; -941.835
680.445;  -71.604; -346.091; -352.835
680.713;  -14.127;  -58.091;  -23.836
680.982;  -92.575; -523.091; -525.836
681.250; -106.898; -578.091; -507.837
681.518; -102.721; -534.090; -751.837
681.787;   -7.369; -204.090; -167.837
682.055;  -76.618; -490.090; -422.838
682.323; -141.916; -993.090; -992.838
682.591;   22.036; -216.090; -538.838
682.859;   89.163;    9.911;  -35.839
683.128;   18.815;  232.911;  497.161
683.396; -159.108;-1102.089;-1122.840
683.664;  -31.307; -241.089;   21.160
683.932;   16.645;  144.911;  -76.840
684.200;  -78.653; -576.088; -320.841
684.468;  -32.951;  -73.088; -124.841
684.736;  -39.749; -214.088; -175.841
685.004; -127.672;-1024.088; -982.842
685.272;  -50.121; -880.088; -774.842
685.540;  -60.369; -499.087; -557.843
685.808;  -80.792; -651.087; -682.843
686.076; -108.340; -894.087; -969.843
686.343;  -62.488; -601.087; -815.844
686.611;   38.214; -195.087; -224.844
686.879;  461.340; -530.086; -553.844
687.147; 3171.692; -483.086; -480.845
687.414;  900.269;  -12.086; -169.845
687.682;    1.046; -658.086; -757.846
687.950;  295.448;  259.915;  263.154
688.217;   11.450; -792.085; -760.846
688.485;   -8.724; -632.085; -636.847
688.753;  499.128;  -11.085; -102.847
689.020;  152.355; -820.085; -851.847
689.288; -101.443; -853.084; -787.848
689.555;  -29.091; -195.084; -148.848
689.823;  -36.614; -241.084; -345.849
690.090;  -86.463; -546.084; -651.849
690.358; -149.936; -877.084; -897.849
690.625;    3.591;  120.917;   45.150
690.892;  -77.157; -403.083; -369.850
691.160;  -27.030;   72.917;  -35.850
691.427;   11.996;  141.917;  130.149
691.694; -145.327; -855.083; -929.851
691.962; -130.650;-1177.082;-1060.852
692.229;   12.977;  127.918;   56.148
692.496;   90.679;  130.918;  -49.852
692.763;   14.831; -164.082; -201.853
693.031;  -56.143; -739.082; -716.853
693.298;  -46.491; -509.081; -368.853
693.565;  310.936; -155.081; -163.854
693.832; 1198.513;   -5.081;   -9.854
694.099;  123.565; -643.081; -642.855
694.366;  -61.008; -882.081; -896.855
694.633;  -55.782; -920.080; -633.855
694.900;  761.870; 4367.920; -114.856
695.167;  414.772; -214.080; -380.856
695.434;   95.399; -646.080; -623.856
695.701;  203.826;  121.921;  -61.857
695.968;  454.403; -365.079; -361.857
696.234; 1039.004; -415.079; -646.858
696.501;10401.681; -776.079; -614.858
696.768; 5224.708; -554.079; -617.858
697.035;  300.085; -632.078; -667.859
697.302;   54.412; -448.078; -552.859
697.568;   19.014; -458.078; -497.859
697.835;  -37.160; -683.078; -624.860
698.102;  -18.083; -498.078; -407.860
698.368;   80.719;  384.923;  396.139
698.635;  -48.579;  -47.077; -424.861
698.901;  -27.402; -240.077; -348.861
699.168;   65.875; -534.077; -456.862
699.435;   68.676;  -72.077;  -13.862
699.701; -117.447; -868.076; -764.862
699.968;   25.830;  144.924; -441.863
700.234; -100.043; -783.076; -822.863
700.500;  -46.116; -448.076; -539.864
700.767;    8.711;   -1.075;   26.136
701.033; -128.388;-1015.075; -963.864
701.299;  -50.561; -450.075; -483.865
701.566;  106.941;  950.925;  763.135
701.832;   13.593;  -31.075;  -76.865
702.098; -105.305;-1054.074;-1034.866
702.365;  -84.078;-1098.074;-1030.866
702.631;  -18.302;-1038.074;-1063.867
702.897; 1348.350; -765.074; -676.867
703.163; 2174.827;  348.926;  254.133
703.429;  162.029; -256.073; -273.868
703.695;  -31.144; -796.073; -792.868
703.961;    8.033; -214.073; -210.868
704.227;  -61.691; -630.073; -725.869
704.493;  134.261;  613.927;  510.131
704.759;  -18.612; -565.072; -540.870
705.025;   38.540; -203.072; -194.870
705.291;    2.167; -666.072; -562.870
705.557;  198.693;  719.928;   34.129
705.823;   42.920; -742.072; -694.871
706.089;  136.522; -307.071; -326.871
706.355;  375.299; -315.071; -244.872
706.620; 5760.876; -776.071; -729.872
706.886; 7810.128; -309.071; -362.873
707.152;  725.154; -818.070; -973.873
707.418;  -15.494;-1153.070;-1186.873
707.683;   -7.767; -550.070; -530.874
707.949;  -24.965; -547.070; -578.874
708.215;  -14.463; -129.070; -207.874
708.480;  -23.411; -520.069; -420.875
708.746;   99.015;   68.931;   28.125
709.011;  -57.508; -578.069; -612.876
709.277;  -87.306; -538.069; -543.876
709.542;  -47.054; -428.069; -387.876
709.808;    6.723;  -59.068;   89.123
710.073;  -74.275; -577.068; -695.877
710.339;  -31.524; -242.068; -228.877
710.604;   80.753; -780.068; -845.878
710.869;  320.405; -277.068; -366.878
711.135;  -71.593; -715.067; -628.879
711.400;  -99.866; -507.067; -608.879
711.665;  -57.164; -404.067; -479.879
711.931; -115.363; -661.067; -677.880
712.196; -102.936; -876.067; -954.880
712.461;   97.191; -402.066; -490.880
712.726;  129.318; -727.066; -771.881
712.991;  -77.355; -647.066; -664.881
713.256;  -48.903; -350.066; -332.882
713.521;  -52.652; -417.065; -381.882
713.787;  -62.500; -454.065; -472.882
714.052;  -15.323; -214.065; -400.883
714.317;  -82.871;-1045.065; -981.883
714.581; 1051.031; -374.065; -268.883
714.846; 1409.833; -822.064; -888.884
715.111;  129.759;  261.936;  257.116
715.376;  -16.139;  -86.064; -223.885
715.641;  -17.762; -365.064; -367.885
715.906;  300.165;   15.936; -551.885
716.171;  140.942;  221.937;  209.114
716.436;   39.969;  -78.063; -104.886
716.700;  -94.455; -818.063; -692.886
716.965; -123.428; -794.063; -807.887
717.230;  -82.451; -339.063; -392.887
717.494;  -24.274;  -40.062; -134.888
717.759;  -95.747; -784.062; -640.888
718.024;   19.580;  269.938;  250.112
718.288;   58.331;  685.938;  395.111
718.553; -124.117; -803.062; -977.889
718.817; -135.590; -883.061; -899.889
719.082;  -26.238; -115.061; -125.890
719.346; -136.736;-1000.061; -947.890
719.611;  -33.834; -300.061; -255.891
719.875; -105.233; -568.060; -537.891
720.140;  -56.956; -453.060; -603.891
720.404;   22.521; -136.060; -249.892
720.668;  818.773; -475.060; -411.892
720.933;  312.725;  146.940;  137.108
721.197;  -94.549; -667.059; -600.893
721.461; -147.747; -851.059; -826.893
721.725;   -2.670;  -21.059; -250.894
721.990;  -61.218; -284.059; -204.894
722.254;  -14.191;  -26.059; -108.894
722.518;  -70.364; -286.058; -442.895
722.782;  -97.238; -743.058; -594.895
723.046;  115.889;  614.942;  570.105
723.310;   41.166;  374.942;  210.104
723.574; -108.207; -654.058; -614.896
723.838;  -94.080; -576.057; -642.897
724.102;  -47.628; -226.057; -239.897
724.366; -135.427;-1032.057; -978.897
724.630; -103.050; -749.057; -571.898
724.894;  -79.223; -722.057; -514.898
725.158;   -8.046;   38.944; -295.898
725.422;  -46.094; -394.056; -327.899
725.685;  -76.717; -441.056; -349.899
725.949;  -88.366; -566.056; -519.900
726.213;  -79.414; -732.056; -811.900
726.477;  154.113;-1020.055; -933.900
726.740;  136.465; -274.055; -104.901
727.004;  358.142; -384.055; -510.901
727.268; 3347.969; -442.055; -400.901
727.531;  923.070; -961.055; -775.902
727.795;  -38.578; -713.054; -673.902
728.059;  -37.876; -552.054; -557.903
728.322;  -88.849; -841.054; -669.903
728.586;   11.303; -692.054; -701.903
728.849;  -81.720; -695.053; -756.904
729.112; -116.144; -812.053; -912.904
729.376; -130.217; -959.053; -905.904
729.639;  -72.440; -536.053; -536.905
729.903; -110.438; -733.053; -699.905
730.166;  -42.086; -437.052; -399.906
730.429;  -29.909; -317.052; -468.906
730.693;  -54.558; -355.052; -894.906
730.956;  197.894;  810.948;  651.093
731.219;  662.746; -310.052; -103.907
731.482;  102.723;-1003.051; -894.907
731.745;  100.975; -794.051; -935.908
732.009;   20.452;  -30.051;   50.092
732.272;  -87.572; -904.051; -771.909
732.535;  -43.245; -300.051; -310.909
732.798; -150.543;-1083.050;-1166.909
733.061;  -59.566; -430.050; -456.910
733.324;    4.561;   31.950; -180.910
733.587;   66.313;  290.950;  365.090
733.850;  -63.736; -973.049;-1050.911
734.113;   33.216;   33.951;   32.089
734.376;   11.243; -328.049; -447.912
734.639;  215.745; 1188.951; 1011.088
734.901;   80.022; -180.049; -402.912
735.164;  483.874; -883.048; -837.913
735.427; 1249.950; -166.048; -355.913
735.690;  129.702; -205.048; -234.913
735.952;  -23.746; -923.048; -925.914
736.215;  -30.619;-1113.048;-1009.914
736.478;   37.008; -771.047; -774.915
736.740;  203.284;   33.953;  129.085
737.003;  682.336; -658.047; -672.915
737.266; 3901.688;  -94.047;   46.084
737.528;  442.415; -682.047; -660.916
737.791;  304.767; -316.046; -327.916
738.053;  828.044;  465.954;  649.083
738.316;10994.395; -162.046; -136.917
738.578; 7531.247; -770.046; -736.918
738.841;  434.374; -382.046; -446.918
739.103;  190.301; -875.045; -777.918
739.365;  495.428;   79.955;  -69.919
739.628;   10.880; -884.045; -805.919
739.890;  -30.569; -758.045; -710.919
740.152;  -42.717; -692.044; -754.920
740.414;   -8.540; -408.044; -359.920
740.677;  -41.038; -785.044; -634.921
740.939;  -36.536; -587.044; -487.921
741.201;  247.716; -432.044; -572.921
741.463;   30.867; -689.043; -745.922
741.725;   10.944;  -21.043; -199.922
741.987;   45.821;  220.957;  116.078
742.249;    1.423; -751.043; -859.923
742.511;  202.675; -703.043; -794.923
742.773;    8.977; -546.042; -546.924
743.035;  123.478;  796.958;  533.076
743.297;  -31.845; -963.042;-1013.924
743.559;  724.132; -278.042; -262.925
743.821;   67.984; -735.042; -744.925
744.083;    3.586;  -44.041; -149.925
744.345;  -83.387; -869.041; -892.926
744.607;   38.739;   75.959;  122.074
744.868;  -46.259; -490.041; -554.927
745.130; -112.107; -994.041;-1008.927
745.392;   56.595;   -1.040;  -44.927
745.653;  -12.953; -411.040; -378.928
745.915;  144.449;  896.960;  631.072
746.177;   52.500;   35.960;  -43.928
746.438;    0.727; -428.040; -543.929
746.700;  -58.596; -947.039; -988.929
746.961;    3.656; -659.039; -740.930
747.223;  130.233; -190.039;  -74.930
747.484;   89.385; -391.039; -471.930
747.746;  139.786;  -23.038; -106.931
748.007;  109.563; -647.038; -689.931
748.269;  303.115; -468.038; -440.931
748.530;  472.817; -852.038; -638.932
748.791;  261.944; -354.038; -420.932
749.053;  421.646;  286.963;  163.067
749.314;  454.247; -236.037; -169.933
749.575;  483.624; -945.037; -905.933
749.836;  841.676; -217.037;   86.066
750.098; 2469.353;  -60.037;  -21.934
750.359;36227.505;  414.964;  555.066
750.620; 9010.732; -121.036; -220.935
750.881; 1016.883; -585.036; -513.935
751.142; 1357.985; -950.036; -938.936
751.403;16849.212; -789.036; -705.936
751.664; 7232.189;-1034.035; -999.936
751.925;  478.166; -175.035; -262.937
752.186;  288.517; -298.035; -278.937
752.447;  124.669; -590.035; -445.937
752.708;   49.346; -532.035; -648.938
752.969;   18.623; -566.034; -576.938
753.230;   -1.975; -777.034; -672.939
753.491;  -10.148; -650.034; -631.939
753.751;   66.978;  109.966;   19.061
754.012;   88.705;  258.967;  181.060
754.273;   67.782; -174.033;  -71.940
754.534;   -0.041; -487.033; -580.940
754.794;  -78.564; -926.033; -911.941
755.055;  145.713; 1051.967;  881.059
755.316;  -46.811; -700.032; -566.942
755.576;  -34.484; -606.032; -576.942
755.837;  -44.232; -527.032; -695.942
756.097;  -40.730; -530.032; -564.943
756.358;  -69.678; -725.032; -770.943
756.618;  -66.926; -705.031; -641.943
756.879;   -1.200; -254.031; -349.944
757.139; -132.623;-1098.031;-1116.944
757.400;  -54.371; -538.031; -553.945
757.660;  -28.269; -365.031; -401.945
757.920;   10.083; -266.030; -228.945
758.181;  -38.615; -468.030; -351.946
758.441;  -83.789; -870.030; -809.946
758.701;  -36.287; -308.030; -215.946
758.961;  -20.260; -220.030; -278.947
759.222;  -63.033; -574.029; -502.947
759.482;  -67.406; -683.029; -723.948
759.742;  -84.704; -706.029; -547.948
760.002;   21.172;  -83.029; -143.948
760.262;   15.049;   50.972;  182.051
760.522;  -38.974; -498.028; -574.949
760.782;  -69.047; -738.028; -612.949
761.042;  -23.920; -618.028; -573.950
761.302;   48.857;   55.972;  -18.950
761.562;   71.008; -164.027; -154.951
761.822;   67.410; -710.027; -551.951
762.082;  -30.238;-1104.027;-1093.951
762.342;   65.939; -328.027; -403.952
762.601;   77.591; -567.027; -506.952
762.861;  359.093; -281.026; -207.952
763.121;  427.719; -406.026; -411.953
763.381; 7596.371; -499.026; -485.953
763.640; 8072.723; -139.026; -307.954
763.900;  355.450; -242.026; -203.954
764.160;   91.952; -458.025; -491.954
764.419;  -10.121; -726.025; -782.955
764.679;  -63.070; -795.025; -726.955
764.939;  -11.493; -124.025; -210.955
765.198;  -75.941; -608.025; -563.956
765.458;  -83.439; -710.024; -612.956
765.717;  -86.712; -454.024; -590.957
765.976;  -66.486; -428.024; -411.957
766.236;  -66.134; -475.024; -610.957
766.495;   16.893;  260.977;   73.042
766.755;  -95.680;-1090.023; -987.958
767.014;   -5.203; -594.023; -665.958
767.273;  -42.801; -373.023; -397.959
767.533;  -51.550; -228.023; -307.959
767.792;   -8.948; -151.022; -188.960
768.051;  -60.596; -228.022; -276.960
768.310;  -71.719; -546.022; -650.960
768.569;   -5.992; -161.022;    4.039
768.828;  -25.915; -285.022; -363.961
769.088; -122.739;-1050.021; -942.961
769.347;  -80.012; -755.021; -599.962
769.606;  -77.485; -876.021; -857.962
769.865; -126.258;-1016.021;-1033.963
770.124;   -5.856; -411.021; -336.963
770.383;  -56.754; -778.020; -910.963
770.641;  -12.203; -398.020; -400.964
770.900;  -53.751; -953.020; -846.964
771.159;  -57.924; -851.020; -951.964
771.418;    1.453; -917.020; -779.965
771.677;  126.905; -224.019; -293.965
771.936;  165.032; -794.019; -865.966
772.194; 2323.108; -465.019; -437.966
772.453;11167.285; -213.019; -391.966
772.712;  778.787;  416.982;  329.033
772.970;  134.939;   32.982;   63.033
773.229;   89.491;  -22.018;  102.033
773.488;  -78.507; -814.018; -770.968
773.746;   59.669;  296.982;  335.032
774.005;   16.821;  190.983;  -22.969
774.263;    9.723;  243.983;  177.031
774.522;  -45.425; -422.017; -548.969
774.780;  -87.898; -484.017; -417.970
775.039;  -84.321; -551.017; -531.970
775.297;  -24.045; -135.016; -351.970
775.555; -105.418; -489.016; -612.971
775.814; -114.266; -618.016; -570.971
776.072; -126.014; -749.016; -740.971
776.330; -103.812; -630.016; -520.972
776.589; -126.035; -703.015; -721.972
776.847; -129.984; -645.015; -624.973
777.105; -172.182;-1016.015;-1032.973
777.363;  -92.505; -459.015; -454.973
777.621; -138.278; -660.015; -717.974
777.879;  -25.501;  -42.014;   32.026
778.138;  -83.549; -554.014; -717.974
778.396; -102.798; -585.014; -526.975
778.654; -150.696;-1015.014; -970.975
778.912;  -74.544; -269.014; -371.976
779.170; -128.667; -880.013; -803.976
779.427; -158.215; -922.013; -897.976
779.685; -138.538; -880.013; -832.977
779.943;  -88.462; -654.013; -593.977
780.201; -160.510; -964.012; -883.978
780.459; -114.858; -651.012; -610.978
780.717;  -78.256; -440.012; -390.978
780.974; -101.354; -449.012; -490.979
781.232;  -66.578; -358.012; -338.979
781.490;  -90.276; -551.011; -472.979
781.747;  -93.974; -555.011; -476.980
782.005;   18.528;  462.989;  254.020
782.263; -149.170; -542.011;-1004.981
782.520;  -93.093; -326.011; -501.981
782.778; -160.617;-1013.010;-1051.981
783.035; -152.640; -962.010; -938.982
783.293;  -65.388; -248.010; -206.982
783.550;  -62.786; -134.010; -198.982
783.808; -125.884; -764.010; -776.983
784.065; -164.032; -745.009; -874.983
784.322;  -34.431;   25.991;  -86.984
784.580; -145.454; -915.009; -771.984
784.837;  -79.752; -392.009; -466.984
785.094; -134.725; -783.009; -762.985
785.352;  -68.473; -304.008; -404.985
785.609; -113.796; -934.008; -839.985
785.866;  -77.770; -345.008; -401.986
786.123;  -70.118; -639.008; -583.986
786.380; -100.266; -665.008; -604.987
786.637;  -47.689; -225.007; -380.987
786.895;  -27.737; -456.007; -543.987
787.152;  -50.410; -135.007; -267.988
787.409;  -35.234; -123.007; -225.988
787.666;  -90.832; -299.006; -378.988
787.923; -113.205; -616.006; -695.989
788.179;  -94.253; -551.006; -584.989
788.436; -100.251; -585.006; -585.990
788.693;  -35.299;  -92.006;  -87.990
788.950;  148.902; -125.005; -112.990
789.207;  189.154; -381.005; -372.991
789.464;  -52.594; -161.005; -301.991
789.720;   -8.317;  150.995;  110.009
789.977; -162.840;-1003.005; -671.992
790.234;  -35.238;   44.996;  -66.992
790.490; -157.662; -884.004;-1031.993
790.747;  -31.510;  -85.004;   22.007
791.004;  -32.358; -426.004; -348.993
791.260;  -79.756; -430.004; -560.994
791.517;  -86.879; -843.003; -788.994
791.773;  -49.152; -379.003; -342.994
792.030; -112.401; -596.003; -660.995
792.286; -111.874; -686.003; -636.995
792.543;  -13.047;  -74.002; -159.995
792.799;  -58.395; -584.002; -382.996
793.055; -152.068;-1179.002;-1210.996
793.312; -103.891; -827.002; -816.997
793.568;  -56.815; -746.002; -599.997
793.824;   12.437; -226.001; -284.997
794.081;   30.664; -447.001; -508.998
794.337;   60.416; -664.001; -561.998
794.593; 1361.693; -319.001; -271.999
794.849; 6495.370; -746.001; -772.999
795.105;  296.496; -270.000; -261.999
795.361;    1.948; -490.000; -457.000
795.617;  -56.200; -875.000; -945.000
795.873;  -49.225; -360.000; -407.000
796.129;  -22.550; -368.000; -306.000
796.385;  -30.300; -124.000; -156.000
796.641;   68.375;  412.000;  550.000
796.897;  -91.175; -666.000; -635.000
797.153;   70.575;  453.000;  357.000
797.409;  -94.275; -785.000; -868.000
797.665;  -59.900; -625.000; -732.000
797.921;  -84.225; -775.000; -762.000
798.176;  -37.750; -744.000; -747.000
798.432;  -54.625; -824.000; -596.000
798.688;  -77.500;-1174.000;-1078.000
798.943;   82.525; -165.000; -147.000
799.199;   -2.925;-1005.000; -959.000
799.455;  230.525;  369.000;  316.000
799.710;  138.900; -813.000; -380.000
799.966;  286.150; -162.000; -160.000
800.221;  499.800; -638.000; -721.000
800.477;10761.975; -743.000; -710.000
800.732; 9197.875; -773.000; -800.000
800.988;  642.975;  205.000;  -19.000
801.243; 1921.275; -454.000; -344.000
801.498; 7964.750; -814.000; -739.000
801.754;  459.250; -289.000; -163.000
802.009;   66.075; -257.000; -335.000
802.264;  -36.300; -967.000;-1033.000
802.520;   27.950;  222.000;   -3.000
802.775;  -40.525; -524.000; -359.000
803.030;   40.825;  395.000;  356.000
803.285; -110.975; -840.000; -903.000
803.540;  -57.525; -686.000; -699.000
803.795;  -42.575; -648.000; -583.000
804.051;  -46.300; -279.000; -346.000
804.306;   31.375;  168.000;  128.000
804.561;  140.100;  451.000;  362.000
804.816;  136.650;  714.000;  861.000
805.071;    1.050; -185.000; -280.000
805.325;  220.775; -257.000; -427.000
805.580; -113.300; -841.000; -877.000
805.835;   -8.725; -204.000; -297.000
806.090;  -82.100; -760.000; -676.000
806.345;   -5.375; -344.000; -264.000
806.600;  -43.000; -549.000; -632.000
806.854;  -28.150; -408.000; -538.000
807.109;  -33.700; -493.000; -577.000
807.364;   12.825; -407.000; -328.000
807.618;   -8.975; -415.000; -381.000
807.873;   49.300; -470.000; -494.000
808.128;   97.425; -257.000; -518.000
808.382;  108.450; -224.000; -332.000
808.637;   74.750; -440.000; -511.000
808.891;  172.875; -257.000; -180.000
809.146;   84.225; -902.000; -794.000
809.400;  267.600; -848.000; -923.000
809.654;  318.950; -779.000; -551.000
809.909;  480.750; -841.000; -927.000
810.163; 6669.050; -813.000; -651.000
810.418;16595.850; -940.000; -861.000
810.672; 1023.500; -685.000; -690.000
810.926;  733.325; -993.000; -973.000
811.180; 1412.775; -439.000; -372.000
811.434;32607.575;  240.000;  135.000
811.689;12602.250; -231.000; -365.000
811.943;  614.425; -936.000; -953.000
812.197;  318.650; -893.000; -671.000
812.451;  135.950; -379.000; -514.000
812.705;  -13.700; -809.000; -619.000
812.959;    2.475; -263.000; -388.000
813.213;  -10.850; -283.000; -209.000
813.467;   67.600;  470.000;  253.000
813.721; -106.775; -764.000; -792.000
813.975; -102.975; -826.000; -877.000
814.229;   38.775;  430.000;  353.000
814.482;  -61.600; -517.000; -566.000
814.736; -124.250; -766.000; -744.000
814.990; -122.500; -779.000; -872.000
815.244;  -38.450; -228.000; -285.000
815.497;  -90.625; -636.000; -601.000
815.751;  -20.575; -141.000;   82.000
816.005;  -80.800; -470.000; -586.000
816.258;  -73.825; -510.000; -363.000
816.512; -101.725; -693.000; -610.000
816.766;    3.350;  121.000;  157.000
817.019;   29.775;  148.000;  149.000
817.273; -120.200;-1000.000; -802.000
817.526;  -22.700; -206.000; -173.000
817.779;  -56.750;-1049.000; -960.000
818.033;  -66.500; -693.000; -807.000
818.286; -135.650; -725.000; -792.000
818.540;  -72.975; -403.000; -403.000
818.793;  -91.425; -402.000; -489.000
819.046;  -94.150; -582.000; -520.000
819.299;  -37.625; -157.000; -166.000
819.553; -116.175; -552.000; -592.000
819.806; -156.950;-1016.000; -838.000
820.059;  -57.375; -334.000; -354.000
820.312;    9.950;  152.000;  185.000
820.565;   -5.025;  110.000;  -27.000
820.818;  -52.875;  -59.000; -173.000
821.071; -147.525;-1041.000; -957.000
821.324; -113.700; -536.000; -540.000
821.577;  -95.750; -457.000; -483.000
821.830;  -73.325; -270.000; -172.000
822.083; -126.100; -733.000; -288.000
822.336;  -57.225; -261.000; -167.000
822.589; -132.150; -805.000; -688.000
822.842; -153.250; -875.000; -770.000
823.094; -173.750;-1076.000;-1114.000
823.347; -135.700; -925.000; -729.000
823.600;   24.950;  402.000;  187.000
823.853;  -65.725; -311.000; -267.000
824.105;  -70.225; -331.000; -575.000
824.358; -112.750; -617.000; -716.000
824.611;   26.350;  234.000;   40.000
824.863;  -58.075; -612.000; -591.000
825.116;   39.000;  -33.000;   27.000
825.368;   74.425; -366.000; -372.000
825.621;  152.350; -186.000; -240.000
825.873;   66.950; -704.000; -737.000
826.126;  605.225; -669.000; -641.000
826.378;11718.175; -389.000; -505.000
826.630; 2708.175; -890.000; -898.000
826.883;   37.350; -754.000; -693.000
827.135;   41.225; -279.000; -270.000
827.387; -112.775; -893.000; -839.000
827.639;  -27.600;  -86.000;   32.000
827.892; -128.600; -742.000; -582.000
828.144; -130.225; -848.000; -804.000
828.396;  -49.225;  104.000;  -80.000
828.648; -107.475; -440.000; -333.000
828.900; -155.125; -702.000; -795.000
829.152; -110.600; -684.000; -683.000
829.404;  -58.850; -215.000; -267.000
829.656;  -41.275;  321.000;  214.000
829.908;  -34.425;  393.000;  229.000
830.160; -169.775;-1064.000;-1047.000
830.412; -111.375; -481.000; -430.000
830.664; -121.800; -557.000; -665.000
830.916;  -88.350; -268.000; -206.000
831.167; -181.075;-1073.000; -951.000
831.419; -119.575; -623.000; -566.000
831.671; -143.900; -764.000; -809.000
831.923;  -91.500; -311.000; -447.000
832.174;  -80.025; -273.000; -331.000
832.426; -123.800; -493.000; -582.000
832.678; -190.650;-1043.000;-1091.000
832.929; -159.675; -947.000; -935.000
833.181;  -54.800; -575.000; -677.000
833.432;  -60.400;  -59.000; -186.000
833.684;  -16.900;  112.000;  -27.000
833.935; -127.200; -610.000; -566.000
834.187; -120.925; -829.000; -823.000
834.438;  -47.225;  -58.000;  -25.000
834.689;  -58.725; -255.000; -123.000
834.941;  -64.600; -343.000; -244.000
835.192;  -95.300; -590.000; -533.000
835.443; -118.350; -419.000; -506.000
835.695;  -11.625;  138.000;  -16.000
835.946;  -90.225; -608.000; -378.000
836.197; -105.675; -599.000; -622.000
836.448;  -85.800; -528.000; -395.000
836.699;  -47.150; -253.000; -341.000
836.950;  -22.100;   72.000;    7.000
837.201; -145.600;-1003.000; -987.000
837.452;  -54.850; -356.000; -170.000
837.703; -100.600; -791.000; -737.000
837.954;  -56.425; -205.000; -365.000
838.205;  -86.250;-1029.000;-1008.000
838.456;  171.175; -196.000; -282.000
838.707;    6.350; -423.000; -519.000
838.958;    2.975; -634.000; -647.000
839.209;  265.075;   18.000;   40.000
839.460;  117.225; -439.000; -201.000
839.710;  165.625; -135.000; -297.000
839.961;  419.950;  730.000;  612.000
840.212;  344.625; -382.000; -497.000
840.462; 1134.700; -328.000; -277.000
840.713;18156.125; -571.000; -536.000
840.964; 6994.950;  -62.000; -143.000
841.214;  503.225; -384.000; -624.000
841.465;  541.250; -214.000; -141.000
841.715;  512.575; -417.000; -380.000
841.966;  632.600; -746.000; -685.000
842.216; 9119.375; -330.000; -431.000
842.466;33595.350; -169.000; -313.000
842.717; 1758.500; -964.000; -952.000
842.967;  285.325; -635.000; -641.000
843.217;  265.100;   20.000;   28.000
843.468;   68.700; -104.000; -132.000
843.718;  -36.750; -718.000; -726.000
843.968;  -90.050; -837.000; -765.000
844.218;   20.225; -315.000; -262.000
844.469;  -58.100; -577.000; -561.000
844.719; -102.900; -537.000; -682.000
844.969; -100.800; -550.000; -580.000
845.219; -148.900; -814.000; -862.000
845.469;  -86.900; -392.000; -342.000
845.719; -128.300; -792.000; -884.000
845.969;  -18.900;  119.000;  174.000
846.219; -118.275; -738.000; -720.000
846.469;   10.350;  464.000;  432.000
846.718;  -49.825; -115.000;   31.000
846.968; -134.000; -827.000; -827.000
847.218;  -37.275; -224.000; -371.000
847.468;   -7.350; -586.000; -555.000
847.718; -139.225; -827.000; -798.000
847.967; -131.750; -826.000; -915.000
848.217;  -87.750; -449.000; -569.000
848.467;  -67.675; -405.000; -376.000
848.716; -119.050; -708.000; -725.000
848.966;   -0.075; -372.000; -358.000
849.215;  -53.575; -428.000; -419.000
849.465;  -93.525; -785.000; -615.000
849.714; -135.725;-1132.000;-1150.000
849.964;  -72.275; -551.000; -613.000
850.213;  -23.150; -393.000; -355.000
850.463;   66.550;  137.000;  340.000
850.712;    2.250; -542.000; -567.000
850.961;   18.275; -739.000; -678.000
851.211;  104.350; -513.000; -504.000
851.460;  166.225; -635.000; -650.000
851.709;  580.025;  -25.000;   18.000
851.958;10532.525; -912.000; -750.000
852.208;12532.375; -859.000; -879.000
852.457;  457.500; -181.000;  -13.000
852.706;   81.075; -791.000; -823.000
852.955;   -8.400; -507.000; -528.000
853.204;  -67.975; -521.000; -461.000
853.453;  -78.200; -418.000; -458.000
853.702; -130.600; -660.000; -750.000
853.951; -113.975; -532.000; -520.000
854.200; -108.600; -613.000; -562.000
854.449; -126.550; -695.000; -661.000
854.698;  -84.250; -340.000; -279.000
854.946;  -76.400; -181.000; -284.000
855.195; -137.550; -843.000; -868.000
855.444; -101.175; -395.000; -420.000
855.693; -110.975; -345.000; -432.000
855.941; -123.650; -387.000; -516.000
856.190;  -62.925; -256.000; -382.000
856.439; -137.150; -652.000; -703.000
856.687;  -51.400;  -99.000;  -72.000
856.936; -125.550; -621.000; -323.000
857.184; -189.000;-1067.000;-1020.000
857.433; -101.850; -423.000; -512.000
857.681; -163.250; -989.000; -953.000
857.930;  -90.300; -282.000; -433.000
858.178; -157.450; -856.000; -929.000
858.427; -152.900; -802.000; -781.000
858.675; -120.525; -377.000; -544.000
858.923; -111.500; -527.000; -819.000
859.172; -177.250;-1094.000;-1070.000
859.420;  -88.775; -339.000; -239.000
859.668; -127.250; -624.000; -628.000
859.916;  -40.175;  109.000;  115.000
860.164; -107.775; -699.000; -603.000
860.413;  269.425; -878.000; -696.000
860.661;  190.650; -709.000; -577.000
860.909;  -77.950; -339.000; -325.000
861.157;  -84.575; -277.000; -444.000
861.405; -144.575; -534.000; -670.000
861.653;    4.600;  310.000;  310.000
861.901;  149.650; -543.000; -613.000
862.149;  -11.550; -801.000; -824.000
862.396;  -79.900; -297.000; -187.000
862.644;  -86.100; -368.000; -347.000
862.892;  -34.925;   98.000;  138.000
863.140; -122.100; -549.000; -530.000
863.388; -168.275; -815.000; -759.000
863.635; -124.400; -642.000; -601.000
863.883;  -27.625;  231.000;  190.000
864.131; -100.175; -288.000; -357.000
864.378; -135.125; -675.000; -540.000
864.626;  -95.900; -347.000; -415.000
864.873; -116.825; -556.000; -505.000
865.121; -136.750; -714.000; -799.000
865.368;  -47.000; -173.000;   75.000
865.616;  -23.600;  -33.000;  -40.000
865.863;  -68.650; -462.000; -506.000
866.111; -110.775; -795.000; -824.000
866.358;   38.850; -426.000; -420.000
866.605; 2394.000;  -64.000; -804.000
866.853; 2338.900; -621.000; -537.000
867.100;  -42.950; -728.000; -775.000
867.347; -103.750; -672.000; -611.000
867.594;  -84.725; -740.000; -714.000
867.841;   62.675;   97.000;   17.000
868.089; -154.350; -746.000; -698.000
868.336; -104.650; -477.000; -420.000
868.583; -131.500; -637.000; -741.000
868.830;  -54.800; -131.000; -170.000
869.077; -165.475; -859.000; -787.000
869.324; -132.250; -502.000; -458.000
869.571; -114.700; -398.000; -430.000
869.818; -121.800; -485.000; -439.000
870.065; -107.075; -439.000; -513.000
870.311; -129.625; -456.000; -542.000
870.558; -103.575; -332.000; -311.000
870.805;  -88.775; -320.000; -384.000
871.052; -111.075; -494.000; -369.000
871.298;  -64.775; -204.000; -131.000
871.545;  -62.825; -151.000; -185.000
871.792;  -93.125; -173.000; -222.000
872.038;  -62.650;   43.000; -126.000
872.285; -121.700; -496.000; -387.000
872.532;  -98.150; -357.000; -387.000
872.778;    7.575;  556.000;  403.000
873.025;  -80.025; -384.000; -359.000
873.271;   13.650;  501.000;  578.000
873.517;  -30.550; -133.000; -209.000
873.764;  -42.950; -193.000;  -80.000
874.010;  -81.575; -143.000; -230.000
874.257;  -49.825;  123.000;   90.000
874.503; -127.525; -579.000; -479.000
874.749;  -72.575;   31.000;  275.000
874.995;  -52.500;  -80.000;  -20.000
875.242; -138.050; -540.000; -478.000
875.488; -107.675; -414.000; -439.000
875.734;  -61.650; -106.000; -234.000
875.980;  181.975; -872.000;-1032.000
876.226;  333.675; -157.000; -255.000
876.472;   -2.400;  343.000;  237.000
876.718;  -32.475;  184.000;  158.000
876.964;  -39.600;   56.000;   55.000
877.210; -172.575; -547.000; -677.000
877.456; -142.425; -630.000; -557.000
877.702; -173.550; -821.000; -832.000
877.948; -114.075; -377.000; -497.000
878.193;    7.500;  361.000;  255.000
878.439;  -93.425; -487.000; -472.000
878.685; -101.475; -272.000; -343.000
878.931; -128.775; -618.000; -676.000
879.176;  -95.450; -201.000; -201.000
879.422; -182.875; -933.000; -820.000
879.668;   52.500;   10.000;   79.000
879.913;  144.875;   53.000;  137.000
880.159;  -60.925; -112.000;  -17.000
880.404;  -57.925; -152.000; -162.000
880.650;  -53.000;   91.000;  141.000
880.895; -168.850; -670.000; -710.000
881.141; -128.875; -454.000; -428.000
881.386; -130.325; -503.000; -658.000
881.631;  -95.225; -311.000; -166.000
881.877;  -29.800;  112.000;  -13.000
882.122; -138.975; -684.000; -600.000
882.367;  -87.225; -136.000; -186.000
882.612;  -82.150;  -80.000; -176.000
882.858; -178.950; -877.000; -823.000
883.103;  -99.375; -297.000; -267.000
883.348; -153.100; -759.000; -852.000
883.593; -146.850; -677.000; -602.000
883.838;  -48.975; -311.000;  -24.000
884.083;   13.075;  353.000;  288.000
884.328; -105.575; -564.000; -545.000
884.573;  -61.250; -196.000; -143.000
884.818;  192.950; -694.000; -531.000
885.063;  155.450; -348.000; -315.000
885.308; -106.375; -475.000; -398.000
885.553;  -15.975;  245.000;  325.000
885.797; -125.175; -545.000; -615.000
886.042;  -70.950;    8.000;   58.000
886.287;  -86.575; -253.000; -211.000
886.532;  -58.925;   26.000;  204.000
886.776;  -87.125; -407.000; -525.000
887.021; -141.550; -621.000; -574.000
887.265; -158.075; -685.000; -689.000
887.510; -145.425; -557.000; -496.000
887.755; -102.400; -194.000; -164.000
887.999; -160.825; -552.000; -575.000
888.244;  -54.025;  -58.000;  161.000
888.488;  -16.225;  371.000;  393.000
888.732; -118.850; -368.000; -520.000
888.977; -136.125; -622.000; -567.000
889.221; -156.400; -683.000; -659.000
889.465; -126.600; -422.000; -566.000
889.710;  -72.275;  -56.000; -299.000
889.954;  -15.850;  579.000;  467.000
890.198; -140.225; -584.000; -707.000
890.442; -162.300; -716.000; -712.000
890.687; -157.425; -800.000; -753.000
890.931;  -90.150; -273.000; -210.000
891.175; -131.225; -502.000; -500.000
891.419;  -81.650; -105.000; -110.000
891.663;  -83.400; -239.000; -112.000
891.907; -176.725; -801.000; -545.000
892.151; -180.675; -920.000; -815.000
892.395; -120.150; -274.000; -387.000
892.638;  -20.050;  408.000;  291.000
892.882; -186.075; -780.000; -867.000
893.126;   21.750;  758.000;  558.000
893.370; -103.875; -167.000; -168.000
893.614; -141.400; -714.000; -715.000
893.857;  -96.000; -183.000; -197.000
894.101; -131.675; -527.000; -631.000
894.345;  -59.525;  300.000;  150.000
894.588;   27.075;  569.000;  380.000
894.832;  -89.075; -178.000;  -84.000
895.075;  -77.100;   15.000;  -92.000
895.319; -137.375; -552.000; -420.000
895.563; -123.325; -413.000; -353.000
895.806; -159.350; -628.000; -741.000
896.049;  -67.825; -576.000; -368.000
896.293;   79.300;  527.000;  405.000
896.536;  -69.925; -465.000; -468.000
896.779;  -71.750; -149.000;   -1.000
897.023; -141.050; -751.000; -714.000
897.266;  -31.525;  325.000;  269.000
897.509; -177.025; -900.000; -901.000
897.752;  -59.925;  149.000;  171.000
897.996; -190.675; -972.000; -864.000
898.239;  -58.875;  168.000;  102.000
898.482; -119.850; -431.000; -453.000
898.725;  -41.250;  101.000;   53.000
898.968; -156.025; -609.000; -744.000
899.211; -118.575; -513.000; -361.000
899.454; -127.300; -633.000; -539.000
899.697;  -72.350;   90.000;  -43.000
899.940; -165.075; -761.000; -757.000
900.182; -103.175; -335.000; -405.000
900.425; -102.725; -150.000; -298.000
900.668;  -12.825;  491.000;  350.000
900.911; -107.700; -292.000; -345.000
901.154;  -64.325;  141.000;   -3.000
901.396; -132.650; -407.000; -412.000
901.639; -133.150; -430.000; -496.000
901.882; -175.225; -790.000; -809.000
902.124;  -89.450;  -29.000; -143.000
902.367; -119.850; -315.000; -361.000
902.609; -151.775; -476.000; -453.000
902.852;  -86.875; -108.000; -260.000
903.094; -137.600; -458.000; -337.000
903.337;  -51.000;  -26.000;   53.000
903.579; -123.675; -228.000; -441.000
903.821; -161.825; -597.000; -744.000
904.064;  -58.100;   85.000;  127.000
904.306; -103.950; -126.000; -166.000
904.548; -103.600; -152.000; -366.000
904.790; -105.850; -195.000; -340.000
905.033; -141.050; -625.000; -577.000
905.275; -137.350; -513.000; -524.000
905.517;   10.000;  468.000;  256.000
905.759;  -87.875; -667.000; -761.000
906.001; -115.525; -322.000; -369.000
906.243;  -61.525; -162.000; -224.000
906.485;   95.175; -265.000; -207.000
906.727;   99.525; -499.000; -542.000
906.969;  -42.625;  -30.000; -135.000
907.211;  116.650; -316.000; -382.000
907.453;  252.725; -188.000; -237.000
907.695;   -9.050; -158.000; -385.000
907.936;   35.025;  818.000;  706.000
908.178;  -46.225;   92.000; -135.000
908.420;  -69.325; -111.000; -162.000
908.662; -140.075; -633.000; -682.000
908.903; -104.125; -208.000; -123.000
909.145;  -62.525; -240.000; -305.000
909.386;   -5.275;  315.000;  280.000
909.628;   38.175;  363.000;  397.000
909.870;  -19.700;   29.000;  264.000
910.111; -102.850; -809.000; -949.000
910.353;    1.975; -123.000; -161.000
910.594;   -5.750; -574.000; -606.000
910.835;   70.525; -265.000; -326.000
911.077;  158.775; -503.000; -604.000
911.318;  283.800; -505.000; -471.000
911.559;  466.325; -577.000; -880.000
911.801; 1337.025; -284.000; -280.000
912.042;10737.250;  -50.000; -159.000
912.283;26941.675;  404.000;  371.000
912.524; 3942.975; -396.000; -457.000
912.765;  477.325; -193.000;   79.000
913.006;  227.725; -307.000; -338.000
913.247;   42.200; -270.000; -290.000
913.488;  -11.100;  -43.000;   30.000
913.729;  -88.550; -373.000; -373.000
913.970;  -63.600;  -96.000; -292.000
914.211;  -76.325; -160.000; -198.000
914.452;  -75.300; -118.000;  -11.000
914.693;   11.475;  510.000;  592.000
914.934;   13.850;  510.000;  440.000
915.175;  -80.250;   53.000;  -95.000
915.415;  -69.325; -137.000;   27.000
915.656;  -74.175;  -28.000;  192.000
915.897;  -87.600; -252.000;  -82.000
916.137;  -76.150;   74.000;   -9.000
916.378; -143.200; -573.000; -517.000
916.619;  -93.875; -159.000;  -63.000
916.859;  -31.600;  303.000;  330.000
917.100;  141.825; 1655.000; 1070.000
917.340;   46.100;  930.000;  728.000
917.581;   38.525;  965.000;  789.000
917.821;  -32.200; -171.000;  143.000
918.061;   -1.350; -199.000;  -72.000
918.302;  -45.050; -152.000; -211.000
918.542;  -31.500;  -22.000;    3.000
918.782;   28.625;  369.000;  377.000
919.023;  125.150;  360.000;  427.000
919.263; 1369.650; 8131.000;  202.000
919.503; 1077.150; -137.000;  -54.000
919.743;  613.500;  390.000;  266.000
919.983;  228.400; -134.000;  -26.000
920.223;   69.225;  135.000;   14.000
920.463;  140.225;  631.000;  554.000
920.703;  146.550;   84.000;   39.000
920.943;  158.450; -110.000;   90.000
921.183;  229.450; -414.000; -405.000
921.423;  507.150;  307.000;  546.000
921.663;  734.725; -174.000; -257.000
921.903; 1621.800;  237.000;  173.000
922.143; 9037.950;  372.000;  389.000
922.383;34100.800;  158.000;  115.000
922.622;11123.125; -120.000;  -15.000
922.862; 1199.950;  796.000;  785.000
923.102;  485.975;  -51.000;   33.000
923.341;  187.275;   59.000;   74.000
923.581;   74.225;  450.000;  360.000
923.821;   22.375;  301.000;  398.000
924.060;    0.875;  351.000;  193.000
924.300;  -67.175;  -16.000; -128.000
924.539;   -8.300;  584.000;  473.000
924.779;   -1.700;  812.000;  597.000
925.018;  -43.250;  247.000;  353.000
925.257;  -10.625;  595.000;  666.000
925.497;  -32.725;  447.000;  412.000
925.736;  -81.800;  -35.000;  102.000
925.975;   -0.450;  687.000;  669.000
926.214;   13.450;  907.000;  850.000
926.454;   25.475;  706.000;  757.000
926.693;  -37.025;  419.000;  543.000
926.932;   50.025; 1021.000;  825.000
927.171;   71.175; 1107.000; 1044.000
927.410;   52.500; 1144.000;  967.000
927.649;   26.500;  924.000;  742.000
927.888;   -4.025;  590.000;  564.000
928.127;  -24.425;  680.000;  678.000
928.366;   41.575;  842.000;  826.000
928.605;   34.475;  831.000;  737.000
928.844;  262.025; 1451.000; 1393.000
929.083;  600.075;  770.000;  613.000
929.321;  314.100; 1335.000; 1359.000
929.560;   94.925; 1158.000; 1122.000
929.799;  -21.975;  574.000;  475.000
930.038;   99.150; 1025.000; 1394.000
930.276;  -43.225;  334.000;  397.000
930.515;    0.450;  827.000;  681.000
930.753;  -27.625;  614.000;  589.000
930.992;  -23.425;  664.000;  717.000
931.230;   -1.975;  847.000;  847.000
931.469;  183.550; 2162.000;  892.000
931.707;   73.175;  840.000;  751.000
931.946;   49.600; 1278.000; 1344.000
932.184;   76.225; 1437.000; 1175.000
932.423;   48.825; 1265.000;  963.000
932.661;  102.775; 1296.000; 1428.000
932.899;   23.700;  987.000;  821.000
933.137;   10.900;  754.000;  564.000
933.376;  141.350; 1664.000; 1335.000
933.614;  164.625; 1759.000; 1196.000
933.852;   51.075; 1357.000; 1171.000
934.090;  162.800; 1722.000; 1747.000
934.328;   97.875; 1252.000; 1457.000
934.566;  107.525; 1431.000; 1110.000
934.804;  121.975; 1263.000; 1309.000
935.042;  487.250; 1861.000; 1850.000
935.280; 1909.725; 2088.000; 2063.000
935.518; 1755.500; 2113.000; 2007.000
935.756;  366.150; 2481.000; 2316.000
935.994;  177.625; 1808.000; 1751.000
936.231;  346.625; 2890.000; 2950.000
936.469;  196.625; 2367.000; 2378.000
936.707;  153.550; 2220.000; 2167.000
936.945;  235.900; 2825.000; 2882.000
937.182;  201.250; 2679.000; 2741.000
937.420;  315.025; 3602.000; 3031.000
937.657;  395.125; 3365.000; 3478.000
937.895;  361.825; 3331.000; 3488.000
938.133;  311.750; 3540.000; 3528.000
938.370;  345.925; 3896.000; 4191.000
938.607;  396.900; 4488.000; 4205.000
938.845;  533.425; 5587.000; 5549.000
939.082;  470.800; 5387.000; 5177.000
939.320;  545.750; 5799.000; 5728.000
939.557;  644.525; 6549.000; 6491.000
939.794;  724.450; 7285.000; 7097.000
940.031;  916.450; 8421.000; 8368.000
940.269; 1117.575; 9552.000; 9107.000
940.506; 1102.375;10901.000;10507.000

