
Integration time [ms]: 100.000
Averaging Nr. [scans]: 40
Smoothing Nr. [pixels]: 0
Data measured with spectrometer [name]: 2101013U2
Wave   ;Sample   ;Dark     ;Reference
[nm]   ;[counts] ;[counts] ;[counts] 

394.013;   41.522; -450.257; -315.536
394.305;  186.745; -461.258; -419.536
394.596; 1103.142; -676.269; -527.514
394.887; 2750.733; -796.268; -654.518
395.178; 1058.289;  145.736;   11.476
395.470;   94.575; -210.263; -356.526
395.761;  174.123;  305.734;  394.479
396.052;  263.141; -545.284; -306.489
396.343;  251.786; -557.276; -454.503
396.634;  103.680; -200.279; -290.497
396.926;  110.881; -618.268; -565.517
397.217;  104.916;   11.725;  -17.504
397.508;   47.532; -366.273; -154.507
397.799;   38.755; -555.279; -571.497
398.090;  -10.851; -973.280; -902.495
398.381;  106.916;   11.708;  -11.473
398.672;  -13.307; -585.292; -742.473
398.963;   52.161; -348.279; -373.498
399.254;  101.452;   54.709; -209.475
399.545;  -25.005;-1017.266; -883.520
399.836;   59.300; -407.277; -343.501
400.127;   50.618; -205.295; -209.468
400.418;   53.676; -423.274; -392.506
400.709;   47.236; -359.281; -333.493
401.000;   42.806; -268.291; -309.476
401.290;   91.404;  225.698;  115.545
401.581;   58.924; -166.286; -228.485
401.872;    1.865; -542.298; -486.462
402.163;   58.810; -313.296; -252.467
402.454;   93.477; -123.291; -163.475
402.744;   77.202; -844.297; -813.465
403.035;  404.558; -226.293;  -86.471
403.326;  530.570; -366.292; -384.474
403.617;  376.309;  204.701;  165.539
403.907;  256.047; -593.283; -679.490
404.198; 2427.033; -545.307; -599.446
404.489; 6294.777; -618.283; -588.491
404.779; 2094.958; -618.302; -660.456
405.070;  227.511;  -67.304; -174.451
405.360;  337.785; -259.293; -238.472
405.651;  377.419;  125.699;   98.542
405.942;  178.419;  209.714;  127.516
406.232;  236.859; -432.285; -413.487
406.523;  437.428;  641.706;  758.530
406.813;   75.772; -579.286; -644.484
407.104;  317.665;  261.708;  144.527
407.394;  154.210; -604.299; -591.462
407.685;  157.333;  336.715;  222.513
407.975;   43.626; -400.283; -382.490
408.265;  120.592; -134.289; -190.478
408.556;   61.424; -472.291; -459.475
408.846;  157.028;  474.706;  429.530
409.137;   77.925;   -1.288; -216.480
409.427;   46.584; -193.285; -271.487
409.717;   22.935; -776.273; -692.508
410.007;  141.627;    4.715; -170.486
410.298;   92.445; -360.295; -342.469
410.588;   75.256; -495.285; -510.486
410.878;   28.136; -792.287; -873.482
411.168;  109.767; -481.298; -478.463
411.459;  123.545; -295.283; -242.489
411.749;   45.398; -609.292; -507.474
412.039;   41.348; -755.289; -386.480
412.329;  192.768;   40.722;  132.501
412.619;  193.322;  -62.286; -148.485
412.909;  376.420;  639.711;  594.521
413.199;  321.375; -130.280; -251.495
413.490;  401.585;  521.710;  352.523
413.780;  137.404;-1013.279; -913.496
414.070;  317.587;  -46.276;  235.497
414.360;  355.014; -729.278; -666.498
414.650;  407.382; -726.288; -688.482
414.940;  536.878; -538.280; -441.496
415.230;  916.729;   50.712;   74.519
415.520; 6112.941;  155.730;   66.486
415.809;24136.686; -305.281; -125.493
416.099;18808.078; -388.277; -229.501
416.389; 5288.424;  435.726;  236.494
416.679; 3117.929;   91.738;   85.473
416.969;  534.616; -527.287; -503.483
417.259;  473.055;  341.721;  171.503
417.549;  691.235;  522.718;  318.508
417.838; 1688.308; -205.268; -147.518
418.128; 5598.115;  650.710;  492.522
418.418; 4683.241; -491.272; -579.509
418.708; 3141.574;    9.726;  -48.506
418.997;11783.145; -474.275; -480.505
419.287;12390.631; -733.273; -790.507
419.577;11729.670; -160.283; -123.489
419.866;38558.675; -588.277; -498.501
420.156;39578.412; -242.270;  -55.513
420.446; 7119.971; -112.263;  -26.526
420.735;  828.531; -376.271; -446.512
421.025;  842.214; 1830.722;  315.502
421.314;  652.979; -203.271; -226.512
421.604; 1300.950;   89.732;  233.484
421.893;  739.650; -705.271; -602.511
422.183;  226.021; -487.263; -461.526
422.472;  378.402;  -36.271; -107.511
422.762;  443.901; -416.266; -379.521
423.051;  248.338; -916.276; -916.503
423.341;  312.533; -491.273; -439.507
423.630;  408.232; -121.265;   15.477
423.919;  382.519;   58.725;   49.495
424.209;  371.552;  -31.263;   56.473
424.498;  503.455;   68.732;  161.483
424.787; 1105.411; -535.267; -601.518
425.077; 3361.505;   34.735;   29.478
425.366; 4621.732; -734.262; -744.528
425.655;10028.858;  639.727;  259.493
425.945;22276.936; -313.247; -268.554
426.234;12363.130;  117.741;  300.467
426.523; 5111.910;  -86.259; -350.534
426.812; 7029.096;  107.734;  159.480
427.101;10353.872; -127.269; -323.515
427.390;13053.016;  -55.270;  -86.514
427.680; 2868.505; -624.257; -411.538
427.969;  476.766; -330.255; -301.540
428.258;  311.046; -385.257; -477.536
428.547;  528.495;  449.728;  397.490
428.836; 1162.182; -421.253; -398.543
429.125; 1674.737; -199.259;  -72.534
429.414;  788.404; -330.251; -294.548
429.703; 3158.954; -231.251; -213.548
429.992; 9491.658; -938.250; -828.549
430.281; 6239.464; -397.264; -331.524
430.570;  552.945;  -21.252;   32.454
430.859;  516.435;  279.741;  352.466
431.148;  429.232;  636.752;  631.446
431.437;  289.119;  391.748;  367.454
431.725;  148.398; -544.257; -481.536
432.014;  124.739; -845.253; -756.545
432.303;  367.208; -149.239; -105.569
432.592;  591.071; -460.263; -178.525
432.881; 1043.533; -601.248; -437.554
433.169; 6292.841; -343.255;  -61.540
433.458;12792.741;  445.765;  540.424
433.747; 5334.513; -397.261; -289.529
434.036;  876.333; -275.242; -280.564
434.324; 2080.045; -395.249; -379.551
434.613; 3678.377;   40.757;  159.437
434.902; 1208.773;  333.760;  439.433
435.190;  502.381;   75.761;  295.431
435.479;  291.609;  -52.245;   83.441
435.767;  102.367; -411.244; -427.561
436.056;  211.229; -340.242; -294.563
436.345;  378.175; -372.240; -223.568
436.633;  388.341;   60.750;  383.450
436.922;  226.177;  208.760;  414.432
437.210;  524.881; -194.236;    1.426
437.499; 1653.489; -583.235; -432.576
437.787; 1853.956; -339.236;  -10.574
438.075;  470.187;   56.761;  162.430
438.364;  654.064;  -44.238;  250.429
438.652;  377.569; -286.226; -138.592
438.941;  129.458;    3.770;  269.415
439.229;   -5.233; -665.252; -466.545
439.517;   29.673; -160.234;  -85.577
439.806;  -17.215; -501.225; -290.595
440.094;  167.355;  377.766;  650.421
440.382;  150.259; -653.233; -302.580
440.670;  177.614; -361.235; -285.576
440.959;   14.027; -347.223; -170.599
441.247;   72.620; -151.229; -109.587
441.535;   90.021; -266.235;   31.423
441.823;   29.003; -497.234; -305.578
442.111;  175.949;  173.771;  327.412
442.400;  475.033; -628.245; -335.559
442.688; 1235.805; -111.234; -620.579
442.976;  866.765; -786.213; -450.617
443.264;   96.141; -324.224; -364.597
443.552;   88.895; -258.226;   51.408
443.840;  144.695;  602.765;  876.423
444.128;  108.108;  265.767;  269.420
444.416;   -2.799; -694.228; -312.588
444.704;   11.982; -465.219;  -92.605
444.992;   63.323;   -0.226;  240.407
445.280;   33.784; -517.230;  -94.585
445.568;   29.593; -694.212; -396.618
445.856;  328.741; -174.221;  357.398
446.143;  659.028;  -54.220;   -7.604
446.431;  572.480;  -25.228;  625.411
446.719;  230.351;  489.783;  675.391
447.007;  166.503;  481.769;  705.416
447.295;  177.099;  597.777;  871.402
447.583;   78.467; -464.229;  -34.587
447.870;  136.638; -434.221; -202.601
448.158;  370.508; -104.230;  129.415
448.446;  296.229; -800.219; -338.604
448.733;  160.493;   13.776;  269.403
449.021;  230.618;   60.788;  341.382
449.309;  180.683; -296.210;  208.379
449.596;  221.997;  128.783;   59.392
449.884;  146.131; -571.222; -325.600
450.172;  160.810; -756.227; -406.590
450.459;  436.173;  645.786;  780.387
450.747; 2457.896; -411.218; -147.608
451.034; 7810.856;  493.772;  889.411
451.322; 6455.901; -413.214; -170.614
451.609;  534.594;  292.777;  508.403
451.897;  584.896; -550.203; -183.634
452.184; 1809.774; -622.223; -400.598
452.472; 1728.954;   97.792;  269.375
452.759;  338.805;  512.781;  864.395
453.047;  100.340; -407.212; -125.617
453.334;   66.112; -732.219; -216.606
453.621;   59.928; -438.214; -161.615
453.909;  124.688;   13.796;  384.368
454.196;   90.333; -299.199; -123.641
454.483;  191.559;  317.798;  540.364
454.771;  131.682; -215.208;  196.374
455.058;   46.710; -316.207;  102.374
455.345;   93.788;   71.807;  344.347
455.632;   84.064; -128.207;  235.373
455.919;   51.505;  -82.196;  182.354
456.207;  -59.488; -774.198; -450.642
456.494;  -12.954; -475.200;  -66.639
456.781;   18.979; -399.202; -198.635
457.068;   48.745; -253.206;  -29.628
457.355;  -27.754; -698.206; -401.629
457.642;   -5.698; -552.205; -290.630
457.929;   -7.646; -778.194; -417.651
458.216;   64.441; -575.212; -354.617
458.503;  242.009; -173.193;  -19.652
458.790;  241.930; -864.208; -630.625
459.077;  280.634;  -77.202;  110.364
459.364;  812.497; -350.195; -210.649
459.651; 1725.943;  -46.206;  220.372
459.938;  787.420; -864.209; -665.623
460.225;  130.712;  132.799;  276.363
460.512;  -59.797; -836.197; -688.645
460.799;  110.869;  -32.218;  320.392
461.086;   62.600; -370.200; -251.640
461.372;   35.013; -509.198; -279.642
461.659;   97.357; -165.196;  108.354
461.946;   59.132; -445.193;  -54.651
462.233;  231.623;  842.800;  888.361
462.519;  328.070; -814.201; -464.639
462.806; 1015.478; -768.197; -497.645
463.093;  882.053; -445.191;  -66.656
463.380;  -35.906; -920.186; -824.664
463.666;   51.030; -259.197;  -18.646
463.953;   95.817; -406.195; -243.648
464.239;  186.442; -173.195;  -77.648
464.526;  389.328;  413.806;  743.350
464.813;  316.590; -565.190; -304.658
465.099;  337.133;  606.807;  607.348
465.386;  304.662;  903.807;  921.348
465.672;    7.353; -694.197; -522.645
465.959;    6.507; -598.188; -520.662
466.245;    0.137; -468.193; -359.652
466.532;   91.565; -109.195;   63.352
466.818;   61.819; -357.186; -216.664
467.104;  -10.816; -488.182; -415.672
467.391;  -13.359; -628.189; -459.658
467.677;   36.247; -289.186;    9.335
467.964;  -11.477; -682.189; -471.660
468.250;   52.350; -331.186; -160.665
468.536;   84.593;   90.811;  180.341
468.822;  -43.963; -821.184; -574.668
469.109;  145.539;  351.827;  471.311
469.395;  185.772;  729.808;  787.346
469.681;  192.921;   46.811;  156.341
469.967; 1242.800; -699.188; -382.660
470.254; 2711.583; -494.188; -306.662
470.540; 1787.205; -601.196; -476.646
470.826;  250.170; -488.181; -397.675
471.112;  306.316;  288.816;  113.331
471.398;   83.395; -253.183;  -58.670
471.684;   23.323; -626.177; -447.680
471.970;   -5.876; -918.180; -981.675
472.256;   19.696; -521.192; -441.654
472.542;   10.350; -499.171; -434.691
472.828;   -0.245; -743.182; -607.672
473.114;   17.469; -380.166; -283.700
473.400;    0.715; -504.175; -293.684
473.686;   11.800; -452.166; -400.701
473.972;   59.454; -230.174; -131.687
474.258;  -41.035; -925.173; -843.689
474.544;  201.715; -183.178;   -2.679
474.830;  297.466;  -65.175;   45.316
475.116;  497.216; -123.190; -196.658
475.401;  679.376; -558.180; -467.676
475.687;  187.575; -725.180; -718.676
475.973;   -6.737; -673.181; -770.673
476.259;  240.019;  736.825;  764.315
476.544;  370.206; -539.176; -437.682
476.830;  843.596; -398.172; -322.690
477.116;  722.930; -430.177; -336.682
477.401;  136.526;  346.820;  358.324
477.687;  -26.785; -289.175; -405.684
477.973;   42.441;   21.819;   28.326
478.258;   -0.530; -448.163; -348.706
478.544;   53.855;   21.815;   61.334
478.829;  -62.794; -818.171; -738.692
479.115;  -42.804; -749.172; -651.690
479.401;  -20.400; -444.174; -449.686
479.686;   31.724; -253.180;  -74.676
479.972;  -38.630; -886.178; -776.680
480.257;   24.245; -258.166;  -65.700
480.542;  -18.190; -614.170; -469.693
480.828;  227.088; 1288.824; 1392.317
481.113;  -43.189; -464.176; -426.683
481.399;   -0.656; -236.161; -202.711
481.684;  -58.055; -620.166; -462.700
481.969;   23.458; -158.159;  -73.713
482.255;  -10.780; -439.169; -285.695
482.540;   -3.805; -569.178; -441.680
482.825;   20.139; -395.187; -404.663
483.110;   91.574;  -85.169; -105.696
483.396;  194.679; -840.157; -652.718
483.681;  511.529;  543.826;  730.313
483.966;  167.127; -696.160; -700.712
484.251;   -0.222; -404.174; -310.687
484.536;    6.730; -356.165; -378.703
484.822;   19.756; -205.173; -218.687
485.107;  -36.033; -599.152; -502.726
485.392;  130.361;  662.836;  541.296
485.677;   72.058;  354.832;  163.302
485.962;   90.277;  160.843;  270.283
486.247;   87.678;  -14.162;   -8.707
486.532;   40.571; -178.166; -325.701
486.817;  155.814;  381.839;  431.291
487.102;  126.150; -453.154; -514.722
487.387;  687.556; -637.156; -652.718
487.672; 1219.366; -154.164;  -38.705
487.957;  769.596; -394.160; -286.711
488.241;  208.934; -290.150; -314.729
488.526;  780.894; -280.152; -148.726
488.811; 1238.697; -881.177; -818.680
489.096;  934.203; -666.154; -702.723
489.381;  504.865;    3.847;  162.275
489.666;  385.369; -428.161; -510.710
489.950;  179.581;  558.846;  627.277
490.235;  -28.971; -480.151; -458.728
490.520;  -44.507; -756.161; -723.710
490.804;  -57.767; -827.156; -736.719
491.089;   -2.150; -469.149; -299.732
491.374;   36.540; -132.164;  -75.704
491.658;  -18.214; -817.147; -717.735
491.943;  153.548; -657.152; -609.727
492.227;  245.496; -178.155;  -38.721
492.512;   49.151; -294.157; -341.717
492.797;  -74.157; -713.149; -716.731
493.081;  -75.686; -588.147; -598.735
493.366;  -36.655; -751.161; -635.711
493.650;  213.892;  831.859;  917.254
493.935;   30.385; -648.147; -447.734
494.219;  -39.571; -778.142; -687.743
494.503;  -45.787; -585.150; -487.730
494.788;   63.318;   46.842;   74.285
495.072;  110.685;  184.850;  434.271
495.356;  175.128; -463.148; -343.733
495.641;  459.795; -812.146; -736.736
495.925;  417.788; -976.156; -903.719
496.209;   23.424; -599.149; -451.732
496.494;  -57.420; -763.142; -544.744
496.778;    5.525; -364.154; -360.722
497.062;  -57.513; -819.156; -627.719
497.346;  -33.402; -869.160; -640.711
497.631;  143.056;  580.852;  560.266
497.915;   72.406;  -64.145;  175.261
498.199;   43.529; -341.157; -277.718
498.483;   15.442; -562.152; -508.725
498.767;  196.311;  301.850;  300.271
499.051;  196.222; -126.149; -100.732
499.335;   32.470; -693.149; -739.731
499.619;  -22.507; -381.129; -423.767
499.903;    4.795; -272.155;  -65.721
500.187;   22.982; -588.153; -316.724
500.471;   15.722; -796.152; -595.727
500.755;  101.343;   62.839;  -96.710
501.039;   11.045; -270.155; -357.721
501.323;   74.593;  -21.141;  264.254
501.607;   17.446; -447.163; -503.706
501.891;   -6.744; -607.156; -512.718
502.174;  -18.083; -726.144; -585.741
502.458;   68.776;   89.849;  370.273
502.742;   40.717; -180.138; -191.751
503.026;   98.785; -412.147; -254.734
503.310;  179.857; -437.159; -375.713
503.593;  124.737; -464.147; -325.735
503.877;  105.282; -232.133; -156.760
504.161;  175.985;    2.847;  -50.724
504.444;  138.995; -841.158; -710.716
504.728;  478.239; -487.164; -522.704
505.012;  725.058; -257.150;  -76.729
505.295;  567.369; -417.161; -212.711
505.579;  538.662; -256.156; -496.719
505.862;  772.977; -555.145; -333.738
506.146;  765.059; -681.159; -758.714
506.429;  421.859;  568.841;  461.286
506.713;   45.980; -732.151; -667.728
506.996;  320.900;   90.846;  295.278
507.280;  354.759; -633.165; -474.703
507.563;  258.968; -469.155; -261.721
507.847;   97.608; -423.153; -112.724
508.130;   93.620; -665.161; -456.711
508.413;  123.466; -758.167; -577.700
508.697;  252.166; -151.167;   12.300
508.980;  137.985; -422.153; -312.724
509.263;    3.340; -466.155; -450.720
509.547;   28.258; -124.150;   82.271
509.830;   41.447; -172.160;  140.289
510.113;   80.387;  128.844;  298.281
510.396;   26.990; -530.152; -300.725
510.680;  137.203; -818.145; -812.738
510.963;  553.079;  184.846;  180.277
511.246;  460.416; -493.150; -357.730
511.529;  260.233; -482.145;  -83.739
511.812;  380.754; -250.134;   10.241
512.095;  254.252; -740.151; -396.728
512.378;   75.266; -317.147; -245.736
512.661;   26.675; -703.137; -623.753
512.944;   29.181; -750.142; -637.744
513.227;   70.347; -170.137; -171.752
513.510;   21.217; -479.144; -671.741
513.793;   32.698; -485.140; -435.747
514.076;  130.813;  -43.127;  -39.771
514.359;  120.875; -294.149; -135.732
514.642;   76.184; -442.142; -567.744
514.925;  768.996;  581.860;  561.253
515.208; 1051.600; -498.134; -443.758
515.491;  702.164; -276.133; -182.761
515.773;  385.921; -410.143; -337.742
516.056; 2183.231;  249.864;  409.246
516.339; 2886.685; -754.136; -652.755
516.622; 1886.588; -518.150; -488.730
516.904; 1143.303;  882.857;  975.257
517.187;  535.021; -730.138; -523.752
517.470;  380.376; -568.143; -510.743
517.752;  441.838; -624.136; -470.756
518.035;  363.058; -708.139; -725.749
518.318;  394.060; -799.136; -744.755
518.600; 2517.318; -300.132; -325.762
518.883; 3436.258;  310.858;   88.256
519.165; 1656.414; -585.138; -426.751
519.448;  393.892;  -61.132;  -19.762
519.730;  187.121; -573.126; -415.773
520.013;  304.985;  588.867;  664.240
520.295;  768.331;  -94.134;  -15.759
520.578; 1678.855; -335.131; -305.764
520.860; 1895.718; -254.132;   56.238
521.143; 1019.615; -763.135; -584.756
521.425;  477.334; -251.125; -279.775
521.707;  708.289; -622.127; -380.771
521.990; 1810.364; -199.127;  167.229
522.272; 2088.474; -116.140;   -4.748
522.554;  920.921; -237.143; -157.742
522.836;  356.904;  -24.134;   99.241
523.119;  222.909; -496.148; -189.734
523.401;  158.712; -448.130; -314.766
523.683;   96.600; -865.137; -693.753
523.965;  297.219;  408.862;  260.248
524.247;  284.205;   54.878;  170.220
524.529;  206.606; -451.134; -367.759
524.812;  371.039;   -3.130;  191.234
525.094;  889.568; -773.138; -631.751
525.376; 1436.468; -143.124;   78.223
525.658;  858.432; -441.136; -339.754
525.940;   39.152; -805.131; -671.764
526.222;   40.336; -188.136;  -88.755
526.504;  117.325; -190.131;   32.237
526.786;  177.658; -960.133; -647.760
527.068;  296.273; -124.123;  -67.778
527.349;  124.404; -865.137; -774.754
527.631;  130.392; -137.132;   22.238
527.913;  143.513; -664.127; -450.771
528.195;  160.602; -761.125; -639.774
528.477;  251.451;  -93.134;  -30.758
528.759;  161.964; -648.130; -522.766
529.040;   63.622; -569.123; -293.778
529.322;   45.779; -235.125;  -10.774
529.604;  138.141;  -47.130;   93.233
529.886;  133.195; -546.126; -302.773
530.167;  105.833;  232.870;  192.235
530.449;   58.815;    1.853;   63.265
530.731;   23.304; -572.122; -459.779
531.012;   72.825; -513.120; -216.784
531.294;   83.889; -118.116;  -43.792
531.575;  164.959;  290.875;  538.225
531.857;   65.370; -548.135; -266.757
532.138;   93.167; -113.141;   40.254
532.420;  178.042;  294.865;  403.244
532.701;  204.060; -722.133; -751.760
532.983;  325.213;  232.867;  182.239
533.264;  102.594; -243.126;  175.228
533.546;  -35.464; -491.136; -508.755
533.827;   38.132;  173.867;   -1.759
534.109;   27.095; -352.135;  -80.757
534.390;   86.371; -725.132; -582.762
534.671;  233.691; -270.135;  -82.756
534.953;  132.375; -751.123; -611.779
535.234;   23.324; -426.117; -255.789
535.515;  -89.167; -891.119; -735.785
535.796;   -3.691; -431.128; -193.770
536.078; -122.858;-1050.124; -904.777
536.359;    5.825;  -22.123;    3.221
536.640;  -16.147; -480.125; -197.774
536.921;  161.946;  225.871;  143.232
537.202;  383.565;  -87.138;  -16.751
537.483;  473.705;  251.869;  377.236
537.764;  177.608;   17.870;   98.235
538.045;  -37.650; -543.134; -371.758
538.326;  -33.152; -596.129; -447.768
538.607;   17.015; -686.127; -476.771
538.888;  178.591;   98.879;    5.218
539.169;  182.410; -704.122; -535.781
539.450;  338.470;  236.871;   16.233
539.731;  213.595; -361.121; -182.783
540.012;  132.100;  199.880;  412.216
540.293;   82.487;   82.876;  158.224
540.574;    8.084; -895.113; -717.796
540.855;  456.268;  435.879;  377.218
541.136;  522.083;   47.878;  139.220
541.416;  281.590; -161.130; -220.766
541.697;  203.825; -274.131; -170.763
541.978; 1083.994; -270.135; -315.757
542.259; 1358.939; -211.127; -236.771
542.539;  662.257; -191.116; -186.790
542.820;  198.858;  461.875;  480.225
543.101;  125.330;  -52.145;  -77.738
543.381;   18.639; -638.127; -591.771
543.662;  272.737;  159.873; -254.771
543.942;  617.185; -751.127; -830.770
544.223; 1104.684;  193.878;  161.219
544.504;  720.417; -275.124; -182.777
544.784;  590.120; -592.126; -408.773
545.065; 1686.686;  104.884; -254.791
545.345; 2005.508;  227.881;   14.215
545.626; 1335.958;  -14.113; -108.796
545.906;  933.307;   77.869;   98.235
546.186;  386.000;   92.874;  -95.773
546.467;  202.745;   99.877;  -95.778
546.747;  332.482;  264.884;  327.210
547.027;  385.441;   91.876;  111.223
547.308;  339.534; -376.127; -530.770
547.588;  403.074;  299.871;  371.232
547.868;  205.184;  458.870;  588.235
548.149;  209.819;  609.885;  593.207
548.429;  138.888; -347.127; -299.771
548.709;  206.849; -645.120; -461.784
548.989;  498.868;   84.882;   88.213
549.269; 2200.091;   10.868;  139.239
549.550; 5005.774;  215.877;  117.222
549.830; 4481.676; -758.111; -556.799
550.110;  879.359; -468.110; -320.801
550.390;  851.179; -128.122;  -56.779
550.670; 1175.479; -868.114; -783.795
550.950;  848.618; -509.121; -471.782
551.230;  189.764;  549.879;  460.218
551.510;    3.392; -381.121; -326.782
551.790;   44.592; -173.109; -127.803
552.070;  288.170;  940.877; 1181.223
552.350;  425.087; -492.119; -377.786
552.630;  599.812;   -2.121;   77.219
552.909;  369.412;  181.884;   73.209
553.189;  240.122;  -49.132;   33.237
553.469;  183.762; -703.119; -514.786
553.749;  186.591; -469.127; -357.772
554.029;  157.153;   33.883;  -24.790
554.308;  139.473; -154.115;  -37.794
554.588;   75.158; -196.128; -204.770
554.868;   66.469; -366.121;  -47.782
555.147;  164.145; -114.115;  -46.793
555.427;  620.839; -260.116; -250.792
555.707; 4031.118; -284.115; -200.793
555.986; 4883.380; -719.111; -538.800
556.266; 2588.881;   23.884;   72.210
556.546;  130.942; -888.121; -675.782
556.825;  240.052; -657.114; -556.794
557.105; 1873.231; -125.128;   17.230
557.384; 2157.336;  122.884;  187.209
557.664;  843.763; -717.116; -508.792
557.943;  106.843; -557.121; -411.782
558.222;  189.546; -345.118; -344.788
558.502;  279.496; -116.115;  -76.793
558.781;  514.117;  194.885;  499.208
559.061;  414.170; -232.118; -227.788
559.340;  318.575;  302.883;  353.211
559.619;  736.281;   93.884;  148.210
559.899; 1073.002; -239.117; -266.789
560.178;  963.921; -778.115; -593.793
560.457; 3246.704; -623.117; -562.790
560.736; 4543.381; -472.111; -482.800
561.015; 3039.129; -500.128; -502.769
561.295;  398.261;  180.893;  215.193
561.574;  348.368;  119.885;  116.207
561.853;  509.771;  274.891;  303.197
562.132;  504.198;  -45.114;  182.206
562.411;  442.662;  396.879;  553.219
562.690;  146.017; -592.115; -458.792
562.969;  150.241;  472.888;  630.203
563.248;  497.835; 2966.878; 2487.219
563.527;  286.855; -290.111; -408.800
563.806;  407.663; -650.127; -521.771
564.085;  431.451; -297.105; -206.810
564.364;  258.105; -594.117; -405.790
564.643;  524.538; -276.121; -223.781
564.922; 1957.065;  221.890;  397.198
565.201; 1961.293; -640.109; -700.803
565.479;  851.540; -297.115; -219.792
565.758;  325.281; -810.128; -712.770
566.037;  481.520; -155.109; -100.803
566.316;  242.886; -286.116;  -28.791
566.595;   42.368;  -17.115;  -12.793
566.873;   96.382; -166.111;  -79.801
567.152;  -52.760; -490.113; -590.797
567.431;   -3.268; -113.116;    6.210
567.709;   12.587; -344.107; -212.807
567.988;  274.452; -810.114; -769.794
568.266;  537.343; -160.115;  -68.793
568.545;  416.248; -644.100; -514.819
568.824;  605.240;  160.885;  356.208
569.102;  587.051; -351.114; -235.794
569.381;  237.464; -492.116; -407.792
569.659;  -42.764; -553.113; -553.796
569.938;   36.683; -743.122; -465.780
570.216;  113.097; -225.109; -225.804
570.494;  -16.095; -632.114; -572.795
570.773;   37.891;  202.879;  114.218
571.051;   -1.127; -373.123; -357.778
571.330;   58.859; -221.113; -174.796
571.608;   45.591; -181.098; -173.823
571.886;  -60.976; -671.111; -581.799
572.164;  -69.331; -739.121; -621.782
572.443;  -48.045; -562.105; -512.811
572.721;  -37.296; -399.117; -289.790
572.999;  -24.027; -280.117; -168.788
573.277;  101.799;  379.894;  620.191
573.555;  290.226;   94.894;   37.190
573.834; 1408.347;  -86.117; -114.788
574.112; 1625.864;  880.893;  811.193
574.390;  510.281; -143.111;  -96.801
574.668;    3.941;  -91.112;  -61.797
574.946;  -24.724; -165.106; -187.810
575.224;   14.818;   71.891;  -16.803
575.502;  -36.566; -200.116; -204.791
575.780;  -87.733; -767.112; -829.798
576.058;  202.630; 1589.889; 1004.200
576.336;  -35.164; -210.110; -129.801
576.614;  -70.207; -511.112; -340.798
576.891;   50.072; -711.115; -823.794
577.169;  507.405; -158.108; -285.805
577.447;  603.338;  169.893;  202.193
577.725;  268.272;  629.888;  854.201
578.003;    2.745;  -71.112; -371.798
578.280;   79.464; -208.104; -242.812
578.558;   56.096; -450.115; -422.793
578.836;  135.729; -210.114; -145.795
579.114;   51.666; -630.112; -670.797
579.391;   58.274;   -6.117;  -18.789
579.669;  -81.802; -595.114; -704.794
579.947;  172.885; -326.107; -127.806
580.224;  335.960; -692.107; -524.806
580.502;  330.314;  127.893;   76.193
580.779;   18.655;  -42.117;   75.210
581.057;  -66.953; -584.109; -470.804
581.334; -107.246; -726.102; -695.815
581.612;   45.802;   54.895;  511.190
581.889;  -30.908;  -83.101; -129.818
582.167;  -42.394; -298.099; -190.821
582.444; -104.363; -845.102; -814.817
582.721;  106.487;  657.899;  715.183
582.999;   55.929; -326.100; -167.821
583.276;  541.177; -812.123; -713.779
583.553;  738.682; -364.102; -294.816
583.831;  241.561; -607.104; -631.812
584.108;   60.853;  349.892;  174.195
584.385;   13.403; -122.102;  -98.815
584.662;  -64.242; -651.111; -828.801
584.940;   32.832;  204.889;  204.199
585.217;  -11.539;  -73.113; -303.796
585.494;   33.491;   71.890;  118.198
585.771;  207.198; -250.109; -354.804
586.048;  502.386; -196.113;  -76.796
586.325;  323.410; -721.110; -773.801
586.602;   90.589;  230.896;  213.188
586.879;  -17.050; -499.100; -580.820
587.156;   66.578; -156.105; -331.810
587.433;  -41.765; -701.102; -667.817
587.710;   75.168;  152.888;  234.202
587.987;  305.883; -264.105; -236.811
588.264;  804.095;  315.888;  387.202
588.541; 1407.517;  -61.104;   26.187
588.818; 2721.650;   72.892;  171.196
589.095; 2344.687; -163.104; -174.812
589.371;  384.221; -459.109; -414.804
589.648;   15.839; -581.107; -437.807
589.925;   21.680; -517.114; -621.795
590.202;   14.243; -741.112; -607.798
590.478;  104.360; -166.105;  -73.811
590.755;  271.781; -241.108; -132.806
591.032; 2568.937; -741.110; -699.802
591.308; 3515.806; -732.094; -790.831
591.585; 1852.212; -573.110; -560.802
591.862;  151.636;-1056.102; -950.817
592.138;   59.079; -475.108; -474.805
592.415;  138.790; -486.104; -495.813
592.691; 1503.288;  460.896;  518.188
592.968; 1882.718; -208.098; -123.824
593.244;  891.807; -695.116; -595.790
593.521;   72.361; -105.102;  -42.817
593.797;  -13.195; -810.122; -720.780
594.074;  324.581; -611.096; -588.826
594.350;  671.167;  828.905;  729.172
594.626;  317.433; -303.111; -283.801
594.903;  115.862; -643.101; -645.817
595.179;  197.944;  243.896;  418.187
595.455;    3.615; -136.107; -150.807
595.731;   -0.304;  -19.103;  -38.814
596.008;  -47.048; -464.111; -434.800
596.284;   37.552; -187.100; -242.820
596.560;   50.837; -501.093; -493.833
596.836;  210.505; -173.105;  -70.810
597.112;  363.580; -582.108; -437.805
597.388;  294.278;  -49.097;  -48.826
597.665;  125.813;  437.887;  530.203
597.941;  -68.483; -572.089; -658.839
598.217;   17.690; -323.110; -293.802
598.493;  260.200;   61.891; -204.804
598.769;  515.047; -175.100;  -50.819
599.045;  316.283; -490.108; -562.806
599.321;   56.851; -193.100; -261.820
599.597;  143.424; -355.109; -476.804
599.872;  498.042;  409.896;  429.187
600.148;  374.980;  -61.097; -172.826
600.424;  297.012;   91.893;  202.193
600.700;  239.615; -170.107; -280.807
600.976;  114.874; -442.097; -464.825
601.252;  273.271; -226.109; -272.803
601.527;  227.143; -833.104; -840.813
601.803;  161.860; -453.105; -404.812
602.079;  172.597; -124.100; -118.819
602.354;  584.197; -620.092; -531.835
602.630;  848.811; -140.113; -482.796
602.906; 2403.392; -910.101; -863.818
603.181; 6879.512; -627.119; -534.786
603.457; 5854.203;   98.903; -278.826
603.733;  869.470; -605.120; -626.783
604.008; 1001.976; -245.106; -164.810
604.284; 3148.238; -636.101; -580.817
604.559; 2738.947;   -3.112;  -42.799
604.835;  529.554; -163.105; -225.810
605.110;  423.832; -732.099; -892.821
605.385;  718.415;  224.907;  267.167
605.661;  663.644; -625.095; -729.829
605.936; 1207.533; -664.108; -737.806
606.211; 1027.977;  -17.103; -170.815
606.487;  203.525; -329.114; -376.794
606.762;   24.487; -791.119; -745.786
607.037;  -28.420; -501.105; -433.810
607.313;  -49.537; -589.096; -574.828
607.588;   -6.224; -375.106; -137.810
607.863;   43.242;  -28.101; -143.818
608.138;  176.589;  513.890;  516.198
608.413;   26.461; -576.099; -592.822
608.688;   41.229; -203.108; -267.805
608.964;  203.645; -509.106; -218.809
609.239;  259.877; -107.105; -212.810
609.514;  264.860;  281.895;  240.188
609.789;  664.039; -187.104; -716.812
610.064;  875.186; -435.096; -609.827
610.339;  917.471; -855.109; -799.804
610.614; 1240.902; -131.100; -315.820
610.889;  697.310;  215.895;  107.188
611.163;   27.536; -407.104; -591.812
611.438;   78.701;   81.886; -167.794
611.713;    9.488; -467.101; -499.817
611.988;   52.891; -144.101; -328.818
612.263;  -15.471; -771.102; -717.815
612.538;  228.510;  385.887;  251.204
612.812;  193.653; -832.100; -911.820
613.087;  133.066; -358.098; -338.823
613.362;  -44.685; -497.107; -557.807
613.637;   49.623;  261.897;  138.186
613.911;  -10.202; -256.092; -345.835
614.186;  125.813; -249.107; -292.807
614.460;  694.491; -842.081; -758.854
614.735;  806.790;  -55.087;  -17.843
615.010;  164.430;   43.912;  -82.841
615.284;  260.429;  360.892;  246.195
615.559;  389.772; -792.092; -955.835
615.833;  289.959;  -76.099;  -87.822
616.108;   -0.242; -225.090; -390.837
616.382;  134.391;  274.913;  402.156
616.656;  166.759; -241.090; -232.837
616.931;  519.884; -785.099; -700.822
617.205; 1063.743; -973.104; -979.813
617.480;  984.781;  -91.125;    6.225
617.754;  169.929; -396.125; -128.774
618.028;   11.950; -369.129; -382.768
618.302;   69.202;   73.892;  -25.805
618.577;  -36.675; -371.103; -518.815
618.851;  -71.482; -399.109; -600.803
619.125;  -47.469; -335.134; -378.759
619.399;  -25.631; -244.104; -374.813
619.673;  -47.410; -330.115; -515.792
619.947;  -48.096; -333.114; -448.795
620.222;  -20.016; -198.110; -204.801
620.496;    7.743;  -47.121;  -96.782
620.770;   23.985; -187.122;  -93.781
621.044;  212.053;  323.895;  346.190
621.318;  759.971; -653.120; -614.783
621.592;  664.444; -430.121; -409.783
621.866;  377.498; -476.112; -572.799
622.140;   28.584; -207.116; -356.791
622.413;   62.602;  138.889;  112.200
622.687;  -37.536; -746.101; -492.817
622.961;    9.902; -130.108; -143.805
623.235;  -57.997; -633.111; -661.800
623.509;  -94.641; -816.105; -848.811
623.783;    6.411;  -12.107;   48.193
624.056;  -14.378; -254.120; -280.783
624.330;   34.416;   63.888;   -3.797
624.604;   57.580; -271.116; -355.790
624.877;   77.763;  180.890;   26.198
625.151;   46.099; -249.114; -238.794
625.425;  -32.130; -150.103; -283.814
625.698;  -62.769; -367.119; -374.785
625.972;  -96.635; -799.110; -765.802
626.245;   73.157;  685.884;  484.210
626.519;  -63.474; -426.120; -340.784
626.792;  -41.385; -192.107; -380.807
627.066;  -99.972; -485.122; -662.779
627.339;  -96.389; -736.110; -663.802
627.613;   28.275;  351.880;  148.216
627.886;   64.342;  187.891; -612.803
628.160;  -20.804;  312.880; -161.783
628.433;  -87.266; -695.125; -703.775
628.706;  -81.549; -517.120; -615.784
628.979;   42.466;  296.876;  117.223
629.253;  -84.814; -785.119; -833.786
629.526;  370.869; -334.126; -253.772
629.799;  338.098; -641.123; -479.778
630.072;  170.976; -497.128; -516.769
630.346;  -76.418;-1115.116;-1080.790
630.619;  464.566; -467.107; -545.808
630.892;  636.453;  709.889;  593.200
631.165;  341.843;  790.896;  679.187
631.438;  -80.980;-1092.112;-1055.798
631.711;   50.076;  453.877;  257.221
631.984;  -47.173; -523.117; -624.789
632.257;  -69.326; -636.117; -681.789
632.530;  -48.168; -412.119; -433.785
632.803;    6.722; -109.115;    7.207
633.076;  -60.630; -360.123; -422.777
633.349;   11.230;  173.872;  121.231
633.622;  -31.895; -187.119; -240.785
633.895; -125.053; -903.120; -823.783
634.167;  -65.154; -496.126; -525.773
634.440;  -18.662;  -19.116; -137.792
634.713;   -9.965;  -22.119; -120.786
634.986;   97.470;  593.871;  453.233
635.258;  -82.830; -507.115; -597.793
635.531;   93.095;  742.882; -343.788
635.804;  -33.074; -303.117; -318.789
636.077;  -85.640; -830.116; -852.791
636.349;    2.344; -586.115; -474.793
636.622;  393.568; 1695.874; 1392.228
636.894;  252.101; -474.120; -909.784
637.167;  161.487; -836.127; -789.771
637.439;   23.908; -278.128; -213.770
637.712;  -42.930; -312.126; -293.772
637.984;  -94.240; -635.116; -707.791
638.257;  385.470;  515.877;  488.222
638.529;  551.210; -881.125; -924.776
638.802;  232.101; -508.128; -449.769
639.074; -111.391; -927.122; -952.781
639.346; -120.903; -942.135; -930.757
639.619;   -0.893;  -79.142; -319.744
639.891;  -14.622;  -83.122; -168.779
640.163;  -76.695; -689.122; -756.780
640.435;   37.032;  273.878;  103.220
640.708;    3.983;  -72.122; -132.780
640.980;  -23.615; -366.122; -362.781
641.252;  186.187;  -25.121;  -71.781
641.524; 1801.489;  580.879;  573.219
641.796; 1825.066;-1094.121; -907.782
642.068;  338.992; -191.121; -300.782
642.340;  -64.606; -486.121; -566.783
642.613;   44.771;  294.880;  323.217
642.885; -107.902; -787.120; -878.783
643.157;  -53.450; -810.120; -658.784
643.428;   65.177;  170.880;  218.216
643.700;  -66.872; -498.120; -425.784
643.972;  -26.395;  -16.119; -133.785
644.244;  -82.618; -474.119; -559.785
644.516;  -70.641; -250.119; -114.786
644.788;   67.211;  662.881;  548.214
645.060;  -14.137;  -12.119; -124.786
645.332;  -99.711; -525.118; -535.787
645.603;   30.016;  479.882;  342.213
645.875;  -70.557; -334.118; -369.787
646.147;  156.945; 1487.882; 1242.212
646.418;  -60.528; -931.117; -918.788
646.690;  155.398; -714.117; -715.789
646.962;   31.350; -413.117; -451.789
647.233;   -3.848;   15.883;   11.211
647.505;  -92.521; -595.117; -475.790
647.776;   16.131;  328.884;  229.210
648.048;   -9.817; -248.116; -418.790
648.320;  -76.191; -752.116; -679.791
648.591; -158.514;-1055.116; -958.791
648.862;  -92.337; -505.116; -577.792
649.134;   -0.810;  115.885;  198.208
649.405;  -54.683; -661.115; -618.792
649.677;  -52.432; -475.115; -598.793
649.948;   -6.230; -181.115; -296.793
650.219;   -2.253;  -37.115; -147.793
650.491;  -96.651; -431.114; -520.794
650.762; -109.199; -705.114; -731.794
651.033;  -93.097; -437.114; -424.795
651.304;  -84.421; -743.114; -728.795
651.576;  -64.719; -680.114; -645.795
651.847;  -39.767; -250.113; -140.796
652.118;  -45.565;  -32.113; -189.796
652.389; -110.538; -639.113; -722.796
652.660;  -39.462; -147.113;  -89.797
652.931; -147.585; -897.112; -871.797
653.202;  -79.733; -382.112; -541.798
653.473;  -69.156; -633.112; -533.798
653.744;  162.421; -595.112; -590.798
654.015;  136.748; -356.112; -303.799
654.286;  -77.276; -642.111; -663.799
654.557;  -51.324; -586.111; -521.799
654.828; -156.872;-1114.111;-1088.800
655.099;  -79.645; -404.111; -291.800
655.370;  -99.218; -427.111; -543.801
655.641; -117.967; -656.110; -714.801
655.911; -101.865; -618.110; -638.801
656.182;   34.362;  437.890;  387.198
656.453;   88.039;  830.890;  746.198
656.724;  -78.634; -466.110; -426.802
656.994;  -80.582; -553.109; -568.803
657.265; -111.831; -862.109; -873.803
657.536;  -90.354; -500.109; -377.804
657.806;  -99.777; -561.109; -593.804
658.077; -140.425; -866.109; -950.804
658.347;  -89.873; -523.108; -598.805
658.618; -126.071; -646.108; -694.805
658.888;  -22.270;  -41.108;  112.195
659.159;  -75.518; -432.108; -548.806
659.429;  -14.191; -292.108; -349.806
659.700;   25.986; -435.107; -390.807
659.970;  -14.612; -370.107; -359.807
660.241;   20.214; -754.107; -921.807
660.511;  502.766; -147.107; -174.808
660.781;   90.968; -793.106; -748.808
661.052;  -50.155; -222.106; -381.808
661.322;  -39.653;   21.894;   -9.809
661.592;    6.774;  257.894;  148.191
661.862;  -73.325; -369.106; -382.810
662.133;  -96.898; -551.105; -502.810
662.403; -112.996; -770.105; -676.810
662.673;  -57.394; -256.105; -213.811
662.943; -111.542; -612.105; -551.811
663.213;   -8.041;  -85.105;  -81.811
663.483;  -82.414; -593.104; -568.812
663.753;  -44.862; -194.104; -152.812
664.023;   -0.985;   68.896;  -32.813
664.293;  -65.683; -319.104; -126.813
664.563; -125.481; -694.104; -648.813
664.833; -113.255; -743.103; -608.814
665.103; -126.028; -730.103; -793.814
665.373; -117.826; -766.103; -806.814
665.643;  -97.524; -863.103; -918.815
665.913;   28.353; -534.103; -714.815
666.182;  141.579; -685.102; -719.816
666.452;  268.831;  -22.102;  -89.816
666.722;  -30.692; -724.102; -784.816
666.992; -139.915; -948.102; -921.817
667.261;  -91.788; -824.102; -808.817
667.531;  218.664;  134.899;   45.183
667.801;  525.215; -440.101; -412.818
668.070;  227.367;  714.899;  697.182
668.340; -114.131; -883.101; -840.819
668.609;   97.296;  588.900;  301.181
668.879;  -82.102; -490.100; -558.819
669.149;  -80.776; -539.100; -516.820
669.418; -107.974; -698.100; -726.820
669.688;  -24.547; -482.100; -666.820
669.957;   75.405; -423.099; -546.821
670.226;  -22.093; -268.099; -331.821
670.496;  -82.416; -431.099; -635.822
670.765;  -74.290; -418.099; -501.822
671.034; -132.438; -872.099; -828.822
671.304;  -14.461;   55.902; -111.823
671.573; -150.859;-1085.098; -957.823
671.842;   80.718; -380.098; -294.823
672.112;   24.320; -692.098; -586.824
672.381;   -3.054; -239.098; -214.824
672.650; -133.827;-1005.097;-1021.825
672.919;  -90.250; -631.097; -507.825
673.188; -115.348; -681.097; -878.825
673.457; -144.596;-1101.097;-1143.826
673.726;  -81.195; -579.096; -646.826
673.995;  -50.843; -533.096; -479.826
674.265;  -19.016; -263.096; -333.827
674.534;    7.586; -183.096; -235.827
674.802;    9.213; -618.096; -703.828
675.071; 1056.215; -886.095; -801.828
675.340; 3943.566; -464.095; -339.828
675.609; 1328.068;  103.905;   82.171
675.878;   76.420; -949.095; -893.829
676.147;   29.047;  -26.095;   -8.829
676.416;   72.974; -210.094; -294.830
676.685;  739.475; 1000.906; -622.830
676.953;  114.352; -603.094; -452.831
677.222;  -29.821; -193.094; -273.831
677.491;  -37.169;  -24.094; -127.831
677.759;  -19.017;   11.907;  172.168
678.028;  -21.265; -279.093; -222.832
678.297;    1.486;   71.907;  197.168
678.565; -153.537; -898.093; -944.833
678.834;  -57.385; -311.093; -268.833
679.102;  -85.183; -411.092; -391.834
679.371; -139.881; -898.092; -727.834
679.639; -144.780; -797.092; -786.834
679.908; -114.553; -794.092; -724.835
680.176; -165.401; -895.091; -941.835
680.445;  -64.624; -346.091; -352.835
680.713;  -22.322;  -58.091;  -23.836
680.982; -101.570; -523.091; -525.836
681.250; -104.594; -578.091; -507.837
681.518;  -91.492; -534.090; -751.837
681.787;  -22.865; -204.090; -167.837
682.055;  -57.013; -490.090; -422.838
682.323; -149.811; -993.090; -992.838
682.591;   36.116; -216.090; -538.838
682.859;   86.792;    9.911;  -35.839
683.128;   22.919;  232.911;  497.161
683.396; -151.804;-1102.089;-1122.840
683.664;  -59.402; -241.089;   21.160
683.932;    1.050;  144.911;  -76.840
684.200;  -83.674; -576.088; -320.841
684.468;  -33.072;  -73.088; -124.841
684.736;  -42.795; -214.088; -175.841
685.004; -121.318;-1024.088; -982.842
685.272;  -51.866; -880.088; -774.842
685.540;  -69.039; -499.087; -557.843
685.808; -102.788; -651.087; -682.843
686.076; -102.211; -894.087; -969.843
686.343;  -68.209; -601.087; -815.844
686.611;   36.293; -195.087; -224.844
686.879;  483.570; -530.086; -553.844
687.147; 3386.696; -483.086; -480.845
687.414;  962.173;  -12.086; -169.845
687.682;  -10.575; -658.086; -757.846
687.950;  326.427;  259.915;  263.154
688.217;   32.204; -792.085; -760.846
688.485;   -7.069; -632.085; -636.847
688.753;  551.282;  -11.085; -102.847
689.020;  172.834; -820.085; -851.847
689.288; -110.939; -853.084; -787.848
689.555;  -40.337; -195.084; -148.848
689.823;  -51.985; -241.084; -345.849
690.090;  -91.409; -546.084; -651.849
690.358; -158.032; -877.084; -897.849
690.625;    1.920;  120.917;   45.150
690.892;  -75.603; -403.083; -369.850
691.160;   -4.326;   72.917;  -35.850
691.427;   -7.399;  141.917;  130.149
691.694; -130.448; -855.083; -929.851
691.962; -152.596;-1177.082;-1060.852
692.229;   12.406;  127.918;   56.148
692.496;   79.633;  130.918;  -49.852
692.763;   28.960; -164.082; -201.853
693.031;  -80.689; -739.082; -716.853
693.298;  -29.387; -509.081; -368.853
693.565;  321.315; -155.081; -163.854
693.832; 1301.167;   -5.081;   -9.854
694.099;  150.694; -643.081; -642.855
694.366;  -63.754; -882.081; -896.855
694.633;  -63.978; -920.080; -633.855
694.900;  743.874; 4367.920; -114.856
695.167;  421.001; -214.080; -380.856
695.434;  114.228; -646.080; -623.856
695.701;  197.705;  121.921;  -61.857
695.968;  472.582; -365.079; -361.857
696.234;  987.433; -415.079; -646.858
696.501;10250.860; -776.079; -614.858
696.768; 5163.037; -554.079; -617.858
697.035;  320.164; -632.078; -667.859
697.302;   27.666; -448.078; -552.859
697.568;   19.617; -458.078; -497.859
697.835;  -49.531; -683.078; -624.860
698.102;  -18.029; -498.078; -407.860
698.368;   75.723;  384.923;  396.139
698.635;  -28.825;  -47.077; -424.861
698.901;  -12.498; -240.077; -348.861
699.168;   81.603; -534.077; -456.862
699.435;   75.005;  -72.077;  -13.862
699.701; -122.968; -868.076; -764.862
699.968;    7.034;  144.924; -441.863
700.234; -104.339; -783.076; -822.863
700.500;  -57.288; -448.076; -539.864
700.767;    7.564;   -1.075;   26.136
701.033; -144.984;-1015.075; -963.864
701.299;  -55.807; -450.075; -483.865
701.566;  111.795;  950.925;  763.135
701.832;   28.622;  -31.075;  -76.865
702.098;  -92.527;-1054.074;-1034.866
702.365;  -84.300;-1098.074;-1030.866
702.631;  -22.423;-1038.074;-1063.867
702.897; 1403.579; -765.074; -676.867
703.163; 2256.281;  348.926;  254.133
703.429;  166.632; -256.073; -273.868
703.695;  -35.566; -796.073; -792.868
703.961;   27.661; -214.073; -210.868
704.227;  -55.562; -630.073; -725.869
704.493;  116.265;  613.927;  510.131
704.759;  -40.083; -565.072; -540.870
705.025;   19.443; -203.072; -194.870
705.291;  -23.230; -666.072; -562.870
705.557;  199.697;  719.928;   34.129
705.823;   23.174; -742.072; -694.871
706.089;  134.176; -307.071; -326.871
706.355;  353.528; -315.071; -244.872
706.620; 5418.804; -776.071; -729.872
706.886; 7630.206; -309.071; -362.873
707.152;  703.958; -818.070; -973.873
707.418;  -32.415;-1153.070;-1186.873
707.683;   -9.413; -550.070; -530.874
707.949;  -43.362; -547.070; -578.874
708.215;   -5.910; -129.070; -207.874
708.480;  -13.283; -520.069; -420.875
708.746;  102.494;   68.931;   28.125
709.011;  -72.004; -578.069; -612.876
709.277;  -79.602; -538.069; -543.876
709.542;  -47.876; -428.069; -387.876
709.808;   -6.374;  -59.068;   89.123
710.073;  -89.172; -577.068; -695.877
710.339;  -35.170; -242.068; -228.877
710.604;   74.932; -780.068; -845.878
710.869;  336.308; -277.068; -366.878
711.135;  -76.265; -715.067; -628.879
711.400;  -74.163; -507.067; -608.879
711.665;  -65.436; -404.067; -479.879
711.931;  -86.984; -661.067; -677.880
712.196; -112.732; -876.067; -954.880
712.461;  108.144; -402.066; -490.880
712.726;  129.721; -727.066; -771.881
712.991;  -89.452; -647.066; -664.881
713.256;  -71.475; -350.066; -332.882
713.521;  -57.948; -417.065; -381.882
713.787;  -71.472; -454.065; -472.882
714.052;  -34.170; -214.065; -400.883
714.317; -100.668;-1045.065; -981.883
714.581; 1026.284; -374.065; -268.883
714.846; 1361.411; -822.064; -888.884
715.111;  117.013;  261.936;  257.116
715.376;  -24.561;  -86.064; -223.885
715.641;   -7.484; -365.064; -367.885
715.906;  300.893;   15.936; -551.885
716.171;  139.695;  221.937;  209.114
716.436;   31.722;  -78.063; -104.886
716.700; -108.927; -818.063; -692.886
716.965; -128.675; -794.063; -807.887
717.230;  -72.898; -339.063; -392.887
717.494;  -34.271;  -40.062; -134.888
717.759;  -89.019; -784.062; -640.888
718.024;    6.958;  269.938;  250.112
718.288;   51.334;  685.938;  395.111
718.553; -133.214; -803.062; -977.889
718.817; -134.662; -883.061; -899.889
719.082;  -43.185; -115.061; -125.890
719.346; -140.858;-1000.061; -947.890
719.611;  -44.031; -300.061; -255.891
719.875;  -86.930; -568.060; -537.891
720.140;  -63.678; -453.060; -603.891
720.404;   32.324; -136.060; -249.892
720.668;  860.826; -475.060; -411.892
720.933;  329.503;  146.940;  137.108
721.197; -111.296; -667.059; -600.893
721.461; -130.619; -851.059; -826.893
721.725;  -23.217;  -21.059; -250.894
721.990;  -44.165; -284.059; -204.894
722.254;  -18.988;  -26.059; -108.894
722.518;  -80.386; -286.058; -442.895
722.782; -102.360; -743.058; -594.895
723.046;  128.017;  614.942;  570.105
723.310;   23.319;  374.942;  210.104
723.574; -100.554; -654.058; -614.896
723.838; -119.177; -576.057; -642.897
724.102;  -48.151; -226.057; -239.897
724.366; -139.324;-1032.057; -978.897
724.630; -101.972; -749.057; -571.898
724.894;  -87.445; -722.057; -514.898
725.158;  -17.293;   38.944; -295.898
725.422;  -54.541; -394.056; -327.899
725.685;  -78.590; -441.056; -349.899
725.949;  -87.088; -566.056; -519.900
726.213;  -77.486; -732.056; -811.900
726.477;  169.041;-1020.055; -933.900
726.740;  136.793; -274.055; -104.901
727.004;  336.819; -384.055; -510.901
727.268; 3261.471; -442.055; -400.901
727.531;  892.523; -961.055; -775.902
727.795;  -37.300; -713.054; -673.902
728.059;  -60.273; -552.054; -557.903
728.322;  -69.396; -841.054; -669.903
728.586;   23.855; -692.054; -701.903
728.849;  -77.818; -695.053; -756.904
729.112; -114.341; -812.053; -912.904
729.376; -139.064; -959.053; -905.904
729.639;  -78.037; -536.053; -536.905
729.903; -105.136; -733.053; -699.905
730.166;  -53.909; -437.052; -399.906
730.429;  -25.357; -317.052; -468.906
730.693;  -61.780; -355.052; -894.906
730.956;  215.172;  810.948;  651.093
731.219;  704.149; -310.052; -103.907
731.482;  116.750;-1003.051; -894.907
731.745;  107.477; -794.051; -935.908
732.009;   14.954;  -30.051;   50.092
732.272;  -99.644; -904.051; -771.909
732.535;  -43.717; -300.051; -310.909
732.798; -142.065;-1083.050;-1166.909
733.061;  -72.864; -430.050; -456.910
733.324;   -6.137;   31.950; -180.910
733.587;   67.890;  290.950;  365.090
733.850;  -59.808; -973.049;-1050.911
734.113;   33.044;   33.951;   32.089
734.376;    7.095; -328.049; -447.912
734.639;  211.822; 1188.951; 1011.088
734.901;   67.299; -180.049; -402.912
735.164;  531.801; -883.048; -837.913
735.427; 1332.578; -166.048; -355.913
735.690;  127.080; -205.048; -234.913
735.952;  -37.944; -923.048; -925.914
736.215;  -30.392;-1113.048;-1009.914
736.478;   29.710; -771.047; -774.915
736.740;  210.762;   33.953;  129.085
737.003;  695.214; -658.047; -672.915
737.266; 4152.865;  -94.047;   46.084
737.528;  436.467; -682.047; -660.916
737.791;  309.444; -316.046; -327.916
738.053;  801.571;  465.954;  649.083
738.316;10868.098; -162.046; -136.917
738.578; 7483.400; -770.046; -736.918
738.841;  433.476; -382.046; -446.918
739.103;  179.503; -875.045; -777.918
739.365;  503.605;   79.955;  -69.919
739.628;   -9.668; -884.045; -805.919
739.890;  -29.916; -758.045; -710.919
740.152;  -41.265; -692.044; -754.920
740.414;    2.937; -408.044; -359.920
740.677;  -53.261; -785.044; -634.921
740.939;  -53.484; -587.044; -487.921
741.201;  291.143; -432.044; -572.921
741.463;   36.695; -689.043; -745.922
741.725;   12.496;  -21.043; -199.922
741.987;   45.898;  220.957;  116.078
742.249;   -5.525; -751.043; -859.923
742.511;  226.727; -703.043; -794.923
742.773;   18.254; -546.042; -546.924
743.035;  133.931;  796.958;  533.076
743.297;  -60.143; -963.042;-1013.924
743.559;  747.359; -278.042; -262.925
743.821;   63.411; -735.042; -744.925
744.083;    8.463;  -44.041; -149.925
744.345;  -87.885; -869.041; -892.926
744.607;   33.641;   75.959;  122.074
744.868;  -62.032; -490.041; -554.927
745.130; -109.455; -994.041;-1008.927
745.392;   39.972;   -1.040;  -44.927
745.653;  -18.926; -411.040; -378.928
745.915;  139.801;  896.960;  631.072
746.177;   43.452;   35.960;  -43.928
746.438;   -5.171; -428.040; -543.929
746.700;  -44.069; -947.039; -988.929
746.961;   10.683; -659.039; -740.930
747.223;  147.960; -190.039;  -74.930
747.484;   90.411; -391.039; -471.930
747.746;  155.563;  -23.038; -106.931
748.007;  116.065; -647.038; -689.931
748.269;  293.792; -468.038; -440.931
748.530;  495.844; -852.038; -638.932
748.791;  252.371; -354.038; -420.932
749.053;  451.372;  286.963;  163.067
749.314;  462.574; -236.037; -169.933
749.575;  500.076; -945.037; -905.933
749.836;  880.778; -217.037;   86.066
750.098; 2523.755;  -60.037;  -21.934
750.359;37194.256;  414.964;  555.066
750.620; 9255.158; -121.036; -220.935
750.881; 1040.810; -585.036; -513.935
751.142; 1385.787; -950.036; -938.936
751.403;16888.339; -789.036; -705.936
751.664; 7266.566;-1034.035; -999.936
751.925;  488.767; -175.035; -262.937
752.186;  268.819; -298.035; -278.937
752.447;  140.621; -590.035; -445.937
752.708;   42.398; -532.035; -648.938
752.969;   20.075; -566.034; -576.938
753.230;  -12.899; -777.034; -672.939
753.491;   -5.372; -650.034; -631.939
753.751;   74.480;  109.966;   19.061
754.012;  103.982;  258.967;  181.060
754.273;   55.059; -174.033;  -71.940
754.534;   12.311; -487.033; -580.940
754.794;  -95.538; -926.033; -911.941
755.055;  147.739; 1051.967;  881.059
755.316;  -48.609; -700.032; -566.942
755.576;  -19.882; -606.032; -576.942
755.837;  -43.330; -527.032; -695.942
756.097;  -37.053; -530.032; -564.943
756.358;  -82.327; -725.032; -770.943
756.618;  -56.125; -705.031; -641.943
756.879;   -7.073; -254.031; -349.944
757.139; -117.396;-1098.031;-1116.944
757.400;  -59.694; -538.031; -553.945
757.660;  -27.993; -365.031; -401.945
757.920;    7.734; -266.030; -228.945
758.181;  -13.814; -468.030; -351.946
758.441;  -86.712; -870.030; -809.946
758.701;  -28.010; -308.030; -215.946
758.961;  -27.658; -220.030; -278.947
759.222;  -46.082; -574.029; -502.947
759.482;  -79.280; -683.029; -723.948
759.742;  -82.678; -706.029; -547.948
760.002;    4.099;  -83.029; -143.948
760.262;   14.926;   50.972;  182.051
760.522;  -53.298; -498.028; -574.949
760.782;  -51.671; -738.028; -612.949
761.042;  -25.644; -618.028; -573.950
761.302;   68.858;   55.972;  -18.950
761.562;   60.660; -164.027; -154.951
761.822;   80.262; -710.027; -551.951
762.082;  -34.212;-1104.027;-1093.951
762.342;   75.115; -328.027; -403.952
762.601;   67.117; -567.027; -506.952
762.861;  364.394; -281.026; -207.952
763.121;  426.971; -406.026; -411.953
763.381; 7498.947; -499.026; -485.953
763.640; 7979.924; -139.026; -307.954
763.900;  357.101; -242.026; -203.954
764.160;   86.478; -458.025; -491.954
764.419;  -20.970; -726.025; -782.955
764.679;  -69.943; -795.025; -726.955
764.939;   -7.342; -124.025; -210.955
765.198;  -85.515; -608.025; -563.956
765.458;  -88.938; -710.024; -612.956
765.717;  -86.011; -454.024; -590.957
765.976;  -53.709; -428.024; -411.957
766.236;  -81.307; -475.024; -610.957
766.495;   33.969;  260.977;   73.042
766.755;  -94.504;-1090.023; -987.958
767.014;   11.748; -594.023; -665.958
767.273;  -55.800; -373.023; -397.959
767.533;  -47.298; -228.023; -307.959
767.792;  -31.597; -151.022; -188.960
768.051;  -57.245; -228.022; -276.960
768.310;  -89.668; -546.022; -650.960
768.569;   -6.691; -161.022;    4.039
768.828;  -46.614; -285.022; -363.961
769.088; -117.812;-1050.021; -942.961
769.347;  -80.736; -755.021; -599.962
769.606;  -95.659; -876.021; -857.962
769.865; -127.282;-1016.021;-1033.963
770.124;  -10.330; -411.021; -336.963
770.383;  -72.053; -778.020; -910.963
770.641;   -6.202; -398.020; -400.964
770.900;  -73.400; -953.020; -846.964
771.159;  -54.173; -851.020; -951.964
771.418;  -21.321; -917.020; -779.965
771.677;  112.331; -224.019; -293.965
771.936;  134.183; -794.019; -865.966
772.194; 2196.209; -465.019; -437.966
772.453;10788.261; -213.019; -391.966
772.712;  758.238;  416.982;  329.033
772.970;  110.140;   32.982;   63.033
773.229;   86.742;  -22.018;  102.033
773.488;  -84.082; -814.018; -770.968
773.746;   57.245;  296.982;  335.032
774.005;    0.697;  190.983;  -22.969
774.263;   -2.651;  243.983;  177.031
774.522;  -49.149; -422.017; -548.969
774.780;  -88.997; -484.017; -417.970
775.039;  -82.321; -551.017; -531.970
775.297;  -35.644; -135.016; -351.970
775.555; -107.842; -489.016; -612.971
775.814; -107.090; -618.016; -570.971
776.072; -123.113; -749.016; -740.971
776.330; -104.662; -630.016; -520.972
776.589; -129.985; -703.015; -721.972
776.847; -132.858; -645.015; -624.973
777.105; -159.831;-1016.015;-1032.973
777.363;  -72.804; -459.015; -454.973
777.621; -149.302; -660.015; -717.974
777.879;  -24.851;  -42.014;   32.026
778.138; -105.524; -554.014; -717.974
778.396;  -90.222; -585.014; -526.975
778.654; -159.570;-1015.014; -970.975
778.912;  -70.493; -269.014; -371.976
779.170; -134.716; -880.013; -803.976
779.427; -154.165; -922.013; -897.976
779.685; -149.188; -880.013; -832.977
779.943;  -86.736; -654.013; -593.977
780.201; -156.484; -964.012; -883.978
780.459; -123.007; -651.012; -610.978
780.717;  -95.956; -440.012; -390.978
780.974; -102.354; -449.012; -490.979
781.232;  -76.927; -358.012; -338.979
781.490;  -76.025; -551.011; -472.979
781.747;  -95.498; -555.011; -476.980
782.005;   20.229;  462.989;  254.020
782.263; -149.870; -542.011;-1004.981
782.520;  -90.443; -326.011; -501.981
782.778; -174.891;-1013.010;-1051.981
783.035; -169.664; -962.010; -938.982
783.293;  -81.112; -248.010; -206.982
783.550;  -66.311; -134.010; -198.982
783.808; -145.984; -764.010; -776.983
784.065; -158.557; -745.009; -874.983
784.322;  -52.580;   25.991;  -86.984
784.580; -137.503; -915.009; -771.984
784.837;  -97.251; -392.009; -466.984
785.094; -146.475; -783.009; -762.985
785.352;  -72.248; -304.008; -404.985
785.609; -114.296; -934.008; -839.985
785.866;  -81.019; -345.008; -401.986
786.123;  -60.192; -639.008; -583.986
786.380; -106.716; -665.008; -604.987
786.637;  -32.989; -225.007; -380.987
786.895;  -18.712; -456.007; -543.987
787.152;  -55.035; -135.007; -267.988
787.409;  -50.533; -123.007; -225.988
787.666;  -92.756; -299.006; -378.988
787.923; -124.330; -616.006; -695.989
788.179;  -97.103; -551.006; -584.989
788.436; -122.651; -585.006; -585.990
788.693;  -46.699;  -92.006;  -87.990
788.950;  128.553; -125.005; -112.990
789.207;  214.379; -381.005; -372.991
789.464;  -48.344; -161.005; -301.991
789.720;  -13.892;  150.995;  110.009
789.977; -172.840;-1003.005; -671.992
790.234;  -44.213;   44.996;  -66.992
790.490; -162.811; -884.004;-1031.993
790.747;  -32.885;  -85.004;   22.007
791.004;  -27.008; -426.004; -348.993
791.260;  -85.931; -430.004; -560.994
791.517;  -99.454; -843.003; -788.994
791.773;  -43.227; -379.003; -342.994
792.030; -109.075; -596.003; -660.995
792.286; -101.349; -686.003; -636.995
792.543;  -27.722;  -74.002; -159.995
792.799;  -45.345; -584.002; -382.996
793.055; -177.493;-1179.002;-1210.996
793.312; -102.166; -827.002; -816.997
793.568;  -75.790; -746.002; -599.997
793.824;   14.662; -226.001; -284.997
794.081;   21.264; -447.001; -508.998
794.337;   74.966; -664.001; -561.998
794.593; 1386.668; -319.001; -271.999
794.849; 6541.520; -746.001; -772.999
795.105;  320.521; -270.000; -261.999
795.361;    9.398; -490.000; -457.000
795.617;  -65.200; -875.000; -945.000
795.873;  -69.825; -360.000; -407.000
796.129;  -39.000; -368.000; -306.000
796.385;  -16.000; -124.000; -156.000
796.641;   64.125;  412.000;  550.000
796.897;  -89.975; -666.000; -635.000
797.153;   52.250;  453.000;  357.000
797.409; -114.975; -785.000; -868.000
797.665;  -78.675; -625.000; -732.000
797.921;  -75.800; -775.000; -762.000
798.176;  -65.575; -744.000; -747.000
798.432;  -44.975; -824.000; -596.000
798.688;  -83.025;-1174.000;-1078.000
798.943;   88.850; -165.000; -147.000
799.199;  -20.325;-1005.000; -959.000
799.455;  243.550;  369.000;  316.000
799.710;  112.800; -813.000; -380.000
799.966;  281.650; -162.000; -160.000
800.221;  481.375; -638.000; -721.000
800.477;10548.150; -743.000; -710.000
800.732; 9038.775; -773.000; -800.000
800.988;  610.425;  205.000;  -19.000
801.243; 1762.350; -454.000; -344.000
801.498; 7388.150; -814.000; -739.000
801.754;  407.175; -289.000; -163.000
802.009;   82.900; -257.000; -335.000
802.264;  -50.775; -967.000;-1033.000
802.520;   13.875;  222.000;   -3.000
802.775;  -59.325; -524.000; -359.000
803.030;   47.850;  395.000;  356.000
803.285; -109.875; -840.000; -903.000
803.540;  -62.000; -686.000; -699.000
803.795;  -46.675; -648.000; -583.000
804.051;  -42.750; -279.000; -346.000
804.306;   28.300;  168.000;  128.000
804.561;  128.825;  451.000;  362.000
804.816;  110.875;  714.000;  861.000
805.071;   19.675; -185.000; -280.000
805.325;  207.625; -257.000; -427.000
805.580; -105.425; -841.000; -877.000
805.835;  -15.500; -204.000; -297.000
806.090;  -69.250; -760.000; -676.000
806.345;  -15.800; -344.000; -264.000
806.600;  -42.800; -549.000; -632.000
806.854;  -39.125; -408.000; -538.000
807.109;  -32.225; -493.000; -577.000
807.364;    1.475; -407.000; -328.000
807.618;  -12.700; -415.000; -381.000
807.873;   51.800; -470.000; -494.000
808.128;   93.350; -257.000; -518.000
808.382;  109.600; -224.000; -332.000
808.637;   65.575; -440.000; -511.000
808.891;  178.025; -257.000; -180.000
809.146;   95.875; -902.000; -794.000
809.400;  267.800; -848.000; -923.000
809.654;  344.725; -779.000; -551.000
809.909;  475.125; -841.000; -927.000
810.163; 6897.700; -813.000; -651.000
810.418;17288.600; -940.000; -861.000
810.672; 1039.175; -685.000; -690.000
810.926;  715.225; -993.000; -973.000
811.180; 1378.000; -439.000; -372.000
811.434;31505.100;  240.000;  135.000
811.689;12272.525; -231.000; -365.000
811.943;  619.650; -936.000; -953.000
812.197;  310.150; -893.000; -671.000
812.451;  110.150; -379.000; -514.000
812.705;  -29.825; -809.000; -619.000
812.959;  -16.750; -263.000; -388.000
813.213;   -6.725; -283.000; -209.000
813.467;   72.200;  470.000;  253.000
813.721; -100.875; -764.000; -792.000
813.975; -118.125; -826.000; -877.000
814.229;   34.725;  430.000;  353.000
814.482;  -68.750; -517.000; -566.000
814.736; -119.475; -766.000; -744.000
814.990; -133.450; -779.000; -872.000
815.244;  -42.850; -228.000; -285.000
815.497;  -92.225; -636.000; -601.000
815.751;  -26.450; -141.000;   82.000
816.005;  -98.000; -470.000; -586.000
816.258;  -61.250; -510.000; -363.000
816.512; -117.650; -693.000; -610.000
816.766;    4.750;  121.000;  157.000
817.019;    8.100;  148.000;  149.000
817.273; -119.700;-1000.000; -802.000
817.526;  -31.775; -206.000; -173.000
817.779;  -53.150;-1049.000; -960.000
818.033;  -74.450; -693.000; -807.000
818.286; -131.375; -725.000; -792.000
818.540;  -88.225; -403.000; -403.000
818.793;  -70.025; -402.000; -489.000
819.046; -106.700; -582.000; -520.000
819.299;  -40.675; -157.000; -166.000
819.553; -119.025; -552.000; -592.000
819.806; -169.475;-1016.000; -838.000
820.059;  -56.000; -334.000; -354.000
820.312;   15.300;  152.000;  185.000
820.565;  -29.850;  110.000;  -27.000
820.818;  -56.300;  -59.000; -173.000
821.071; -166.025;-1041.000; -957.000
821.324; -115.550; -536.000; -540.000
821.577; -103.725; -457.000; -483.000
821.830;  -73.925; -270.000; -172.000
822.083; -143.825; -733.000; -288.000
822.336;  -48.000; -261.000; -167.000
822.589; -132.875; -805.000; -688.000
822.842; -149.450; -875.000; -770.000
823.094; -197.600;-1076.000;-1114.000
823.347; -137.700; -925.000; -729.000
823.600;   23.825;  402.000;  187.000
823.853;  -49.350; -311.000; -267.000
824.105;  -67.800; -331.000; -575.000
824.358; -118.025; -617.000; -716.000
824.611;   23.200;  234.000;   40.000
824.863;  -65.600; -612.000; -591.000
825.116;   41.375;  -33.000;   27.000
825.368;   60.925; -366.000; -372.000
825.621;  160.950; -186.000; -240.000
825.873;   83.525; -704.000; -737.000
826.126;  602.850; -669.000; -641.000
826.378;11703.150; -389.000; -505.000
826.630; 2737.950; -890.000; -898.000
826.883;   37.300; -754.000; -693.000
827.135;   46.300; -279.000; -270.000
827.387; -122.850; -893.000; -839.000
827.639;  -39.200;  -86.000;   32.000
827.892; -129.675; -742.000; -582.000
828.144; -144.925; -848.000; -804.000
828.396;  -37.025;  104.000;  -80.000
828.648; -101.425; -440.000; -333.000
828.900; -143.675; -702.000; -795.000
829.152; -124.700; -684.000; -683.000
829.404;  -72.150; -215.000; -267.000
829.656;  -55.875;  321.000;  214.000
829.908;   -9.500;  393.000;  229.000
830.160; -174.575;-1064.000;-1047.000
830.412; -102.400; -481.000; -430.000
830.664; -128.975; -557.000; -665.000
830.916;  -94.125; -268.000; -206.000
831.167; -177.725;-1073.000; -951.000
831.419; -121.000; -623.000; -566.000
831.671; -149.700; -764.000; -809.000
831.923;  -92.400; -311.000; -447.000
832.174;  -86.100; -273.000; -331.000
832.426; -116.650; -493.000; -582.000
832.678; -186.925;-1043.000;-1091.000
832.929; -156.900; -947.000; -935.000
833.181;  -64.825; -575.000; -677.000
833.432;  -59.925;  -59.000; -186.000
833.684;  -27.100;  112.000;  -27.000
833.935; -118.425; -610.000; -566.000
834.187; -131.625; -829.000; -823.000
834.438;  -52.500;  -58.000;  -25.000
834.689;  -62.800; -255.000; -123.000
834.941;  -60.775; -343.000; -244.000
835.192;  -97.875; -590.000; -533.000
835.443; -105.700; -419.000; -506.000
835.695;  -16.100;  138.000;  -16.000
835.946;  -93.425; -608.000; -378.000
836.197; -113.150; -599.000; -622.000
836.448;  -80.550; -528.000; -395.000
836.699;  -58.250; -253.000; -341.000
836.950;   -5.175;   72.000;    7.000
837.201; -158.000;-1003.000; -987.000
837.452;  -48.825; -356.000; -170.000
837.703; -121.975; -791.000; -737.000
837.954;  -55.200; -205.000; -365.000
838.205;  -94.350;-1029.000;-1008.000
838.456;  167.900; -196.000; -282.000
838.707;   -6.700; -423.000; -519.000
838.958;    2.400; -634.000; -647.000
839.209;  274.775;   18.000;   40.000
839.460;  116.550; -439.000; -201.000
839.710;  180.275; -135.000; -297.000
839.961;  432.150;  730.000;  612.000
840.212;  338.900; -382.000; -497.000
840.462; 1144.800; -328.000; -277.000
840.713;18059.750; -571.000; -536.000
840.964; 7097.650;  -62.000; -143.000
841.214;  503.650; -384.000; -624.000
841.465;  569.750; -214.000; -141.000
841.715;  503.875; -417.000; -380.000
841.966;  677.650; -746.000; -685.000
842.216; 9464.200; -330.000; -431.000
842.466;35099.775; -169.000; -313.000
842.717; 1876.075; -964.000; -952.000
842.967;  317.525; -635.000; -641.000
843.217;  272.525;   20.000;   28.000
843.468;   52.600; -104.000; -132.000
843.718;  -41.800; -718.000; -726.000
843.968; -101.075; -837.000; -765.000
844.218;   10.825; -315.000; -262.000
844.469;  -56.900; -577.000; -561.000
844.719;  -92.100; -537.000; -682.000
844.969; -104.600; -550.000; -580.000
845.219; -155.750; -814.000; -862.000
845.469;  -84.825; -392.000; -342.000
845.719; -146.275; -792.000; -884.000
845.969;   -5.325;  119.000;  174.000
846.219; -121.325; -738.000; -720.000
846.469;    6.050;  464.000;  432.000
846.718;  -36.725; -115.000;   31.000
846.968; -134.250; -827.000; -827.000
847.218;  -55.900; -224.000; -371.000
847.468;   -3.850; -586.000; -555.000
847.718; -149.975; -827.000; -798.000
847.967; -144.900; -826.000; -915.000
848.217;  -90.000; -449.000; -569.000
848.467;  -69.625; -405.000; -376.000
848.716; -120.475; -708.000; -725.000
848.966;   -0.275; -372.000; -358.000
849.215;  -62.150; -428.000; -419.000
849.465; -117.150; -785.000; -615.000
849.714; -155.100;-1132.000;-1150.000
849.964;  -56.100; -551.000; -613.000
850.213;  -34.100; -393.000; -355.000
850.463;   72.775;  137.000;  340.000
850.712;  -11.275; -542.000; -567.000
850.961;   21.175; -739.000; -678.000
851.211;   87.350; -513.000; -504.000
851.460;  154.725; -635.000; -650.000
851.709;  553.325;  -25.000;   18.000
851.958;10381.125; -912.000; -750.000
852.208;12531.425; -859.000; -879.000
852.457;  460.825; -181.000;  -13.000
852.706;   53.625; -791.000; -823.000
852.955;    3.275; -507.000; -528.000
853.204;  -71.800; -521.000; -461.000
853.453;  -92.950; -418.000; -458.000
853.702; -134.275; -660.000; -750.000
853.951; -107.250; -532.000; -520.000
854.200; -119.950; -613.000; -562.000
854.449; -146.375; -695.000; -661.000
854.698; -100.000; -340.000; -279.000
854.946;  -68.225; -181.000; -284.000
855.195; -152.500; -843.000; -868.000
855.444; -103.900; -395.000; -420.000
855.693; -127.075; -345.000; -432.000
855.941; -110.825; -387.000; -516.000
856.190;  -59.050; -256.000; -382.000
856.439; -134.175; -652.000; -703.000
856.687;  -66.900;  -99.000;  -72.000
856.936; -114.000; -621.000; -323.000
857.184; -202.825;-1067.000;-1020.000
857.433; -103.125; -423.000; -512.000
857.681; -173.975; -989.000; -953.000
857.930;  -89.300; -282.000; -433.000
858.178; -164.175; -856.000; -929.000
858.427; -147.450; -802.000; -781.000
858.675; -119.850; -377.000; -544.000
858.923; -117.825; -527.000; -819.000
859.172; -184.875;-1094.000;-1070.000
859.420;  -97.050; -339.000; -239.000
859.668; -135.475; -624.000; -628.000
859.916;  -30.850;  109.000;  115.000
860.164; -135.875; -699.000; -603.000
860.413;  282.175; -878.000; -696.000
860.661;  211.450; -709.000; -577.000
860.909;  -94.600; -339.000; -325.000
861.157;  -81.475; -277.000; -444.000
861.405; -126.425; -534.000; -670.000
861.653;  -12.525;  310.000;  310.000
861.901;  185.600; -543.000; -613.000
862.149;   -5.400; -801.000; -824.000
862.396;  -76.500; -297.000; -187.000
862.644;  -94.525; -368.000; -347.000
862.892;  -32.725;   98.000;  138.000
863.140; -114.700; -549.000; -530.000
863.388; -169.125; -815.000; -759.000
863.635; -133.375; -642.000; -601.000
863.883;  -17.825;  231.000;  190.000
864.131;  -98.975; -288.000; -357.000
864.378; -148.250; -675.000; -540.000
864.626;  -96.900; -347.000; -415.000
864.873; -124.950; -556.000; -505.000
865.121; -148.875; -714.000; -799.000
865.368;  -58.425; -173.000;   75.000
865.616;  -40.350;  -33.000;  -40.000
865.863;  -78.050; -462.000; -506.000
866.111; -131.275; -795.000; -824.000
866.358;   24.975; -426.000; -420.000
866.605; 2189.975;  -64.000; -804.000
866.853; 2220.775; -621.000; -537.000
867.100;  -59.600; -728.000; -775.000
867.347; -108.025; -672.000; -611.000
867.594;  -87.150; -740.000; -714.000
867.841;   87.175;   97.000;   17.000
868.089; -154.150; -746.000; -698.000
868.336; -118.025; -477.000; -420.000
868.583; -139.375; -637.000; -741.000
868.830;  -47.950; -131.000; -170.000
869.077; -179.675; -859.000; -787.000
869.324; -121.725; -502.000; -458.000
869.571; -143.075; -398.000; -430.000
869.818; -125.075; -485.000; -439.000
870.065; -110.950; -439.000; -513.000
870.311; -111.375; -456.000; -542.000
870.558; -111.450; -332.000; -311.000
870.805;  -87.325; -320.000; -384.000
871.052; -104.925; -494.000; -369.000
871.298;  -67.425; -204.000; -131.000
871.545;  -63.575; -151.000; -185.000
871.792;  -83.625; -173.000; -222.000
872.038;  -71.100;   43.000; -126.000
872.285; -118.750; -496.000; -387.000
872.532;  -98.650; -357.000; -387.000
872.778;   10.700;  556.000;  403.000
873.025; -105.000; -384.000; -359.000
873.271;   13.125;  501.000;  578.000
873.517;  -32.800; -133.000; -209.000
873.764;  -22.325; -193.000;  -80.000
874.010;  -67.625; -143.000; -230.000
874.257;  -39.050;  123.000;   90.000
874.503; -134.725; -579.000; -479.000
874.749;  -83.250;   31.000;  275.000
874.995;  -80.900;  -80.000;  -20.000
875.242; -117.700; -540.000; -478.000
875.488; -121.650; -414.000; -439.000
875.734;  -60.150; -106.000; -234.000
875.980;  207.850; -872.000;-1032.000
876.226;  367.625; -157.000; -255.000
876.472;   -5.925;  343.000;  237.000
876.718;  -50.925;  184.000;  158.000
876.964;  -46.775;   56.000;   55.000
877.210; -143.300; -547.000; -677.000
877.456; -140.450; -630.000; -557.000
877.702; -176.125; -821.000; -832.000
877.948; -112.050; -377.000; -497.000
878.193;   23.150;  361.000;  255.000
878.439;  -88.325; -487.000; -472.000
878.685; -108.025; -272.000; -343.000
878.931; -145.925; -618.000; -676.000
879.176;  -90.025; -201.000; -201.000
879.422; -168.575; -933.000; -820.000
879.668;   69.350;   10.000;   79.000
879.913;  127.775;   53.000;  137.000
880.159;  -54.225; -112.000;  -17.000
880.404;  -64.675; -152.000; -162.000
880.650;  -36.125;   91.000;  141.000
880.895; -163.425; -670.000; -710.000
881.141; -133.850; -454.000; -428.000
881.386; -150.975; -503.000; -658.000
881.631;  -87.025; -311.000; -166.000
881.877;  -32.850;  112.000;  -13.000
882.122; -139.125; -684.000; -600.000
882.367;  -96.425; -136.000; -186.000
882.612;  -78.375;  -80.000; -176.000
882.858; -182.150; -877.000; -823.000
883.103;  -94.700; -297.000; -267.000
883.348; -160.925; -759.000; -852.000
883.593; -145.550; -677.000; -602.000
883.838;  -70.475; -311.000;  -24.000
884.083;   17.025;  353.000;  288.000
884.328; -107.850; -564.000; -545.000
884.573;  -57.900; -196.000; -143.000
884.818;  199.525; -694.000; -531.000
885.063;  182.825; -348.000; -315.000
885.308; -107.625; -475.000; -398.000
885.553;  -12.350;  245.000;  325.000
885.797; -143.800; -545.000; -615.000
886.042;  -50.500;    8.000;   58.000
886.287;  -97.275; -253.000; -211.000
886.532;  -71.575;   26.000;  204.000
886.776; -103.875; -407.000; -525.000
887.021; -149.100; -621.000; -574.000
887.265; -161.425; -685.000; -689.000
887.510; -140.850; -557.000; -496.000
887.755;  -95.225; -194.000; -164.000
887.999; -154.625; -552.000; -575.000
888.244;  -67.800;  -58.000;  161.000
888.488;   -1.125;  371.000;  393.000
888.732; -142.725; -368.000; -520.000
888.977; -141.300; -622.000; -567.000
889.221; -168.850; -683.000; -659.000
889.465; -127.600; -422.000; -566.000
889.710;  -94.025;  -56.000; -299.000
889.954;   -6.725;  579.000;  467.000
890.198; -145.925; -584.000; -707.000
890.442; -153.325; -716.000; -712.000
890.687; -167.800; -800.000; -753.000
890.931;  -89.375; -273.000; -210.000
891.175; -140.850; -502.000; -500.000
891.419;  -68.375; -105.000; -110.000
891.663;  -88.850; -239.000; -112.000
891.907; -173.325; -801.000; -545.000
892.151; -191.500; -920.000; -815.000
892.395; -117.175; -274.000; -387.000
892.638;  -19.925;  408.000;  291.000
892.882; -172.625; -780.000; -867.000
893.126;    9.500;  758.000;  558.000
893.370;  -95.500; -167.000; -168.000
893.614; -160.375; -714.000; -715.000
893.857; -109.650; -183.000; -197.000
894.101; -141.575; -527.000; -631.000
894.345;  -63.100;  300.000;  150.000
894.588;    4.650;  569.000;  380.000
894.832;  -88.225; -178.000;  -84.000
895.075;  -82.300;   15.000;  -92.000
895.319; -146.125; -552.000; -420.000
895.563; -119.050; -413.000; -353.000
895.806; -163.000; -628.000; -741.000
896.049;  -72.200; -576.000; -368.000
896.293;   95.400;  527.000;  405.000
896.536;  -83.450; -465.000; -468.000
896.779;  -65.125; -149.000;   -1.000
897.023; -152.400; -751.000; -714.000
897.266;  -42.775;  325.000;  269.000
897.509; -187.750; -900.000; -901.000
897.752;  -35.925;  149.000;  171.000
897.996; -208.575; -972.000; -864.000
898.239;  -58.575;  168.000;  102.000
898.482; -135.900; -431.000; -453.000
898.725;  -38.025;  101.000;   53.000
898.968; -163.125; -609.000; -744.000
899.211; -113.950; -513.000; -361.000
899.454; -124.650; -633.000; -539.000
899.697;  -81.375;   90.000;  -43.000
899.940; -176.425; -761.000; -757.000
900.182; -108.900; -335.000; -405.000
900.425;  -94.475; -150.000; -298.000
900.668;  -36.175;  491.000;  350.000
900.911; -111.350; -292.000; -345.000
901.154;  -45.550;  141.000;   -3.000
901.396; -139.250; -407.000; -412.000
901.639; -135.650; -430.000; -496.000
901.882; -191.675; -790.000; -809.000
902.124;  -77.225;  -29.000; -143.000
902.367; -109.175; -315.000; -361.000
902.609; -131.375; -476.000; -453.000
902.852;  -86.100; -108.000; -260.000
903.094; -125.125; -458.000; -337.000
903.337;  -70.325;  -26.000;   53.000
903.579; -124.075; -228.000; -441.000
903.821; -165.500; -597.000; -744.000
904.064;  -71.750;   85.000;  127.000
904.306;  -91.775; -126.000; -166.000
904.548; -111.050; -152.000; -366.000
904.790;  -98.150; -195.000; -340.000
905.033; -137.850; -625.000; -577.000
905.275; -143.150; -513.000; -524.000
905.517;   28.950;  468.000;  256.000
905.759;  -77.675; -667.000; -761.000
906.001; -108.100; -322.000; -369.000
906.243;  -70.825; -162.000; -224.000
906.485;  117.025; -265.000; -207.000
906.727;  101.850; -499.000; -542.000
906.969;  -42.650;  -30.000; -135.000
907.211;  111.650; -316.000; -382.000
907.453;  282.025; -188.000; -237.000
907.695;   -7.800; -158.000; -385.000
907.936;   25.100;  818.000;  706.000
908.178;  -64.850;   92.000; -135.000
908.420;  -75.600; -111.000; -162.000
908.662; -137.125; -633.000; -682.000
908.903;  -83.275; -208.000; -123.000
909.145;  -71.650; -240.000; -305.000
909.386;    9.275;  315.000;  280.000
909.628;   24.475;  363.000;  397.000
909.870;   -1.800;   29.000;  264.000
910.111;  -99.525; -809.000; -949.000
910.353;    0.525; -123.000; -161.000
910.594;  -12.025; -574.000; -606.000
910.835;   86.450; -265.000; -326.000
911.077;  153.950; -503.000; -604.000
911.318;  280.050; -505.000; -471.000
911.559;  464.850; -577.000; -880.000
911.801; 1363.700; -284.000; -280.000
912.042;10568.525;  -50.000; -159.000
912.283;26761.275;  404.000;  371.000
912.524; 3953.050; -396.000; -457.000
912.765;  451.375; -193.000;   79.000
913.006;  217.425; -307.000; -338.000
913.247;   41.100; -270.000; -290.000
913.488;   -0.450;  -43.000;   30.000
913.729;  -94.400; -373.000; -373.000
913.970;  -81.800;  -96.000; -292.000
914.211;  -77.325; -160.000; -198.000
914.452;  -72.625; -118.000;  -11.000
914.693;    6.400;  510.000;  592.000
914.934;   14.325;  510.000;  440.000
915.175;  -69.950;   53.000;  -95.000
915.415;  -86.675; -137.000;   27.000
915.656;  -66.150;  -28.000;  192.000
915.897; -108.400; -252.000;  -82.000
916.137;  -81.075;   74.000;   -9.000
916.378; -131.150; -573.000; -517.000
916.619;  -90.525; -159.000;  -63.000
916.859;  -34.725;  303.000;  330.000
917.100;  139.950; 1655.000; 1070.000
917.340;   46.550;  930.000;  728.000
917.581;   47.525;  965.000;  789.000
917.821;  -56.625; -171.000;  143.000
918.061;   11.450; -199.000;  -72.000
918.302;  -68.525; -152.000; -211.000
918.542;  -32.550;  -22.000;    3.000
918.782;   21.150;  369.000;  377.000
919.023;  126.875;  360.000;  427.000
919.263; 1356.225; 8131.000;  202.000
919.503; 1087.125; -137.000;  -54.000
919.743;  633.300;  390.000;  266.000
919.983;  262.100; -134.000;  -26.000
920.223;   79.475;  135.000;   14.000
920.463;  140.525;  631.000;  554.000
920.703;  121.850;   84.000;   39.000
920.943;  161.725; -110.000;   90.000
921.183;  206.075; -414.000; -405.000
921.423;  491.400;  307.000;  546.000
921.663;  702.825; -174.000; -257.000
921.903; 1556.125;  237.000;  173.000
922.143; 8710.025;  372.000;  389.000
922.383;33108.000;  158.000;  115.000
922.622;10874.250; -120.000;  -15.000
922.862; 1153.650;  796.000;  785.000
923.102;  459.800;  -51.000;   33.000
923.341;  174.850;   59.000;   74.000
923.581;   76.375;  450.000;  360.000
923.821;   10.975;  301.000;  398.000
924.060;    7.375;  351.000;  193.000
924.300;  -63.450;  -16.000; -128.000
924.539;  -17.150;  584.000;  473.000
924.779;   18.125;  812.000;  597.000
925.018;  -58.800;  247.000;  353.000
925.257;   -9.225;  595.000;  666.000
925.497;  -46.225;  447.000;  412.000
925.736;  -74.475;  -35.000;  102.000
925.975;    4.025;  687.000;  669.000
926.214;   35.800;  907.000;  850.000
926.454;   23.525;  706.000;  757.000
926.693;  -33.100;  419.000;  543.000
926.932;   34.025; 1021.000;  825.000
927.171;   65.300; 1107.000; 1044.000
927.410;   42.100; 1144.000;  967.000
927.649;   15.825;  924.000;  742.000
927.888;  -11.650;  590.000;  564.000
928.127;   -7.025;  680.000;  678.000
928.366;   17.725;  842.000;  826.000
928.605;   46.800;  831.000;  737.000
928.844;  238.900; 1451.000; 1393.000
929.083;  589.275;  770.000;  613.000
929.321;  315.400; 1335.000; 1359.000
929.560;   84.675; 1158.000; 1122.000
929.799;  -43.300;  574.000;  475.000
930.038;   80.300; 1025.000; 1394.000
930.276;  -61.375;  334.000;  397.000
930.515;    3.625;  827.000;  681.000
930.753;  -25.975;  614.000;  589.000
930.992;  -24.325;  664.000;  717.000
931.230;   -2.175;  847.000;  847.000
931.469;  159.225; 2162.000;  892.000
931.707;   65.625;  840.000;  751.000
931.946;   49.375; 1278.000; 1344.000
932.184;   56.250; 1437.000; 1175.000
932.423;   28.925; 1265.000;  963.000
932.661;   94.425; 1296.000; 1428.000
932.899;   27.200;  987.000;  821.000
933.137;    1.675;  754.000;  564.000
933.376;  136.225; 1664.000; 1335.000
933.614;  158.675; 1759.000; 1196.000
933.852;   50.400; 1357.000; 1171.000
934.090;  137.050; 1722.000; 1747.000
934.328;   97.800; 1252.000; 1457.000
934.566;   69.425; 1431.000; 1110.000
934.804;  150.075; 1263.000; 1309.000
935.042;  439.400; 1861.000; 1850.000
935.280; 1745.500; 2088.000; 2063.000
935.518; 1618.225; 2113.000; 2007.000
935.756;  348.725; 2481.000; 2316.000
935.994;  160.600; 1808.000; 1751.000
936.231;  356.450; 2890.000; 2950.000
936.469;  184.575; 2367.000; 2378.000
936.707;  167.350; 2220.000; 2167.000
936.945;  230.725; 2825.000; 2882.000
937.182;  217.300; 2679.000; 2741.000
937.420;  296.750; 3602.000; 3031.000
937.657;  419.100; 3365.000; 3478.000
937.895;  348.075; 3331.000; 3488.000
938.133;  310.850; 3540.000; 3528.000
938.370;  336.175; 3896.000; 4191.000
938.607;  399.850; 4488.000; 4205.000
938.845;  540.850; 5587.000; 5549.000
939.082;  487.575; 5387.000; 5177.000
939.320;  522.300; 5799.000; 5728.000
939.557;  658.075; 6549.000; 6491.000
939.794;  731.850; 7285.000; 7097.000
940.031;  887.775; 8421.000; 8368.000
940.269; 1118.375; 9552.000; 9107.000
940.506; 1112.875;10901.000;10507.000

