
Integration time [ms]: 100.000
Averaging Nr. [scans]: 40
Smoothing Nr. [pixels]: 0
Data measured with spectrometer [name]: 2101013U2
Wave   ;Sample   ;Dark     ;Reference
[nm]   ;[counts] ;[counts] ;[counts] 

394.013;   41.406; -450.257; -315.536
394.305;  175.904; -461.258; -419.536
394.596; 1090.475; -676.269; -527.514
394.887; 2722.917; -796.268; -654.518
395.178; 1052.022;  145.736;   11.476
395.470;   86.434; -210.263; -356.526
395.761;  184.332;  305.734;  394.479
396.052;  211.124; -545.284; -306.489
396.343;  213.644; -557.276; -454.503
396.634;   97.363; -200.279; -290.497
396.926;   99.864; -618.268; -565.517
397.217;  106.874;   11.725;  -17.504
397.508;   37.040; -366.273; -154.507
397.799;   26.788; -555.279; -571.497
398.090;   -8.043; -973.280; -902.495
398.381;  111.448;   11.708;  -11.473
398.672;  -13.300; -585.292; -742.473
398.963;   33.894; -348.279; -373.498
399.254;  104.034;   54.709; -209.475
399.545;  -37.697;-1017.266; -883.520
399.836;   50.933; -407.277; -343.501
400.127;   55.324; -205.295; -209.468
400.418;   59.034; -423.274; -392.506
400.709;   57.194; -359.281; -333.493
401.000;   47.188; -268.291; -309.476
401.290;  106.711;  225.698;  115.545
401.581;   69.057; -166.286; -228.485
401.872;   28.896; -542.298; -486.462
402.163;   55.542; -313.296; -252.467
402.454;   94.084; -123.291; -163.475
402.744;   67.158; -844.297; -813.465
403.035;  416.690; -226.293;  -86.471
403.326;  552.677; -366.292; -384.474
403.617;  368.816;  204.701;  165.539
403.907;  254.930; -593.283; -679.490
404.198; 2409.789; -545.307; -599.446
404.489; 6237.985; -618.283; -588.491
404.779; 2064.289; -618.302; -660.456
405.070;  252.193;  -67.304; -174.451
405.360;  338.667; -259.293; -238.472
405.651;  370.725;  125.699;   98.542
405.942;  182.277;  209.714;  127.516
406.232;  236.166; -432.285; -413.487
406.523;  459.759;  641.706;  758.530
406.813;   91.279; -579.286; -644.484
407.104;  316.097;  261.708;  144.527
407.394;  161.292; -604.299; -591.462
407.685;  156.641;  336.715;  222.513
407.975;   63.208; -400.283; -382.490
408.265;  121.999; -134.289; -190.478
408.556;   55.256; -472.291; -459.475
408.846;  167.610;  474.706;  429.530
409.137;   86.657;   -1.288; -216.480
409.427;   69.441; -193.285; -271.487
409.717;   15.893; -776.273; -692.508
410.007;  139.785;    4.715; -170.486
410.298;   89.452; -360.295; -342.469
410.588;   77.063; -495.285; -510.486
410.878;   23.493; -792.287; -873.482
411.168;  117.924; -481.298; -478.463
411.459;  120.578; -295.283; -242.489
411.749;   57.680; -609.292; -507.474
412.039;   50.931; -755.289; -386.480
412.329;  220.901;   40.722;  132.501
412.619;  197.504;  -62.286; -148.485
412.909;  361.402;  639.711;  594.521
413.199;  319.582; -130.280; -251.495
413.490;  376.767;  521.710;  352.523
413.780;  153.211;-1013.279; -913.496
414.070;  317.595;  -46.276;  235.497
414.360;  341.422; -729.278; -666.498
414.650;  420.564; -726.288; -688.482
414.940;  522.811; -538.280; -441.496
415.230;  927.686;   50.712;   74.519
415.520; 6093.774;  155.730;   66.486
415.809;23866.919; -305.281; -125.493
416.099;18809.010; -388.277; -229.501
416.389; 5232.407;  435.726;  236.494
416.679; 3113.187;   91.738;   85.473
416.969;  539.773; -527.287; -503.483
417.259;  582.613;  341.721;  171.503
417.549;  697.692;  522.718;  318.508
417.838; 1676.991; -205.268; -147.518
418.128; 5481.148;  650.710;  492.522
418.418; 4620.224; -491.272; -579.509
418.708; 3114.032;    9.726;  -48.506
418.997;11624.353; -474.275; -480.505
419.287;12227.489; -733.273; -790.507
419.577;11508.752; -160.283; -123.489
419.866;38022.733; -588.277; -498.501
420.156;39019.795; -242.270;  -55.513
420.446; 7119.180; -112.263;  -26.526
420.735;  826.914; -376.271; -446.512
421.025;  840.446; 1830.722;  315.502
421.314;  656.162; -203.271; -226.512
421.604; 1287.659;   89.732;  233.484
421.893;  749.158; -705.271; -602.511
422.183;  226.730; -487.263; -461.526
422.472;  369.185;  -36.271; -107.511
422.762;  416.909; -416.266; -379.521
423.051;  232.771; -916.276; -916.503
423.341;  304.716; -491.273; -439.507
423.630;  401.265; -121.265;   15.477
423.919;  376.077;   58.725;   49.495
424.209;  358.635;  -31.263;   56.473
424.498;  483.339;   68.732;  161.483
424.787; 1079.845; -535.267; -601.518
425.077; 3325.089;   34.735;   29.478
425.366; 4487.066; -734.262; -744.528
425.655; 9754.441;  639.727;  259.493
425.945;21739.321; -313.247; -268.554
426.234;12151.339;  117.741;  300.467
426.523; 5043.844;  -86.259; -350.534
426.812; 6990.230;  107.734;  159.480
427.101;10233.705; -127.269; -323.515
427.390;12823.374;  -55.270;  -86.514
427.680; 2801.739; -624.257; -411.538
427.969;  460.750; -330.255; -301.540
428.258;  319.780; -385.257; -477.536
428.547;  505.478;  449.728;  397.490
428.836; 1146.866; -421.253; -398.543
429.125; 1633.296; -199.259;  -72.534
429.414;  782.689; -330.251; -294.548
429.703; 3142.614; -231.251; -213.548
429.992; 9283.292; -938.250; -828.549
430.281; 6200.248; -397.264; -331.524
430.570;  579.604;  -21.252;   32.454
430.859;  527.294;  279.741;  352.466
431.148;  440.117;  636.752;  631.446
431.437;  296.679;  391.748;  367.454
431.725;  154.907; -544.257; -481.536
432.014;  133.848; -845.253; -756.545
432.303;  374.718; -149.239; -105.569
432.592;  576.654; -460.263; -178.525
432.881; 1055.243; -601.248; -437.554
433.169; 6210.451; -343.255;  -61.540
433.458;12650.377;  445.765;  540.424
433.747; 5300.247; -397.261; -289.529
434.036;  858.794; -275.242; -280.564
434.324; 2059.405; -395.249; -379.551
434.613; 3652.862;   40.757;  159.437
434.902; 1192.733;  333.760;  439.433
435.190;  520.492;   75.761;  295.431
435.479;  296.644;  -52.245;   83.441
435.767;   93.477; -411.244; -427.561
436.056;  201.564; -340.242; -294.563
436.345;  361.860; -372.240; -223.568
436.633;  377.050;   60.750;  383.450
436.922;  252.288;  208.760;  414.432
437.210;  512.517; -194.236;    1.426
437.499; 1674.750; -583.235; -432.576
437.787; 1890.816; -339.236;  -10.574
438.075;  495.297;   56.761;  162.430
438.364;  637.100;  -44.238;  250.429
438.652;  394.630; -286.226; -138.592
438.941;  131.744;    3.770;  269.415
439.229;    6.826; -665.252; -466.545
439.517;   51.183; -160.234;  -85.577
439.806;    0.546; -501.225; -290.595
440.094;  165.991;  377.766;  650.421
440.382;  153.270; -653.233; -302.580
440.670;  165.249; -361.235; -285.576
440.959;   19.488; -347.223; -170.599
441.247;   66.730; -151.229; -109.587
441.535;   95.432; -266.235;   31.423
441.823;   29.163; -497.234; -305.578
442.111;  186.110;  173.771;  327.412
442.400;  458.568; -628.245; -335.559
442.688; 1253.216; -111.234; -620.579
442.976;  863.677; -786.213; -450.617
443.264;  105.528; -324.224; -364.597
443.552;   93.506; -258.226;   51.408
443.840;  165.705;  602.765;  876.423
444.128;  114.769;  265.767;  269.420
444.416;  -17.113; -694.228; -312.588
444.704;   35.818; -465.219;  -92.605
444.992;   72.934;   -0.226;  240.407
445.280;   32.470; -517.230;  -94.585
445.568;   29.330; -694.212; -396.618
445.856;  317.802; -174.221;  357.398
446.143;  667.464;  -54.220;   -7.604
446.431;  573.766;  -25.228;  625.411
446.719;  250.262;  489.783;  675.391
447.007;  191.739;  481.769;  705.416
447.295;  183.135;  597.777;  871.402
447.583;   76.978; -464.229;  -34.587
447.870;  138.574; -434.221; -202.601
448.158;  370.918; -104.230;  129.415
448.446;  291.090; -800.219; -338.604
448.733;  172.929;   13.776;  269.403
449.021;  249.980;   60.788;  341.382
449.309;  188.495; -296.210;  208.379
449.596;  226.709;  128.783;   59.392
449.884;  154.042; -571.222; -325.600
450.172;  142.721; -756.227; -406.590
450.459;  473.760;  645.786;  780.387
450.747; 2393.232; -411.218; -147.608
451.034; 7677.142;  493.772;  889.411
451.322; 6384.363; -413.214; -170.614
451.609;  567.355;  292.777;  508.403
451.897;  589.308; -550.203; -183.634
452.184; 1779.636; -622.223; -400.598
452.472; 1688.266;   97.792;  269.375
452.759;  355.866;  512.781;  864.395
453.047;  117.652; -407.212; -125.617
453.334;   57.624; -732.219; -216.606
453.621;   81.490; -438.214; -161.615
453.909;  119.400;   13.796;  384.368
454.196;  105.296; -299.199; -123.641
454.483;  201.146;  317.798;  540.364
454.771;  128.544; -215.208;  196.374
455.058;   35.773; -316.207;  102.374
455.345;  127.651;   71.807;  344.347
455.632;   97.326; -128.207;  235.373
455.919;   51.293;  -82.196;  182.354
456.207;  -40.825; -774.198; -450.642
456.494;  -20.742; -475.200;  -66.639
456.781;   13.517; -399.202; -198.635
457.068;   60.983; -253.206;  -29.628
457.355;  -20.116; -698.206; -401.629
457.642;   -5.361; -552.205; -290.630
457.929;    2.142; -778.194; -417.651
458.216;   67.428; -575.212; -354.617
458.503;  245.222; -173.193;  -19.652
458.790;  241.942; -864.208; -630.625
459.077;  268.397;  -77.202;  110.364
459.364;  800.460; -350.195; -210.649
459.651; 1703.055;  -46.206;  220.372
459.938;  797.633; -864.209; -665.623
460.225;  143.675;  132.799;  276.363
460.512;  -43.535; -836.197; -688.645
460.799;   91.556;  -32.218;  320.392
461.086;   79.813; -370.200; -251.640
461.372;   44.076; -509.198; -279.642
461.659;  106.645; -165.196;  108.354
461.946;   58.145; -445.193;  -54.651
462.233;  247.311;  842.800;  888.361
462.519;  337.682; -814.201; -464.639
462.806; 1006.041; -768.197; -497.645
463.093;  888.866; -445.191;  -66.656
463.380;  -16.167; -920.186; -824.664
463.666;   58.118; -259.197;  -18.646
463.953;   99.930; -406.195; -243.648
464.239;  179.205; -173.195;  -77.648
464.526;  378.491;  413.806;  743.350
464.813;  318.278; -565.190; -304.658
465.099;  343.721;  606.807;  607.348
465.386;  321.350;  903.807;  921.348
465.672;   18.766; -694.197; -522.645
465.959;   11.071; -598.188; -520.662
466.245;   12.600; -468.193; -359.652
466.532;  100.828; -109.195;   63.352
466.818;   74.932; -357.186; -216.664
467.104;    3.823; -488.182; -415.672
467.391;  -21.395; -628.189; -459.658
467.677;   26.211; -289.186;    9.335
467.964;   15.036; -682.189; -471.660
468.250;   69.214; -331.186; -160.665
468.536;   80.481;   90.811;  180.341
468.822;  -30.424; -821.184; -574.668
469.109;  141.154;  351.827;  471.311
469.395;  197.110;  729.808;  787.346
469.681;  194.209;   46.811;  156.341
469.967; 1245.739; -699.188; -382.660
470.254; 2730.697; -494.188; -306.662
470.540; 1747.793; -601.196; -476.646
470.826;  256.859; -488.181; -397.675
471.112;  302.254;  288.816;  113.331
471.398;   88.034; -253.183;  -58.670
471.684;   38.962; -626.177; -447.680
471.970;   -1.387; -918.180; -981.675
472.256;   28.084; -521.192; -441.654
472.542;   20.790; -499.171; -434.691
472.828;    1.819; -743.182; -607.672
473.114;   29.684; -380.166; -283.700
473.400;   29.054; -504.175; -293.684
473.686;   22.515; -452.166; -400.701
473.972;   39.119; -230.174; -131.687
474.258;  -26.196; -925.173; -843.689
474.544;  208.979; -183.178;   -2.679
474.830;  307.956;  -65.175;   45.316
475.116;  502.004; -123.190; -196.658
475.401;  664.690; -558.180; -467.676
475.687;  197.039; -725.180; -718.676
475.973;    2.777; -673.181; -770.673
476.259;  245.458;  736.825;  764.315
476.544;  362.095; -539.176; -437.682
476.830;  838.911; -398.172; -322.690
477.116;  743.694; -430.177; -336.682
477.401;  142.514;  346.820;  358.324
477.687;  -18.021; -289.175; -405.684
477.973;   32.705;   21.819;   28.326
478.258;   -9.765; -448.163; -348.706
478.544;   52.269;   21.815;   61.334
478.829;  -57.230; -818.171; -738.692
479.115;  -32.165; -749.172; -651.690
479.401;  -13.211; -444.174; -449.686
479.686;   46.538; -253.180;  -74.676
479.972;  -31.366; -886.178; -776.680
480.257;   49.360; -258.166;  -65.700
480.542;   -7.376; -614.170; -469.693
480.828;  237.052; 1288.824; 1392.317
481.113;  -38.500; -464.176; -426.683
481.399;   -9.441; -236.161; -202.711
481.684;  -58.241; -620.166; -462.700
481.969;   14.098; -158.159;  -73.713
482.255;   -5.840; -439.169; -285.695
482.540;   15.484; -569.178; -441.680
482.825;   22.378; -395.187; -404.663
483.110;   89.538;  -85.169; -105.696
483.396;  185.769; -840.157; -652.718
483.681;  507.344;  543.826;  730.313
483.966;  160.442; -696.160; -700.712
484.251;   -3.557; -404.174; -310.687
484.536;   -3.280; -356.165; -378.703
484.822;   16.221; -205.173; -218.687
485.107;  -21.317; -599.152; -502.726
485.392;  138.301;  662.836;  541.296
485.677;   79.698;  354.832;  163.302
485.962;  114.892;  160.843;  270.283
486.247;   95.568;  -14.162;   -8.707
486.532;   56.911; -178.166; -325.701
486.817;  159.529;  381.839;  431.291
487.102;  115.716; -453.154; -514.722
487.387;  678.846; -637.156; -652.718
487.672; 1187.181; -154.164;  -38.705
487.957;  754.961; -394.160; -286.711
488.241;  202.200; -290.150; -314.729
488.526;  752.684; -280.152; -148.726
488.811; 1214.036; -881.177; -818.680
489.096;  933.618; -666.154; -702.723
489.381;  499.855;    3.847;  162.275
489.666;  375.584; -428.161; -510.710
489.950;  198.621;  558.846;  627.277
490.235;  -45.105; -480.151; -458.728
490.520;  -49.967; -756.161; -723.710
490.804;  -50.227; -827.156; -736.719
491.089;   -3.835; -469.149; -299.732
491.374;   36.305; -132.164;  -75.704
491.658;   -2.048; -817.147; -717.735
491.943;  147.188; -657.152; -609.727
492.227;  250.162; -178.155;  -38.721
492.512;   48.117; -294.157; -341.717
492.797;  -52.891; -713.149; -716.731
493.081;  -62.320; -588.147; -598.735
493.366;  -35.615; -751.161; -635.711
493.650;  206.958;  831.859;  917.254
493.935;   31.951; -648.147; -447.734
494.219;  -33.755; -778.142; -687.743
494.503;  -47.646; -585.150; -487.730
494.788;   32.808;   46.842;   74.285
495.072;  116.926;  184.850;  434.271
495.356;  175.244; -463.148; -343.733
495.641;  446.711; -812.146; -736.736
495.925;  432.528; -976.156; -903.719
496.209;   36.215; -599.149; -451.732
496.494;  -42.979; -763.142; -544.744
496.778;   -2.834; -364.154; -360.722
497.062;  -52.747; -819.156; -627.719
497.346;  -38.137; -869.160; -640.711
497.631;  162.997;  580.852;  560.266
497.915;   83.947;  -64.145;  175.261
498.199;   52.769; -341.157; -277.718
498.483;   35.757; -562.152; -508.725
498.767;  199.177;  301.850;  300.271
499.051;  181.112; -126.149; -100.732
499.335;   25.636; -693.149; -739.731
499.619;  -24.715; -381.129; -423.767
499.903;   23.110; -272.155;  -65.721
500.187;   39.048; -588.153; -316.724
500.471;   24.063; -796.152; -595.727
500.755;  108.583;   62.839;  -96.710
501.039;   14.136; -270.155; -357.721
501.323;  102.085;  -21.141;  264.254
501.607;   23.136; -447.163; -503.706
501.891;   -6.404; -607.156; -512.718
502.174;  -31.867; -726.144; -585.741
502.458;   64.317;   89.849;  370.273
502.742;   37.759; -180.138; -191.751
503.026;   93.701; -412.147; -254.734
503.310;  177.847; -437.159; -375.713
503.593;  125.478; -464.147; -325.735
503.877;  116.349; -232.133; -156.760
504.161;  168.325;    2.847;  -50.724
504.444;  118.085; -841.158; -710.716
504.728;  461.179; -487.164; -522.704
505.012;  722.299; -257.150;  -76.729
505.295;  539.034; -417.161; -212.711
505.579;  532.378; -256.156; -496.719
505.862;  756.418; -555.145; -333.738
506.146;  766.099; -681.159; -758.714
506.429;  426.925;  568.841;  461.286
506.713;   76.896; -732.151; -667.728
506.996;  308.840;   90.846;  295.278
507.280;  342.149; -633.165; -474.703
507.563;  229.834; -469.155; -261.721
507.847;   95.224; -423.153; -112.724
508.130;   90.285; -665.161; -456.711
508.413;  130.956; -758.167; -577.700
508.697;  244.681; -151.167;   12.300
508.980;  160.600; -422.153; -312.724
509.263;  -19.995; -466.155; -450.720
509.547;   47.224; -124.150;   82.271
509.830;   30.062; -172.160;  140.289
510.113;   84.002;  128.844;  298.281
510.396;   16.106; -530.152; -300.725
510.680;  148.270; -818.145; -812.738
510.963;  559.270;  184.846;  180.277
511.246;  473.481; -493.150; -357.730
511.529;  260.924; -482.145;  -83.739
511.812;  387.346; -250.134;   10.241
512.095;  273.718; -740.151; -396.728
512.378;   64.657; -317.147; -245.736
512.661;   19.541; -703.137; -623.753
512.944;   22.222; -750.142; -637.744
513.227;   63.864; -170.137; -171.752
513.510;   23.158; -479.144; -671.741
513.793;   22.214; -485.140; -435.747
514.076;  135.405;  -43.127;  -39.771
514.359;  119.416; -294.149; -135.732
514.642;   91.725; -442.142; -567.744
514.925;  757.213;  581.860;  561.253
515.208; 1000.017; -498.134; -443.758
515.491;  672.906; -276.133; -182.761
515.773;  372.387; -410.143; -337.742
516.056; 2120.648;  249.864;  409.246
516.339; 2839.302; -754.136; -652.755
516.622; 1863.554; -518.150; -488.730
516.904; 1151.069;  882.857;  975.257
517.187;  504.262; -730.138; -523.752
517.470;  380.643; -568.143; -510.743
517.752;  443.730; -624.136; -470.756
518.035;  363.475; -708.139; -725.749
518.318;  361.627; -799.136; -744.755
518.600; 2457.085; -300.132; -325.762
518.883; 3348.700;  310.858;   88.256
519.165; 1625.105; -585.138; -426.751
519.448;  370.534;  -61.132;  -19.762
519.730;  187.613; -573.126; -415.773
520.013;  305.577;  588.867;  664.240
520.295;  758.322;  -94.134;  -15.759
520.578; 1688.872; -335.131; -305.764
520.860; 1902.659; -254.132;   56.238
521.143; 1018.607; -763.135; -584.756
521.425;  456.576; -251.125; -279.775
521.707;  676.556; -622.127; -380.771
521.990; 1776.731; -199.127;  167.229
522.272; 2023.091; -116.140;   -4.748
522.554;  904.862; -237.143; -157.742
522.836;  351.220;  -24.134;   99.241
523.119;  216.175; -496.148; -189.734
523.401;  139.604; -448.130; -314.766
523.683;   95.217; -865.137; -693.753
523.965;  277.860;  408.862;  260.248
524.247;  282.747;   54.878;  170.220
524.529;  204.722; -451.134; -367.759
524.812;  355.381;   -3.130;  191.234
525.094;  867.360; -773.138; -631.751
525.376; 1380.960; -143.124;   78.223
525.658;  829.224; -441.136; -339.754
525.940;   14.369; -805.131; -671.764
526.222;   21.703; -188.136;  -88.755
526.504;  106.892; -190.131;   32.237
526.786;  147.700; -960.133; -647.760
527.068;  281.841; -124.123;  -67.778
527.349;   95.021; -865.137; -774.754
527.631;  159.834; -137.132;   22.238
527.913;  129.905; -664.127; -450.771
528.195;  179.294; -761.125; -639.774
528.477;  251.892;  -93.134;  -30.758
528.759;  120.956; -648.130; -522.766
529.040;   60.389; -569.123; -293.778
529.322;   48.047; -235.125;  -10.774
529.604;  130.558;  -47.130;   93.233
529.886;  117.913; -546.126; -302.773
530.167;  121.925;  232.870;  192.235
530.449;   46.481;    1.853;   63.265
530.731;   19.821; -572.122; -459.779
531.012;   66.842; -513.120; -216.784
531.294;   80.356; -118.116;  -43.792
531.575;  162.851;  290.875;  538.225
531.857;   62.187; -548.135; -266.757
532.138;  106.108; -113.141;   40.254
532.420;  166.033;  294.865;  403.244
532.701;  189.252; -722.133; -751.760
532.983;  321.205;  232.867;  182.239
533.264;  125.011; -243.126;  175.228
533.546;  -38.198; -491.136; -508.755
533.827;   50.149;  173.867;   -1.759
534.109;   34.287; -352.135;  -80.757
534.390;   94.413; -725.132; -582.762
534.671;  245.508; -270.135;  -82.756
534.953;  143.642; -751.123; -611.779
535.234;   19.166; -426.117; -255.789
535.515;  -79.924; -891.119; -735.785
535.796;  -18.399; -431.128; -193.770
536.078; -120.690;-1050.124; -904.777
536.359;   21.018;  -22.123;    3.221
536.640;  -13.080; -480.125; -197.774
536.921;  147.614;  225.871;  143.232
537.202;  367.506;  -87.138;  -16.751
537.483;  457.472;  251.869;  377.236
537.764;  185.450;   17.870;   98.235
538.045;  -43.634; -543.134; -371.758
538.326;  -42.410; -596.129; -447.768
538.607;   27.282; -686.127; -476.771
538.888;  172.283;   98.879;    5.218
539.169;  195.428; -704.122; -535.781
539.450;  325.312;  236.871;   16.233
539.731;  228.737; -361.121; -182.783
540.012;  145.342;  199.880;  412.216
540.293;   88.679;   82.876;  158.224
540.574;   -7.273; -895.113; -717.796
540.855;  456.336;  435.879;  377.218
541.136;  519.725;   47.878;  139.220
541.416;  277.457; -161.130; -220.766
541.697;  206.067; -274.131; -170.763
541.978; 1051.735; -270.135; -315.757
542.259; 1340.232; -211.127; -236.771
542.539;  648.725; -191.116; -186.790
542.820;  186.701;  461.875;  480.225
543.101;  124.096;  -52.145;  -77.738
543.381;   29.156; -638.127; -591.771
543.662;  272.854;  159.873; -254.771
543.942;  574.527; -751.127; -830.770
544.223; 1092.877;  193.878;  161.219
544.504;  692.159; -275.124; -182.777
544.784;  589.813; -592.126; -408.773
545.065; 1649.429;  104.884; -254.791
545.345; 1973.751;  227.881;   14.215
545.626; 1305.551;  -14.113; -108.796
545.906;  887.274;   77.869;   98.235
546.186;  365.592;   92.874;  -95.773
546.467;  189.362;   99.877;  -95.778
546.747;  322.100;  264.884;  327.210
547.027;  376.333;   91.876;  111.223
547.308;  315.551; -376.127; -530.770
547.588;  387.666;  299.871;  371.232
547.868;  191.976;  458.870;  588.235
548.149;  208.836;  609.885;  593.207
548.429;  126.580; -347.127; -299.771
548.709;  190.192; -645.120; -461.784
548.989;  479.185;   84.882;   88.213
549.269; 2173.183;   10.868;  139.239
549.550; 4848.391;  215.877;  117.222
549.830; 4354.319; -758.111; -556.799
550.110;  908.102; -468.110; -320.801
550.390;  850.122; -128.122;  -56.779
550.670; 1130.122; -868.114; -783.795
550.950;  813.135; -509.121; -471.782
551.230;  198.882;  549.879;  460.218
551.510;   -4.641; -381.121; -326.782
551.790;   29.760; -173.109; -127.803
552.070;  286.062;  940.877; 1181.223
552.350;  412.705; -492.119; -377.786
552.630;  582.704;   -2.121;   77.219
552.909;  337.380;  181.884;   73.209
553.189;  249.939;  -49.132;   33.237
553.469;  181.079; -703.119; -514.786
553.749;  192.533; -469.127; -357.772
554.029;  163.271;   33.883;  -24.790
554.308;  154.041; -154.115;  -37.794
554.588;   71.675; -196.128; -204.770
554.868;   67.086; -366.121;  -47.782
555.147;  159.113; -114.115;  -46.793
555.427;  648.957; -260.116; -250.792
555.707; 3917.911; -284.115; -200.793
555.986; 4750.273; -719.111; -538.800
556.266; 2535.549;   23.884;   72.210
556.546;  120.534; -888.121; -675.782
556.825;  252.470; -657.114; -556.794
557.105; 1801.023; -125.128;   17.230
557.384; 2120.028;  122.884;  187.209
557.664;  809.456; -717.116; -508.792
557.943;  124.860; -557.121; -411.782
558.222;  183.138; -345.118; -344.788
558.502;  294.764; -116.115;  -76.793
558.781;  492.360;  194.885;  499.208
559.061;  404.713; -232.118; -227.788
559.340;  313.893;  302.883;  353.211
559.619;  708.574;   93.884;  148.210
559.899; 1057.895; -239.117; -266.789
560.178;  975.089; -778.115; -593.793
560.457; 3211.722; -623.117; -562.790
560.736; 4451.474; -472.111; -482.800
561.015; 2933.346; -500.128; -502.769
561.295;  384.280;  180.893;  215.193
561.574;  347.086;  119.885;  116.207
561.853;  526.314;  274.891;  303.197
562.132;  513.091;  -45.114;  182.206
562.411;  435.630;  396.879;  553.219
562.690;  148.534; -592.115; -458.792
562.969;  160.584;  472.888;  630.203
563.248;  531.077; 2966.878; 2487.219
563.527;  280.323; -290.111; -408.800
563.806;  391.405; -650.127; -521.771
564.085;  427.995; -297.105; -206.810
564.364;  230.173; -594.117; -405.790
564.643;  518.930; -276.121; -223.781
564.922; 1890.708;  221.890;  397.198
565.201; 1889.062; -640.109; -700.803
565.479;  825.408; -297.115; -219.792
565.758;  333.348; -810.128; -712.770
566.037;  477.688; -155.109; -100.803
566.316;  241.504; -286.116;  -28.791
566.595;   57.361;  -17.115;  -12.793
566.873;   95.850; -166.111;  -79.801
567.152;  -55.692; -490.113; -590.797
567.431;   11.750; -113.116;    6.210
567.709;   23.780; -344.107; -212.807
567.988;  259.545; -810.114; -769.794
568.266;  548.236; -160.115;  -68.793
568.545;  405.967; -644.100; -514.819
568.824;  593.532;  160.885;  356.208
569.102;  573.369; -351.114; -235.794
569.381;  226.207; -492.116; -407.792
569.659;  -47.646; -553.113; -553.796
569.938;   30.451; -743.122; -465.780
570.216;  108.265; -225.109; -225.804
570.494;  -14.027; -632.114; -572.795
570.773;   28.509;  202.879;  114.218
571.051;   12.390; -373.123; -357.778
571.330;   52.577; -221.113; -174.796
571.608;   44.985; -181.098; -173.823
571.886;  -42.432; -671.111; -581.799
572.164;  -75.164; -739.121; -621.782
572.443;  -42.626; -562.105; -512.811
572.721;  -34.703; -399.117; -289.790
572.999;  -32.460; -280.117; -168.788
573.277;   89.417;  379.894;  620.191
573.555;  305.269;   94.894;   37.190
573.834; 1366.840;  -86.117; -114.788
574.112; 1590.657;  880.893;  811.193
574.390;  482.974; -143.111;  -96.801
574.668;   -5.166;  -91.112;  -61.797
574.946;  -13.156; -165.106; -187.810
575.224;    7.461;   71.891;  -16.803
575.502;  -18.574; -200.116; -204.791
575.780;  -86.190; -767.112; -829.798
576.058;  210.098; 1589.889; 1004.200
576.336;  -11.721; -210.110; -129.801
576.614;  -50.639; -511.112; -340.798
576.891;   66.290; -711.115; -823.794
577.169;  499.623; -158.108; -285.805
577.447;  595.057;  169.893;  202.193
577.725;  281.365;  629.888;  854.201
578.003;   12.538;  -71.112; -371.798
578.280;   84.083; -208.104; -242.812
578.558;   62.539; -450.115; -422.793
578.836;  126.197; -210.114; -145.795
579.114;   45.084; -630.112; -670.797
579.391;   64.042;   -6.117;  -18.789
579.669;  -79.534; -595.114; -704.794
579.947;  170.779; -326.107; -127.806
580.224;  322.453; -692.107; -524.806
580.502;  311.433;  127.893;   76.193
580.779;   27.823;  -42.117;   75.210
581.057;  -71.559; -584.109; -470.804
581.334; -110.777; -726.102; -695.815
581.612;   41.220;   54.895;  511.190
581.889;  -19.614;  -83.101; -129.818
582.167;  -38.850; -298.099; -190.821
582.444; -101.795; -845.102; -814.817
582.721;  104.831;  657.899;  715.183
582.999;   58.447; -326.100; -167.821
583.276;  544.919; -812.123; -713.779
583.553;  740.801; -364.102; -294.816
583.831;  244.804; -607.104; -631.812
584.108;   63.596;  349.892;  174.195
584.385;    8.222; -122.102;  -98.815
584.662;  -69.724; -651.111; -828.801
584.940;   28.375;  204.889;  204.199
585.217;  -16.121;  -73.113; -303.796
585.494;   26.834;   71.890;  118.198
585.771;  224.166; -250.109; -354.804
586.048;  491.279; -196.113;  -76.796
586.325;  303.503; -721.110; -773.801
586.602;  103.608;  230.896;  213.188
586.879;   -8.006; -499.100; -580.820
587.156;   63.396; -156.105; -331.810
587.433;  -43.547; -701.102; -667.817
587.710;   74.536;  152.888;  234.202
587.987;  312.501; -264.105; -236.811
588.264;  796.038;  315.888;  387.202
588.541; 1385.585;  -61.104;   26.187
588.818; 2709.419;   72.892;  171.196
589.095; 2317.381; -163.104; -174.812
589.371;  387.464; -459.109; -414.804
589.648;   17.482; -581.107; -437.807
589.925;   31.573; -517.114; -621.795
590.202;   13.761; -741.112; -607.798
590.478;   89.278; -166.105;  -73.811
590.755;  279.825; -241.108; -132.806
591.032; 2510.605; -741.110; -699.802
591.308; 3411.325; -732.094; -790.831
591.585; 1812.605; -573.110; -560.802
591.862;  151.730;-1056.102; -950.817
592.138;   61.772; -475.108; -474.805
592.415;  142.059; -486.104; -495.813
592.691; 1480.907;  460.896;  518.188
592.968; 1856.637; -208.098; -123.824
593.244;  891.800; -695.116; -595.790
593.521;   79.630; -105.102;  -42.817
593.797;  -18.852; -810.122; -720.780
594.074;  321.700; -611.096; -588.826
594.350;  657.361;  828.905;  729.172
594.626;  309.401; -303.111; -283.801
594.903;  108.931; -643.101; -645.817
595.179;  194.513;  243.896;  418.187
595.455;    7.559; -136.107; -150.807
595.731;   -1.811;  -19.103;  -38.814
596.008;  -49.630; -464.111; -434.800
596.284;   32.796; -187.100; -242.820
596.560;   61.232; -501.093; -493.833
596.836;  220.973; -173.105;  -70.810
597.112;  334.848; -582.108; -437.805
597.388;  293.247;  -49.097;  -48.826
597.665;  118.132;  437.887;  530.203
597.941;  -57.539; -572.089; -658.839
598.217;   12.833; -323.110; -293.802
598.493;  264.793;   61.891; -204.804
598.769;  510.341; -175.100;  -50.819
599.045;  326.276; -490.108; -562.806
599.321;   64.295; -193.100; -261.820
599.597;  137.192; -355.109; -476.804
599.872;  486.235;  409.896;  429.187
600.148;  387.324;  -61.097; -172.826
600.424;  296.006;   91.893;  202.193
600.700;  233.308; -170.107; -280.807
600.976;  126.143; -442.097; -464.825
601.252;  244.464; -226.109; -272.803
601.527;  213.736; -833.104; -840.813
601.803;  150.654; -453.105; -404.812
602.079;  187.116; -124.100; -118.819
602.354;  572.866; -620.092; -531.835
602.630;  835.079; -140.113; -482.796
602.906; 2346.611; -910.101; -863.818
603.181; 6698.055; -627.119; -534.786
603.457; 5703.547;   98.903; -278.826
603.733;  828.888; -605.120; -626.783
604.008;  986.570; -245.106; -164.810
604.284; 3070.682; -636.101; -580.817
604.559; 2668.290;   -3.112;  -42.799
604.835;  483.573; -163.105; -225.810
605.110;  416.451; -732.099; -892.821
605.385;  708.234;  224.907;  267.167
605.661;  677.738; -625.095; -729.829
605.936; 1170.251; -664.108; -737.806
606.211;  997.996;  -17.103; -170.815
606.487;  190.018; -329.114; -376.794
606.762;   23.305; -791.119; -745.786
607.037;  -17.077; -501.105; -433.810
607.313;  -55.668; -589.096; -574.828
607.588;   -2.355; -375.106; -137.810
607.863;   42.235;  -28.101; -143.818
608.138;  171.982;  513.890;  516.198
608.413;   34.954; -576.099; -592.822
608.688;   52.023; -203.108; -267.805
608.964;  202.264; -509.106; -218.809
609.239;  239.670; -107.105; -212.810
609.514;  266.503;  281.895;  240.188
609.789;  647.958; -187.104; -716.812
610.064;  888.155; -435.096; -609.827
610.339;  881.889; -855.109; -799.804
610.614; 1150.796; -131.100; -315.820
610.889;  679.004;  215.895;  107.188
611.163;   41.479; -407.104; -591.812
611.438;   85.744;   81.886; -167.794
611.713;   -1.518; -467.101; -499.817
611.988;   60.759; -144.101; -328.818
612.263;  -18.652; -771.102; -717.815
612.538;  225.978;  385.887;  251.204
612.812;  168.572; -832.100; -911.820
613.087;  124.010; -358.098; -338.823
613.362;  -56.292; -497.107; -557.807
613.637;   42.242;  261.897;  138.186
613.911;  -11.833; -256.092; -345.835
614.186;  132.557; -249.107; -292.807
614.460;  684.536; -842.081; -758.854
614.735;  773.109;  -55.087;  -17.843
615.010;  160.174;   43.912;  -82.841
615.284;  253.847;  360.892;  246.195
615.559;  346.141; -792.092; -955.835
615.833;  309.328;  -76.099;  -87.822
616.108;   -0.647; -225.090; -390.837
616.382;  131.786;  274.913;  402.156
616.656;  168.103; -241.090; -232.837
616.931;  503.678; -785.099; -700.822
617.205; 1063.987; -973.104; -979.813
617.480;  973.049;  -91.125;    6.225
617.754;  171.446; -396.125; -128.774
618.028;   -2.958; -369.129; -382.768
618.302;   70.396;   73.892;  -25.805
618.577;  -50.782; -371.103; -518.815
618.851;  -54.664; -399.109; -600.803
619.125;  -51.178; -335.134; -378.759
619.399;  -29.788; -244.104; -374.813
619.673;  -41.942; -330.115; -515.792
619.947;  -56.603; -333.114; -448.795
620.222;   -6.348; -198.110; -204.801
620.496;   -4.364;  -47.121;  -96.782
620.770;   25.502; -187.122;  -93.781
621.044;  217.171;  323.895;  346.190
621.318;  725.714; -653.120; -614.783
621.592;  679.061; -430.121; -409.783
621.866;  352.591; -476.112; -572.799
622.140;   29.026; -207.116; -356.791
622.413;   65.845;  138.889;  112.200
622.687;  -42.043; -746.101; -492.817
622.961;   23.121; -130.108; -143.805
623.235;  -68.729; -633.111; -661.800
623.509; -104.197; -816.105; -848.811
623.783;   12.604;  -12.107;   48.193
624.056;   -5.610; -254.120; -280.783
624.330;   66.659;   63.888;   -3.797
624.604;   51.223; -271.116; -355.790
624.877;   69.656;  180.890;   26.198
625.151;   46.367; -249.114; -238.794
625.425;  -33.861; -150.103; -283.814
625.698;  -68.401; -367.119; -374.785
625.972;  -94.216; -799.110; -765.802
626.245;   72.000;  685.884;  484.210
626.519;  -62.331; -426.120; -340.784
626.792;  -30.892; -192.107; -380.807
627.066;  -88.755; -485.122; -662.779
627.339;  -93.120; -736.110; -663.802
627.613;   43.442;  351.880;  148.216
627.886;  -48.215;  187.891; -612.803
628.160;  -25.837;  312.880; -161.783
628.433;  -99.273; -695.125; -703.775
628.706;  -92.231; -517.120; -615.784
628.979;   32.108;  296.876;  117.223
629.253;  -90.471; -785.119; -833.786
629.526;  376.186; -334.126; -253.772
629.799;  334.840; -641.123; -479.778
630.072;  169.393; -497.128; -516.769
630.346;  -57.450;-1115.116;-1080.790
630.619;  464.784; -467.107; -545.808
630.892;  634.196;  709.889;  593.200
631.165;  335.437;  790.896;  679.187
631.438;  -88.937;-1092.112;-1055.798
631.711;   64.668;  453.877;  257.221
631.984;  -57.355; -523.117; -624.789
632.257;  -70.433; -636.117; -681.789
632.530;  -48.226; -412.119; -433.785
632.803;   35.415; -109.115;    7.207
633.076;  -63.988; -360.123; -422.777
633.349;    2.222;  173.872;  121.231
633.622;  -40.852; -187.119; -240.785
633.895; -132.710; -903.120; -823.783
634.167;  -63.387; -496.126; -525.773
634.440;   -0.669;  -19.116; -137.792
634.713;   -1.422;  -22.119; -120.786
634.986;   94.512;  593.871;  453.233
635.258;  -75.812; -507.115; -597.793
635.531;   93.113;  742.882; -343.788
635.804;  -35.056; -303.117; -318.789
636.077;  -93.298; -830.116; -852.791
636.349;  -12.088; -586.115; -474.793
636.622;  404.510; 1695.874; 1392.228
636.894;  239.294; -474.120; -909.784
637.167;  143.579; -836.127; -789.771
637.439;   40.751; -278.128; -213.770
637.712;  -48.913; -312.126; -293.772
637.984;  -92.697; -635.116; -707.791
638.257;  381.987;  515.877;  488.222
638.529;  544.628; -881.125; -924.776
638.802;  237.343; -508.128; -449.769
639.074; -119.973; -927.122; -952.781
639.346; -130.986; -942.135; -930.757
639.619;   11.074;  -79.142; -319.744
639.891;   -3.405;  -83.122; -168.779
640.163;  -67.753; -689.122; -756.780
640.435;   34.749;  273.878;  103.220
640.708;    6.401;  -72.122; -132.780
640.980;  -28.072; -366.122; -362.781
641.252;  200.430;  -25.121;  -71.781
641.524; 1764.431;  580.879;  573.219
641.796; 1791.558;-1094.121; -907.782
642.068;  311.135; -191.121; -300.782
642.340;  -62.688; -486.121; -566.783
642.613;   42.264;  294.880;  323.217
642.885;  -94.734; -787.120; -878.783
643.157;  -58.408; -810.120; -658.784
643.428;   65.044;  170.880;  218.216
643.700;  -87.179; -498.120; -425.784
643.972;  -30.927;  -16.119; -133.785
644.244;  -87.725; -474.119; -559.785
644.516;  -65.123; -250.119; -114.786
644.788;   64.028;  662.881;  548.214
645.060;  -19.770;  -12.119; -124.786
645.332;  -97.643; -525.118; -535.787
645.603;   30.409;  479.882;  342.213
645.875;  -78.789; -334.118; -369.787
646.147;  172.838; 1487.882; 1242.212
646.418;  -72.611; -931.117; -918.788
646.690;  137.316; -714.117; -715.789
646.962;   34.068; -413.117; -451.789
647.233;  -23.955;   15.883;   11.211
647.505; -112.328; -595.117; -475.790
647.776;   30.649;  328.884;  229.210
648.048;  -11.300; -248.116; -418.790
648.320;  -87.998; -752.116; -679.791
648.591; -143.796;-1055.116; -958.791
648.862;  -87.544; -505.116; -577.792
649.134;   28.433;  115.885;  198.208
649.405;  -57.840; -661.115; -618.792
649.677;  -54.639; -475.115; -598.793
649.948;   -4.787; -181.115; -296.793
650.219;   -4.060;  -37.115; -147.793
650.491;  -71.508; -431.114; -520.794
650.762; -122.631; -705.114; -731.794
651.033;  -99.904; -437.114; -424.795
651.304;  -94.353; -743.114; -728.795
651.576;  -66.576; -680.114; -645.795
651.847;  -33.399; -250.113; -140.796
652.118;  -12.072;  -32.113; -189.796
652.389; -122.445; -639.113; -722.796
652.660;  -29.343; -147.113;  -89.797
652.931; -145.142; -897.112; -871.797
653.202;  -79.890; -382.112; -541.798
653.473;  -68.813; -633.112; -533.798
653.744;  155.839; -595.112; -590.798
654.015;  145.991; -356.112; -303.799
654.286;  -66.457; -642.111; -663.799
654.557;  -59.606; -586.111; -521.799
654.828; -163.979;-1114.111;-1088.800
655.099;  -90.227; -404.111; -291.800
655.370;  -90.475; -427.111; -543.801
655.641; -116.048; -656.110; -714.801
655.911; -102.646; -618.110; -638.801
656.182;   58.530;  437.890;  387.198
656.453;   84.357;  830.890;  746.198
656.724;  -62.591; -466.110; -426.802
656.994;  -77.614; -553.109; -568.803
657.265; -110.437; -862.109; -873.803
657.536;  -89.110; -500.109; -377.804
657.806; -114.334; -561.109; -593.804
658.077; -133.082; -866.109; -950.804
658.347;  -90.255; -523.108; -598.805
658.618; -110.903; -646.108; -694.805
658.888;  -22.501;  -41.108;  112.195
659.159;  -79.799; -432.108; -548.806
659.429;  -33.098; -292.108; -349.806
659.700;   15.879; -435.107; -390.807
659.970;   -9.894; -370.107; -359.807
660.241;   19.608; -754.107; -921.807
660.511;  497.285; -147.107; -174.808
660.781;   82.687; -793.106; -748.808
661.052;  -47.287; -222.106; -381.808
661.322;  -17.160;   21.894;   -9.809
661.592;   23.867;  257.894;  148.191
661.862;  -78.756; -369.106; -382.810
662.133;  -90.954; -551.105; -502.810
662.403; -129.328; -770.105; -676.810
662.673;  -51.901; -256.105; -213.811
662.943; -101.274; -612.105; -551.811
663.213;  -10.297;  -85.105;  -81.811
663.483;  -92.545; -593.104; -568.812
663.753;  -57.818; -194.104; -152.812
664.023;  -13.567;   68.896;  -32.813
664.293;  -51.990; -319.104; -126.813
664.563; -127.288; -694.104; -648.813
664.833; -125.711; -743.103; -608.814
665.103; -141.959; -730.103; -793.814
665.373; -121.582; -766.103; -806.814
665.643;  -99.631; -863.103; -918.815
665.913;   23.571; -534.103; -714.815
666.182;  146.098; -685.102; -719.816
666.452;  266.725;  -22.102;  -89.816
666.722;  -12.973; -724.102; -784.816
666.992; -136.021; -948.102; -921.817
667.261;  -96.395; -824.102; -808.817
667.531;  218.057;  134.899;   45.183
667.801;  520.284; -440.101; -412.818
668.070;  241.386;  714.899;  697.182
668.340; -108.337; -883.101; -840.819
668.609;  100.090;  588.900;  301.181
668.879;  -84.809; -490.100; -558.819
669.149;  -72.832; -539.100; -516.820
669.418;  -98.880; -698.100; -726.820
669.688;  -34.703; -482.100; -666.820
669.957;   72.499; -423.099; -546.821
670.226;  -17.399; -268.099; -331.821
670.496;  -99.848; -431.099; -635.822
670.765;  -81.096; -418.099; -501.822
671.034; -134.494; -872.099; -828.822
671.304;  -14.842;   55.902; -111.823
671.573; -148.390;-1085.098; -957.823
671.842;   70.837; -380.098; -294.823
672.112;   24.663; -692.098; -586.824
672.381;    2.765; -239.098; -214.824
672.650; -135.708;-1005.097;-1021.825
672.919;  -91.456; -631.097; -507.825
673.188; -103.929; -681.097; -878.825
673.457; -147.052;-1101.097;-1143.826
673.726;  -78.501; -579.096; -646.826
673.995;  -48.649; -533.096; -479.826
674.265;    1.353; -263.096; -333.827
674.534;   12.980; -183.096; -235.827
674.802;    2.707; -618.096; -703.828
675.071; 1045.634; -886.095; -801.828
675.340; 3907.585; -464.095; -339.828
675.609; 1316.887;  103.905;   82.171
675.878;   68.939; -949.095; -893.829
676.147;   41.766;  -26.095;   -8.829
676.416;  106.768; -210.094; -294.830
676.685;  737.345; 1000.906; -622.830
676.953;  101.621; -603.094; -452.831
677.222;  -11.252; -193.094; -273.831
677.491;  -34.275;  -24.094; -127.831
677.759;  -21.073;   11.907;  172.168
678.028;  -23.871; -279.093; -222.832
678.297;   -0.044;   71.907;  197.168
678.565; -148.918; -898.093; -944.833
678.834;  -60.216; -311.093; -268.833
679.102;  -76.264; -411.092; -391.834
679.371; -146.537; -898.092; -727.834
679.639; -134.710; -797.092; -786.834
679.908; -115.408; -794.092; -724.835
680.176; -152.757; -895.091; -941.835
680.445;  -76.655; -346.091; -352.835
680.713;  -18.703;  -58.091;  -23.836
680.982;  -86.151; -523.091; -525.836
681.250; -111.999; -578.091; -507.837
681.518; -102.797; -534.090; -751.837
681.787;   -5.496; -204.090; -167.837
682.055;  -65.844; -490.090; -422.838
682.323; -164.267; -993.090; -992.838
682.591;   44.635; -216.090; -538.838
682.859;   87.212;    9.911;  -35.839
683.128;   19.264;  232.911;  497.161
683.396; -158.310;-1102.089;-1122.840
683.664;  -49.258; -241.089;   21.160
683.932;   -4.156;  144.911;  -76.840
684.200;  -80.579; -576.088; -320.841
684.468;  -27.477;  -73.088; -124.841
684.736;  -32.550; -214.088; -175.841
685.004; -126.549;-1024.088; -982.842
685.272;  -60.172; -880.088; -774.842
685.540;  -70.720; -499.087; -557.843
685.808;  -78.543; -651.087; -682.843
686.076; -111.491; -894.087; -969.843
686.343;  -53.189; -601.087; -815.844
686.611;   37.937; -195.087; -224.844
686.879;  480.514; -530.086; -553.844
687.147; 3278.341; -483.086; -480.845
687.414;  919.668;  -12.086; -169.845
687.682;   -0.555; -658.086; -757.846
687.950;  311.622;  259.915;  263.154
688.217;  -10.777; -792.085; -760.846
688.485;   -1.700; -632.085; -636.847
688.753;  528.202;  -11.085; -102.847
689.020;  151.804; -820.085; -851.847
689.288; -107.694; -853.084; -787.848
689.555;  -17.092; -195.084; -148.848
689.823;  -42.916; -241.084; -345.849
690.090;  -94.689; -546.084; -651.849
690.358; -149.012; -877.084; -897.849
690.625;    1.690;  120.917;   45.150
690.892;  -77.208; -403.083; -369.850
691.160;   -9.456;   72.917;  -35.850
691.427;    6.795;  141.917;  130.149
691.694; -135.753; -855.083; -929.851
691.962; -135.601;-1177.082;-1060.852
692.229;   30.576;  127.918;   56.148
692.496;   84.503;  130.918;  -49.852
692.763;   13.255; -164.082; -201.853
693.031;  -70.744; -739.082; -716.853
693.298;  -46.967; -509.081; -368.853
693.565;  309.710; -155.081; -163.854
693.832; 1251.187;   -5.081;   -9.854
694.099;  146.289; -643.081; -642.855
694.366;  -67.534; -882.081; -896.855
694.633;  -49.483; -920.080; -633.855
694.900;  771.594; 4367.920; -114.856
695.167;  442.646; -214.080; -380.856
695.434;   92.623; -646.080; -623.856
695.701;  201.225;  121.921;  -61.857
695.968;  489.427; -365.079; -361.857
696.234; 1055.728; -415.079; -646.858
696.501;10455.980; -776.079; -614.858
696.768; 5178.632; -554.079; -617.858
697.035;  314.584; -632.078; -667.859
697.302;   24.811; -448.078; -552.859
697.568;   -5.212; -458.078; -497.859
697.835;  -42.336; -683.078; -624.860
698.102;  -31.984; -498.078; -407.860
698.368;   88.118;  384.923;  396.139
698.635;  -34.105;  -47.077; -424.861
698.901;   -7.203; -240.077; -348.861
699.168;   70.024; -534.077; -456.862
699.435;   82.075;  -72.077;  -13.862
699.701; -111.273; -868.076; -764.862
699.968;  -46.571;  144.924; -441.863
700.234; -108.394; -783.076; -822.863
700.500;  -58.092; -448.076; -539.864
700.767;   -2.540;   -1.075;   26.136
701.033; -119.889;-1015.075; -963.864
701.299;  -62.387; -450.075; -483.865
701.566;  125.215;  950.925;  763.135
701.832;   24.392;  -31.075;  -76.865
702.098; -103.706;-1054.074;-1034.866
702.365;  -88.879;-1098.074;-1030.866
702.631;  -22.703;-1038.074;-1063.867
702.897; 1419.124; -765.074; -676.867
703.163; 2196.926;  348.926;  254.133
703.429;  152.378; -256.073; -273.868
703.695;  -25.520; -796.073; -792.868
703.961;   10.732; -214.073; -210.868
704.227;  -48.617; -630.073; -725.869
704.493;  138.510;  613.927;  510.131
704.759;  -28.463; -565.072; -540.870
705.025;   30.489; -203.072; -194.870
705.291;  -13.659; -666.072; -562.870
705.557;  195.968;  719.928;   34.129
705.823;   14.819; -742.072; -694.871
706.089;  135.921; -307.071; -326.871
706.355;  372.298; -315.071; -244.872
706.620; 5660.325; -776.071; -729.872
706.886; 7679.227; -309.071; -362.873
707.152;  713.954; -818.070; -973.873
707.418;  -20.570;-1153.070;-1186.873
707.683;   -7.418; -550.070; -530.874
707.949;  -39.691; -547.070; -578.874
708.215;  -21.539; -129.070; -207.874
708.480;  -44.062; -520.069; -420.875
708.746;  108.090;   68.931;   28.125
709.011;  -69.409; -578.069; -612.876
709.277;  -71.307; -538.069; -543.876
709.542;  -50.505; -428.069; -387.876
709.808;    2.472;  -59.068;   89.123
710.073;  -84.101; -577.068; -695.877
710.339;  -27.099; -242.068; -228.877
710.604;   80.902; -780.068; -845.878
710.869;  312.329; -277.068; -366.878
711.135;  -76.769; -715.067; -628.879
711.400;  -90.242; -507.067; -608.879
711.665;  -68.765; -404.067; -479.879
711.931; -102.238; -661.067; -677.880
712.196; -116.412; -876.067; -954.880
712.461;  116.640; -402.066; -490.880
712.726;  126.467; -727.066; -771.881
712.991;  -92.056; -647.066; -664.881
713.256;  -33.479; -350.066; -332.882
713.521;  -57.052; -417.065; -381.882
713.787;  -66.426; -454.065; -472.882
714.052;  -27.774; -214.065; -400.883
714.317;  -93.472;-1045.065; -981.883
714.581; 1055.030; -374.065; -268.883
714.846; 1352.957; -822.064; -888.884
715.111;  120.509;  261.936;  257.116
715.376;  -26.415;  -86.064; -223.885
715.641;  -11.113; -365.064; -367.885
715.906;  299.739;   15.936; -551.885
716.171;  127.316;  221.937;  209.114
716.436;   43.068;  -78.063; -104.886
716.700;  -95.255; -818.063; -692.886
716.965; -114.729; -794.063; -807.887
717.230;  -67.827; -339.063; -392.887
717.494;  -28.350;  -40.062; -134.888
717.759;  -91.498; -784.062; -640.888
718.024;    8.629;  269.938;  250.112
718.288;   71.381;  685.938;  395.111
718.553; -145.493; -803.062; -977.889
718.817; -146.216; -883.061; -899.889
719.082;  -42.464; -115.061; -125.890
719.346; -152.987;-1000.061; -947.890
719.611;  -43.460; -300.061; -255.891
719.875; -105.508; -568.060; -537.891
720.140;  -71.907; -453.060; -603.891
720.404;   38.645; -136.060; -249.892
720.668;  879.697; -475.060; -411.892
720.933;  323.624;  146.940;  137.108
721.197;  -98.174; -667.059; -600.893
721.461; -143.922; -851.059; -826.893
721.725;   -9.246;  -21.059; -250.894
721.990;  -47.169; -284.059; -204.894
722.254;  -28.192;  -26.059; -108.894
722.518;  -88.090; -286.058; -442.895
722.782;  -94.013; -743.058; -594.895
723.046;  115.464;  614.942;  570.105
723.310;   24.990;  374.942;  210.104
723.574;  -95.908; -654.058; -614.896
723.838; -107.706; -576.057; -642.897
724.102;  -22.654; -226.057; -239.897
724.366; -139.202;-1032.057; -978.897
724.630; -106.625; -749.057; -571.898
724.894;  -76.149; -722.057; -514.898
725.158;  -15.972;   38.944; -295.898
725.422;  -53.395; -394.056; -327.899
725.685;  -64.668; -441.056; -349.899
725.949;  -75.566; -566.056; -519.900
726.213;  -79.814; -732.056; -811.900
726.477;  164.062;-1020.055; -933.900
726.740;  145.014; -274.055; -104.901
727.004;  329.991; -384.055; -510.901
727.268; 3358.868; -442.055; -400.901
727.531;  863.495; -961.055; -775.902
727.795;  -49.953; -713.054; -673.902
728.059;  -61.952; -552.054; -557.903
728.322;  -94.000; -841.054; -669.903
728.586;   26.877; -692.054; -701.903
728.849;  -81.596; -695.053; -756.904
729.112; -108.744; -812.053; -912.904
729.376; -119.342; -959.053; -905.904
729.639;  -61.241; -536.053; -536.905
729.903; -108.989; -733.053; -699.905
730.166;  -61.862; -437.052; -399.906
730.429;  -28.510; -317.052; -468.906
730.693;  -74.558; -355.052; -894.906
730.956;  215.494;  810.948;  651.093
731.219;  708.570; -310.052; -103.907
731.482;  126.797;-1003.051; -894.907
731.745;  101.399; -794.051; -935.908
732.009;   19.001;  -30.051;   50.092
732.272; -105.772; -904.051; -771.909
732.535;  -34.195; -300.051; -310.909
732.798; -154.194;-1083.050;-1166.909
733.061;  -64.267; -430.050; -456.910
733.324;    4.285;   31.950; -180.910
733.587;   55.487;  290.950;  365.090
733.850;  -83.011; -973.049;-1050.911
734.113;   40.791;   33.951;   32.089
734.376;    9.992; -328.049; -447.912
734.639;  235.444; 1188.951; 1011.088
734.901;   67.671; -180.049; -402.912
735.164;  540.673; -883.048; -837.913
735.427; 1281.325; -166.048; -355.913
735.690;  135.802; -205.048; -234.913
735.952;  -36.097; -923.048; -925.914
736.215;  -29.620;-1113.048;-1009.914
736.478;   27.957; -771.047; -774.915
736.740;  230.559;   33.953;  129.085
737.003;  727.111; -658.047; -672.915
737.266; 4048.563;  -94.047;   46.084
737.528;  431.239; -682.047; -660.916
737.791;  305.891; -316.046; -327.916
738.053;  810.618;  465.954;  649.083
738.316;11180.270; -162.046; -136.917
738.578; 7362.697; -770.046; -736.918
738.841;  410.824; -382.046; -446.918
739.103;  185.225; -875.045; -777.918
739.365;  481.052;   79.955;  -69.919
739.628;   -9.046; -884.045; -805.919
739.890;  -39.719; -758.045; -710.919
740.152;  -47.292; -692.044; -754.920
740.414;  -23.765; -408.044; -359.920
740.677;  -53.964; -785.044; -634.921
740.939;  -37.337; -587.044; -487.921
741.201;  275.990; -432.044; -572.921
741.463;   29.917; -689.043; -745.922
741.725;   15.144;  -21.043; -199.922
741.987;   50.746;  220.957;  116.078
742.249;   14.172; -751.043; -859.923
742.511;  219.899; -703.043; -794.923
742.773;   19.151; -546.042; -546.924
743.035;  143.553;  796.958;  533.076
743.297;  -49.995; -963.042;-1013.924
743.559;  736.482; -278.042; -262.925
743.821;   52.533; -735.042; -744.925
744.083;   10.285;  -44.041; -149.925
744.345;  -89.763; -869.041; -892.926
744.607;   48.264;   75.959;  122.074
744.868;  -66.159; -490.041; -554.927
745.130; -113.282; -994.041;-1008.927
745.392;   57.069;   -1.040;  -44.927
745.653;  -15.729; -411.040; -378.928
745.915;  155.398;  896.960;  631.072
746.177;   42.350;   35.960;  -43.928
746.438;   -7.648; -428.040; -543.929
746.700;  -40.971; -947.039; -988.929
746.961;    2.605; -659.039; -740.930
747.223;  142.857; -190.039;  -74.930
747.484;   99.884; -391.039; -471.930
747.746;  165.736;  -23.038; -106.931
748.007;  102.363; -647.038; -689.931
748.269;  317.490; -468.038; -440.931
748.530;  471.866; -852.038; -638.932
748.791;  276.768; -354.038; -420.932
749.053;  437.420;  286.963;  163.067
749.314;  444.122; -236.037; -169.933
749.575;  495.249; -945.037; -905.933
749.836;  864.026; -217.037;   86.066
750.098; 2590.977;  -60.037;  -21.934
750.359;37380.629;  414.964;  555.066
750.620; 8833.981; -121.036; -220.935
750.881; 1047.383; -585.036; -513.935
751.142; 1386.135; -950.036; -938.936
751.403;17351.737; -789.036; -705.936
751.664; 7044.363;-1034.035; -999.936
751.925;  486.040; -175.035; -262.937
752.186;  267.867; -298.035; -278.937
752.447;  153.244; -590.035; -445.937
752.708;   49.646; -532.035; -648.938
752.969;    5.173; -566.034; -576.938
753.230;  -15.851; -777.034; -672.939
753.491;   -8.599; -650.034; -631.939
753.751;   64.453;  109.966;   19.061
754.012;   96.030;  258.967;  181.060
754.273;   57.282; -174.033;  -71.940
754.534;    5.534; -487.033; -580.940
754.794;  -91.015; -926.033; -911.941
755.055;  143.237; 1051.967;  881.059
755.316;  -47.461; -700.032; -566.942
755.576;  -24.109; -606.032; -576.942
755.837;  -44.882; -527.032; -695.942
756.097;  -44.180; -530.032; -564.943
756.358;  -70.579; -725.032; -770.943
756.618;  -70.252; -705.031; -641.943
756.879;    4.575; -254.031; -349.944
757.139; -122.748;-1098.031;-1116.944
757.400;  -57.596; -538.031; -553.945
757.660;  -25.594; -365.031; -401.945
757.920;   15.057; -266.030; -228.945
758.181;   -0.416; -468.030; -351.946
758.441;  -98.764; -870.030; -809.946
758.701;  -28.137; -308.030; -215.946
758.961;  -20.910; -220.030; -278.947
759.222;  -50.433; -574.029; -502.947
759.482;  -89.732; -683.029; -723.948
759.742;  -82.405; -706.029; -547.948
760.002;    0.422;  -83.029; -143.948
760.262;   20.999;   50.972;  182.051
760.522;  -28.149; -498.028; -574.949
760.782;  -50.022; -738.028; -612.949
761.042;  -29.296; -618.028; -573.950
761.302;   50.831;   55.972;  -18.950
761.562;   61.933; -164.027; -154.951
761.822;   65.360; -710.027; -551.951
762.082;  -43.313;-1104.027;-1093.951
762.342;   61.614; -328.027; -403.952
762.601;   79.815; -567.027; -506.952
762.861;  354.767; -281.026; -207.952
763.121;  426.919; -406.026; -411.953
763.381; 7783.421; -499.026; -485.953
763.640; 7903.373; -139.026; -307.954
763.900;  380.825; -242.026; -203.954
764.160;   82.301; -458.025; -491.954
764.419;  -27.997; -726.025; -782.955
764.679;  -76.020; -795.025; -726.955
764.939;  -15.468; -124.025; -210.955
765.198;  -83.466; -608.025; -563.956
765.458;  -78.889; -710.024; -612.956
765.717;  -86.163; -454.024; -590.957
765.976;  -56.061; -428.024; -411.957
766.236;  -80.259; -475.024; -610.957
766.495;   17.568;  260.977;   73.042
766.755;  -89.205;-1090.023; -987.958
767.014;   10.797; -594.023; -665.958
767.273;  -46.302; -373.023; -397.959
767.533;  -47.125; -228.023; -307.959
767.792;  -30.748; -151.022; -188.960
768.051;  -52.846; -228.022; -276.960
768.310;  -94.894; -546.022; -650.960
768.569;  -11.392; -161.022;    4.039
768.828;  -29.741; -285.022; -363.961
769.088; -135.014;-1050.021; -942.961
769.347; -102.037; -755.021; -599.962
769.606;  -99.010; -876.021; -857.962
769.865; -111.658;-1016.021;-1033.963
770.124;   -6.931; -411.021; -336.963
770.383;  -44.630; -778.020; -910.963
770.641;   -0.078; -398.020; -400.964
770.900;  -58.901; -953.020; -846.964
771.159;  -49.024; -851.020; -951.964
771.418;   -3.522; -917.020; -779.965
771.677;  129.755; -224.019; -293.965
771.936;  146.356; -794.019; -865.966
772.194; 2400.683; -465.019; -437.966
772.453;10809.685; -213.019; -391.966
772.712;  747.362;  416.982;  329.033
772.970;  133.714;   32.982;   63.033
773.229;   90.391;  -22.018;  102.033
773.488;  -75.558; -814.018; -770.968
773.746;   51.619;  296.982;  335.032
774.005;   14.321;  190.983;  -22.969
774.263;    7.373;  243.983;  177.031
774.522;  -83.800; -422.017; -548.969
774.780;  -94.948; -484.017; -417.970
775.039;  -84.947; -551.017; -531.970
775.297;  -31.745; -135.016; -351.970
775.555; -112.693; -489.016; -612.971
775.814; -113.866; -618.016; -570.971
776.072; -124.164; -749.016; -740.971
776.330; -100.587; -630.016; -520.972
776.589; -127.011; -703.015; -721.972
776.847; -118.959; -645.015; -624.973
777.105; -169.282;-1016.015;-1032.973
777.363;  -74.355; -459.015; -454.973
777.621; -142.903; -660.015; -717.974
777.879;   -5.151;  -42.014;   32.026
778.138; -105.200; -554.014; -717.974
778.396; -101.398; -585.014; -526.975
778.654; -174.146;-1015.014; -970.975
778.912;  -69.744; -269.014; -371.976
779.170; -140.092; -880.013; -803.976
779.427; -151.840; -922.013; -897.976
779.685; -123.689; -880.013; -832.977
779.943;  -88.512; -654.013; -593.977
780.201; -165.485; -964.012; -883.978
780.459; -118.558; -651.012; -610.978
780.717;  -95.331; -440.012; -390.978
780.974; -108.679; -449.012; -490.979
781.232;  -69.953; -358.012; -338.979
781.490;  -86.951; -551.011; -472.979
781.747;  -87.874; -555.011; -476.980
782.005;   33.178;  462.989;  254.020
782.263; -159.045; -542.011;-1004.981
782.520;  -82.068; -326.011; -501.981
782.778; -162.342;-1013.010;-1051.981
783.035; -166.315; -962.010; -938.982
783.293;  -70.338; -248.010; -206.982
783.550;  -49.536; -134.010; -198.982
783.808; -138.584; -764.010; -776.983
784.065; -165.707; -745.009; -874.983
784.322;  -48.381;   25.991;  -86.984
784.580; -147.354; -915.009; -771.984
784.837; -105.027; -392.009; -466.984
785.094; -134.600; -783.009; -762.985
785.352;  -76.873; -304.008; -404.985
785.609; -101.221; -934.008; -839.985
785.866;  -74.820; -345.008; -401.986
786.123;  -68.368; -639.008; -583.986
786.380; -107.241; -665.008; -604.987
786.637;  -34.139; -225.007; -380.987
786.895;  -17.562; -456.007; -543.987
787.152;  -48.660; -135.007; -267.988
787.409;  -52.909; -123.007; -225.988
787.666;  -81.157; -299.006; -378.988
787.923; -112.205; -616.006; -695.989
788.179; -104.228; -551.006; -584.989
788.436; -107.726; -585.006; -585.990
788.693;  -43.899;  -92.006;  -87.990
788.950;  144.327; -125.005; -112.990
789.207;  221.429; -381.005; -372.991
789.464;  -52.219; -161.005; -301.991
789.720;   -7.942;  150.995;  110.009
789.977; -167.690;-1003.005; -671.992
790.234;  -37.188;   44.996;  -66.992
790.490; -155.662; -884.004;-1031.993
790.747;  -25.035;  -85.004;   22.007
791.004;  -38.108; -426.004; -348.993
791.260;  -73.456; -430.004; -560.994
791.517; -109.504; -843.003; -788.994
791.773;  -42.152; -379.003; -342.994
792.030; -104.701; -596.003; -660.995
792.286; -108.974; -686.003; -636.995
792.543;  -19.572;  -74.002; -159.995
792.799;  -49.970; -584.002; -382.996
793.055; -160.093;-1179.002;-1210.996
793.312;  -77.391; -827.002; -816.997
793.568;  -66.765; -746.002; -599.997
793.824;   22.237; -226.001; -284.997
794.081;   15.314; -447.001; -508.998
794.337;   68.566; -664.001; -561.998
794.593; 1472.093; -319.001; -271.999
794.849; 6485.970; -746.001; -772.999
795.105;  322.571; -270.000; -261.999
795.361;   26.848; -490.000; -457.000
795.617;  -60.175; -875.000; -945.000
795.873;  -59.700; -360.000; -407.000
796.129;  -44.825; -368.000; -306.000
796.385;  -22.925; -124.000; -156.000
796.641;   63.125;  412.000;  550.000
796.897;  -97.775; -666.000; -635.000
797.153;   64.075;  453.000;  357.000
797.409; -105.625; -785.000; -868.000
797.665;  -72.050; -625.000; -732.000
797.921;  -75.350; -775.000; -762.000
798.176;  -46.275; -744.000; -747.000
798.432;  -57.400; -824.000; -596.000
798.688;  -81.775;-1174.000;-1078.000
798.943;   74.050; -165.000; -147.000
799.199;   -7.750;-1005.000; -959.000
799.455;  237.150;  369.000;  316.000
799.710;  127.050; -813.000; -380.000
799.966;  302.000; -162.000; -160.000
800.221;  469.800; -638.000; -721.000
800.477;10992.975; -743.000; -710.000
800.732; 8778.900; -773.000; -800.000
800.988;  624.725;  205.000;  -19.000
801.243; 1941.900; -454.000; -344.000
801.498; 7580.500; -814.000; -739.000
801.754;  420.825; -289.000; -163.000
802.009;   82.125; -257.000; -335.000
802.264;  -60.625; -967.000;-1033.000
802.520;   24.475;  222.000;   -3.000
802.775;  -54.700; -524.000; -359.000
803.030;   34.625;  395.000;  356.000
803.285; -107.575; -840.000; -903.000
803.540;  -54.150; -686.000; -699.000
803.795;  -53.400; -648.000; -583.000
804.051;  -36.325; -279.000; -346.000
804.306;   22.375;  168.000;  128.000
804.561;  150.550;  451.000;  362.000
804.816;  127.850;  714.000;  861.000
805.071;   19.000; -185.000; -280.000
805.325;  228.550; -257.000; -427.000
805.580; -105.425; -841.000; -877.000
805.835;  -21.700; -204.000; -297.000
806.090;  -72.150; -760.000; -676.000
806.345;  -17.650; -344.000; -264.000
806.600;  -32.250; -549.000; -632.000
806.854;  -26.525; -408.000; -538.000
807.109;  -11.425; -493.000; -577.000
807.364;   -0.700; -407.000; -328.000
807.618;   -6.100; -415.000; -381.000
807.873;   42.325; -470.000; -494.000
808.128;  117.775; -257.000; -518.000
808.382;  109.175; -224.000; -332.000
808.637;   68.425; -440.000; -511.000
808.891;  191.550; -257.000; -180.000
809.146;  104.375; -902.000; -794.000
809.400;  267.475; -848.000; -923.000
809.654;  333.875; -779.000; -551.000
809.909;  509.425; -841.000; -927.000
810.163; 7149.425; -813.000; -651.000
810.418;16738.175; -940.000; -861.000
810.672; 1020.350; -685.000; -690.000
810.926;  725.700; -993.000; -973.000
811.180; 1467.150; -439.000; -372.000
811.434;32868.550;  240.000;  135.000
811.689;11800.825; -231.000; -365.000
811.943;  612.825; -936.000; -953.000
812.197;  309.425; -893.000; -671.000
812.451;  109.525; -379.000; -514.000
812.705;  -26.500; -809.000; -619.000
812.959;    1.450; -263.000; -388.000
813.213;   -5.400; -283.000; -209.000
813.467;   67.050;  470.000;  253.000
813.721; -100.850; -764.000; -792.000
813.975; -133.225; -826.000; -877.000
814.229;   57.175;  430.000;  353.000
814.482;  -69.275; -517.000; -566.000
814.736; -118.125; -766.000; -744.000
814.990; -130.600; -779.000; -872.000
815.244;  -46.000; -228.000; -285.000
815.497;  -99.300; -636.000; -601.000
815.751;  -15.025; -141.000;   82.000
816.005;  -79.100; -470.000; -586.000
816.258;  -72.200; -510.000; -363.000
816.512; -112.375; -693.000; -610.000
816.766;  -10.200;  121.000;  157.000
817.019;   21.250;  148.000;  149.000
817.273; -111.000;-1000.000; -802.000
817.526;  -33.125; -206.000; -173.000
817.779;  -44.700;-1049.000; -960.000
818.033;  -72.600; -693.000; -807.000
818.286; -120.600; -725.000; -792.000
818.540;  -86.575; -403.000; -403.000
818.793;  -81.100; -402.000; -489.000
819.046; -112.250; -582.000; -520.000
819.299;  -40.975; -157.000; -166.000
819.553; -123.575; -552.000; -592.000
819.806; -162.700;-1016.000; -838.000
820.059;  -56.825; -334.000; -354.000
820.312;   15.275;  152.000;  185.000
820.565;  -20.325;  110.000;  -27.000
820.818;  -55.350;  -59.000; -173.000
821.071; -187.225;-1041.000; -957.000
821.324; -111.650; -536.000; -540.000
821.577;  -98.400; -457.000; -483.000
821.830;  -80.275; -270.000; -172.000
822.083; -122.950; -733.000; -288.000
822.336;  -51.175; -261.000; -167.000
822.589; -128.500; -805.000; -688.000
822.842; -136.500; -875.000; -770.000
823.094; -168.775;-1076.000;-1114.000
823.347; -135.325; -925.000; -729.000
823.600;   19.300;  402.000;  187.000
823.853;  -43.450; -311.000; -267.000
824.105;  -76.525; -331.000; -575.000
824.358; -108.225; -617.000; -716.000
824.611;   17.650;  234.000;   40.000
824.863;  -55.125; -612.000; -591.000
825.116;   38.225;  -33.000;   27.000
825.368;   81.225; -366.000; -372.000
825.621;  154.850; -186.000; -240.000
825.873;   82.175; -704.000; -737.000
826.126;  630.775; -669.000; -641.000
826.378;11908.050; -389.000; -505.000
826.630; 2550.750; -890.000; -898.000
826.883;   32.650; -754.000; -693.000
827.135;   32.150; -279.000; -270.000
827.387; -116.325; -893.000; -839.000
827.639;  -30.250;  -86.000;   32.000
827.892; -118.950; -742.000; -582.000
828.144; -158.225; -848.000; -804.000
828.396;  -34.775;  104.000;  -80.000
828.648;  -99.100; -440.000; -333.000
828.900; -153.400; -702.000; -795.000
829.152; -112.050; -684.000; -683.000
829.404;  -69.150; -215.000; -267.000
829.656;  -59.400;  321.000;  214.000
829.908;  -16.700;  393.000;  229.000
830.160; -166.400;-1064.000;-1047.000
830.412; -102.325; -481.000; -430.000
830.664; -118.300; -557.000; -665.000
830.916;  -68.400; -268.000; -206.000
831.167; -175.625;-1073.000; -951.000
831.419; -122.675; -623.000; -566.000
831.671; -138.800; -764.000; -809.000
831.923;  -95.025; -311.000; -447.000
832.174;  -81.675; -273.000; -331.000
832.426; -111.900; -493.000; -582.000
832.678; -183.400;-1043.000;-1091.000
832.929; -153.800; -947.000; -935.000
833.181;  -69.150; -575.000; -677.000
833.432;  -55.425;  -59.000; -186.000
833.684;  -32.600;  112.000;  -27.000
833.935; -105.250; -610.000; -566.000
834.187; -129.800; -829.000; -823.000
834.438;  -52.600;  -58.000;  -25.000
834.689;  -52.975; -255.000; -123.000
834.941;  -63.025; -343.000; -244.000
835.192; -106.900; -590.000; -533.000
835.443; -107.875; -419.000; -506.000
835.695;  -11.750;  138.000;  -16.000
835.946;  -87.600; -608.000; -378.000
836.197; -116.000; -599.000; -622.000
836.448;  -93.025; -528.000; -395.000
836.699;  -60.150; -253.000; -341.000
836.950;   -7.400;   72.000;    7.000
837.201; -155.100;-1003.000; -987.000
837.452;  -54.925; -356.000; -170.000
837.703; -111.900; -791.000; -737.000
837.954;  -36.075; -205.000; -365.000
838.205;  -90.975;-1029.000;-1008.000
838.456;  159.700; -196.000; -282.000
838.707;    2.100; -423.000; -519.000
838.958;   25.800; -634.000; -647.000
839.209;  281.950;   18.000;   40.000
839.460;  103.025; -439.000; -201.000
839.710;  170.025; -135.000; -297.000
839.961;  419.275;  730.000;  612.000
840.212;  342.975; -382.000; -497.000
840.462; 1201.550; -328.000; -277.000
840.713;18577.200; -571.000; -536.000
840.964; 6650.325;  -62.000; -143.000
841.214;  495.725; -384.000; -624.000
841.465;  552.175; -214.000; -141.000
841.715;  503.975; -417.000; -380.000
841.966;  667.900; -746.000; -685.000
842.216; 9947.400; -330.000; -431.000
842.466;34129.475; -169.000; -313.000
842.717; 1669.375; -964.000; -952.000
842.967;  313.400; -635.000; -641.000
843.217;  262.100;   20.000;   28.000
843.468;   65.500; -104.000; -132.000
843.718;  -30.400; -718.000; -726.000
843.968; -109.225; -837.000; -765.000
844.218;   18.875; -315.000; -262.000
844.469;  -66.850; -577.000; -561.000
844.719; -116.950; -537.000; -682.000
844.969; -109.600; -550.000; -580.000
845.219; -141.025; -814.000; -862.000
845.469;  -77.250; -392.000; -342.000
845.719; -142.950; -792.000; -884.000
845.969;    2.000;  119.000;  174.000
846.219; -120.175; -738.000; -720.000
846.469;   23.625;  464.000;  432.000
846.718;  -55.725; -115.000;   31.000
846.968; -134.200; -827.000; -827.000
847.218;  -42.050; -224.000; -371.000
847.468;   -6.950; -586.000; -555.000
847.718; -150.625; -827.000; -798.000
847.967; -139.425; -826.000; -915.000
848.217;  -85.975; -449.000; -569.000
848.467;  -63.225; -405.000; -376.000
848.716; -118.475; -708.000; -725.000
848.966;    8.150; -372.000; -358.000
849.215;  -54.250; -428.000; -419.000
849.465;  -97.850; -785.000; -615.000
849.714; -145.775;-1132.000;-1150.000
849.964;  -59.525; -551.000; -613.000
850.213;  -32.725; -393.000; -355.000
850.463;   88.000;  137.000;  340.000
850.712;   -3.025; -542.000; -567.000
850.961;   14.775; -739.000; -678.000
851.211;   96.200; -513.000; -504.000
851.460;  160.750; -635.000; -650.000
851.709;  581.675;  -25.000;   18.000
851.958;10960.700; -912.000; -750.000
852.208;12060.925; -859.000; -879.000
852.457;  452.200; -181.000;  -13.000
852.706;   52.875; -791.000; -823.000
852.955;   33.200; -507.000; -528.000
853.204;  -75.925; -521.000; -461.000
853.453;  -74.700; -418.000; -458.000
853.702; -133.925; -660.000; -750.000
853.951; -102.025; -532.000; -520.000
854.200; -122.750; -613.000; -562.000
854.449; -138.550; -695.000; -661.000
854.698; -110.225; -340.000; -279.000
854.946;  -85.000; -181.000; -284.000
855.195; -157.125; -843.000; -868.000
855.444;  -89.500; -395.000; -420.000
855.693; -138.525; -345.000; -432.000
855.941; -107.700; -387.000; -516.000
856.190;  -58.250; -256.000; -382.000
856.439; -130.525; -652.000; -703.000
856.687;  -62.200;  -99.000;  -72.000
856.936; -124.200; -621.000; -323.000
857.184; -192.850;-1067.000;-1020.000
857.433; -115.075; -423.000; -512.000
857.681; -161.425; -989.000; -953.000
857.930;  -71.300; -282.000; -433.000
858.178; -174.375; -856.000; -929.000
858.427; -168.050; -802.000; -781.000
858.675; -126.825; -377.000; -544.000
858.923; -114.050; -527.000; -819.000
859.172; -186.425;-1094.000;-1070.000
859.420;  -84.525; -339.000; -239.000
859.668; -141.400; -624.000; -628.000
859.916;  -20.950;  109.000;  115.000
860.164; -116.000; -699.000; -603.000
860.413;  296.325; -878.000; -696.000
860.661;  200.325; -709.000; -577.000
860.909;  -84.700; -339.000; -325.000
861.157;  -87.125; -277.000; -444.000
861.405; -134.750; -534.000; -670.000
861.653;   21.700;  310.000;  310.000
861.901;  171.775; -543.000; -613.000
862.149;   -2.450; -801.000; -824.000
862.396;  -84.925; -297.000; -187.000
862.644;  -84.675; -368.000; -347.000
862.892;  -33.000;   98.000;  138.000
863.140; -112.125; -549.000; -530.000
863.388; -168.075; -815.000; -759.000
863.635; -129.350; -642.000; -601.000
863.883;  -11.550;  231.000;  190.000
864.131;  -94.275; -288.000; -357.000
864.378; -141.350; -675.000; -540.000
864.626; -112.475; -347.000; -415.000
864.873; -132.475; -556.000; -505.000
865.121; -144.600; -714.000; -799.000
865.368;  -55.700; -173.000;   75.000
865.616;  -38.875;  -33.000;  -40.000
865.863;  -79.250; -462.000; -506.000
866.111; -106.025; -795.000; -824.000
866.358;   31.075; -426.000; -420.000
866.605; 2390.300;  -64.000; -804.000
866.853; 2139.500; -621.000; -537.000
867.100;  -40.800; -728.000; -775.000
867.347; -111.075; -672.000; -611.000
867.594;  -93.400; -740.000; -714.000
867.841;   89.700;   97.000;   17.000
868.089; -161.800; -746.000; -698.000
868.336; -119.675; -477.000; -420.000
868.583; -148.550; -637.000; -741.000
868.830;  -47.225; -131.000; -170.000
869.077; -172.350; -859.000; -787.000
869.324; -125.550; -502.000; -458.000
869.571; -140.500; -398.000; -430.000
869.818; -117.425; -485.000; -439.000
870.065;  -98.925; -439.000; -513.000
870.311; -115.525; -456.000; -542.000
870.558; -116.650; -332.000; -311.000
870.805;  -91.500; -320.000; -384.000
871.052; -119.750; -494.000; -369.000
871.298;  -49.425; -204.000; -131.000
871.545;  -63.225; -151.000; -185.000
871.792; -101.725; -173.000; -222.000
872.038;  -73.750;   43.000; -126.000
872.285; -136.400; -496.000; -387.000
872.532; -107.725; -357.000; -387.000
872.778;    6.000;  556.000;  403.000
873.025;  -79.150; -384.000; -359.000
873.271;   17.125;  501.000;  578.000
873.517;  -28.425; -133.000; -209.000
873.764;  -44.850; -193.000;  -80.000
874.010;  -74.350; -143.000; -230.000
874.257;  -41.750;  123.000;   90.000
874.503; -125.275; -579.000; -479.000
874.749;  -84.675;   31.000;  275.000
874.995;  -69.875;  -80.000;  -20.000
875.242; -125.000; -540.000; -478.000
875.488; -109.575; -414.000; -439.000
875.734;  -51.750; -106.000; -234.000
875.980;  195.375; -872.000;-1032.000
876.226;  347.100; -157.000; -255.000
876.472;    2.675;  343.000;  237.000
876.718;  -41.550;  184.000;  158.000
876.964;  -44.275;   56.000;   55.000
877.210; -163.750; -547.000; -677.000
877.456; -142.675; -630.000; -557.000
877.702; -181.850; -821.000; -832.000
877.948; -114.500; -377.000; -497.000
878.193;    3.475;  361.000;  255.000
878.439;  -92.200; -487.000; -472.000
878.685; -106.275; -272.000; -343.000
878.931; -129.425; -618.000; -676.000
879.176;  -85.925; -201.000; -201.000
879.422; -182.475; -933.000; -820.000
879.668;   39.600;   10.000;   79.000
879.913;  136.425;   53.000;  137.000
880.159;  -64.200; -112.000;  -17.000
880.404;  -52.775; -152.000; -162.000
880.650;  -45.550;   91.000;  141.000
880.895; -162.800; -670.000; -710.000
881.141; -128.950; -454.000; -428.000
881.386; -137.375; -503.000; -658.000
881.631;  -90.450; -311.000; -166.000
881.877;  -47.475;  112.000;  -13.000
882.122; -131.700; -684.000; -600.000
882.367;  -84.275; -136.000; -186.000
882.612;  -70.600;  -80.000; -176.000
882.858; -171.725; -877.000; -823.000
883.103;  -99.150; -297.000; -267.000
883.348; -154.000; -759.000; -852.000
883.593; -152.425; -677.000; -602.000
883.838;  -58.100; -311.000;  -24.000
884.083;   23.700;  353.000;  288.000
884.328;  -96.000; -564.000; -545.000
884.573;  -57.950; -196.000; -143.000
884.818;  205.950; -694.000; -531.000
885.063;  156.100; -348.000; -315.000
885.308; -104.900; -475.000; -398.000
885.553;   -4.050;  245.000;  325.000
885.797; -133.925; -545.000; -615.000
886.042;  -57.000;    8.000;   58.000
886.287;  -78.750; -253.000; -211.000
886.532;  -50.650;   26.000;  204.000
886.776; -104.525; -407.000; -525.000
887.021; -148.275; -621.000; -574.000
887.265; -151.075; -685.000; -689.000
887.510; -128.550; -557.000; -496.000
887.755; -102.475; -194.000; -164.000
887.999; -138.900; -552.000; -575.000
888.244;  -50.375;  -58.000;  161.000
888.488;    1.000;  371.000;  393.000
888.732; -137.650; -368.000; -520.000
888.977; -127.225; -622.000; -567.000
889.221; -163.450; -683.000; -659.000
889.465; -134.025; -422.000; -566.000
889.710;  -88.275;  -56.000; -299.000
889.954;    0.425;  579.000;  467.000
890.198; -148.600; -584.000; -707.000
890.442; -153.875; -716.000; -712.000
890.687; -167.500; -800.000; -753.000
890.931;  -97.725; -273.000; -210.000
891.175; -140.475; -502.000; -500.000
891.419;  -76.025; -105.000; -110.000
891.663;  -92.500; -239.000; -112.000
891.907; -180.100; -801.000; -545.000
892.151; -179.875; -920.000; -815.000
892.395; -122.950; -274.000; -387.000
892.638;  -36.075;  408.000;  291.000
892.882; -184.000; -780.000; -867.000
893.126;    5.700;  758.000;  558.000
893.370;  -97.150; -167.000; -168.000
893.614; -163.125; -714.000; -715.000
893.857;  -96.400; -183.000; -197.000
894.101; -138.300; -527.000; -631.000
894.345;  -54.125;  300.000;  150.000
894.588;   12.250;  569.000;  380.000
894.832;  -87.550; -178.000;  -84.000
895.075;  -84.450;   15.000;  -92.000
895.319; -139.550; -552.000; -420.000
895.563; -123.725; -413.000; -353.000
895.806; -154.275; -628.000; -741.000
896.049;  -61.775; -576.000; -368.000
896.293;   90.250;  527.000;  405.000
896.536;  -98.050; -465.000; -468.000
896.779;  -65.600; -149.000;   -1.000
897.023; -151.525; -751.000; -714.000
897.266;  -30.300;  325.000;  269.000
897.509; -181.800; -900.000; -901.000
897.752;  -55.475;  149.000;  171.000
897.996; -185.325; -972.000; -864.000
898.239;  -45.500;  168.000;  102.000
898.482; -120.750; -431.000; -453.000
898.725;  -37.350;  101.000;   53.000
898.968; -154.075; -609.000; -744.000
899.211; -121.175; -513.000; -361.000
899.454; -132.300; -633.000; -539.000
899.697;  -58.675;   90.000;  -43.000
899.940; -164.650; -761.000; -757.000
900.182; -126.075; -335.000; -405.000
900.425;  -96.475; -150.000; -298.000
900.668;  -27.375;  491.000;  350.000
900.911; -119.925; -292.000; -345.000
901.154;  -56.900;  141.000;   -3.000
901.396; -138.625; -407.000; -412.000
901.639; -147.200; -430.000; -496.000
901.882; -210.775; -790.000; -809.000
902.124;  -82.800;  -29.000; -143.000
902.367; -115.075; -315.000; -361.000
902.609; -134.025; -476.000; -453.000
902.852;  -92.000; -108.000; -260.000
903.094; -130.625; -458.000; -337.000
903.337;  -71.325;  -26.000;   53.000
903.579; -106.575; -228.000; -441.000
903.821; -157.325; -597.000; -744.000
904.064;  -51.250;   85.000;  127.000
904.306;  -96.825; -126.000; -166.000
904.548; -117.550; -152.000; -366.000
904.790;  -93.500; -195.000; -340.000
905.033; -131.325; -625.000; -577.000
905.275; -128.525; -513.000; -524.000
905.517;   47.550;  468.000;  256.000
905.759;  -85.400; -667.000; -761.000
906.001;  -99.350; -322.000; -369.000
906.243;  -66.100; -162.000; -224.000
906.485;  116.650; -265.000; -207.000
906.727;   83.350; -499.000; -542.000
906.969;  -29.850;  -30.000; -135.000
907.211;  110.575; -316.000; -382.000
907.453;  265.450; -188.000; -237.000
907.695;  -10.125; -158.000; -385.000
907.936;   34.825;  818.000;  706.000
908.178;  -50.650;   92.000; -135.000
908.420;  -85.425; -111.000; -162.000
908.662; -144.900; -633.000; -682.000
908.903; -101.350; -208.000; -123.000
909.145;  -59.400; -240.000; -305.000
909.386;  -10.400;  315.000;  280.000
909.628;   47.750;  363.000;  397.000
909.870;   -7.650;   29.000;  264.000
910.111; -106.850; -809.000; -949.000
910.353;    5.025; -123.000; -161.000
910.594;  -13.025; -574.000; -606.000
910.835;   78.675; -265.000; -326.000
911.077;  146.275; -503.000; -604.000
911.318;  288.500; -505.000; -471.000
911.559;  442.100; -577.000; -880.000
911.801; 1385.525; -284.000; -280.000
912.042;11150.100;  -50.000; -159.000
912.283;26561.925;  404.000;  371.000
912.524; 3662.325; -396.000; -457.000
912.765;  450.525; -193.000;   79.000
913.006;  207.825; -307.000; -338.000
913.247;   34.975; -270.000; -290.000
913.488;   -4.900;  -43.000;   30.000
913.729;  -87.775; -373.000; -373.000
913.970;  -70.125;  -96.000; -292.000
914.211;  -78.125; -160.000; -198.000
914.452;  -79.475; -118.000;  -11.000
914.693;   15.375;  510.000;  592.000
914.934;   -3.350;  510.000;  440.000
915.175;  -58.725;   53.000;  -95.000
915.415;  -92.200; -137.000;   27.000
915.656;  -69.500;  -28.000;  192.000
915.897;  -89.875; -252.000;  -82.000
916.137;  -78.300;   74.000;   -9.000
916.378; -141.150; -573.000; -517.000
916.619;  -94.950; -159.000;  -63.000
916.859;  -28.775;  303.000;  330.000
917.100;  145.225; 1655.000; 1070.000
917.340;   46.550;  930.000;  728.000
917.581;   55.150;  965.000;  789.000
917.821;  -30.650; -171.000;  143.000
918.061;    4.750; -199.000;  -72.000
918.302;  -66.700; -152.000; -211.000
918.542;  -43.675;  -22.000;    3.000
918.782;   21.175;  369.000;  377.000
919.023;  141.225;  360.000;  427.000
919.263; 1826.850; 8131.000;  202.000
919.503; 1067.500; -137.000;  -54.000
919.743;  637.350;  390.000;  266.000
919.983;  225.825; -134.000;  -26.000
920.223;   78.675;  135.000;   14.000
920.463;  128.675;  631.000;  554.000
920.703;  137.275;   84.000;   39.000
920.943;  152.225; -110.000;   90.000
921.183;  222.600; -414.000; -405.000
921.423;  516.225;  307.000;  546.000
921.663;  723.950; -174.000; -257.000
921.903; 1612.450;  237.000;  173.000
922.143; 9176.925;  372.000;  389.000
922.383;33789.100;  158.000;  115.000
922.622;10230.550; -120.000;  -15.000
922.862; 1127.300;  796.000;  785.000
923.102;  428.975;  -51.000;   33.000
923.341;  171.625;   59.000;   74.000
923.581;   82.500;  450.000;  360.000
923.821;    8.900;  301.000;  398.000
924.060;    8.075;  351.000;  193.000
924.300;  -55.500;  -16.000; -128.000
924.539;  -18.075;  584.000;  473.000
924.779;   13.450;  812.000;  597.000
925.018;  -56.275;  247.000;  353.000
925.257;   -2.100;  595.000;  666.000
925.497;  -39.725;  447.000;  412.000
925.736;  -70.750;  -35.000;  102.000
925.975;    3.800;  687.000;  669.000
926.214;   26.025;  907.000;  850.000
926.454;   21.625;  706.000;  757.000
926.693;  -40.125;  419.000;  543.000
926.932;   27.875; 1021.000;  825.000
927.171;   73.625; 1107.000; 1044.000
927.410;   64.450; 1144.000;  967.000
927.649;   19.125;  924.000;  742.000
927.888;   -3.600;  590.000;  564.000
928.127;   -0.800;  680.000;  678.000
928.366;   21.175;  842.000;  826.000
928.605;   37.800;  831.000;  737.000
928.844;  249.650; 1451.000; 1393.000
929.083;  588.550;  770.000;  613.000
929.321;  311.300; 1335.000; 1359.000
929.560;   81.925; 1158.000; 1122.000
929.799;  -24.925;  574.000;  475.000
930.038;   86.850; 1025.000; 1394.000
930.276;  -59.025;  334.000;  397.000
930.515;  -11.050;  827.000;  681.000
930.753;  -19.325;  614.000;  589.000
930.992;  -22.200;  664.000;  717.000
931.230;   -5.100;  847.000;  847.000
931.469;  171.125; 2162.000;  892.000
931.707;   70.025;  840.000;  751.000
931.946;   68.250; 1278.000; 1344.000
932.184;   77.300; 1437.000; 1175.000
932.423;   35.725; 1265.000;  963.000
932.661;  110.875; 1296.000; 1428.000
932.899;   23.725;  987.000;  821.000
933.137;    0.375;  754.000;  564.000
933.376;  142.625; 1664.000; 1335.000
933.614;  161.050; 1759.000; 1196.000
933.852;   49.675; 1357.000; 1171.000
934.090;  137.650; 1722.000; 1747.000
934.328;   92.400; 1252.000; 1457.000
934.566;  105.200; 1431.000; 1110.000
934.804;  135.350; 1263.000; 1309.000
935.042;  473.325; 1861.000; 1850.000
935.280; 1855.675; 2088.000; 2063.000
935.518; 1635.450; 2113.000; 2007.000
935.756;  347.300; 2481.000; 2316.000
935.994;  151.325; 1808.000; 1751.000
936.231;  349.800; 2890.000; 2950.000
936.469;  205.400; 2367.000; 2378.000
936.707;  154.775; 2220.000; 2167.000
936.945;  228.175; 2825.000; 2882.000
937.182;  211.775; 2679.000; 2741.000
937.420;  318.425; 3602.000; 3031.000
937.657;  418.275; 3365.000; 3478.000
937.895;  345.675; 3331.000; 3488.000
938.133;  312.650; 3540.000; 3528.000
938.370;  345.600; 3896.000; 4191.000
938.607;  394.475; 4488.000; 4205.000
938.845;  561.475; 5587.000; 5549.000
939.082;  488.275; 5387.000; 5177.000
939.320;  528.125; 5799.000; 5728.000
939.557;  643.025; 6549.000; 6491.000
939.794;  717.725; 7285.000; 7097.000
940.031;  928.525; 8421.000; 8368.000
940.269; 1121.475; 9552.000; 9107.000
940.506; 1129.100;10901.000;10507.000

