
Integration time [ms]: 100.000
Averaging Nr. [scans]: 40
Smoothing Nr. [pixels]: 0
Data measured with spectrometer [name]: 2101013U2
Wave   ;Sample   ;Dark     ;Reference
[nm]   ;[counts] ;[counts] ;[counts] 

394.013;   57.700; -450.257; -315.536
394.305;  190.247; -461.258; -419.536
394.596; 1597.369; -676.269; -527.514
394.887; 4178.265; -796.268; -654.518
395.178; 1497.178;  145.736;   11.476
395.470;   88.592; -210.263; -356.526
395.761;  146.559;  305.734;  394.479
396.052;  147.714; -545.284; -306.489
396.343;  123.776; -557.276; -454.503
396.634;   49.837; -200.279; -290.497
396.926;   28.112; -618.268; -565.517
397.217;   75.856;   11.725;  -17.504
397.508;   31.251; -366.273; -154.507
397.799;   24.437; -555.279; -571.497
398.090;    5.880; -973.280; -902.495
398.381;   84.596;   11.708;  -11.473
398.672;  -12.703; -585.292; -742.473
398.963;   45.519; -348.279; -373.498
399.254;   79.233;   54.709; -209.475
399.545;    0.254;-1017.266; -883.520
399.836;   47.187; -407.277; -343.501
400.127;   63.066; -205.295; -209.468
400.418;   41.369; -423.274; -392.506
400.709;   65.964; -359.281; -333.493
401.000;   44.513; -268.291; -309.476
401.290;  115.812;  225.698;  115.545
401.581;   63.867; -166.286; -228.485
401.872;   37.732; -542.298; -486.462
402.163;   58.232; -313.296; -252.467
402.454;  109.109; -123.291; -163.475
402.744;   71.021; -844.297; -813.465
403.035;  286.060; -226.293;  -86.471
403.326;  334.526; -366.292; -384.474
403.617;  366.100;  204.701;  165.539
403.907;  359.346; -593.283; -679.490
404.198; 3535.030; -545.307; -599.446
404.489; 9087.627; -618.283; -588.491
404.779; 2548.142; -618.302; -660.456
405.070;  280.665;  -67.304; -174.451
405.360;  500.262; -259.293; -238.472
405.651;  476.131;  125.699;   98.542
405.942;  182.587;  209.714;  127.516
406.232;  105.080; -432.285; -413.487
406.523;  281.653;  641.706;  758.530
406.813;   64.764; -579.286; -644.484
407.104;  247.819;  261.708;  144.527
407.394;  113.576; -604.299; -591.462
407.685;  161.229;  336.715;  222.513
407.975;   70.250; -400.283; -382.490
408.265;  131.377; -134.289; -190.478
408.556;   72.255; -472.291; -459.475
408.846;  198.730;  474.706;  429.530
409.137;  118.113;   -1.288; -216.480
409.427;   76.979; -193.285; -271.487
409.717;   50.080; -776.273; -692.508
410.007;  156.021;    4.715; -170.486
410.298;  131.545; -360.295; -342.469
410.588;  127.801; -495.285; -510.486
410.878;   59.901; -792.287; -873.482
411.168;  131.085; -481.298; -478.463
411.459;  146.094; -295.283; -242.489
411.749;   93.554; -609.292; -507.474
412.039;   94.211; -755.289; -386.480
412.329;  229.578;   40.722;  132.501
412.619;  228.840;  -62.286; -148.485
412.909;  392.281;  639.711;  594.521
413.199;  347.355; -130.280; -251.495
413.490;  408.444;  521.710;  352.523
413.780;  216.060;-1013.279; -913.496
414.070;  400.877;  -46.276;  235.497
414.360;  433.073; -729.278; -666.498
414.650;  556.596; -726.288; -688.482
414.940;  774.384; -538.280; -441.496
415.230; 1273.043;   50.712;   74.519
415.520; 8705.168;  155.730;   66.486
415.809;35284.713; -305.281; -125.493
416.099;26405.140; -388.277; -229.501
416.389; 7694.416;  435.726;  236.494
416.679; 4392.346;   91.738;   85.473
416.969;  778.057; -527.287; -503.483
417.259;  651.237;  341.721;  171.503
417.549;  925.887;  522.718;  318.508
417.838; 2411.839; -205.268; -147.518
418.128; 8258.425;  650.710;  492.522
418.418; 6750.638; -491.272; -579.509
418.708; 4473.717;    9.726;  -48.506
418.997;17562.961; -474.275; -480.505
419.287;17694.475; -733.273; -790.507
419.577;17178.843; -160.283; -123.489
419.866;55571.512; -588.277; -498.501
420.156;54412.263; -242.270;  -55.513
420.446; 9042.037; -112.263;  -26.526
420.735;  944.081; -376.271; -446.512
421.025;  937.222; 1830.722;  315.502
421.314;  612.579; -203.271; -226.512
421.604;  851.080;   89.732;  233.484
421.893;  516.299; -705.271; -602.511
422.183;  301.312; -487.263; -461.526
422.472;  418.601;  -36.271; -107.511
422.762;  442.937; -416.266; -379.521
423.051;  281.102; -916.276; -916.503
423.341;  340.477; -491.273; -439.507
423.630;  427.669; -121.265;   15.477
423.919;  443.685;   58.725;   49.495
424.209;  483.844;  -31.263;   56.473
424.498;  642.311;   68.732;  161.483
424.787; 1465.669; -535.267; -601.518
425.077; 4316.692;   34.735;   29.478
425.366; 4784.001; -734.262; -744.528
425.655;12904.153;  639.727;  259.493
425.945;32613.411; -313.247; -268.554
426.234;17248.179;  117.741;  300.467
426.523; 7503.211;  -86.259; -350.534
426.812;10066.007;  107.734;  159.480
427.101;14664.551; -127.269; -323.515
427.390;17286.843;  -55.270;  -86.514
427.680; 2609.210; -624.257; -411.538
427.969;  545.874; -330.255; -301.540
428.258;  382.475; -385.257; -477.536
428.547;  538.168;  449.728;  397.490
428.836;  841.119; -421.253; -398.543
429.125; 1165.488; -199.259;  -72.534
429.414;  841.772; -330.251; -294.548
429.703; 4566.397; -231.251; -213.548
429.992;14041.776; -938.250; -828.549
430.281; 8836.828; -397.264; -331.524
430.570;  658.135;  -21.252;   32.454
430.859;  499.985;  279.741;  352.466
431.148;  467.131;  636.752;  631.446
431.437;  366.409;  391.748;  367.454
431.725;  208.402; -544.257; -481.536
432.014;  236.028; -845.253; -756.545
432.303;  443.150; -149.239; -105.569
432.592;  621.312; -460.263; -178.525
432.881; 1441.382; -601.248; -437.554
433.169; 9454.749; -343.255;  -61.540
433.458;19044.592;  445.765;  540.424
433.747; 7494.583; -397.261; -289.529
434.036;  957.195; -275.242; -280.564
434.324; 2890.842; -395.249; -379.551
434.613; 5203.087;   40.757;  159.437
434.902; 1516.838;  333.760;  439.433
435.190;  361.798;   75.761;  295.431
435.479;  235.139;  -52.245;   83.441
435.767;  116.799; -411.244; -427.561
436.056;  244.090; -340.242; -294.563
436.345;  506.666; -372.240; -223.568
436.633;  471.611;   60.750;  383.450
436.922;  232.468;  208.760;  414.432
437.210;  312.854; -194.236;    1.426
437.499;  773.889; -583.235; -432.576
437.787;  883.679; -339.236;  -10.574
438.075;  241.630;   56.761;  162.430
438.364;  293.834;  -44.238;  250.429
438.652;  171.513; -286.226; -138.592
438.941;  107.894;    3.770;  269.415
439.229;    9.531; -665.252; -466.545
439.517;   51.700; -160.234;  -85.577
439.806;    3.508; -501.225; -290.595
440.094;  175.634;  377.766;  650.421
440.382;   69.689; -653.233; -302.580
440.670;   79.114; -361.235; -285.576
440.959;   17.005; -347.223; -170.599
441.247;   63.908; -151.229; -109.587
441.535;   58.223; -266.235;   31.423
441.823;   30.156; -497.234; -305.578
442.111;  169.688;  173.771;  327.412
442.400;  367.589; -628.245; -335.559
442.688;  694.409; -111.234; -620.579
442.976;  407.938; -786.213; -450.617
443.264;   57.541; -324.224; -364.597
443.552;   71.615; -258.226;   51.408
443.840;  139.796;  602.765;  876.423
444.128;  115.363;  265.767;  269.420
444.416;    1.691; -694.228; -312.588
444.704;   25.366; -465.219;  -92.605
444.992;   68.393;   -0.226;  240.407
445.280;   30.595; -517.230;  -94.585
445.568;   13.468; -694.212; -396.618
445.856;  181.997; -174.221;  357.398
446.143;  339.737;  -54.220;   -7.604
446.431;  294.396;  -25.228;  625.411
446.719;  187.740;  489.783;  675.391
447.007;  180.388;  481.769;  705.416
447.295;  176.651;  597.777;  871.402
447.583;  106.255; -464.229;  -34.587
447.870;  122.768; -434.221; -202.601
448.158;  269.343; -104.230;  129.415
448.446;  181.313; -800.219; -338.604
448.733;  157.968;   13.776;  269.403
449.021;  201.717;   60.788;  341.382
449.309;  187.811; -296.210;  208.379
449.596;  248.486;  128.783;   59.392
449.884;  207.635; -571.222; -325.600
450.172;  285.803; -756.227; -406.590
450.459;  632.518;  645.786;  780.387
450.747; 3690.359; -411.218; -147.608
451.034;11884.097;  493.772;  889.411
451.322; 9430.746; -413.214; -170.614
451.609;  713.620;  292.777;  508.403
451.897;  887.839; -550.203; -183.634
452.184; 2716.701; -622.223; -400.598
452.472; 2396.887;   97.792;  269.375
452.759;  357.789;  512.781;  864.395
453.047;   97.514; -407.212; -125.617
453.334;   62.023; -732.219; -216.606
453.621;   51.599; -438.214; -161.615
453.909;  136.554;   13.796;  384.368
454.196;  124.335; -299.199; -123.641
454.483;  281.155;  317.798;  540.364
454.771;  170.216; -215.208;  196.374
455.058;   78.445; -316.207;  102.374
455.345;  136.854;   71.807;  344.347
455.632;  135.324; -128.207;  235.373
455.919;   84.888;  -82.196;  182.354
456.207;   -6.759; -774.198; -450.642
456.494;   15.770; -475.200;  -66.639
456.781;   23.425; -399.202; -198.635
457.068;   81.907; -253.206;  -29.628
457.355;   12.784; -698.206; -401.629
457.642;   25.516; -552.205; -290.630
457.929;   65.093; -778.194; -417.651
458.216;  120.190; -575.212; -354.617
458.503;  360.523; -173.193;  -19.652
458.790;  411.663; -864.208; -630.625
459.077;  400.706;  -77.202;  110.364
459.364; 1194.159; -350.195; -210.649
459.651; 2528.930;  -46.206;  220.372
459.938; 1110.852; -864.209; -665.623
460.225;  127.835;  132.799;  276.363
460.512;  -10.015; -836.197; -688.645
460.799;  151.682;  -32.218;  320.392
461.086;  143.001; -370.200; -251.640
461.372;   43.816; -509.198; -279.642
461.659;   75.590; -165.196;  108.354
461.946;   48.772; -445.193;  -54.651
462.233;  234.123;  842.800;  888.361
462.519;  502.594; -814.201; -464.639
462.806; 1517.110; -768.197; -497.645
463.093; 1292.397; -445.191;  -66.656
463.380;    3.098; -920.186; -824.664
463.666;   71.513; -259.197;  -18.646
463.953;  132.578; -406.195; -243.648
464.239;  274.802; -173.195;  -77.648
464.526;  393.791;  413.806;  743.350
464.813;  328.487; -565.190; -304.658
465.099;  339.498;  606.807;  607.348
465.386;  303.628;  903.807;  921.348
465.672;   44.236; -694.197; -522.645
465.959;   77.884; -598.188; -520.662
466.245;   14.853; -468.193; -359.652
466.532;   85.200; -109.195;   63.352
466.818;   42.548; -357.186; -216.664
467.104;   16.323; -488.182; -415.672
467.391;    6.564; -628.189; -459.658
467.677;   57.853; -289.186;    9.335
467.964;    9.897; -682.189; -471.660
468.250;   64.306; -331.186; -160.665
468.536;   93.541;   90.811;  180.341
468.822;   12.171; -821.184; -574.668
469.109;  162.573;  351.827;  471.311
469.395;  220.765;  729.808;  787.346
469.681;  240.819;   46.811;  156.341
469.967; 1826.975; -699.188; -382.660
470.254; 3977.410; -494.188; -306.662
470.540; 2455.388; -601.196; -476.646
470.826;  362.062; -488.181; -397.675
471.112;  405.175;  288.816;  113.331
471.398;  109.656; -253.183;  -58.670
471.684;   66.372; -626.177; -447.680
471.970;   34.591; -918.180; -981.675
472.256;   61.164; -521.192; -441.654
472.542;   53.987; -499.171; -434.691
472.828;   70.493; -743.182; -607.672
473.114;   47.516; -380.166; -283.700
473.400;   49.567; -504.175; -293.684
473.686;   58.573; -452.166; -400.701
473.972;   83.835; -230.174; -131.687
474.258;    6.098; -925.173; -843.689
474.544;  311.637; -183.178;   -2.679
474.830;  460.344;  -65.175;   45.316
475.116;  742.589; -123.190; -196.658
475.401;  996.144; -558.180; -467.676
475.687;  270.568; -725.180; -718.676
475.973;   12.553; -673.181; -770.673
476.259;  259.247;  736.825;  764.315
476.544;  527.457; -539.176; -437.682
476.830; 1253.307; -398.172; -322.690
477.116; 1082.105; -430.177; -336.682
477.401;  163.344;  346.820;  358.324
477.687;   -4.958; -289.175; -405.684
477.973;   58.082;   21.819;   28.326
478.258;    5.174; -448.163; -348.706
478.544;   57.312;   21.815;   61.334
478.829;  -49.332; -818.171; -738.692
479.115;  -19.969; -749.172; -651.690
479.401;    3.455; -444.174; -449.686
479.686;   71.892; -253.180;  -74.676
479.972;    4.993; -886.178; -776.680
480.257;   69.417; -258.166;  -65.700
480.542;   42.123; -614.170; -469.693
480.828;  257.715; 1288.824; 1392.317
481.113;  -22.812; -464.176; -426.683
481.399;   15.253; -236.161; -202.711
481.684;  -33.808; -620.166; -462.700
481.969;   42.070; -158.159;  -73.713
482.255;   -1.888; -439.169; -285.695
482.540;   14.093; -569.178; -441.680
482.825;   42.692; -395.187; -404.663
483.110;  154.341;  -85.169; -105.696
483.396;  346.397; -840.157; -652.718
483.681;  701.861;  543.826;  730.313
483.966;  277.762; -696.160; -700.712
484.251;   29.359; -404.174; -310.687
484.536;   17.630; -356.165; -378.703
484.822;   43.463; -205.173; -218.687
485.107;   -7.156; -599.152; -502.726
485.392;  150.087;  662.836;  541.296
485.677;   84.478;  354.832;  163.302
485.962;  125.693;  160.843;  270.283
486.247;  124.834;  -14.162;   -8.707
486.532;   95.144; -178.166; -325.701
486.817;  187.146;  381.839;  431.291
487.102;  148.798; -453.154; -514.722
487.387;  970.499; -637.156; -652.718
487.672; 1774.768; -154.164;  -38.705
487.957; 1111.655; -394.160; -286.711
488.241;  318.590; -290.150; -314.729
488.526; 1072.121; -280.152; -148.726
488.811; 1810.471; -881.177; -818.680
489.096; 1225.526; -666.154; -702.723
489.381;  655.141;    3.847;  162.275
489.666;  588.753; -428.161; -510.710
489.950;  219.730;  558.846;  627.277
490.235;  -15.792; -480.151; -458.728
490.520;  -18.823; -756.161; -723.710
490.804;  -51.449; -827.156; -736.719
491.089;   26.959; -469.149; -299.732
491.374;   44.192; -132.164;  -75.704
491.658;    3.723; -817.147; -717.735
491.943;  124.176; -657.152; -609.727
492.227;  229.543; -178.155;  -38.721
492.512;   33.193; -294.157; -341.717
492.797;  -43.798; -713.149; -716.731
493.081;  -37.723; -588.147; -598.735
493.366;  -17.996; -751.161; -635.711
493.650;  220.243;  831.859;  917.254
493.935;   73.973; -648.147; -447.734
494.219;  -23.048; -778.142; -687.743
494.503;   -8.930; -585.150; -487.730
494.788;   53.833;   46.842;   74.285
495.072;  127.941;  184.850;  434.271
495.356;  212.338; -463.148; -343.733
495.641;  497.810; -812.146; -736.736
495.925;  425.082; -976.156; -903.719
496.209;   27.258; -599.149; -451.732
496.494;  -15.073; -763.142; -544.744
496.778;   26.573; -364.154; -360.722
497.062;  -29.968; -819.156; -627.719
497.346;    7.257; -869.160; -640.711
497.631;  165.167;  580.852;  560.266
497.915;   91.873;  -64.145;  175.261
498.199;   55.672; -341.157; -277.718
498.483;   37.318; -562.152; -508.725
498.767;  227.968;  301.850;  300.271
499.051;  262.706; -126.149; -100.732
499.335;   55.903; -693.149; -739.731
499.619;  -15.282; -381.129; -423.767
499.903;   20.641; -272.155;  -65.721
500.187;   43.357; -588.153; -316.724
500.471;   31.325; -796.152; -595.727
500.755;   97.802;   62.839;  -96.710
501.039;    6.667; -270.155; -357.721
501.323;   72.570;  -21.141;  264.254
501.607;   27.299; -447.163; -503.706
501.891;   10.323; -607.156; -512.718
502.174;  -39.038; -726.144; -585.741
502.458;   61.705;   89.849;  370.273
502.742;   46.599; -180.138; -191.751
503.026;  184.897; -412.147; -254.734
503.310;  281.043; -437.159; -375.713
503.593;  197.299; -464.147; -325.735
503.877;  131.299; -232.133; -156.760
504.161;  193.985;    2.847;  -50.724
504.444;  164.685; -841.158; -710.716
504.728;  718.291; -487.164; -522.704
505.012; 1023.839; -257.150;  -76.729
505.295;  769.528; -417.161; -212.711
505.579;  764.082; -256.156; -496.719
505.862; 1153.168; -555.145; -333.738
506.146; 1133.846; -681.159; -758.714
506.429;  540.347;  568.841;  461.286
506.713;  114.635; -732.151; -667.728
506.996;  451.622;   90.846;  295.278
507.280;  503.960; -633.165; -474.703
507.563;  360.614; -469.155; -261.721
507.847;  183.733; -423.153; -112.724
508.130;  172.654; -665.161; -456.711
508.413;  203.787; -758.167; -577.700
508.697;  375.537; -151.167;   12.300
508.980;  242.984; -422.153; -312.724
509.263;   34.910; -466.155; -450.720
509.547;   55.163; -124.150;   82.271
509.830;   62.232; -172.160;  140.289
510.113;   91.831;  128.844;  298.281
510.396;   50.341; -530.152; -300.725
510.680;   70.345; -818.145; -812.738
510.963;  290.278;  184.846;  180.277
511.246;  200.873; -493.150; -357.730
511.529;  291.076; -482.145;  -83.739
511.812;  552.870; -250.134;   10.241
512.095;  437.107; -740.151; -396.728
512.378;  111.379; -317.147; -245.736
512.661;   74.784; -703.137; -623.753
512.944;   70.004; -750.142; -637.744
513.227;  111.255; -170.137; -171.752
513.510;   67.787; -479.144; -671.741
513.793;   43.025; -485.140; -435.747
514.076;  150.194;  -43.127;  -39.771
514.359;  167.609; -294.149; -135.732
514.642;  132.733; -442.142; -567.744
514.925; 1037.548;  581.860;  561.253
515.208; 1489.815; -498.134; -443.758
515.491;  948.483; -276.133; -182.761
515.773;  527.416; -410.143; -337.742
516.056; 2989.317;  249.864;  409.246
516.339; 3926.871; -754.136; -652.755
516.622; 1952.045; -518.150; -488.730
516.904;  664.925;  882.857;  975.257
517.187;  268.304; -730.138; -523.752
517.470;  409.024; -568.143; -510.743
517.752;  659.975; -624.136; -470.756
518.035;  544.738; -708.139; -725.749
518.318;  552.947; -799.136; -744.755
518.600; 3572.162; -300.132; -325.762
518.883; 4913.932;  310.858;   88.256
519.165; 2271.820; -585.138; -426.751
519.448;  432.211;  -61.132;  -19.762
519.730;  190.628; -573.126; -415.773
520.013;  238.778;  588.867;  664.240
520.295;  382.897;  -94.134;  -15.759
520.578;  789.028; -335.131; -305.764
520.860; 1044.812; -254.132;   56.238
521.143;  692.403; -763.135; -584.756
521.425;  547.419; -251.125; -279.775
521.707;  893.644; -622.127; -380.771
521.990; 2563.145; -199.127;  167.229
522.272; 2912.477; -116.140;   -4.748
522.554; 1105.842; -237.143; -157.742
522.836;  268.619;  -24.134;   99.241
523.119;  191.745; -496.148; -189.734
523.401;  185.261; -448.130; -314.766
523.683;  146.884; -865.137; -693.753
523.965;  393.201;  408.862;  260.248
524.247;  397.195;   54.878;  170.220
524.529;  305.172; -451.134; -367.759
524.812;  450.063;   -3.130;  191.234
525.094; 1273.650; -773.138; -631.751
525.376; 1990.430; -143.124;   78.223
525.658; 1202.543; -441.136; -339.754
525.940;   91.374; -805.131; -671.764
526.222;   43.348; -188.136;  -88.755
526.504;   66.696; -190.131;   32.237
526.786;   61.875; -960.133; -647.760
527.068;  146.262; -124.123;  -67.778
527.349;   16.664; -865.137; -774.754
527.631;  123.261; -137.132;   22.238
527.913;  216.418; -664.127; -450.771
528.195;  275.160; -761.125; -639.774
528.477;  360.091;  -93.134;  -30.758
528.759;  241.538; -648.130; -522.766
529.040;  145.835; -569.123; -293.778
529.322;   84.514; -235.125;  -10.774
529.604;   87.891;  -47.130;   93.233
529.886;   54.653; -546.126; -302.773
530.167;   87.756;  232.870;  192.235
530.449;   44.278;    1.853;   63.265
530.731;   73.694; -572.122; -459.779
531.012;  123.145; -513.120; -216.784
531.294;  125.543; -118.116;  -43.792
531.575;  186.569;  290.875;  538.225
531.857;  114.859; -548.135; -266.757
532.138;  107.893; -113.141;   40.254
532.420;  131.255;  294.865;  403.244
532.701;   91.028; -722.133; -751.760
532.983;  218.857;  232.867;  182.239
533.264;   61.325; -243.126;  175.228
533.546;  -26.328; -491.136; -508.755
533.827;   36.749;  173.867;   -1.759
534.109;   40.459; -352.135;  -80.757
534.390;   81.916; -725.132; -582.762
534.671;  294.404; -270.135;  -82.756
534.953;  186.039; -751.123; -611.779
535.234;   58.000; -426.117; -255.789
535.515;  -38.845; -891.119; -735.785
535.796;   12.188; -431.128; -193.770
536.078;  -85.270;-1050.124; -904.777
536.359;   13.940;  -22.123;    3.221
536.640;  -13.013; -480.125; -197.774
536.921;  163.923;  225.871;  143.232
537.202;  513.796;  -87.138;  -16.751
537.483;  641.177;  251.869;  377.236
537.764;  261.906;   17.870;   98.235
538.045;  -14.510; -543.134; -371.758
538.326;  -14.350; -596.129; -447.768
538.607;   75.695; -686.127; -476.771
538.888;  233.759;   98.879;    5.218
539.169;  280.827; -704.122; -535.781
539.450;  391.696;  236.871;   16.233
539.731;  239.639; -361.121; -182.783
540.012;  146.120;  199.880;  412.216
540.293;  113.298;   82.876;  158.224
540.574;   14.494; -895.113; -717.796
540.855;  504.487;  435.879;  377.218
541.136;  623.999;   47.878;  139.220
541.416;  371.089; -161.130; -220.766
541.697;  286.972; -274.131; -170.763
541.978; 1542.407; -270.135; -315.757
542.259; 1951.245; -211.127; -236.771
542.539;  894.636; -191.116; -186.790
542.820;  205.993;  461.875;  480.225
543.101;  147.847;  -52.145;  -77.738
543.381;   56.870; -638.127; -591.771
543.662;  366.692;  159.873; -254.771
543.942;  937.789; -751.127; -830.770
544.223; 1570.201;  193.878;  161.219
544.504; 1028.129; -275.124; -182.777
544.784;  834.202; -592.126; -408.773
545.065; 2402.340;  104.884; -254.791
545.345; 2854.180;  227.881;   14.215
545.626; 1832.468;  -14.113; -108.796
545.906; 1329.180;   77.869;   98.235
546.186;  554.233;   92.874;  -95.773
546.467;  305.933;   99.877;  -95.778
546.747;  476.235;  264.884;  327.210
547.027;  556.003;   91.876;  111.223
547.308;  544.513; -376.127; -530.770
547.588;  570.001;  299.871;  371.232
547.868;  241.457;  458.870;  588.235
548.149;  264.474;  609.885;  593.207
548.429;  226.218; -347.127; -299.771
548.709;  359.819; -645.120; -461.784
548.989;  729.417;   84.882;   88.213
549.269; 3034.585;   10.868;  139.239
549.550; 7199.738;  215.877;  117.222
549.830; 6341.290; -758.111; -556.799
550.110; 1238.124; -468.110; -320.801
550.390; 1253.669; -128.122;  -56.779
550.670; 1783.638; -868.114; -783.795
550.950; 1226.311; -509.121; -471.782
551.230;  226.282;  549.879;  460.218
551.510;   40.660; -381.121; -326.782
551.790;   81.009; -173.109; -127.803
552.070;  315.232;  940.877; 1181.223
552.350;  663.760; -492.119; -377.786
552.630;  894.729;   -2.121;   77.219
552.909;  529.566;  181.884;   73.209
553.189;  362.893;  -49.132;   33.237
553.469;  342.660; -703.119; -514.786
553.749;  334.447; -469.127; -357.772
554.029;  276.380;   33.883;  -24.790
554.308;  262.355; -154.115;  -37.794
554.588;  118.237; -196.128; -204.770
554.868;  137.912; -366.121;  -47.782
555.147;  266.801; -114.115;  -46.793
555.427;  865.094; -260.116; -250.792
555.707; 5677.073; -284.115; -200.793
555.986; 7042.119; -719.111; -538.800
556.266; 3562.209;   23.884;   72.210
556.546;  237.035; -888.121; -675.782
556.825;  393.360; -657.114; -556.794
557.105; 2657.484; -125.128;   17.230
557.384; 3104.814;  122.884;  187.209
557.664; 1197.718; -717.116; -508.792
557.943;  197.186; -557.121; -411.782
558.222;  321.271; -345.118; -344.788
558.502;  378.603; -116.115;  -76.793
558.781;  668.522;  194.885;  499.208
559.061;  606.196; -232.118; -227.788
559.340;  445.627;  302.883;  353.211
559.619; 1059.159;   93.884;  148.210
559.899; 1553.354; -239.117; -266.789
560.178; 1416.202; -778.115; -593.793
560.457; 4455.306; -623.117; -562.790
560.736; 6392.921; -472.111; -482.800
561.015; 4169.107; -500.128; -502.769
561.295;  515.759;  180.893;  215.193
561.574;  426.649;  119.885;  116.207
561.853;  670.939;  274.891;  303.197
562.132;  732.905;  -45.114;  182.206
562.411;  610.179;  396.879;  553.219
562.690;  246.897; -592.115; -458.792
562.969;  173.427;  472.888;  630.203
563.248;  528.802; 2966.878; 2487.219
563.527;  428.295; -290.111; -408.800
563.806;  612.118; -650.127; -521.771
564.085;  608.852; -297.105; -206.810
564.364;  398.983; -594.117; -405.790
564.643;  725.980; -276.121; -223.781
564.922; 2706.207;  221.890;  397.198
565.201; 2815.711; -640.109; -700.803
565.479; 1194.870; -297.115; -219.792
565.758;  535.035; -810.128; -712.770
566.037;  718.788; -155.109; -100.803
566.316;  377.365; -286.116;  -28.791
566.595;   80.574;  -17.115;  -12.793
566.873;  105.272; -166.111;  -79.801
567.152;  -15.449; -490.113; -590.797
567.431;   37.310; -113.116;    6.210
567.709;   54.084; -344.107; -212.807
567.988;  452.810; -810.114; -769.794
568.266;  816.949; -160.115;  -68.793
568.545;  601.786; -644.100; -514.819
568.824;  842.394;  160.885;  356.208
569.102;  863.134; -351.114; -235.794
569.381;  384.343; -492.116; -407.792
569.659;   -5.853; -553.113; -553.796
569.938;  117.149; -743.122; -465.780
570.216;  200.816; -225.109; -225.804
570.494;   50.788; -632.114; -572.795
570.773;   41.710;  202.879;  114.218
571.051;   42.786; -373.123; -357.778
571.330;  104.094; -221.113; -174.796
571.608;   80.533; -181.098; -173.823
571.886;  -41.012; -671.111; -581.799
572.164;  -22.663; -739.121; -621.782
572.443;  -23.918; -562.105; -512.811
572.721;  -13.444; -399.117; -289.790
572.999;  -13.302; -280.117; -168.788
573.277;  107.824;  379.894;  620.191
573.555;  404.977;   94.894;   37.190
573.834; 2007.573;  -86.117; -114.788
574.112; 2242.587;  880.893;  811.193
574.390;  691.796; -143.111;  -96.801
574.668;   38.328;  -91.112;  -61.797
574.946;   16.077; -165.106; -187.810
575.224;   27.961;   71.891;  -16.803
575.502;   11.187; -200.116; -204.791
575.780;  -66.671; -767.112; -829.798
576.058;  246.920; 1589.889; 1004.200
576.336;   -1.223; -210.110; -129.801
576.614;  -29.646; -511.112; -340.798
576.891;  144.279; -711.115; -823.794
577.169;  770.376; -158.108; -285.805
577.447;  841.011;  169.893;  202.193
577.725;  338.985;  629.888;  854.201
578.003;   40.232;  -71.112; -371.798
578.280;  133.468; -208.104; -242.812
578.558;   92.903; -450.115; -422.793
578.836;  163.763; -210.114; -145.795
579.114;   81.377; -630.112; -670.797
579.391;   87.400;   -6.117;  -18.789
579.669;  -22.770; -595.114; -704.794
579.947;  261.882; -326.107; -127.806
580.224;  540.282; -692.107; -524.806
580.502;  464.837;  127.893;   76.193
580.779;   35.657;  -42.117;   75.210
581.057;  -60.584; -584.109; -470.804
581.334;  -81.839; -726.102; -695.815
581.612;   48.228;   54.895;  511.190
581.889;    1.453;  -83.101; -129.818
582.167;  -13.730; -298.099; -190.821
582.444;  -85.754; -845.102; -814.817
582.721;  115.847;  657.899;  715.183
582.999;   94.892; -326.100; -167.821
583.276;  833.416; -812.123; -713.779
583.553; 1091.715; -364.102; -294.816
583.831;  401.264; -607.104; -631.812
584.108;   77.148;  349.892;  174.195
584.385;   51.636; -122.102;  -98.815
584.662;  -36.827; -651.111; -828.801
584.940;   63.472;  204.889;  204.199
585.217;  -12.154;  -73.113; -303.796
585.494;   65.158;   71.890;  118.198
585.771;  325.867; -250.109; -354.804
586.048;  787.046; -196.113;  -76.796
586.325;  510.351; -721.110; -773.801
586.602;  119.169;  230.896;  213.188
586.879;   30.863; -499.100; -580.820
587.156;  102.929; -156.105; -331.810
587.433;   -5.356; -701.102; -667.817
587.710;  113.505;  152.888;  234.202
587.987;  430.535; -264.105; -236.811
588.264; 1148.632;  315.888;  387.202
588.541; 1894.422;  -61.104;   26.187
588.818; 3905.645;   72.892;  171.196
589.095; 3328.416; -163.104; -174.812
589.371;  569.740; -459.109; -414.804
589.648;   54.837; -581.107; -437.807
589.925;   90.464; -517.114; -621.795
590.202;   75.279; -741.112; -607.798
590.478;  164.612; -166.105;  -73.811
590.755;  385.778; -241.108; -132.806
591.032; 3579.529; -741.110; -699.802
591.308; 5101.132; -732.094; -790.831
591.585; 2606.503; -573.110; -560.802
591.862;  273.995;-1056.102; -950.817
592.138;  139.550; -475.108; -474.805
592.415;  256.695; -486.104; -495.813
592.691; 2103.492;  460.896;  518.188
592.968; 2788.535; -208.098; -123.824
593.244; 1380.585; -695.116; -595.790
593.521;  116.571; -105.102;  -42.817
593.797;   49.121; -810.122; -720.780
594.074;  499.176; -611.096; -588.826
594.350;  957.289;  828.905;  729.172
594.626;  460.698; -303.111; -283.801
594.903;  236.472; -643.101; -645.817
595.179;  275.449;  243.896;  418.187
595.455;   42.438; -136.107; -150.807
595.731;   16.576;  -19.103;  -38.814
596.008;   -8.434; -464.111; -434.800
596.284;   80.666; -187.100; -242.820
596.560;  138.415; -501.093; -493.833
596.836;  299.781; -173.105;  -70.810
597.112;  541.426; -582.108; -437.805
597.388;  435.723;  -49.097;  -48.826
597.665;  146.299;  437.887;  530.203
597.941;  -22.724; -572.089; -658.839
598.217;   64.357; -323.110; -293.802
598.493;  389.319;   61.891; -204.804
598.769;  795.109; -175.100;  -50.819
599.045;  490.979; -490.108; -562.806
599.321;  121.365; -193.100; -261.820
599.597;  226.143; -355.109; -476.804
599.872;  689.946;  409.896;  429.187
600.148;  535.250;  -61.097; -172.826
600.424;  414.710;   91.893;  202.193
600.700;  388.663; -170.107; -280.807
600.976;  218.318; -442.097; -464.825
601.252;  375.339; -226.109; -272.803
601.527;  387.798; -833.104; -840.813
601.803;  243.563; -453.105; -404.812
602.079;  283.284; -124.100; -118.819
602.354;  851.727; -620.092; -531.835
602.630; 1249.821; -140.113; -482.796
602.906; 3155.078; -910.101; -863.818
603.181; 9693.385; -627.119; -534.786
603.457; 8188.772;   98.903; -278.826
603.733; 1228.765; -605.120; -626.783
604.008; 1333.727; -245.106; -164.810
604.284; 4487.748; -636.101; -580.817
604.559; 3902.034;   -3.112;  -42.799
604.835;  705.981; -163.105; -225.810
605.110;  656.996; -732.099; -892.821
605.385; 1016.169;  224.907;  267.167
605.661;  965.318; -625.095; -729.829
605.936; 1786.529; -664.108; -737.806
606.211; 1452.159;  -17.103; -170.815
606.487;  342.433; -329.114; -376.794
606.762;   82.985; -791.119; -745.786
607.037;   18.956; -501.105; -433.810
607.313;  -29.166; -589.096; -574.828
607.588;   42.027; -375.106; -137.810
607.863;   87.102;  -28.101; -143.818
608.138;  251.831;  513.890;  516.198
608.413;   95.251; -576.099; -592.822
608.688;   93.600; -203.108; -267.805
608.964;  329.470; -509.106; -218.809
609.239;  382.978; -107.105; -212.810
609.514;  350.463;  281.895;  240.188
609.789; 1015.193; -187.104; -716.812
610.064; 1335.083; -435.096; -609.827
610.339; 1315.415; -855.109; -799.804
610.614; 1747.215; -131.100; -315.820
610.889;  968.988;  215.895;  107.188
611.163;  108.714; -407.104; -591.812
611.438;  161.709;   81.886; -167.794
611.713;   61.548; -467.101; -499.817
611.988;  131.551; -144.101; -328.818
612.263;   37.361; -771.102; -717.815
612.538;  309.020;  385.887;  251.204
612.812;  323.667; -832.100; -911.820
613.087;  287.632; -358.098; -338.823
613.362;  -10.687; -497.107; -557.807
613.637;   73.654;  261.897;  138.186
613.911;    3.078; -256.092; -345.835
614.186;  203.161; -249.107; -292.807
614.460; 1054.194; -842.081; -758.854
614.735; 1191.905;  -55.087;  -17.843
615.010;  247.768;   43.912;  -82.841
615.284;  347.899;  360.892;  246.195
615.559;  628.402; -792.092; -955.835
615.833;  453.249;  -76.099;  -87.822
616.108;   50.991; -225.090; -390.837
616.382;  192.182;  274.913;  402.156
616.656;  243.617; -241.090; -232.837
616.931;  784.999; -785.099; -700.822
617.205; 1617.198; -973.104; -979.813
617.480; 1435.966;  -91.125;    6.225
617.754;  290.038; -396.125; -128.774
618.028;   81.927; -369.129; -382.768
618.302;  108.372;   73.892;  -25.805
618.577;   -7.144; -371.103; -518.815
618.851;  -39.415; -399.109; -600.803
619.125;  -32.053; -335.134; -378.759
619.399;   -7.326; -244.104; -374.813
619.673;  -26.905; -330.115; -515.792
619.947;  -20.237; -333.114; -448.795
620.222;    8.774; -198.110; -204.801
620.496;   10.062;  -47.121;  -96.782
620.770;   47.477; -187.122;  -93.781
621.044;  298.279;  323.895;  346.190
621.318; 1146.365; -653.120; -614.783
621.592; 1004.913; -430.121; -409.783
621.866;  587.711; -476.112; -572.799
622.140;   62.912; -207.116; -356.791
622.413;   97.091;  138.889;  112.200
622.687;  -10.351; -746.101; -492.817
622.961;   43.797; -130.108; -143.805
623.235;  -27.283; -633.111; -661.800
623.509;  -82.338; -816.105; -848.811
623.783;   25.433;  -12.107;   48.193
624.056;   -6.033; -254.120; -280.783
624.330;   67.778;   63.888;   -3.797
624.604;   92.283; -271.116; -355.790
624.877;  108.230;  180.890;   26.198
625.151;  105.581; -249.114; -238.794
625.425;  -12.374; -150.103; -283.814
625.698;  -31.247; -367.119; -374.785
625.972;  -83.167; -799.110; -765.802
626.245;   83.185;  685.884;  484.210
626.519;  -32.753; -426.120; -340.784
626.792;  -16.737; -192.107; -380.807
627.066;  -68.007; -485.122; -662.779
627.339;  -73.672; -736.110; -663.802
627.613;   45.995;  351.880;  148.216
627.886;   75.635;  187.891; -612.803
628.160;   -3.785;  312.880; -161.783
628.433;  -77.255; -695.125; -703.775
628.706;  -70.753; -517.120; -615.784
628.979;   50.028;  296.876;  117.223
629.253;  -59.491; -785.119; -833.786
629.526;  531.500; -334.126; -253.772
629.799;  559.611; -641.123; -479.778
630.072;  272.679; -497.128; -516.769
630.346;   -7.140;-1115.116;-1080.790
630.619;  681.314; -467.107; -545.808
630.892;  864.418;  709.889;  593.200
631.165;  456.973;  790.896;  679.187
631.438;  -28.243;-1092.112;-1055.798
631.711;   71.715;  453.877;  257.221
631.984;  -35.996; -523.117; -624.789
632.257;  -43.500; -636.117; -681.789
632.530;  -37.371; -412.119; -433.785
632.803;   20.229; -109.115;    7.207
633.076;  -68.893; -360.123; -422.777
633.349;   19.009;  173.872;  121.231
633.622;  -33.098; -187.119; -240.785
633.895; -108.533; -903.120; -823.783
634.167;  -58.047; -496.126; -525.773
634.440;    6.068;  -19.116; -137.792
634.713;   12.508;  -22.119; -120.786
634.986;  110.971;  593.871;  453.233
635.258;  -59.673; -507.115; -597.793
635.531;   97.270;  742.882; -343.788
635.804;  -32.872; -303.117; -318.789
636.077;  -66.762; -830.116; -852.791
636.349;   42.125; -586.115; -474.793
636.622;  414.775; 1695.874; 1392.228
636.894;  390.072; -474.120; -909.784
637.167;  294.817; -836.127; -789.771
637.439;   64.388; -278.128; -213.770
637.712;  -17.173; -312.126; -293.772
637.984;  -55.711; -635.116; -707.791
638.257;  501.933;  515.877;  488.222
638.529;  897.196; -881.125; -924.776
638.802;  416.378; -508.128; -449.769
639.074;  -99.174; -927.122; -952.781
639.346;  -91.514; -942.135; -930.757
639.619;    9.406;  -79.142; -319.744
639.891;    4.368;  -83.122; -168.779
640.163;  -78.880; -689.122; -756.780
640.435;   56.822;  273.878;  103.220
640.708;   24.475;  -72.122; -132.780
640.980;    4.902; -366.122; -362.781
641.252;  239.404;  -25.121;  -71.781
641.524; 2484.706;  580.879;  573.219
641.796; 2710.384;-1094.121; -907.782
642.068;  494.936; -191.121; -300.782
642.340;  -41.362; -486.121; -566.783
642.613;   49.165;  294.880;  323.217
642.885;  -72.607; -787.120; -878.783
643.157;   -9.205; -810.120; -658.784
643.428;   86.747;  170.880;  218.216
643.700;  -56.600; -498.120; -425.784
643.972;  -40.623;  -16.119; -133.785
644.244;  -66.221; -474.119; -559.785
644.516;  -57.719; -250.119; -114.786
644.788;   52.409;  662.881;  548.214
645.060;   -8.239;  -12.119; -124.786
645.332;  -78.712; -525.118; -535.787
645.603;   15.065;  479.882;  342.213
645.875;  -65.307; -334.118; -369.787
646.147;  146.945; 1487.882; 1242.212
646.418;  -18.403; -931.117; -918.788
646.690;  285.949; -714.117; -715.789
646.962;   97.377; -413.117; -451.789
647.233;   -6.071;   15.883;   11.211
647.505;  -88.519; -595.117; -475.790
647.776;   28.833;  328.884;  229.210
648.048;   26.536; -248.116; -418.790
648.320;  -48.312; -752.116; -679.791
648.591; -132.860;-1055.116; -958.791
648.862;  -87.983; -505.116; -577.792
649.134;   20.320;  115.885;  198.208
649.405;  -17.253; -661.115; -618.792
649.677;  -30.076; -475.115; -598.793
649.948;   11.252; -181.115; -296.793
650.219;   -1.846;  -37.115; -147.793
650.491;  -74.194; -431.114; -520.794
650.762; -108.242; -705.114; -731.794
651.033;  -73.189; -437.114; -424.795
651.304;  -63.112; -743.114; -728.795
651.576;  -40.910; -680.114; -645.795
651.847;  -29.833; -250.113; -140.796
652.118;  -26.155;  -32.113; -189.796
652.389;  -88.478; -639.113; -722.796
652.660;  -20.301; -147.113;  -89.797
652.931; -120.624; -897.112; -871.797
653.202;  -70.121; -382.112; -541.798
653.473;  -36.719; -633.112; -533.798
653.744;  260.608; -595.112; -590.798
654.015;  245.410; -356.112; -303.799
654.286;  -50.187; -642.111; -663.799
654.557;  -26.685; -586.111; -521.799
654.828; -136.558;-1114.111;-1088.800
655.099;  -76.556; -404.111; -291.800
655.370;  -90.628; -427.111; -543.801
655.641; -113.626; -656.110; -714.801
655.911;  -92.349; -618.110; -638.801
656.182;   70.929;  437.890;  387.198
656.453;  106.756;  830.890;  746.198
656.724;  -50.467; -466.110; -426.802
656.994;  -65.915; -553.109; -568.803
657.265;  -87.187; -862.109; -873.803
657.536;  -88.635; -500.109; -377.804
657.806;  -97.208; -561.109; -593.804
658.077; -130.256; -866.109; -950.804
658.347;  -80.878; -523.108; -598.805
658.618; -116.676; -646.108; -694.805
658.888;  -14.124;  -41.108;  112.195
659.159;  -71.547; -432.108; -548.806
659.429;    6.131; -292.108; -349.806
659.700;   38.633; -435.107; -390.807
659.970;   34.435; -370.107; -359.807
660.241;   81.537; -754.107; -921.807
660.511;  764.015; -147.107; -174.808
660.781;  194.442; -793.106; -748.808
661.052;  -33.856; -222.106; -381.808
661.322;   -9.728;   21.894;   -9.809
661.592;   10.699;  257.894;  148.191
661.862;  -62.424; -369.106; -382.810
662.133;  -79.422; -551.105; -502.810
662.403; -115.744; -770.105; -676.810
662.673;  -44.842; -256.105; -213.811
662.943; -101.265; -612.105; -551.811
663.213;    9.437;  -85.105;  -81.811
663.483;  -70.185; -593.104; -568.812
663.753;  -38.108; -194.104; -152.812
664.023;  -11.281;   68.896;  -32.813
664.293;  -40.504; -319.104; -126.813
664.563; -101.926; -694.104; -648.813
664.833;  -95.224; -743.103; -608.814
665.103; -114.222; -730.103; -793.814
665.373;  -95.745; -766.103; -806.814
665.643;  -35.392; -863.103; -918.815
665.913;   97.085; -534.103; -714.815
666.182;  247.662; -685.102; -719.816
666.452;  427.589;  -22.102;  -89.816
666.722;   35.217; -724.102; -784.816
666.992; -100.181; -948.102; -921.817
667.261;  -60.279; -824.102; -808.817
667.531;  295.824;  134.899;   45.183
667.801;  922.651; -440.101; -412.818
668.070;  340.078;  714.899;  697.182
668.340;  -65.970; -883.101; -840.819
668.609;  118.008;  588.900;  301.181
668.879;  -58.815; -490.100; -558.819
669.149;  -39.988; -539.100; -516.820
669.418;  -80.611; -698.100; -726.820
669.688;    3.892; -482.100; -666.820
669.957;  156.919; -423.099; -546.821
670.226;   15.421; -268.099; -331.821
670.496;  -85.127; -431.099; -635.822
670.765;  -75.249; -418.099; -501.822
671.034; -115.872; -872.099; -828.822
671.304;   -6.420;   55.902; -111.823
671.573; -136.218;-1085.098; -957.823
671.842;  148.060; -380.098; -294.823
672.112;   79.812; -692.098; -586.824
672.381;   37.389; -239.098; -214.824
672.650; -121.208;-1005.097;-1021.825
672.919;  -68.881; -631.097; -507.825
673.188;  -63.804; -681.097; -878.825
673.457; -119.577;-1101.097;-1143.826
673.726;  -53.499; -579.096; -646.826
673.995;  -20.122; -533.096; -479.826
674.265;    5.630; -263.096; -333.827
674.534;   40.532; -183.096; -235.827
674.802;   52.235; -618.096; -703.828
675.071; 1316.262; -886.095; -801.828
675.340; 5771.414; -464.095; -339.828
675.609; 1878.541;  103.905;   82.171
675.878;  180.794; -949.095; -893.829
676.147;   66.621;  -26.095;   -8.829
676.416;  119.673; -210.094; -294.830
676.685;  977.675; 1000.906; -622.830
676.953;  208.003; -603.094; -452.831
677.222;  -13.295; -193.094; -273.831
677.491;  -16.918;  -24.094; -127.831
677.759;   -0.016;   11.907;  172.168
678.028;    0.737; -279.093; -222.832
678.297;   13.264;   71.907;  197.168
678.565; -136.459; -898.093; -944.833
678.834;  -36.331; -311.093; -268.833
679.102;  -67.379; -411.092; -391.834
679.371; -123.452; -898.092; -727.834
679.639; -119.850; -797.092; -786.834
679.908; -110.847; -794.092; -724.835
680.176; -136.420; -895.091; -941.835
680.445;  -54.143; -346.091; -352.835
680.713;  -18.416;  -58.091;  -23.836
680.982;  -79.088; -523.091; -525.836
681.250;  -91.486; -578.091; -507.837
681.518;  -88.109; -534.090; -751.837
681.787;    5.118; -204.090; -167.837
682.055;  -36.054; -490.090; -422.838
682.323; -134.127; -993.090; -992.838
682.591;   46.975; -216.090; -538.838
682.859;  139.377;    9.911;  -35.839
683.128;   29.730;  232.911;  497.161
683.396; -149.643;-1102.089;-1122.840
683.664;  -22.566; -241.089;   21.160
683.932;   -3.663;  144.911;  -76.840
684.200;  -60.561; -576.088; -320.841
684.468;  -15.284;  -73.088; -124.841
684.736;   -8.907; -214.088; -175.841
685.004;  -96.929;-1024.088; -982.842
685.272;   -9.677; -880.088; -774.842
685.540;  -47.200; -499.087; -557.843
685.808;  -58.048; -651.087; -682.843
686.076;  -75.445; -894.087; -969.843
686.343;  -19.118; -601.087; -815.844
686.611;   69.659; -195.087; -224.844
686.879;  577.861; -530.086; -553.844
687.147; 4666.739; -483.086; -480.845
687.414; 1393.091;  -12.086; -169.845
687.682;   58.593; -658.086; -757.846
687.950;  439.820;  259.915;  263.154
688.217;   77.073; -792.085; -760.846
688.485;   35.050; -632.085; -636.847
688.753;  774.377;  -11.085; -102.847
689.020;  346.504; -820.085; -851.847
689.288;  -72.918; -853.084; -787.848
689.555;  -14.591; -195.084; -148.848
689.823;  -34.139; -241.084; -345.849
690.090;  -67.761; -546.084; -651.849
690.358; -117.509; -877.084; -897.849
690.625;   25.318;  120.917;   45.150
690.892;  -52.455; -403.083; -369.850
691.160;    1.623;   72.917;  -35.850
691.427;   13.525;  141.917;  130.149
691.694; -103.948; -855.083; -929.851
691.962; -117.296;-1177.082;-1060.852
692.229;   35.557;  127.918;   56.148
692.496;  124.784;  130.918;  -49.852
692.763;   40.636; -164.082; -201.853
693.031;  -50.312; -739.082; -716.853
693.298;   12.666; -509.081; -368.853
693.565;  397.568; -155.081; -163.854
693.832; 1880.370;   -5.081;   -9.854
694.099;  272.122; -643.081; -642.855
694.366;  -15.850; -882.081; -896.855
694.633;    3.252; -920.080; -633.855
694.900;  741.329; 4367.920; -114.856
695.167;  622.681; -214.080; -380.856
695.434;  204.784; -646.080; -623.856
695.701;  252.811;  121.921;  -61.857
695.968;  680.563; -365.079; -361.857
696.234; 1184.891; -415.079; -646.858
696.501;12791.818; -776.079; -614.858
696.768; 7161.320; -554.079; -617.858
697.035;  449.347; -632.078; -667.859
697.302;  105.675; -448.078; -552.859
697.568;   66.777; -458.078; -497.859
697.835;   -5.996; -683.078; -624.860
698.102;   13.406; -498.078; -407.860
698.368;  102.309;  384.923;  396.139
698.635;    0.861;  -47.077; -424.861
698.901;    8.513; -240.077; -348.861
699.168;  156.015; -534.077; -456.862
699.435;  125.968;  -72.077;  -13.862
699.701;  -79.530; -868.076; -764.862
699.968;   31.647;  144.924; -441.863
700.234;  -75.826; -783.076; -822.863
700.500;  -31.523; -448.076; -539.864
700.767;   21.104;   -1.075;   26.136
701.033; -117.119;-1015.075; -963.864
701.299;  -39.416; -450.075; -483.865
701.566;  136.236;  950.925;  763.135
701.832;   51.188;  -31.075;  -76.865
702.098;  -77.085;-1054.074;-1034.866
702.365;  -29.132;-1098.074;-1030.866
702.631;   36.870;-1038.074;-1063.867
702.897; 1781.122; -765.074; -676.867
703.163; 3320.974;  348.926;  254.133
703.429;  279.627; -256.073; -273.868
703.695;    8.579; -796.073; -792.868
703.961;   71.056; -214.073; -210.868
704.227;  -13.942; -630.073; -725.869
704.493;  164.086;  613.927;  510.131
704.759;   13.238; -565.072; -540.870
705.025;   52.140; -203.072; -194.870
705.291;   31.492; -666.072; -562.870
705.557;  239.945;  719.928;   34.129
705.823;   85.422; -742.072; -694.871
706.089;  228.249; -307.071; -326.871
706.355;  451.651; -315.071; -244.872
706.620; 6898.754; -776.071; -729.872
706.886;11170.706; -309.071; -362.873
707.152; 1165.008; -818.070; -973.873
707.418;   61.936;-1153.070;-1186.873
707.683;   45.663; -550.070; -530.874
707.949;  -13.960; -547.070; -578.874
708.215;   23.392; -129.070; -207.874
708.480;   -6.005; -520.069; -420.875
708.746;  158.322;   68.931;   28.125
709.011;  -39.126; -578.069; -612.876
709.277;  -44.574; -538.069; -543.876
709.542;  -25.821; -428.069; -387.876
709.808;   19.006;  -59.068;   89.123
710.073;  -52.242; -577.068; -695.877
710.339;  -13.065; -242.068; -228.877
710.604;  149.663; -780.068; -845.878
710.869;  520.965; -277.068; -366.878
711.135;  -28.208; -715.067; -628.879
711.400;  -61.256; -507.067; -608.879
711.665;  -41.578; -404.067; -479.879
711.931;  -67.401; -661.067; -677.880
712.196;  -89.499; -876.067; -954.880
712.461;  190.829; -402.066; -490.880
712.726;  287.756; -727.066; -771.881
712.991;  -50.842; -647.066; -664.881
713.256;  -19.865; -350.066; -332.882
713.521;  -28.887; -417.065; -381.882
713.787;  -33.510; -454.065; -472.882
714.052;    2.267; -214.065; -400.883
714.317;  -48.906;-1045.065; -981.883
714.581; 1428.097; -374.065; -268.883
714.846; 2397.249; -822.064; -888.884
715.111;  222.301;  261.936;  257.116
715.376;  -14.722;  -86.064; -223.885
715.641;   10.756; -365.064; -367.885
715.906;  487.208;   15.936; -551.885
716.171;  198.535;  221.937;  209.114
716.436;   67.887;  -78.063; -104.886
716.700;  -80.210; -818.063; -692.886
716.965; -110.408; -794.063; -807.887
717.230;  -56.231; -339.063; -392.887
717.494;  -19.054;  -40.062; -134.888
717.759;  -65.951; -784.062; -640.888
718.024;   -0.599;  269.938;  250.112
718.288;   64.803;  685.938;  395.111
718.553; -131.994; -803.062; -977.889
718.817; -121.492; -883.061; -899.889
719.082;  -30.840; -115.061; -125.890
719.346; -130.738;-1000.061; -947.890
719.611;  -42.060; -300.061; -255.891
719.875;  -83.208; -568.060; -537.891
720.140;  -59.856; -453.060; -603.891
720.404;   75.471; -136.060; -249.892
720.668; 1197.549; -475.060; -411.892
720.933;  543.126;  146.940;  137.108
721.197;  -86.747; -667.059; -600.893
721.461; -108.520; -851.059; -826.893
721.725;    1.333;  -21.059; -250.894
721.990;  -46.065; -284.059; -204.894
722.254;  -21.888;  -26.059; -108.894
722.518;  -56.086; -286.058; -442.895
722.782; -103.158; -743.058; -594.895
723.046;  159.269;  614.942;  570.105
723.310;   27.696;  374.942;  210.104
723.574;  -79.451; -654.058; -614.896
723.838;  -97.574; -576.057; -642.897
724.102;  -35.097; -226.057; -239.897
724.366; -117.395;-1032.057; -978.897
724.630;  -73.742; -749.057; -571.898
724.894;  -59.990; -722.057; -514.898
725.158;   14.912;   38.944; -295.898
725.422;  -28.411; -394.056; -327.899
725.685;  -36.908; -441.056; -349.899
725.949;  -58.906; -566.056; -519.900
726.213;  -39.304; -732.056; -811.900
726.477;  288.423;-1020.055; -933.900
726.740;  253.901; -274.055; -104.901
727.004;  464.803; -384.055; -510.901
727.268; 4867.705; -442.055; -400.901
727.531; 1665.882; -961.055; -775.902
727.795;   11.560; -713.054; -673.902
728.059;  -19.888; -552.054; -557.903
728.322;  -37.536; -841.054; -669.903
728.586;   85.691; -692.054; -701.903
728.849;  -55.156; -695.053; -756.904
729.112;  -97.029; -812.053; -912.904
729.376;  -94.952; -959.053; -905.904
729.639;  -70.899; -536.053; -536.905
729.903;  -83.597; -733.053; -699.905
730.166;  -37.195; -437.052; -399.906
730.429;  -11.018; -317.052; -468.906
730.693;  -52.990; -355.052; -894.906
730.956;  234.662;  810.948;  651.093
731.219; 1059.589; -310.052; -103.907
731.482;  233.441;-1003.051; -894.907
731.745;  239.894; -794.051; -935.908
732.009;   45.821;  -30.051;   50.092
732.272;  -84.002; -904.051; -771.909
732.535;  -20.425; -300.051; -310.909
732.798; -134.472;-1083.050;-1166.909
733.061;  -42.445; -430.050; -456.910
733.324;   29.157;   31.950; -180.910
733.587;   87.534;  290.950;  365.090
733.850;  -50.663; -973.049;-1050.911
734.113;   59.814;   33.951;   32.089
734.376;   36.766; -328.049; -447.912
734.639;  237.218; 1188.951; 1011.088
734.901;  117.596; -180.049; -402.912
735.164;  694.498; -883.048; -837.913
735.427; 1978.550; -166.048; -355.913
735.690;  207.128; -205.048; -234.913
735.952;   39.505; -923.048; -925.914
736.215;   53.782;-1113.048;-1009.914
736.478;  110.259; -771.047; -774.915
736.740;  318.912;   33.953;  129.085
737.003;  820.714; -658.047; -672.915
737.266; 5824.341;  -94.047;   46.084
737.528;  717.443; -682.047; -660.916
737.791;  489.246; -316.046; -327.916
738.053;  989.073;  465.954;  649.083
738.316;13339.050; -162.046; -136.917
738.578;11659.877; -770.046; -736.918
738.841;  687.480; -382.046; -446.918
739.103;  304.207; -875.045; -777.918
739.365;  759.234;   79.955;  -69.919
739.628;   78.411; -884.045; -805.919
739.890;   13.389; -758.045; -710.919
740.152;   -3.634; -692.044; -754.920
740.414;   26.668; -408.044; -359.920
740.677;  -16.579; -785.044; -634.921
740.939;  -17.877; -587.044; -487.921
741.201;  407.575; -432.044; -572.921
741.463;  151.727; -689.043; -745.922
741.725;   27.805;  -21.043; -199.922
741.987;   85.282;  220.957;  116.078
742.249;   66.534; -751.043; -859.923
742.511;  372.211; -703.043; -794.923
742.773;   95.189; -546.042; -546.924
743.035;  156.391;  796.958;  533.076
743.297;    2.243; -963.042;-1013.924
743.559; 1044.595; -278.042; -262.925
743.821;  179.548; -735.042; -744.925
744.083;   65.475;  -44.041; -149.925
744.345;  -49.998; -869.041; -892.926
744.607;   65.079;   75.959;  122.074
744.868;  -25.468; -490.041; -554.927
745.130;  -67.866; -994.041;-1008.927
745.392;   82.061;   -1.040;  -44.927
745.653;   24.363; -411.040; -378.928
745.915;  177.866;  896.960;  631.072
746.177;   96.393;   35.960;  -43.928
746.438;   42.070; -428.040; -543.929
746.700;   16.648; -947.039; -988.929
746.961;   67.700; -659.039; -740.930
747.223;  247.352; -190.039;  -74.930
747.484;  179.579; -391.039; -471.930
747.746;  229.807;  -23.038; -106.931
748.007;  221.309; -647.038; -689.931
748.269;  454.861; -468.038; -440.931
748.530;  797.013; -852.038; -638.932
748.791;  430.166; -354.038; -420.932
749.053;  618.793;  286.963;  163.067
749.314;  681.720; -236.037; -169.933
749.575;  786.122; -945.037; -905.933
749.836; 1238.250; -217.037;   86.066
750.098; 3048.527;  -60.037;  -21.934
750.359;49432.504;  414.964;  555.066
750.620;15925.981; -121.036; -220.935
750.881; 1538.909; -585.036; -513.935
751.142; 1914.061; -950.036; -938.936
751.403;21096.863; -789.036; -705.936
751.664;11863.716;-1034.035; -999.936
751.925;  745.468; -175.035; -262.937
752.186;  438.745; -298.035; -278.937
752.447;  249.422; -590.035; -445.937
752.708;  127.700; -532.035; -648.938
752.969;   75.477; -566.034; -576.938
753.230;   71.929; -777.034; -672.939
753.491;   70.306; -650.034; -631.939
753.751;  101.309;  109.966;   19.061
754.012;  131.686;  258.967;  181.060
754.273;  115.513; -174.033;  -71.940
754.534;   56.815; -487.033; -580.940
754.794;  -36.957; -926.033; -911.941
755.055;  158.720; 1051.967;  881.059
755.316;  -13.428; -700.032; -566.942
755.576;   20.024; -606.032; -576.942
755.837;  -23.523; -527.032; -695.942
756.097;   -3.996; -530.032; -564.943
756.358;  -47.544; -725.032; -770.943
756.618;   -8.792; -705.031; -641.943
756.879;   39.686; -254.031; -349.944
757.139;  -87.737;-1098.031;-1116.944
757.400;  -35.560; -538.031; -553.945
757.660;   18.443; -365.031; -401.945
757.920;   43.870; -266.030; -228.945
758.181;   27.347; -468.030; -351.946
758.441;  -47.426; -870.030; -809.946
758.701;    2.277; -308.030; -215.946
758.961;   -2.496; -220.030; -278.947
759.222;  -24.744; -574.029; -502.947
759.482;  -61.367; -683.029; -723.948
759.742;  -57.789; -706.029; -547.948
760.002;   26.613;  -83.029; -143.948
760.262;   46.565;   50.972;  182.051
760.522;  -27.533; -498.028; -574.949
760.782;  -18.530; -738.028; -612.949
761.042;   -9.628; -618.028; -573.950
761.302;   65.499;   55.972;  -18.950
761.562;   58.126; -164.027; -154.951
761.822;  136.854; -710.027; -551.951
762.082;  -21.344;-1104.027;-1093.951
762.342;   85.458; -328.027; -403.952
762.601;   88.410; -567.027; -506.952
762.861;  425.338; -281.026; -207.952
763.121;  416.015; -406.026; -411.953
763.381; 6445.992; -499.026; -485.953
763.640; 9279.745; -139.026; -307.954
763.900;  395.797; -242.026; -203.954
764.160;   92.424; -458.025; -491.954
764.419;   13.701; -726.025; -782.955
764.679;  -60.396; -795.025; -726.955
764.939;   19.581; -124.025; -210.955
765.198;  -67.642; -608.025; -563.956
765.458;  -60.740; -710.024; -612.956
765.717;  -75.087; -454.024; -590.957
765.976;  -41.860; -428.024; -411.957
766.236;  -51.183; -475.024; -610.957
766.495;   27.669;  260.977;   73.042
766.755;  -60.928;-1090.023; -987.958
767.014;   64.999; -594.023; -665.958
767.273;  -38.174; -373.023; -397.959
767.533;  -20.347; -228.023; -307.959
767.792;  -33.719; -151.022; -188.960
768.051;  -34.142; -228.022; -276.960
768.310;  -73.165; -546.022; -650.960
768.569;    3.013; -161.022;    4.039
768.828;  -16.760; -285.022; -363.961
769.088;  -85.783;-1050.021; -942.961
769.347;  -73.856; -755.021; -599.962
769.606;  -77.528; -876.021; -857.962
769.865; -102.426;-1016.021;-1033.963
770.124;   26.301; -411.021; -336.963
770.383;  -18.997; -778.020; -910.963
770.641;   55.256; -398.020; -400.964
770.900;  -41.192; -953.020; -846.964
771.159;   -5.190; -851.020; -951.964
771.418;   35.137; -917.020; -779.965
771.677;  174.190; -224.019; -293.965
771.936;  219.617; -794.019; -865.966
772.194; 2179.469; -465.019; -437.966
772.453;14169.946; -213.019; -391.966
772.712; 1128.949;  416.982;  329.033
772.970;  155.676;   32.982;   63.033
773.229;  132.603;  -22.018;  102.033
773.488;  -67.195; -814.018; -770.968
773.746;   71.408;  296.982;  335.032
774.005;   16.810;  190.983;  -22.969
774.263;   28.512;  243.983;  177.031
774.522;  -38.585; -422.017; -548.969
774.780;  -66.333; -484.017; -417.970
775.039;  -89.581; -551.017; -531.970
775.297;  -22.079; -135.016; -351.970
775.555; -102.101; -489.016; -612.971
775.814;  -98.999; -618.016; -570.971
776.072; -120.022; -749.016; -740.971
776.330;  -84.870; -630.016; -520.972
776.589; -108.192; -703.015; -721.972
776.847;  -99.990; -645.015; -624.973
777.105; -162.163;-1016.015;-1032.973
777.363;  -68.811; -459.015; -454.973
777.621; -134.283; -660.015; -717.974
777.879;  -21.356;  -42.014;   32.026
778.138;  -98.229; -554.014; -717.974
778.396;  -93.402; -585.014; -526.975
778.654; -159.024;-1015.014; -970.975
778.912;  -56.072; -269.014; -371.976
779.170; -137.570; -880.013; -803.976
779.427; -135.642; -922.013; -897.976
779.685; -123.865; -880.013; -832.977
779.943;  -42.563; -654.013; -593.977
780.201; -133.561; -964.012; -883.978
780.459; -106.158; -651.012; -610.978
780.717;  -77.956; -440.012; -390.978
780.974;  -91.404; -449.012; -490.979
781.232;  -75.377; -358.012; -338.979
781.490;  -54.924; -551.011; -472.979
781.747;  -81.297; -555.011; -476.980
782.005;   23.630;  462.989;  254.020
782.263; -167.593; -542.011;-1004.981
782.520;  -78.015; -326.011; -501.981
782.778; -155.938;-1013.010;-1051.981
783.035; -153.961; -962.010; -938.982
783.293;  -65.934; -248.010; -206.982
783.550;  -56.831; -134.010; -198.982
783.808; -129.504; -764.010; -776.983
784.065; -147.952; -745.009; -874.983
784.322;  -51.700;   25.991;  -86.984
784.580; -128.622; -915.009; -771.984
784.837;  -90.295; -392.009; -466.984
785.094; -128.143; -783.009; -762.985
785.352;  -71.215; -304.008; -404.985
785.609;  -76.763; -934.008; -839.985
785.866;  -77.086; -345.008; -401.986
786.123;  -42.859; -639.008; -583.986
786.380;  -92.106; -665.008; -604.987
786.637;  -22.254; -225.007; -380.987
786.895;   24.823; -456.007; -543.987
787.152;  -30.125; -135.007; -267.988
787.409;  -31.347; -123.007; -225.988
787.666;  -79.895; -299.006; -378.988
787.923;  -96.518; -616.006; -695.989
788.179;  -94.016; -551.006; -584.989
788.436;  -90.263; -585.006; -585.990
788.693;  -17.011;  -92.006;  -87.990
788.950;  166.091; -125.005; -112.990
789.207;  423.418; -381.005; -372.991
789.464;  -48.529; -161.005; -301.991
789.720;    1.348;  150.995;  110.009
789.977; -152.200;-1003.005; -671.992
790.234;  -18.997;   44.996;  -66.992
790.490; -136.720; -884.004;-1031.993
790.747;  -15.868;  -85.004;   22.007
791.004;   -5.466; -426.004; -348.993
791.260;  -47.288; -430.004; -560.994
791.517;  -87.211; -843.003; -788.994
791.773;  -25.059; -379.003; -342.994
792.030; -108.007; -596.003; -660.995
792.286;  -72.279; -686.003; -636.995
792.543;  -27.477;  -74.002; -159.995
792.799;  -50.975; -584.002; -382.996
793.055; -141.698;-1179.002;-1210.996
793.312;  -76.770; -827.002; -816.997
793.568;  -51.593; -746.002; -599.997
793.824;   24.684; -226.001; -284.997
794.081;   27.286; -447.001; -508.998
794.337;   95.264; -664.001; -561.998
794.593; 1010.316; -319.001; -271.999
794.849; 7278.393; -746.001; -772.999
795.105;  482.345; -270.000; -261.999
795.361;   27.623; -490.000; -457.000
795.617;  -19.900; -875.000; -945.000
795.873;  -21.450; -360.000; -407.000
796.129;  -23.300; -368.000; -306.000
796.385;   -2.350; -124.000; -156.000
796.641;   59.700;  412.000;  550.000
796.897;  -72.000; -666.000; -635.000
797.153;   75.575;  453.000;  357.000
797.409;  -79.725; -785.000; -868.000
797.665;  -43.250; -625.000; -732.000
797.921;  -49.950; -775.000; -762.000
798.176;  -23.200; -744.000; -747.000
798.432;   -6.850; -824.000; -596.000
798.688;  -35.800;-1174.000;-1078.000
798.943;  140.025; -165.000; -147.000
799.199;   75.300;-1005.000; -959.000
799.455;  291.350;  369.000;  316.000
799.710;  207.875; -813.000; -380.000
799.966;  424.225; -162.000; -160.000
800.221;  623.700; -638.000; -721.000
800.477;11816.275; -743.000; -710.000
800.732;14501.150; -773.000; -800.000
800.988;  875.375;  205.000;  -19.000
801.243; 1598.125; -454.000; -344.000
801.498; 9486.325; -814.000; -739.000
801.754;  679.550; -289.000; -163.000
802.009;  137.925; -257.000; -335.000
802.264;   -2.925; -967.000;-1033.000
802.520;   48.975;  222.000;   -3.000
802.775;  -39.750; -524.000; -359.000
803.030;   58.600;  395.000;  356.000
803.285;  -96.925; -840.000; -903.000
803.540;  -33.150; -686.000; -699.000
803.795;   -4.750; -648.000; -583.000
804.051;  -22.575; -279.000; -346.000
804.306;   32.575;  168.000;  128.000
804.561;  196.850;  451.000;  362.000
804.816;  139.925;  714.000;  861.000
805.071;   26.175; -185.000; -280.000
805.325;  336.125; -257.000; -427.000
805.580;  -55.150; -841.000; -877.000
805.835;   -9.525; -204.000; -297.000
806.090;  -47.425; -760.000; -676.000
806.345;  -16.100; -344.000; -264.000
806.600;   -0.350; -549.000; -632.000
806.854;    2.675; -408.000; -538.000
807.109;   10.050; -493.000; -577.000
807.364;   23.850; -407.000; -328.000
807.618;   42.025; -415.000; -381.000
807.873;   80.875; -470.000; -494.000
808.128;  134.450; -257.000; -518.000
808.382;  147.750; -224.000; -332.000
808.637;  106.150; -440.000; -511.000
808.891;  209.175; -257.000; -180.000
809.146;  156.075; -902.000; -794.000
809.400;  325.425; -848.000; -923.000
809.654;  405.275; -779.000; -551.000
809.909;  554.750; -841.000; -927.000
810.163; 6076.775; -813.000; -651.000
810.418;21970.825; -940.000; -861.000
810.672; 1440.575; -685.000; -690.000
810.926;  774.700; -993.000; -973.000
811.180; 1358.300; -439.000; -372.000
811.434;28793.775;  240.000;  135.000
811.689;16475.475; -231.000; -365.000
811.943;  826.025; -936.000; -953.000
812.197;  382.150; -893.000; -671.000
812.451;  170.375; -379.000; -514.000
812.705;   -9.225; -809.000; -619.000
812.959;   19.525; -263.000; -388.000
813.213;   13.175; -283.000; -209.000
813.467;   75.500;  470.000;  253.000
813.721;  -83.575; -764.000; -792.000
813.975;  -99.900; -826.000; -877.000
814.229;   57.050;  430.000;  353.000
814.482;  -40.100; -517.000; -566.000
814.736; -101.650; -766.000; -744.000
814.990; -109.950; -779.000; -872.000
815.244;  -22.275; -228.000; -285.000
815.497;  -71.300; -636.000; -601.000
815.751;  -10.925; -141.000;   82.000
816.005;  -79.525; -470.000; -586.000
816.258;  -46.500; -510.000; -363.000
816.512;  -96.550; -693.000; -610.000
816.766;    9.150;  121.000;  157.000
817.019;   21.025;  148.000;  149.000
817.273;  -69.050;-1000.000; -802.000
817.526;  -37.200; -206.000; -173.000
817.779;   -1.150;-1049.000; -960.000
818.033;  -26.825; -693.000; -807.000
818.286; -111.725; -725.000; -792.000
818.540;  -80.050; -403.000; -403.000
818.793;  -65.475; -402.000; -489.000
819.046;  -94.900; -582.000; -520.000
819.299;  -38.375; -157.000; -166.000
819.553; -119.650; -552.000; -592.000
819.806; -133.475;-1016.000; -838.000
820.059;  -57.700; -334.000; -354.000
820.312;   19.925;  152.000;  185.000
820.565;   -6.425;  110.000;  -27.000
820.818;  -49.200;  -59.000; -173.000
821.071; -158.925;-1041.000; -957.000
821.324;  -96.000; -536.000; -540.000
821.577;  -99.825; -457.000; -483.000
821.830;  -54.625; -270.000; -172.000
822.083; -121.350; -733.000; -288.000
822.336;  -45.550; -261.000; -167.000
822.589; -131.000; -805.000; -688.000
822.842; -129.075; -875.000; -770.000
823.094; -159.575;-1076.000;-1114.000
823.347; -110.350; -925.000; -729.000
823.600;   15.900;  402.000;  187.000
823.853;  -38.450; -311.000; -267.000
824.105;  -50.425; -331.000; -575.000
824.358;  -89.175; -617.000; -716.000
824.611;   43.400;  234.000;   40.000
824.863;   -3.450; -612.000; -591.000
825.116;   64.900;  -33.000;   27.000
825.368;  133.550; -366.000; -372.000
825.621;  262.900; -186.000; -240.000
825.873;  179.500; -704.000; -737.000
826.126;  687.925; -669.000; -641.000
826.378;14479.775; -389.000; -505.000
826.630; 5307.325; -890.000; -898.000
826.883;  158.400; -754.000; -693.000
827.135;   95.350; -279.000; -270.000
827.387;  -74.375; -893.000; -839.000
827.639;   -2.175;  -86.000;   32.000
827.892; -111.550; -742.000; -582.000
828.144; -122.000; -848.000; -804.000
828.396;  -29.450;  104.000;  -80.000
828.648;  -92.100; -440.000; -333.000
828.900; -123.625; -702.000; -795.000
829.152; -110.650; -684.000; -683.000
829.404;  -47.850; -215.000; -267.000
829.656;  -26.900;  321.000;  214.000
829.908;  -16.300;  393.000;  229.000
830.160; -149.775;-1064.000;-1047.000
830.412;  -84.700; -481.000; -430.000
830.664; -113.700; -557.000; -665.000
830.916;  -59.875; -268.000; -206.000
831.167; -166.275;-1073.000; -951.000
831.419;  -87.025; -623.000; -566.000
831.671; -135.200; -764.000; -809.000
831.923;  -75.400; -311.000; -447.000
832.174;  -75.750; -273.000; -331.000
832.426; -107.500; -493.000; -582.000
832.678; -171.100;-1043.000;-1091.000
832.929; -150.625; -947.000; -935.000
833.181;  -38.400; -575.000; -677.000
833.432;  -52.775;  -59.000; -186.000
833.684;  -30.450;  112.000;  -27.000
833.935;  -98.850; -610.000; -566.000
834.187; -122.025; -829.000; -823.000
834.438;  -43.200;  -58.000;  -25.000
834.689;  -55.675; -255.000; -123.000
834.941;  -35.725; -343.000; -244.000
835.192;  -89.650; -590.000; -533.000
835.443;  -79.725; -419.000; -506.000
835.695;  -13.100;  138.000;  -16.000
835.946;  -81.075; -608.000; -378.000
836.197;  -92.275; -599.000; -622.000
836.448;  -71.375; -528.000; -395.000
836.699;  -52.250; -253.000; -341.000
836.950;   16.200;   72.000;    7.000
837.201; -129.850;-1003.000; -987.000
837.452;  -19.550; -356.000; -170.000
837.703;  -94.450; -791.000; -737.000
837.954;  -19.925; -205.000; -365.000
838.205;  -62.075;-1029.000;-1008.000
838.456;  273.050; -196.000; -282.000
838.707;   49.925; -423.000; -519.000
838.958;   56.350; -634.000; -647.000
839.209;  387.950;   18.000;   40.000
839.460;  188.475; -439.000; -201.000
839.710;  221.175; -135.000; -297.000
839.961;  519.225;  730.000;  612.000
840.212;  445.350; -382.000; -497.000
840.462; 1284.975; -328.000; -277.000
840.713;20464.275; -571.000; -536.000
840.964;11815.475;  -62.000; -143.000
841.214;  742.700; -384.000; -624.000
841.465;  695.650; -214.000; -141.000
841.715;  637.275; -417.000; -380.000
841.966;  756.600; -746.000; -685.000
842.216; 7724.250; -330.000; -431.000
842.466;40355.150; -169.000; -313.000
842.717; 3431.300; -964.000; -952.000
842.967;  379.225; -635.000; -641.000
843.217;  353.375;   20.000;   28.000
843.468;  101.300; -104.000; -132.000
843.718;  -10.450; -718.000; -726.000
843.968;  -66.225; -837.000; -765.000
844.218;   40.125; -315.000; -262.000
844.469;  -15.250; -577.000; -561.000
844.719;  -92.425; -537.000; -682.000
844.969;  -74.175; -550.000; -580.000
845.219; -124.100; -814.000; -862.000
845.469;  -62.050; -392.000; -342.000
845.719; -130.500; -792.000; -884.000
845.969;   -1.875;  119.000;  174.000
846.219; -101.725; -738.000; -720.000
846.469;   31.150;  464.000;  432.000
846.718;  -24.150; -115.000;   31.000
846.968; -122.200; -827.000; -827.000
847.218;  -53.075; -224.000; -371.000
847.468;    8.325; -586.000; -555.000
847.718; -134.275; -827.000; -798.000
847.967; -106.750; -826.000; -915.000
848.217;  -93.975; -449.000; -569.000
848.467;  -53.350; -405.000; -376.000
848.716;  -84.900; -708.000; -725.000
848.966;   30.375; -372.000; -358.000
849.215;  -38.800; -428.000; -419.000
849.465;  -77.125; -785.000; -615.000
849.714; -108.050;-1132.000;-1150.000
849.964;  -25.625; -551.000; -613.000
850.213;  -12.325; -393.000; -355.000
850.463;  105.825;  137.000;  340.000
850.712;   51.325; -542.000; -567.000
850.961;   93.500; -739.000; -678.000
851.211;  171.500; -513.000; -504.000
851.460;  286.900; -635.000; -650.000
851.709;  736.050;  -25.000;   18.000
851.958;11757.975; -912.000; -750.000
852.208;20709.450; -859.000; -879.000
852.457;  901.050; -181.000;  -13.000
852.706;  172.950; -791.000; -823.000
852.955;  104.850; -507.000; -528.000
853.204;  -39.050; -521.000; -461.000
853.453;  -75.750; -418.000; -458.000
853.702; -117.475; -660.000; -750.000
853.951;  -96.750; -532.000; -520.000
854.200; -108.525; -613.000; -562.000
854.449; -112.525; -695.000; -661.000
854.698;  -87.775; -340.000; -279.000
854.946;  -54.450; -181.000; -284.000
855.195; -128.700; -843.000; -868.000
855.444;  -85.550; -395.000; -420.000
855.693; -118.575; -345.000; -432.000
855.941;  -88.850; -387.000; -516.000
856.190;  -52.875; -256.000; -382.000
856.439; -106.400; -652.000; -703.000
856.687;  -49.450;  -99.000;  -72.000
856.936; -107.700; -621.000; -323.000
857.184; -185.175;-1067.000;-1020.000
857.433;  -98.900; -423.000; -512.000
857.681; -152.225; -989.000; -953.000
857.930;  -58.075; -282.000; -433.000
858.178; -165.300; -856.000; -929.000
858.427; -147.225; -802.000; -781.000
858.675; -112.825; -377.000; -544.000
858.923;  -90.225; -527.000; -819.000
859.172; -179.600;-1094.000;-1070.000
859.420;  -82.575; -339.000; -239.000
859.668; -124.800; -624.000; -628.000
859.916;  -11.125;  109.000;  115.000
860.164;  -93.500; -699.000; -603.000
860.413;  385.150; -878.000; -696.000
860.661;  478.250; -709.000; -577.000
860.909;  -59.950; -339.000; -325.000
861.157;  -89.350; -277.000; -444.000
861.405;  -94.875; -534.000; -670.000
861.653;   -3.150;  310.000;  310.000
861.901;  231.200; -543.000; -613.000
862.149;  122.025; -801.000; -824.000
862.396;  -56.350; -297.000; -187.000
862.644;  -94.600; -368.000; -347.000
862.892;  -35.025;   98.000;  138.000
863.140; -112.000; -549.000; -530.000
863.388; -153.925; -815.000; -759.000
863.635; -121.925; -642.000; -601.000
863.883;  -21.075;  231.000;  190.000
864.131; -109.175; -288.000; -357.000
864.378; -124.400; -675.000; -540.000
864.626; -113.500; -347.000; -415.000
864.873; -100.625; -556.000; -505.000
865.121; -142.500; -714.000; -799.000
865.368;  -29.500; -173.000;   75.000
865.616;  -37.950;  -33.000;  -40.000
865.863;  -51.825; -462.000; -506.000
866.111;  -78.450; -795.000; -824.000
866.358;   75.175; -426.000; -420.000
866.605; 2644.325;  -64.000; -804.000
866.853; 3922.550; -621.000; -537.000
867.100;   61.075; -728.000; -775.000
867.347;  -60.025; -672.000; -611.000
867.594;  -67.875; -740.000; -714.000
867.841;  148.825;   97.000;   17.000
868.089; -133.725; -746.000; -698.000
868.336; -104.725; -477.000; -420.000
868.583; -139.975; -637.000; -741.000
868.830;  -39.450; -131.000; -170.000
869.077; -156.425; -859.000; -787.000
869.324; -124.050; -502.000; -458.000
869.571; -136.975; -398.000; -430.000
869.818; -118.000; -485.000; -439.000
870.065; -109.350; -439.000; -513.000
870.311;  -98.875; -456.000; -542.000
870.558; -102.075; -332.000; -311.000
870.805;  -80.825; -320.000; -384.000
871.052; -111.400; -494.000; -369.000
871.298;  -48.650; -204.000; -131.000
871.545;  -66.525; -151.000; -185.000
871.792;  -84.650; -173.000; -222.000
872.038;  -60.925;   43.000; -126.000
872.285; -130.575; -496.000; -387.000
872.532; -101.925; -357.000; -387.000
872.778;    2.975;  556.000;  403.000
873.025;  -95.950; -384.000; -359.000
873.271;   -4.275;  501.000;  578.000
873.517;  -24.875; -133.000; -209.000
873.764;  -11.675; -193.000;  -80.000
874.010;  -56.175; -143.000; -230.000
874.257;  -39.950;  123.000;   90.000
874.503; -128.375; -579.000; -479.000
874.749;  -66.950;   31.000;  275.000
874.995;  -68.750;  -80.000;  -20.000
875.242; -112.450; -540.000; -478.000
875.488; -117.025; -414.000; -439.000
875.734;  -53.775; -106.000; -234.000
875.980;  268.650; -872.000;-1032.000
876.226;  661.050; -157.000; -255.000
876.472;   11.850;  343.000;  237.000
876.718;  -34.850;  184.000;  158.000
876.964;  -40.725;   56.000;   55.000
877.210; -134.825; -547.000; -677.000
877.456; -130.000; -630.000; -557.000
877.702; -163.375; -821.000; -832.000
877.948; -106.650; -377.000; -497.000
878.193;    3.275;  361.000;  255.000
878.439;  -70.300; -487.000; -472.000
878.685;  -87.875; -272.000; -343.000
878.931; -136.075; -618.000; -676.000
879.176;  -89.050; -201.000; -201.000
879.422; -163.725; -933.000; -820.000
879.668;   37.000;   10.000;   79.000
879.913;  229.325;   53.000;  137.000
880.159;  -33.150; -112.000;  -17.000
880.404;  -57.675; -152.000; -162.000
880.650;  -37.550;   91.000;  141.000
880.895; -154.850; -670.000; -710.000
881.141; -115.850; -454.000; -428.000
881.386; -136.375; -503.000; -658.000
881.631;  -85.900; -311.000; -166.000
881.877;  -26.350;  112.000;  -13.000
882.122; -125.175; -684.000; -600.000
882.367; -104.400; -136.000; -186.000
882.612;  -71.750;  -80.000; -176.000
882.858; -178.625; -877.000; -823.000
883.103;  -95.275; -297.000; -267.000
883.348; -147.500; -759.000; -852.000
883.593; -132.550; -677.000; -602.000
883.838;  -48.450; -311.000;  -24.000
884.083;   55.750;  353.000;  288.000
884.328;  -77.125; -564.000; -545.000
884.573;  -50.625; -196.000; -143.000
884.818;  251.425; -694.000; -531.000
885.063;  393.900; -348.000; -315.000
885.308;  -87.250; -475.000; -398.000
885.553;   -1.100;  245.000;  325.000
885.797; -129.300; -545.000; -615.000
886.042;  -56.900;    8.000;   58.000
886.287;  -88.075; -253.000; -211.000
886.532;  -52.000;   26.000;  204.000
886.776; -112.650; -407.000; -525.000
887.021; -139.825; -621.000; -574.000
887.265; -155.725; -685.000; -689.000
887.510; -110.675; -557.000; -496.000
887.755;  -89.175; -194.000; -164.000
887.999; -136.825; -552.000; -575.000
888.244;  -54.075;  -58.000;  161.000
888.488;   -7.350;  371.000;  393.000
888.732; -127.625; -368.000; -520.000
888.977; -119.850; -622.000; -567.000
889.221; -147.100; -683.000; -659.000
889.465; -115.775; -422.000; -566.000
889.710;  -94.700;  -56.000; -299.000
889.954;  -12.050;  579.000;  467.000
890.198; -151.000; -584.000; -707.000
890.442; -141.400; -716.000; -712.000
890.687; -167.750; -800.000; -753.000
890.931;  -91.700; -273.000; -210.000
891.175; -124.775; -502.000; -500.000
891.419;  -66.875; -105.000; -110.000
891.663;  -94.100; -239.000; -112.000
891.907; -156.025; -801.000; -545.000
892.151; -192.175; -920.000; -815.000
892.395;  -95.575; -274.000; -387.000
892.638;  -32.250;  408.000;  291.000
892.882; -161.900; -780.000; -867.000
893.126;   -3.825;  758.000;  558.000
893.370;  -79.925; -167.000; -168.000
893.614; -143.625; -714.000; -715.000
893.857; -101.450; -183.000; -197.000
894.101; -132.825; -527.000; -631.000
894.345;  -50.500;  300.000;  150.000
894.588;   -4.475;  569.000;  380.000
894.832;  -81.175; -178.000;  -84.000
895.075; -102.275;   15.000;  -92.000
895.319; -119.075; -552.000; -420.000
895.563; -121.100; -413.000; -353.000
895.806; -135.925; -628.000; -741.000
896.049;  -45.175; -576.000; -368.000
896.293;  139.175;  527.000;  405.000
896.536;  -31.200; -465.000; -468.000
896.779;  -37.000; -149.000;   -1.000
897.023; -131.725; -751.000; -714.000
897.266;  -36.325;  325.000;  269.000
897.509; -185.275; -900.000; -901.000
897.752;  -46.600;  149.000;  171.000
897.996; -179.350; -972.000; -864.000
898.239;  -52.100;  168.000;  102.000
898.482; -111.875; -431.000; -453.000
898.725;  -23.950;  101.000;   53.000
898.968; -141.400; -609.000; -744.000
899.211;  -93.900; -513.000; -361.000
899.454; -109.225; -633.000; -539.000
899.697;  -56.750;   90.000;  -43.000
899.940; -151.900; -761.000; -757.000
900.182;  -93.825; -335.000; -405.000
900.425;  -90.500; -150.000; -298.000
900.668;  -15.325;  491.000;  350.000
900.911; -115.500; -292.000; -345.000
901.154;  -48.025;  141.000;   -3.000
901.396; -138.375; -407.000; -412.000
901.639; -141.550; -430.000; -496.000
901.882; -174.400; -790.000; -809.000
902.124;  -78.000;  -29.000; -143.000
902.367; -113.875; -315.000; -361.000
902.609; -128.950; -476.000; -453.000
902.852;  -91.750; -108.000; -260.000
903.094; -116.850; -458.000; -337.000
903.337;  -67.800;  -26.000;   53.000
903.579; -108.950; -228.000; -441.000
903.821; -153.700; -597.000; -744.000
904.064;  -52.075;   85.000;  127.000
904.306;  -89.875; -126.000; -166.000
904.548;  -94.000; -152.000; -366.000
904.790;  -93.700; -195.000; -340.000
905.033; -116.875; -625.000; -577.000
905.275; -133.575; -513.000; -524.000
905.517;   55.225;  468.000;  256.000
905.759;  -28.325; -667.000; -761.000
906.001;  -81.200; -322.000; -369.000
906.243;  -49.550; -162.000; -224.000
906.485;  171.250; -265.000; -207.000
906.727;  272.625; -499.000; -542.000
906.969;    8.625;  -30.000; -135.000
907.211;  193.350; -316.000; -382.000
907.453;  446.400; -188.000; -237.000
907.695;   89.600; -158.000; -385.000
907.936;   48.375;  818.000;  706.000
908.178;  -70.675;   92.000; -135.000
908.420;  -66.300; -111.000; -162.000
908.662; -127.575; -633.000; -682.000
908.903;  -87.025; -208.000; -123.000
909.145;  -65.125; -240.000; -305.000
909.386;   -5.700;  315.000;  280.000
909.628;   28.050;  363.000;  397.000
909.870;    2.925;   29.000;  264.000
910.111;  -90.800; -809.000; -949.000
910.353;   26.275; -123.000; -161.000
910.594;    1.350; -574.000; -606.000
910.835;   91.850; -265.000; -326.000
911.077;  168.425; -503.000; -604.000
911.318;  321.600; -505.000; -471.000
911.559;  464.500; -577.000; -880.000
911.801; 1267.600; -284.000; -280.000
912.042; 8917.100;  -50.000; -159.000
912.283;29078.750;  404.000;  371.000
912.524; 6264.575; -396.000; -457.000
912.765;  646.700; -193.000;   79.000
913.006;  266.300; -307.000; -338.000
913.247;   88.950; -270.000; -290.000
913.488;   -2.950;  -43.000;   30.000
913.729;  -77.475; -373.000; -373.000
913.970;  -56.725;  -96.000; -292.000
914.211;  -73.825; -160.000; -198.000
914.452;  -58.850; -118.000;  -11.000
914.693;   15.850;  510.000;  592.000
914.934;   11.350;  510.000;  440.000
915.175;  -60.925;   53.000;  -95.000
915.415;  -79.875; -137.000;   27.000
915.656;  -58.950;  -28.000;  192.000
915.897;  -89.800; -252.000;  -82.000
916.137;  -58.425;   74.000;   -9.000
916.378; -114.575; -573.000; -517.000
916.619;  -72.225; -159.000;  -63.000
916.859;  -37.875;  303.000;  330.000
917.100;  119.850; 1655.000; 1070.000
917.340;   34.375;  930.000;  728.000
917.581;   62.425;  965.000;  789.000
917.821;  -11.900; -171.000;  143.000
918.061;   63.825; -199.000;  -72.000
918.302;  -35.675; -152.000; -211.000
918.542;    9.400;  -22.000;    3.000
918.782;   63.125;  369.000;  377.000
919.023;  183.900;  360.000;  427.000
919.263; 1898.400; 8131.000;  202.000
919.503; 1842.800; -137.000;  -54.000
919.743;  902.350;  390.000;  266.000
919.983;  499.250; -134.000;  -26.000
920.223;  147.700;  135.000;   14.000
920.463;  234.600;  631.000;  554.000
920.703;  210.600;   84.000;   39.000
920.943;  267.575; -110.000;   90.000
921.183;  351.900; -414.000; -405.000
921.423;  693.375;  307.000;  546.000
921.663;  989.550; -174.000; -257.000
921.903; 2032.800;  237.000;  173.000
922.143;10407.275;  372.000;  389.000
922.383;44164.900;  158.000;  115.000
922.622;20862.475; -120.000;  -15.000
922.862; 2150.875;  796.000;  785.000
923.102;  758.225;  -51.000;   33.000
923.341;  340.025;   59.000;   74.000
923.581;  140.075;  450.000;  360.000
923.821;   55.925;  301.000;  398.000
924.060;   35.675;  351.000;  193.000
924.300;  -23.700;  -16.000; -128.000
924.539;   -9.775;  584.000;  473.000
924.779;   26.300;  812.000;  597.000
925.018;  -63.925;  247.000;  353.000
925.257;   -8.375;  595.000;  666.000
925.497;  -37.175;  447.000;  412.000
925.736;  -79.875;  -35.000;  102.000
925.975;    4.075;  687.000;  669.000
926.214;   34.850;  907.000;  850.000
926.454;   21.125;  706.000;  757.000
926.693;  -34.250;  419.000;  543.000
926.932;   39.000; 1021.000;  825.000
927.171;   78.875; 1107.000; 1044.000
927.410;   54.825; 1144.000;  967.000
927.649;   32.075;  924.000;  742.000
927.888;  -25.050;  590.000;  564.000
928.127;    0.625;  680.000;  678.000
928.366;   35.100;  842.000;  826.000
928.605;   55.025;  831.000;  737.000
928.844;  278.875; 1451.000; 1393.000
929.083;  837.025;  770.000;  613.000
929.321;  542.875; 1335.000; 1359.000
929.560;  104.200; 1158.000; 1122.000
929.799;  -11.925;  574.000;  475.000
930.038;   95.400; 1025.000; 1394.000
930.276;  -45.000;  334.000;  397.000
930.515;   12.125;  827.000;  681.000
930.753;  -16.400;  614.000;  589.000
930.992;  -17.625;  664.000;  717.000
931.230;    8.875;  847.000;  847.000
931.469;  165.300; 2162.000;  892.000
931.707;   62.425;  840.000;  751.000
931.946;   68.550; 1278.000; 1344.000
932.184;   55.725; 1437.000; 1175.000
932.423;   54.175; 1265.000;  963.000
932.661;  110.250; 1296.000; 1428.000
932.899;   62.450;  987.000;  821.000
933.137;   23.050;  754.000;  564.000
933.376;  180.725; 1664.000; 1335.000
933.614;  182.800; 1759.000; 1196.000
933.852;   65.800; 1357.000; 1171.000
934.090;  137.225; 1722.000; 1747.000
934.328;  126.050; 1252.000; 1457.000
934.566;  103.375; 1431.000; 1110.000
934.804;  190.500; 1263.000; 1309.000
935.042;  618.225; 1861.000; 1850.000
935.280; 2515.150; 2088.000; 2063.000
935.518; 3026.925; 2113.000; 2007.000
935.756;  616.675; 2481.000; 2316.000
935.994;  210.825; 1808.000; 1751.000
936.231;  392.200; 2890.000; 2950.000
936.469;  212.175; 2367.000; 2378.000
936.707;  176.075; 2220.000; 2167.000
936.945;  215.575; 2825.000; 2882.000
937.182;  211.300; 2679.000; 2741.000
937.420;  295.200; 3602.000; 3031.000
937.657;  437.175; 3365.000; 3478.000
937.895;  398.975; 3331.000; 3488.000
938.133;  317.950; 3540.000; 3528.000
938.370;  345.850; 3896.000; 4191.000
938.607;  404.650; 4488.000; 4205.000
938.845;  531.925; 5587.000; 5549.000
939.082;  482.025; 5387.000; 5177.000
939.320;  533.425; 5799.000; 5728.000
939.557;  620.725; 6549.000; 6491.000
939.794;  697.850; 7285.000; 7097.000
940.031;  878.500; 8421.000; 8368.000
940.269; 1162.500; 9552.000; 9107.000
940.506; 1159.650;10901.000;10507.000

