
Integration time [ms]: 100.000
Averaging Nr. [scans]: 40
Smoothing Nr. [pixels]: 0
Data measured with spectrometer [name]: 2101013U2
Wave   ;Sample   ;Dark     ;Reference
[nm]   ;[counts] ;[counts] ;[counts] 

394.013;   64.164; -450.257; -315.536
394.305;  266.812; -461.258; -419.536
394.596; 1149.332; -676.269; -527.514
394.887; 2702.524; -796.268; -654.518
395.178; 1011.605;  145.736;   11.476
395.470;   82.816; -210.263; -356.526
395.761;  233.789;  305.734;  394.479
396.052;  413.778; -545.284; -306.489
396.343;  405.575; -557.276; -454.503
396.634;  142.618; -200.279; -290.497
396.926;  149.096; -618.268; -565.517
397.217;  123.105;   11.725;  -17.504
397.508;   65.221; -366.273; -154.507
397.799;   69.193; -555.279; -571.497
398.090;    3.237; -973.280; -902.495
398.381;  135.801;   11.708;  -11.473
398.672;    2.928; -585.292; -742.473
398.963;   71.424; -348.279; -373.498
399.254;  124.187;   54.709; -209.475
399.545;   -6.189;-1017.266; -883.520
399.836;   71.489; -407.277; -343.501
400.127;   56.727; -205.295; -209.468
400.418;   78.290; -423.274; -392.506
400.709;   94.199; -359.281; -333.493
401.000;   60.416; -268.291; -309.476
401.290;  120.437;  225.698;  115.545
401.581;   76.611; -166.286; -228.485
401.872;   42.949; -542.298; -486.462
402.163;   57.019; -313.296; -252.467
402.454;  111.088; -123.291; -163.475
402.744;  112.286; -844.297; -813.465
403.035;  477.468; -226.293;  -86.471
403.326;  655.781; -366.292; -384.474
403.617;  419.643;  204.701;  165.539
403.907;  260.634; -593.283; -679.490
404.198; 2378.240; -545.307; -599.446
404.489; 6273.964; -618.283; -588.491
404.779; 2115.291; -618.302; -660.456
405.070;  230.444;  -67.304; -174.451
405.360;  335.894; -259.293; -238.472
405.651;  379.602;  125.699;   98.542
405.942;  203.231;  209.714;  127.516
406.232;  319.821; -432.285; -413.487
406.523;  535.487;  641.706;  758.530
406.813;  133.608; -579.286; -644.484
407.104;  400.775;  261.708;  144.527
407.394;  234.144; -604.299; -591.462
407.685;  156.595;  336.715;  222.513
407.975;   85.688; -400.283; -382.490
408.265;  123.052; -134.289; -190.478
408.556;   75.934; -472.291; -459.475
408.846;  172.988;  474.706;  429.530
409.137;   91.811;   -1.288; -216.480
409.427;   44.670; -193.285; -271.487
409.717;   52.374; -776.273; -692.508
410.007;  164.314;    4.715; -170.486
410.298;  116.905; -360.295; -342.469
410.588;   81.243; -495.285; -510.486
410.878;   63.422; -792.287; -873.482
411.168;  126.751; -481.298; -478.463
411.459;  131.907; -295.283; -242.489
411.749;   79.758; -609.292; -507.474
412.039;   73.234; -755.289; -386.480
412.329;  207.781;   40.722;  132.501
412.619;  209.808;  -62.286; -148.485
412.909;  386.780;  639.711;  594.521
413.199;  359.837; -130.280; -251.495
413.490;  431.771;  521.710;  352.523
413.780;  170.716;-1013.279; -913.496
414.070;  329.701;  -46.276;  235.497
414.360;  400.053; -729.278; -666.498
414.650;  458.643; -726.288; -688.482
414.940;  538.216; -538.280; -441.496
415.230;  943.215;   50.712;   74.519
415.520; 6070.656;  155.730;   66.486
415.809;24208.298; -305.281; -125.493
416.099;18266.491; -388.277; -229.501
416.389; 5070.813;  435.726;  236.494
416.679; 2929.295;   91.738;   85.473
416.969;  534.352; -527.287; -503.483
417.259;  487.643;  341.721;  171.503
417.549;  689.897;  522.718;  318.508
417.838; 1642.823; -205.268; -147.518
418.128; 5386.326;  650.710;  492.522
418.418; 4457.781; -491.272; -579.509
418.708; 3041.213;    9.726;  -48.506
418.997;11466.959; -474.275; -480.505
419.287;11727.295; -733.273; -790.507
419.577;10978.307; -160.283; -123.489
419.866;37062.964; -588.277; -498.501
420.156;38058.752; -242.270;  -55.513
420.446; 6716.712; -112.263;  -26.526
420.735;  921.571; -376.271; -446.512
421.025;  836.252; 1830.722;  315.502
421.314;  747.244; -203.271; -226.512
421.604; 1643.091;   89.732;  233.484
421.893;  940.590; -705.271; -602.511
422.183;  246.388; -487.263; -461.526
422.472;  402.166;  -36.271; -107.511
422.762;  492.367; -416.266; -379.521
423.051;  282.626; -916.276; -916.503
423.341;  327.747; -491.273; -439.507
423.630;  446.873; -121.265;   15.477
423.919;  407.208;   58.725;   49.495
424.209;  369.868;  -31.263;   56.473
424.498;  506.471;   68.732;  161.483
424.787; 1090.377; -535.267; -601.518
425.077; 3385.221;   34.735;   29.478
425.366; 4921.524; -734.262; -744.528
425.655; 9703.523;  639.727;  259.493
425.945;20681.831; -313.247; -268.554
426.234;11292.097;  117.741;  300.467
426.523; 5089.728;  -86.259; -350.534
426.812; 6910.937;  107.734;  159.480
427.101;10151.962; -127.269; -323.515
427.390;12814.256;  -55.270;  -86.514
427.680; 3019.623; -624.257; -411.538
427.969;  513.959; -330.255; -301.540
428.258;  339.339; -385.257; -477.536
428.547;  577.885;  449.728;  397.490
428.836; 1398.650; -421.253; -398.543
429.125; 1993.604; -199.259;  -72.534
429.414;  875.124; -330.251; -294.548
429.703; 3124.599; -231.251; -213.548
429.992; 9321.477; -938.250; -828.549
430.281; 6006.505; -397.264; -331.524
430.570;  617.639;  -21.252;   32.454
430.859;  635.102;  279.741;  352.466
431.148;  475.702;  636.752;  631.446
431.437;  312.563;  391.748;  367.454
431.725;  187.216; -544.257; -481.536
432.014;  148.383; -845.253; -756.545
432.303;  421.479; -149.239; -105.569
432.592;  670.487; -460.263; -178.525
432.881; 1057.128; -601.248; -437.554
433.169; 6100.785; -343.255;  -61.540
433.458;12282.714;  445.765;  540.424
433.747; 5085.030; -397.261; -289.529
434.036;  951.305; -275.242; -280.564
434.324; 2113.040; -395.249; -379.551
434.613; 3615.123;   40.757;  159.437
434.902; 1215.444;  333.760;  439.433
435.190;  658.053;   75.761;  295.431
435.479;  363.779;  -52.245;   83.441
435.767;  140.838; -411.244; -427.561
436.056;  233.450; -340.242; -294.563
436.345;  393.672; -372.240; -223.568
436.633;  404.660;   60.750;  383.450
436.922;  297.224;  208.760;  414.432
437.210;  699.729; -194.236;    1.426
437.499; 2291.362; -583.235; -432.576
437.787; 2468.103; -339.236;  -10.574
438.075;  592.534;   56.761;  162.430
438.364;  862.387;  -44.238;  250.429
438.652;  522.194; -286.226; -138.592
438.941;  161.807;    3.770;  269.415
439.229;   31.661; -665.252; -466.545
439.517;   66.746; -160.234;  -85.577
439.806;   16.385; -501.225; -290.595
440.094;  197.679;  377.766;  650.421
440.382;  240.532; -653.233; -302.580
440.670;  250.437; -361.235; -285.576
440.959;   50.003; -347.223; -170.599
441.247;   80.869; -151.229; -109.587
441.535;  125.194; -266.235;   31.423
441.823;   45.526; -497.234; -305.578
442.111;  207.648;  173.771;  327.412
442.400;  588.679; -628.245; -335.559
442.688; 1624.378; -111.234; -620.579
442.976; 1171.817; -786.213; -450.617
443.264;  126.317; -324.224; -364.597
443.552;  119.095; -258.226;   51.408
443.840;  176.593;  602.765;  876.423
444.128;  128.307;  265.767;  269.420
444.416;   15.901; -694.228; -312.588
444.704;   53.433; -465.219;  -92.605
444.992;   90.398;   -0.226;  240.407
445.280;   57.583; -517.230;  -94.585
445.568;   61.321; -694.212; -396.618
445.856;  389.742; -174.221;  357.398
446.143;  909.029;  -54.220;   -7.604
446.431;  719.154;  -25.228;  625.411
446.719;  270.503;  489.783;  675.391
447.007;  182.927;  481.769;  705.416
447.295;  189.500;  597.777;  871.402
447.583;  120.991; -464.229;  -34.587
447.870;  175.788; -434.221; -202.601
448.158;  480.806; -104.230;  129.415
448.446;  355.380; -800.219; -338.604
448.733;  178.018;   13.776;  269.403
449.021;  291.221;   60.788;  341.382
449.309;  205.936; -296.210;  208.379
449.596;  233.224;  128.783;   59.392
449.884;  174.407; -571.222; -325.600
450.172;  147.260; -756.227; -406.590
450.459;  446.700;  645.786;  780.387
450.747; 2280.797; -411.218; -147.608
451.034; 7360.706;  493.772;  889.411
451.322; 6005.028; -413.214; -170.614
451.609;  492.445;  292.777;  508.403
451.897;  582.826; -550.203; -183.634
452.184; 1795.450; -622.223; -400.598
452.472; 1660.058;   97.792;  269.375
452.759;  345.856;  512.781;  864.395
453.047;  133.993; -407.212; -125.617
453.334;  105.339; -732.219; -216.606
453.621;  105.456; -438.214; -161.615
453.909;  137.267;   13.796;  384.368
454.196;  128.214; -299.199; -123.641
454.483;  221.014;  317.798;  540.364
454.771;  135.061; -215.208;  196.374
455.058;   50.489; -316.207;  102.374
455.345;  120.395;   71.807;  344.347
455.632;   88.168; -128.207;  235.373
455.919;   50.812;  -82.196;  182.354
456.207;  -34.207; -774.198; -450.642
456.494;    0.701; -475.200;  -66.639
456.781;   20.084; -399.202; -198.635
457.068;   56.474; -253.206;  -29.628
457.355;   -5.849; -698.206; -401.629
457.642;    2.856; -552.205; -290.630
457.929;    9.711; -778.194; -417.651
458.216;   75.869; -575.212; -354.617
458.503;  236.216; -173.193;  -19.652
458.790;  229.784; -864.208; -630.625
459.077;  277.864;  -77.202;  110.364
459.364;  780.679; -350.195; -210.649
459.651; 1651.822;  -46.206;  220.372
459.938;  755.199; -864.209; -665.623
460.225;  156.143;  132.799;  276.363
460.512;  -22.041; -836.197; -688.645
460.799;  112.996;  -32.218;  320.392
461.086;   84.406; -370.200; -251.640
461.372;   65.869; -509.198; -279.642
461.659;  126.013; -165.196;  108.354
461.946;   77.964; -445.193;  -54.651
462.233;  248.603;  842.800;  888.361
462.519;  359.050; -814.201; -464.639
462.806; 1007.934; -768.197; -497.645
463.093;  873.511; -445.191;  -66.656
463.380;  -25.747; -920.186; -824.664
463.666;   66.886; -259.197;  -18.646
463.953;  106.924; -406.195; -243.648
464.239;  187.773; -173.195;  -77.648
464.526;  398.860;  413.806;  743.350
464.813;  358.597; -565.190; -304.658
465.099;  379.140;  606.807;  607.348
465.386;  341.869;  903.807;  921.348
465.672;   42.535; -694.197; -522.645
465.959;   54.991; -598.188; -520.662
466.245;   18.195; -468.193; -359.652
466.532;   97.071; -109.195;   63.352
466.818;   96.302; -357.186; -216.664
467.104;    4.244; -488.182; -415.672
467.391;  -18.926; -628.189; -459.658
467.677;   40.306; -289.186;    9.335
467.964;    8.306; -682.189; -471.660
468.250;   80.684; -331.186; -160.665
468.536;   90.576;   90.811;  180.341
468.822;  -19.529; -821.184; -574.668
469.109;  148.726;  351.827;  471.311
469.395;  184.254;  729.808;  787.346
469.681;  204.704;   46.811;  156.341
469.967; 1248.258; -699.188; -382.660
470.254; 2652.542; -494.188; -306.662
470.540; 1664.587; -601.196; -476.646
470.826;  243.955; -488.181; -397.675
471.112;  276.725;  288.816;  113.331
471.398;   96.629; -253.183;  -58.670
471.684;   54.059; -626.177; -447.680
471.970;    4.459; -918.180; -981.675
472.256;   38.578; -521.192; -441.654
472.542;   26.062; -499.171; -434.691
472.828;   36.539; -743.182; -607.672
473.114;   43.582; -380.166; -283.700
473.400;   33.976; -504.175; -293.684
473.686;   52.538; -452.166; -400.701
473.972;   72.391; -230.174; -131.687
474.258;  -45.049; -925.173; -843.689
474.544;  194.725; -183.178;   -2.679
474.830;  282.852;  -65.175;   45.316
475.116;  461.974; -123.190; -196.658
475.401;  623.936; -558.180; -467.676
475.687;  201.135; -725.180; -718.676
475.973;   24.373; -673.181; -770.673
476.259;  241.655;  736.825;  764.315
476.544;  365.592; -539.176; -437.682
476.830;  769.808; -398.172; -322.690
477.116;  660.516; -430.177; -336.682
477.401;  145.336;  346.820;  358.324
477.687;  -12.474; -289.175; -405.684
477.973;   33.201;   21.819;   28.326
478.258;  -12.641; -448.163; -348.706
478.544;   69.314;   21.815;   61.334
478.829;  -34.857; -818.171; -738.692
479.115;  -27.842; -749.172; -651.690
479.401;   -1.214; -444.174; -449.686
479.686;   41.234; -253.180;  -74.676
479.972;  -29.069; -886.178; -776.680
480.257;   39.283; -258.166;  -65.700
480.542;    5.697; -614.170; -469.693
480.828;  236.424; 1288.824; 1392.317
481.113;  -28.528; -464.176; -426.683
481.399;   -4.466; -236.161; -202.711
481.684;  -40.692; -620.166; -462.700
481.969;   16.947; -158.159;  -73.713
482.255;    5.983; -439.169; -285.695
482.540;    5.931; -569.178; -441.680
482.825;   21.423; -395.187; -404.663
483.110;   94.186;  -85.169; -105.696
483.396;  172.594; -840.157; -652.718
483.681;  484.416;  543.826;  730.313
483.966;  167.391; -696.160; -700.712
484.251;   22.715; -404.174; -310.687
484.536;    8.769; -356.165; -378.703
484.822;   20.868; -205.173; -218.687
485.107;  -16.642; -599.152; -502.726
485.392;  132.700;  662.836;  541.296
485.677;   74.246;  354.832;  163.302
485.962;  108.017;  160.843;  270.283
486.247;   98.542;  -14.162;   -8.707
486.532;   35.534; -178.166; -325.701
486.817;  171.003;  381.839;  431.291
487.102;  118.391; -453.154; -514.722
487.387;  633.046; -637.156; -652.718
487.672; 1115.030; -154.164;  -38.705
487.957;  707.085; -394.160; -286.711
488.241;  197.275; -290.150; -314.729
488.526;  685.185; -280.152; -148.726
488.811; 1133.433; -881.177; -818.680
489.096;  856.319; -666.154; -702.723
489.381;  494.431;    3.847;  162.275
489.666;  355.608; -428.161; -510.710
489.950;  167.197;  558.846;  627.277
490.235;  -25.755; -480.151; -458.728
490.520;  -33.918; -756.161; -723.710
490.804;  -44.252; -827.156; -736.719
491.089;   -0.833; -469.149; -299.732
491.374;   35.103; -132.164;  -75.704
491.658;   11.303; -817.147; -717.735
491.943;  200.889; -657.152; -609.727
492.227;  292.812; -178.155;  -38.721
492.512;   53.041; -294.157; -341.717
492.797;  -60.015; -713.149; -716.731
493.081;  -44.869; -588.147; -598.735
493.366;  -37.466; -751.161; -635.711
493.650;  206.535;  831.859;  917.254
493.935;   39.478; -648.147; -447.734
494.219;  -25.153; -778.142; -687.743
494.503;  -38.420; -585.150; -487.730
494.788;   52.458;   46.842;   74.285
495.072;  110.052;  184.850;  434.271
495.356;  177.520; -463.148; -343.733
495.641;  486.688; -812.146; -736.736
495.925;  466.253; -976.156; -903.719
496.209;   49.441; -599.149; -451.732
496.494;  -41.302; -763.142; -544.744
496.778;   17.941; -364.154; -360.722
497.062;  -38.147; -819.156; -627.719
497.346;  -24.388; -869.160; -640.711
497.631;  147.498;  580.852;  560.266
497.915;   88.274;  -64.145;  175.261
498.199;   63.569; -341.157; -277.718
498.483;   56.858; -562.152; -508.725
498.767;  179.553;  301.850;  300.271
499.051;  185.639; -126.149; -100.732
499.335;   47.837; -693.149; -739.731
499.619;  -35.586; -381.129; -423.767
499.903;   33.960; -272.155;  -65.721
500.187;   31.723; -588.153; -316.724
500.471;   33.563; -796.152; -595.727
500.755;  110.833;   62.839;  -96.710
501.039;   47.461; -270.155; -357.721
501.323;  107.762;  -21.141;  264.254
501.607;   50.635; -447.163; -503.706
501.891;   26.021; -607.156; -512.718
502.174;  -30.165; -726.144; -585.741
502.458;   86.667;   89.849;  370.273
502.742;   31.412; -180.138; -191.751
503.026;  110.002; -412.147; -254.734
503.310;  159.021; -437.159; -375.713
503.593;  118.854; -464.147; -325.735
503.877;  132.678; -232.133; -156.760
504.161;  188.601;    2.847;  -50.724
504.444;  143.235; -841.158; -710.716
504.728;  447.478; -487.164; -522.704
505.012;  692.200; -257.150;  -76.729
505.295;  530.859; -417.161; -212.711
505.579;  521.878; -256.156; -496.719
505.862;  721.970; -555.145; -333.738
506.146;  703.524; -681.159; -758.714
506.429;  393.299;  568.841;  461.286
506.713;   68.922; -732.151; -667.728
506.996;  311.190;   90.846;  295.278
507.280;  326.548; -633.165; -474.703
507.563;  236.759; -469.155; -261.721
507.847;  101.274; -423.153; -112.724
508.130;   81.234; -665.161; -456.711
508.413;  123.679; -758.167; -577.700
508.697;  249.079; -151.167;   12.300
508.980;  153.526; -422.153; -312.724
509.263;   17.105; -466.155; -450.720
509.547;   43.949; -124.150;   82.271
509.830;   51.987; -172.160;  140.289
510.113;   85.777;  128.844;  298.281
510.396;   35.056; -530.152; -300.725
510.680;  198.246; -818.145; -812.738
510.963;  738.845;  184.846;  180.277
511.246;  652.707; -493.150; -357.730
511.529;  277.251; -482.145;  -83.739
511.812;  350.399; -250.134;   10.241
512.095;  250.019; -740.151; -396.728
512.378;   63.708; -317.147; -245.736
512.661;   44.219; -703.137; -623.753
512.944;   27.849; -750.142; -637.744
513.227;   63.042; -170.137; -171.752
513.510;   34.985; -479.144; -671.741
513.793;   37.667; -485.140; -435.747
514.076;  146.010;  -43.127;  -39.771
514.359;  120.267; -294.149; -135.732
514.642;   95.177; -442.142; -567.744
514.925;  730.065;  581.860;  561.253
515.208;  962.146; -498.134; -443.758
515.491;  620.785; -276.133; -182.761
515.773;  339.964; -410.143; -337.742
516.056; 1963.701;  249.864;  409.246
516.339; 2729.780; -754.136; -652.755
516.622; 1972.730; -518.150; -488.730
516.904; 1424.771;  882.857;  975.257
517.187;  661.465; -730.138; -523.752
517.470;  424.470; -568.143; -510.743
517.752;  418.983; -624.136; -470.756
518.035;  340.252; -708.139; -725.749
518.318;  371.855; -799.136; -744.755
518.600; 2255.663; -300.132; -325.762
518.883; 3151.077;  310.858;   88.256
519.165; 1489.033; -585.138; -426.751
519.448;  417.763;  -61.132;  -19.762
519.730;  232.668; -573.126; -415.773
520.013;  329.556;  588.867;  664.240
520.295;  956.401;  -94.134;  -15.759
520.578; 2143.651; -335.131; -305.764
520.860; 2382.313; -254.132;   56.238
521.143; 1200.910; -763.135; -584.756
521.425;  485.106; -251.125; -279.775
521.707;  685.335; -622.127; -380.771
521.990; 1678.661; -199.127;  167.229
522.272; 1923.468; -116.140;   -4.748
522.554;  905.564; -237.143; -157.742
522.836;  418.874;  -24.134;   99.241
523.119;  234.976; -496.148; -189.734
523.401;  171.033; -448.130; -314.766
523.683;   98.920; -865.137; -693.753
523.965;  254.313;  408.862;  260.248
524.247;  284.078;   54.878;  170.220
524.529;  191.826; -451.134; -367.759
524.812;  349.560;   -3.130;  191.234
525.094;  796.062; -773.138; -631.751
525.376; 1293.415; -143.124;   78.223
525.658;  795.377; -441.136; -339.754
525.940;   23.098; -805.131; -671.764
526.222;   59.256; -188.136;  -88.755
526.504;  149.396; -190.131;   32.237
526.786;  223.828; -960.133; -647.760
527.068;  384.621; -124.123;  -67.778
527.349;  167.499; -865.137; -774.754
527.631;  151.538; -137.132;   22.238
527.913;  136.785; -664.127; -450.771
528.195;  170.924; -761.125; -639.774
528.477;  228.446;  -93.134;  -30.758
528.759;  137.385; -648.130; -522.766
529.040;   55.120; -569.123; -293.778
529.322;   58.327; -235.125;  -10.774
529.604;  153.487;  -47.130;   93.233
529.886;  138.817; -546.126; -302.773
530.167;  143.129;  232.870;  192.235
530.449;   47.182;    1.853;   63.265
530.731;   17.527; -572.122; -459.779
531.012;   71.523; -513.120; -216.784
531.294;   76.188; -118.116;  -43.792
531.575;  145.256;  290.875;  538.225
531.857;   49.216; -548.135; -266.757
532.138;   96.136; -113.141;   40.254
532.420;  186.037;  294.865;  403.244
532.701;  250.206; -722.133; -751.760
532.983;  388.509;  232.867;  182.239
533.264;  141.190; -243.126;  175.228
533.546;  -24.969; -491.136; -508.755
533.827;   56.327;  173.867;   -1.759
534.109;   60.740; -352.135;  -80.757
534.390;  119.517; -725.132; -582.762
534.671;  270.711; -270.135;  -82.756
534.953;  138.897; -751.123; -611.779
535.234;   32.723; -426.117; -255.789
535.515;  -62.343; -891.119; -735.785
535.796;  -23.444; -431.128; -193.770
536.078;  -93.360;-1050.124; -904.777
536.359;   11.598;  -22.123;    3.221
536.640;    0.350; -480.125; -197.774
536.921;  161.218;  225.871;  143.232
537.202;  360.934;  -87.138;  -16.751
537.483;  451.701;  251.869;  377.236
537.764;  171.104;   17.870;   98.235
538.045;  -27.780; -543.134; -371.758
538.326;  -33.455; -596.129; -447.768
538.607;   14.436; -686.127; -476.771
538.888;  163.514;   98.879;    5.218
539.169;  195.308; -704.122; -535.781
539.450;  329.692;  236.871;   16.233
539.731;  237.618; -361.121; -182.783
540.012;  142.123;  199.880;  412.216
540.293;   91.209;   82.876;  158.224
540.574;   31.459; -895.113; -717.796
540.855;  469.366;  435.879;  377.218
541.136;  544.031;   47.878;  139.220
541.416;  277.061; -161.130; -220.766
541.697;  183.196; -274.131; -170.763
541.978;  991.689; -270.135; -315.757
542.259; 1274.211; -211.127; -236.771
542.539;  604.582; -191.116; -186.790
542.820;  191.431;  461.875;  480.225
543.101;  132.173;  -52.145;  -77.738
543.381;   55.561; -638.127; -591.771
543.662;  269.858;  159.873; -254.771
543.942;  569.582; -751.127; -830.770
544.223;  999.457;  193.878;  161.219
544.504;  653.740; -275.124; -182.777
544.784;  573.917; -592.126; -408.773
545.065; 1585.060;  104.884; -254.791
545.345; 1883.782;  227.881;   14.215
545.626; 1201.483;  -14.113; -108.796
545.906;  829.928;   77.869;   98.235
546.186;  366.797;   92.874;  -95.773
546.467;  181.517;   99.877;  -95.778
546.747;  327.406;  264.884;  327.210
547.027;  368.638;   91.876;  111.223
547.308;  315.781; -376.127; -530.770
547.588;  390.845;  299.871;  371.232
547.868;  199.580;  458.870;  588.235
548.149;  184.543;  609.885;  593.207
548.429;  126.559; -347.127; -299.771
548.709;  177.323; -645.120; -461.784
548.989;  441.566;   84.882;   88.213
549.269; 1961.736;   10.868;  139.239
549.550; 4592.046;  215.877;  117.222
549.830; 4073.852; -758.111; -556.799
550.110;  779.684; -468.110; -320.801
550.390;  771.502; -128.122;  -56.779
550.670; 1107.154; -868.114; -783.795
550.950;  784.091; -509.121; -471.782
551.230;  175.787;  549.879;  460.218
551.510;    0.265; -381.121; -326.782
551.790;   33.792; -173.109; -127.803
552.070;  246.442;  940.877; 1181.223
552.350;  378.686; -492.119; -377.786
552.630;  555.435;   -2.121;   77.219
552.909;  329.986;  181.884;   73.209
553.189;  213.293;  -49.132;   33.237
553.469;  185.460; -703.119; -514.786
553.749;  183.363; -469.127; -357.772
554.029;  164.877;   33.883;  -24.790
554.308;  141.922; -154.115;  -37.794
554.588;   71.780; -196.128; -204.770
554.868;   63.267; -366.121;  -47.782
555.147;  149.294; -114.115;  -46.793
555.427;  544.288; -260.116; -250.792
555.707; 3635.892; -284.115; -200.793
555.986; 4473.080; -719.111; -538.800
556.266; 2307.430;   23.884;   72.210
556.546;   96.515; -888.121; -675.782
556.825;  224.227; -657.114; -556.794
557.105; 1651.052; -125.128;   17.230
557.384; 1973.410;  122.884;  187.209
557.664;  752.688; -717.116; -508.792
557.943;  105.691; -557.121; -411.782
558.222;  182.470; -345.118; -344.788
558.502;  269.796; -116.115;  -76.793
558.781;  460.516;  194.885;  499.208
559.061;  395.244; -232.118; -227.788
559.340;  276.674;  302.883;  353.211
559.619;  667.180;   93.884;  148.210
559.899;  969.276; -239.117; -266.789
560.178;  869.645; -778.115; -593.793
560.457; 2941.078; -623.117; -562.790
560.736; 4188.606; -472.111; -482.800
561.015; 2731.675; -500.128; -502.769
561.295;  372.587;  180.893;  215.193
561.574;  343.218;  119.885;  116.207
561.853;  485.972;  274.891;  303.197
562.132;  460.323;  -45.114;  182.206
562.411;  418.135;  396.879;  553.219
562.690;  119.541; -592.115; -458.792
562.969;  136.041;  472.888;  630.203
563.248;  460.883; 2966.878; 2487.219
563.527;  261.730; -290.111; -408.800
563.806;  354.984; -650.127; -521.771
564.085;  386.403; -297.105; -206.810
564.364;  226.079; -594.117; -405.790
564.643;  452.436; -276.121; -223.781
564.922; 1791.890;  221.890;  397.198
565.201; 1798.069; -640.109; -700.803
565.479;  757.065; -297.115; -219.792
565.758;  301.803; -810.128; -712.770
566.037;  464.195; -155.109; -100.803
566.316;  230.435; -286.116;  -28.791
566.595;   48.567;  -17.115;  -12.793
566.873;   81.758; -166.111;  -79.801
567.152;  -49.410; -490.113; -590.797
567.431;   17.856; -113.116;    6.210
567.709;    8.438; -344.107; -212.807
567.988;  249.926; -810.114; -769.794
568.266;  514.667; -160.115;  -68.793
568.545;  367.901; -644.100; -514.819
568.824;  546.839;  160.885;  356.208
569.102;  512.101; -351.114; -235.794
569.381;  213.513; -492.116; -407.792
569.659;  -37.989; -553.113; -553.796
569.938;   30.881; -743.122; -465.780
570.216;  110.873; -225.109; -225.804
570.494;  -25.320; -632.114; -572.795
570.773;   42.140;  202.879;  114.218
571.051;   10.920; -373.123; -357.778
571.330;   65.384; -221.113; -174.796
571.608;   25.194; -181.098; -173.823
571.886;  -56.500; -671.111; -581.799
572.164;  -55.458; -739.121; -621.782
572.443;  -35.393; -562.105; -512.811
572.721;  -35.347; -399.117; -289.790
572.999;  -19.653; -280.117; -168.788
573.277;   77.225;  379.894;  620.191
573.555;  263.377;   94.894;   37.190
573.834; 1273.146;  -86.117; -114.788
574.112; 1444.065;  880.893;  811.193
574.390;  425.657; -143.111;  -96.801
574.668;    9.616;  -91.112;  -61.797
574.946;  -14.922; -165.106; -187.810
575.224;   12.019;   71.891;  -16.803
575.502;  -15.392; -200.116; -204.791
575.780;  -83.233; -767.112; -829.798
576.058;  219.656; 1589.889; 1004.200
576.336;   -5.864; -210.110; -129.801
576.614;  -52.332; -511.112; -340.798
576.891;   55.397; -711.115; -823.794
577.169;  451.806; -158.108; -285.805
577.447;  534.815;  169.893;  202.193
577.725;  245.097;  629.888;  854.201
578.003;    8.045;  -71.112; -371.798
578.280;  103.691; -208.104; -242.812
578.558;   81.971; -450.115; -422.793
578.836;  122.779; -210.114; -145.795
579.114;   58.791; -630.112; -670.797
579.391;   69.223;   -6.117;  -18.789
579.669;  -45.827; -595.114; -704.794
579.947;  160.136; -326.107; -127.806
580.224;  325.161; -692.107; -524.806
580.502;  277.165;  127.893;   76.193
580.779;   33.304;  -42.117;   75.210
581.057;  -68.027; -584.109; -470.804
581.334;  -85.944; -726.102; -695.815
581.612;   49.578;   54.895;  511.190
581.889;  -29.230;  -83.101; -129.818
582.167;  -32.041; -298.099; -190.821
582.444;  -94.261; -845.102; -814.817
582.721;  108.390;  657.899;  715.183
582.999;   43.207; -326.100; -167.821
583.276;  488.349; -812.123; -713.779
583.553;  672.959; -364.102; -294.816
583.831;  208.038; -607.104; -631.812
584.108;   63.229;  349.892;  174.195
584.385;   11.481; -122.102;  -98.815
584.662;  -53.867; -651.111; -828.801
584.940;   17.957;  204.889;  204.199
585.217;  -10.764;  -73.113; -303.796
585.494;   42.391;   71.890;  118.198
585.771;  194.949; -250.109; -354.804
586.048;  470.686; -196.113;  -76.796
586.325;  287.985; -721.110; -773.801
586.602;   86.091;  230.896;  213.188
586.879;  -13.672; -499.100; -580.820
587.156;   45.979; -156.105; -331.810
587.433;  -35.488; -701.102; -667.817
587.710;   75.818;  152.888;  234.202
587.987;  285.259; -264.105; -236.811
588.264;  771.120;  315.888;  387.202
588.541; 1281.269;  -61.104;   26.187
588.818; 2590.701;   72.892;  171.196
589.095; 2197.989; -163.104; -174.812
589.371;  358.272; -459.109; -414.804
589.648;   19.790; -581.107; -437.807
589.925;   33.555; -517.114; -621.795
590.202;   14.318; -741.112; -607.798
590.478;   90.236; -166.105;  -73.811
590.755;  252.457; -241.108; -132.806
591.032; 2292.313; -741.110; -699.802
591.308; 3242.835; -732.094; -790.831
591.585; 1633.262; -573.110; -560.802
591.862;  139.739;-1056.102; -950.817
592.138;   55.330; -475.108; -474.805
592.415;  135.642; -486.104; -495.813
592.691; 1396.565;  460.896;  518.188
592.968; 1815.071; -208.098; -123.824
593.244;  855.056; -695.116; -595.790
593.521;   69.914; -105.102;  -42.817
593.797;  -26.147; -810.122; -720.780
594.074;  309.584; -611.096; -588.826
594.350;  647.795;  828.905;  729.172
594.626;  287.308; -303.111; -283.801
594.903;   87.764; -643.101; -645.817
595.179;  188.746;  243.896;  418.187
595.455;   25.841; -136.107; -150.807
595.731;    8.923;  -19.103;  -38.814
596.008;  -34.648; -464.111; -434.800
596.284;   40.255; -187.100; -242.820
596.560;   68.642; -501.093; -493.833
596.836;  193.781; -173.105;  -70.810
597.112;  335.306; -582.108; -437.805
597.388;  272.057;  -49.097;  -48.826
597.665;  105.113;  437.887;  530.203
597.941;  -71.428; -572.089; -658.839
598.217;    5.141; -323.110; -293.802
598.493;  257.476;   61.891; -204.804
598.769;  488.149; -175.100;  -50.819
599.045;  286.259; -490.108; -562.806
599.321;   49.979; -193.100; -261.820
599.597;  125.075; -355.109; -476.804
599.872;  446.219;  409.896;  429.187
600.148;  352.208;  -61.097; -172.826
600.424;  285.264;   91.893;  202.193
600.700;  218.616; -170.107; -280.807
600.976;   96.953; -442.097; -464.825
601.252;  234.871; -226.109; -272.803
601.527;  197.720; -833.104; -840.813
601.803;  126.762; -453.105; -404.812
602.079;  168.074; -124.100; -118.819
602.354;  514.202; -620.092; -531.835
602.630;  775.761; -140.113; -482.796
602.906; 2118.295; -910.101; -863.818
603.181; 6387.410; -627.119; -534.786
603.457; 5328.306;   98.903; -278.826
603.733;  764.469; -605.120; -626.783
604.008;  897.978; -245.106; -164.810
604.284; 2916.541; -636.101; -580.817
604.559; 2509.597;   -3.112;  -42.799
604.835;  443.831; -163.105; -225.810
605.110;  380.635; -732.099; -892.821
605.385;  664.844;  224.907;  267.167
605.661;  570.373; -625.095; -729.829
605.936; 1084.559; -664.108; -737.806
606.211;  937.304;  -17.103; -170.815
606.487;  183.650; -329.114; -376.794
606.762;   12.636; -791.119; -745.786
607.037;  -20.294; -501.105; -433.810
607.313;  -53.009; -589.096; -574.828
607.588;   -6.422; -375.106; -137.810
607.863;   26.344;  -28.101; -143.818
608.138;  164.340;  513.890;  516.198
608.413;   20.364; -576.099; -592.822
608.688;   32.855; -203.108; -267.805
608.964;  181.547; -509.106; -218.809
609.239;  240.853; -107.105; -212.810
609.514;  241.637;  281.895;  240.188
609.789;  615.016; -187.104; -716.812
610.064;  825.315; -435.096; -609.827
610.339;  808.047; -855.109; -799.804
610.614; 1088.780; -131.100; -315.820
610.889;  610.762;  215.895;  107.188
611.163;   35.613; -407.104; -591.812
611.438;   90.351;   81.886; -167.794
611.713;   -8.434; -467.101; -499.817
611.988;   42.743; -144.101; -328.818
612.263;  -26.794; -771.102; -717.815
612.538;  205.085;  385.887;  251.204
612.812;  174.156; -832.100; -911.820
613.087;  128.094; -358.098; -338.823
613.362;  -48.359; -497.107; -557.807
613.637;   42.650;  261.897;  138.186
613.911;  -13.348; -256.092; -345.835
614.186;   95.064; -249.107; -292.807
614.460;  620.473; -842.081; -758.854
614.735;  731.595;  -55.087;  -17.843
615.010;  137.310;   43.912;  -82.841
615.284;  234.580;  360.892;  246.195
615.559;  357.601; -792.092; -955.835
615.833;  277.562;  -76.099;  -87.822
616.108;   -0.612; -225.090; -390.837
616.382;  129.272;  274.913;  402.156
616.656;  136.039; -241.090; -232.837
616.931;  462.137; -785.099; -700.822
617.205;  982.170; -973.104; -979.813
617.480;  914.729;  -91.125;    6.225
617.754;  149.926; -396.125; -128.774
618.028;    7.846; -369.129; -382.768
618.302;   61.303;   73.892;  -25.805
618.577;  -50.148; -371.103; -518.815
618.851;  -54.707; -399.109; -600.803
619.125;  -39.599; -335.134; -378.759
619.399;  -40.504; -244.104; -374.813
619.673;  -42.911; -330.115; -515.792
619.947;  -45.946; -333.114; -448.795
620.222;  -19.216; -198.110; -204.801
620.496;   -0.284;  -47.121;  -96.782
620.770;    8.758; -187.122;  -93.781
621.044;  199.204;  323.895;  346.190
621.318;  689.119; -653.120; -614.783
621.592;  615.542; -430.121; -409.783
621.866;  336.998; -476.112; -572.799
622.140;   18.333; -207.116; -356.791
622.413;   55.177;  138.889;  112.200
622.687;  -35.184; -746.101; -492.817
622.961;   23.903; -130.108; -143.805
623.235;  -52.372; -633.111; -661.800
623.509;  -91.289; -816.105; -848.811
623.783;    5.937;  -12.107;   48.193
624.056;  -20.230; -254.120; -280.783
624.330;   41.191;   63.888;   -3.797
624.604;   39.729; -271.116; -355.790
624.877;   79.614;  180.890;   26.198
625.151;   40.749; -249.114; -238.794
625.425;  -26.653; -150.103; -283.814
625.698;  -48.170; -367.119; -374.785
625.972;  -76.034; -799.110; -765.802
626.245;   72.056;  685.884;  484.210
626.519;  -48.875; -426.120; -340.784
626.792;  -45.584; -192.107; -380.807
627.066;  -84.699; -485.122; -662.779
627.339; -106.188; -736.110; -663.802
627.613;   40.023;  351.880;  148.216
627.886;   42.918;  187.891; -612.803
628.160;  -13.531;  312.880; -161.783
628.433;  -85.068; -695.125; -703.775
628.706;  -88.475; -517.120; -615.784
628.979;   26.688;  296.876;  117.223
629.253;  -92.390; -785.119; -833.786
629.526;  338.341; -334.126; -253.772
629.799;  320.795; -641.123; -479.778
630.072;  147.573; -497.128; -516.769
630.346;  -59.669;-1115.116;-1080.790
630.619;  413.367; -467.107; -545.808
630.892;  580.579;  709.889;  593.200
631.165;  316.545;  790.896;  679.187
631.438;  -63.430;-1092.112;-1055.798
631.711;   33.849;  453.877;  257.221
631.984;  -57.649; -523.117; -624.789
632.257;  -71.027; -636.117; -681.789
632.530;  -54.295; -412.119; -433.785
632.803;   19.247; -109.115;    7.207
633.076;  -70.883; -360.123; -422.777
633.349;   -5.098;  173.872;  121.231
633.622;  -43.871; -187.119; -240.785
633.895; -126.930; -903.120; -823.783
634.167;  -66.957; -496.126; -525.773
634.440;  -16.037;  -19.116; -137.792
634.713;  -15.491;  -22.119; -120.786
634.986;   78.891;  593.871;  453.233
635.258;  -74.480; -507.115; -597.793
635.531;   96.969;  742.882; -343.788
635.804;  -26.775; -303.117; -318.789
636.077;  -92.241; -830.116; -852.791
636.349;  -10.957; -586.115; -474.793
636.622;  381.640; 1695.874; 1392.228
636.894;  233.650; -474.120; -909.784
637.167;  135.059; -836.127; -789.771
637.439;   21.530; -278.128; -213.770
637.712;  -59.808; -312.126; -293.772
637.984;  -84.940; -635.116; -707.791
638.257;  370.143;  515.877;  488.222
638.529;  554.483; -881.125; -924.776
638.802;  238.522; -508.128; -449.769
639.074; -106.618; -927.122; -952.781
639.346; -115.333; -942.135; -930.757
639.619;   -6.024;  -79.142; -319.744
639.891;   10.176;  -83.122; -168.779
640.163;  -68.597; -689.122; -756.780
640.435;   19.254;  273.878;  103.220
640.708;    9.956;  -72.122; -132.780
640.980;  -35.367; -366.122; -362.781
641.252;  164.735;  -25.121;  -71.781
641.524; 1719.612;  580.879;  573.219
641.796; 1760.614;-1094.121; -907.782
642.068;  305.316; -191.121; -300.782
642.340;  -44.657; -486.121; -566.783
642.613;   39.569;  294.880;  323.217
642.885;  -83.679; -787.120; -878.783
643.157;  -60.302; -810.120; -658.784
643.428;   64.300;  170.880;  218.216
643.700;  -61.773; -498.120; -425.784
643.972;  -41.596;  -16.119; -133.785
644.244;  -82.194; -474.119; -559.785
644.516;  -43.768; -250.119; -114.786
644.788;   54.459;  662.881;  548.214
645.060;  -29.214;  -12.119; -124.786
645.332;  -86.237; -525.118; -535.787
645.603;   38.490;  479.882;  342.213
645.875;  -69.508; -334.118; -369.787
646.147;  150.394; 1487.882; 1242.212
646.418;  -67.155; -931.117; -918.788
646.690;  121.747; -714.117; -715.789
646.962;   23.874; -413.117; -451.789
647.233;  -18.749;   15.883;   11.211
647.505;  -96.797; -595.117; -475.790
647.776;   19.905;  328.884;  229.210
648.048;  -14.768; -248.116; -418.790
648.320;  -68.541; -752.116; -679.791
648.591; -143.390;-1055.116; -958.791
648.862;  -86.163; -505.116; -577.792
649.134;   14.914;  115.885;  198.208
649.405;  -37.434; -661.115; -618.792
649.677;  -59.132; -475.115; -598.793
649.948;   -0.805; -181.115; -296.793
650.219;   -7.678;  -37.115; -147.793
650.491;  -90.252; -431.114; -520.794
650.762; -110.275; -705.114; -731.794
651.033;  -70.773; -437.114; -424.795
651.304;  -80.496; -743.114; -728.795
651.576;  -71.219; -680.114; -645.795
651.847;  -41.017; -250.113; -140.796
652.118;  -25.365;  -32.113; -189.796
652.389;  -92.713; -639.113; -722.796
652.660;  -45.387; -147.113;  -89.797
652.931; -127.835; -897.112; -871.797
653.202;  -82.833; -382.112; -541.798
653.473;  -64.806; -633.112; -533.798
653.744;  152.246; -595.112; -590.798
654.015;  138.873; -356.112; -303.799
654.286;  -76.975; -642.111; -663.799
654.557;  -53.149; -586.111; -521.799
654.828; -146.672;-1114.111;-1088.800
655.099;  -85.545; -404.111; -291.800
655.370; -100.168; -427.111; -543.801
655.641; -112.266; -656.110; -714.801
655.911;  -96.989; -618.110; -638.801
656.182;   39.863;  437.890;  387.198
656.453;   90.765;  830.890;  746.198
656.724;  -71.059; -466.110; -426.802
656.994;  -75.557; -553.109; -568.803
657.265;  -84.430; -862.109; -873.803
657.536;  -70.903; -500.109; -377.804
657.806; -114.376; -561.109; -593.804
658.077; -137.724; -866.109; -950.804
658.347;  -98.172; -523.108; -598.805
658.618; -106.671; -646.108; -694.805
658.888;  -24.044;  -41.108;  112.195
659.159;  -81.767; -432.108; -548.806
659.429;  -13.190; -292.108; -349.806
659.700;   17.437; -435.107; -390.807
659.970;  -22.411; -370.107; -359.807
660.241;   21.091; -754.107; -921.807
660.511;  471.493; -147.107; -174.808
660.781;   90.119; -793.106; -748.808
661.052;  -44.979; -222.106; -381.808
661.322;  -27.402;   21.894;   -9.809
661.592;   11.550;  257.894;  148.191
661.862;  -81.073; -369.106; -382.810
662.133;  -96.621; -551.105; -502.810
662.403; -106.894; -770.105; -676.810
662.673;  -54.468; -256.105; -213.811
662.943;  -84.641; -612.105; -551.811
663.213;  -16.639;  -85.105;  -81.811
663.483;  -81.812; -593.104; -568.812
663.753;  -37.160; -194.104; -152.812
664.023;  -14.758;   68.896;  -32.813
664.293;  -46.056; -319.104; -126.813
664.563; -110.154; -694.104; -648.813
664.833; -125.803; -743.103; -608.814
665.103; -122.151; -730.103; -793.814
665.373; -113.199; -766.103; -806.814
665.643;  -88.822; -863.103; -918.815
665.913;   27.530; -534.103; -714.815
666.182;  123.832; -685.102; -719.816
666.452;  250.584;  -22.102;  -89.816
666.722;  -24.415; -724.102; -784.816
666.992; -122.838; -948.102; -921.817
667.261;  -94.536; -824.102; -808.817
667.531;  187.516;  134.899;   45.183
667.801;  548.568; -440.101; -412.818
668.070;  245.620;  714.899;  697.182
668.340; -100.978; -883.101; -840.819
668.609;   90.049;  588.900;  301.181
668.879;  -73.600; -490.100; -558.819
669.149;  -67.198; -539.100; -516.820
669.418;  -91.221; -698.100; -726.820
669.688;  -30.369; -482.100; -666.820
669.957;   77.708; -423.099; -546.821
670.226;  -36.340; -268.099; -331.821
670.496;  -79.613; -431.099; -635.822
670.765;  -82.487; -418.099; -501.822
671.034; -141.910; -872.099; -828.822
671.304;   -9.883;   55.902; -111.823
671.573; -143.081;-1085.098; -957.823
671.842;   73.096; -380.098; -294.823
672.112;   23.773; -692.098; -586.824
672.381;    5.675; -239.098; -214.824
672.650; -115.548;-1005.097;-1021.825
672.919;  -81.647; -631.097; -507.825
673.188; -100.170; -681.097; -878.825
673.457; -142.393;-1101.097;-1143.826
673.726;  -76.091; -579.096; -646.826
673.995;  -63.114; -533.096; -479.826
674.265;  -22.937; -263.096; -333.827
674.534;   10.315; -183.096; -235.827
674.802;  -22.009; -618.096; -703.828
675.071;  867.118; -886.095; -801.828
675.340; 3695.895; -464.095; -339.828
675.609; 1228.672;  103.905;   82.171
675.878;   82.624; -949.095; -893.829
676.147;   32.676;  -26.095;   -8.829
676.416;   67.778; -210.094; -294.830
676.685;  712.455; 1000.906; -622.830
676.953;  101.956; -603.094; -452.831
677.222;  -31.717; -193.094; -273.831
677.491;  -28.115;  -24.094; -127.831
677.759;  -14.938;   11.907;  172.168
678.028;  -22.611; -279.093; -222.832
678.297;  -12.184;   71.907;  197.168
678.565; -129.107; -898.093; -944.833
678.834;  -53.906; -311.093; -268.833
679.102;  -78.754; -411.092; -391.834
679.371; -138.127; -898.092; -727.834
679.639; -123.300; -797.092; -786.834
679.908; -123.873; -794.092; -724.835
680.176; -147.696; -895.091; -941.835
680.445;  -77.069; -346.091; -352.835
680.713;  -23.092;  -58.091;  -23.836
680.982;  -90.916; -523.091; -525.836
681.250;  -99.514; -578.091; -507.837
681.518; -101.887; -534.090; -751.837
681.787;  -16.335; -204.090; -167.837
682.055;  -64.533; -490.090; -422.838
682.323; -138.181; -993.090; -992.838
682.591;   19.071; -216.090; -538.838
682.859;   85.547;    9.911;  -35.839
683.128;    8.049;  232.911;  497.161
683.396; -154.999;-1102.089;-1122.840
683.664;  -39.497; -241.089;   21.160
683.932;   -0.370;  144.911;  -76.840
684.200;  -66.018; -576.088; -320.841
684.468;  -17.641;  -73.088; -124.841
684.736;  -32.139; -214.088; -175.841
685.004; -112.738;-1024.088; -982.842
685.272;  -49.711; -880.088; -774.842
685.540;  -67.559; -499.087; -557.843
685.808;  -79.557; -651.087; -682.843
686.076; -100.030; -894.087; -969.843
686.343;  -52.403; -601.087; -815.844
686.611;   35.824; -195.087; -224.844
686.879;  379.150; -530.086; -553.844
687.147; 3107.752; -483.086; -480.845
687.414;  898.829;  -12.086; -169.845
687.682;   23.031; -658.086; -757.846
687.950;  289.308;  259.915;  263.154
688.217;   11.960; -792.085; -760.846
688.485;   -6.963; -632.085; -636.847
688.753;  492.239;  -11.085; -102.847
689.020;  155.115; -820.085; -851.847
689.288;  -99.508; -853.084; -787.848
689.555;  -26.956; -195.084; -148.848
689.823;  -52.504; -241.084; -345.849
690.090;  -78.527; -546.084; -651.849
690.358; -135.775; -877.084; -897.849
690.625;    0.277;  120.917;   45.150
690.892;  -79.697; -403.083; -369.850
691.160;  -17.420;   72.917;  -35.850
691.427;   -4.943;  141.917;  130.149
691.694; -119.416; -855.083; -929.851
691.962; -131.539;-1177.082;-1060.852
692.229;    7.463;  127.918;   56.148
692.496;   83.315;  130.918;  -49.852
692.763;   25.142; -164.082; -201.853
693.031;  -73.057; -739.082; -716.853
693.298;  -30.580; -509.081; -368.853
693.565;  265.372; -155.081; -163.854
693.832; 1198.374;   -5.081;   -9.854
694.099;  141.076; -643.081; -642.855
694.366;  -52.072; -882.081; -896.855
694.633;  -46.720; -920.080; -633.855
694.900;  706.281; 4367.920; -114.856
695.167;  410.708; -214.080; -380.856
695.434;  118.535; -646.080; -623.856
695.701;  209.787;  121.921;  -61.857
695.968;  447.164; -365.079; -361.857
696.234;  917.291; -415.079; -646.858
696.501;10427.868; -776.079; -614.858
696.768; 5591.695; -554.079; -617.858
697.035;  329.146; -632.078; -667.859
697.302;   33.098; -448.078; -552.859
697.568;    5.725; -458.078; -497.859
697.835;  -31.198; -683.078; -624.860
698.102;  -13.496; -498.078; -407.860
698.368;   68.856;  384.923;  396.139
698.635;  -37.717;  -47.077; -424.861
698.901;   -8.841; -240.077; -348.861
699.168;   68.261; -534.077; -456.862
699.435;   71.163;  -72.077;  -13.862
699.701;  -96.710; -868.076; -764.862
699.968;    3.492;  144.924; -441.863
700.234;  -86.831; -783.076; -822.863
700.500;  -55.954; -448.076; -539.864
700.767;   -8.427;   -1.075;   26.136
701.033; -123.176;-1015.075; -963.864
701.299;  -51.074; -450.075; -483.865
701.566;  107.453;  950.925;  763.135
701.832;   35.830;  -31.075;  -76.865
702.098;  -93.643;-1054.074;-1034.866
702.365;  -86.741;-1098.074;-1030.866
702.631;  -27.464;-1038.074;-1063.867
702.897; 1266.387; -765.074; -676.867
703.163; 2247.589;  348.926;  254.133
703.429;  163.216; -256.073; -273.868
703.695;  -19.432; -796.073; -792.868
703.961;   28.595; -214.073; -210.868
704.227;  -45.503; -630.073; -725.869
704.493;  125.574;  613.927;  510.131
704.759;  -24.424; -565.072; -540.870
705.025;   42.152; -203.072; -194.870
705.291;  -11.596; -666.072; -562.870
705.557;  184.031;  719.928;   34.129
705.823;   38.608; -742.072; -694.871
706.089;  149.910; -307.071; -326.871
706.355;  370.987; -315.071; -244.872
706.620; 5654.539; -776.071; -729.872
706.886; 8315.590; -309.071; -362.873
707.152;  798.192; -818.070; -973.873
707.418;    9.419;-1153.070;-1186.873
707.683;    4.021; -550.070; -530.874
707.949;  -31.627; -547.070; -578.874
708.215;   -1.075; -129.070; -207.874
708.480;  -33.598; -520.069; -420.875
708.746;  103.453;   68.931;   28.125
709.011;  -51.820; -578.069; -612.876
709.277;  -64.243; -538.069; -543.876
709.542;  -48.466; -428.069; -387.876
709.808;    7.486;  -59.068;   89.123
710.073;  -87.862; -577.068; -695.877
710.339;  -27.560; -242.068; -228.877
710.604;   48.092; -780.068; -845.878
710.869;  341.293; -277.068; -366.878
711.135;  -61.355; -715.067; -628.879
711.400;  -77.353; -507.067; -608.879
711.665;  -64.926; -404.067; -479.879
711.931;  -84.149; -661.067; -677.880
712.196; -112.772; -876.067; -954.880
712.461;  105.030; -402.066; -490.880
712.726;  137.706; -727.066; -771.881
712.991;  -84.942; -647.066; -664.881
713.256;  -30.340; -350.066; -332.882
713.521;  -56.513; -417.065; -381.882
713.787;  -59.086; -454.065; -472.882
714.052;  -12.634; -214.065; -400.883
714.317;  -91.132;-1045.065; -981.883
714.581; 1001.645; -374.065; -268.883
714.846; 1588.846; -822.064; -888.884
715.111;  158.673;  261.936;  257.116
715.376;  -24.975;  -86.064; -223.885
715.641;  -31.473; -365.064; -367.885
715.906;  286.829;   15.936; -551.885
716.171;  125.631;  221.937;  209.114
716.436;   34.258;  -78.063; -104.886
716.700; -104.216; -818.063; -692.886
716.965; -111.289; -794.063; -807.887
717.230;  -65.462; -339.063; -392.887
717.494;  -32.660;  -40.062; -134.888
717.759;  -87.308; -784.062; -640.888
718.024;    3.344;  269.938;  250.112
718.288;   67.396;  685.938;  395.111
718.553; -142.777; -803.062; -977.889
718.817; -146.626; -883.061; -899.889
719.082;  -32.149; -115.061; -125.890
719.346; -134.022;-1000.061; -947.890
719.611;  -29.370; -300.061; -255.891
719.875; -100.443; -568.060; -537.891
720.140;  -66.441; -453.060; -603.891
720.404;   27.486; -136.060; -249.892
720.668;  770.962; -475.060; -411.892
720.933;  336.464;  146.940;  137.108
721.197;  -99.034; -667.059; -600.893
721.461; -121.307; -851.059; -826.893
721.725;  -14.855;  -21.059; -250.894
721.990;  -57.128; -284.059; -204.894
722.254;  -38.926;  -26.059; -108.894
722.518;  -61.724; -286.058; -442.895
722.782;  -93.523; -743.058; -594.895
723.046;  122.454;  614.942;  570.105
723.310;   17.906;  374.942;  210.104
723.574; -103.242; -654.058; -614.896
723.838;  -92.740; -576.057; -642.897
724.102;  -42.763; -226.057; -239.897
724.366; -132.761;-1032.057; -978.897
724.630;  -88.285; -749.057; -571.898
724.894;  -71.883; -722.057; -514.898
725.158;  -10.656;   38.944; -295.898
725.422;  -46.779; -394.056; -327.899
725.685;  -68.902; -441.056; -349.899
725.949;  -78.800; -566.056; -519.900
726.213;  -75.798; -732.056; -811.900
726.477;  147.479;-1020.055; -933.900
726.740;  136.555; -274.055; -104.901
727.004;  322.707; -384.055; -510.901
727.268; 3360.434; -442.055; -400.901
727.531; 1035.211; -961.055; -775.902
727.795;  -36.237; -713.054; -673.902
728.059;  -67.785; -552.054; -557.903
728.322;  -79.258; -841.054; -669.903
728.586;   25.693; -692.054; -701.903
728.849;  -88.505; -695.053; -756.904
729.112;  -99.628; -812.053; -912.904
729.376; -111.001; -959.053; -905.904
729.639;  -68.799; -536.053; -536.905
729.903; -122.197; -733.053; -699.905
730.166;  -58.120; -437.052; -399.906
730.429;  -21.518; -317.052; -468.906
730.693;  -70.267; -355.052; -894.906
730.956;  179.785;  810.948;  651.093
731.219;  675.712; -310.052; -103.907
731.482;  113.964;-1003.051; -894.907
731.745;  115.916; -794.051; -935.908
732.009;   26.268;  -30.051;   50.092
732.272;  -94.755; -904.051; -771.909
732.535;  -41.554; -300.051; -310.909
732.798; -145.777;-1083.050;-1166.909
733.061;  -45.550; -430.050; -456.910
733.324;   15.627;   31.950; -180.910
733.587;   70.604;  290.950;  365.090
733.850;  -69.394; -973.049;-1050.911
734.113;   33.583;   33.951;   32.089
734.376;   -7.740; -328.049; -447.912
734.639;  207.536; 1188.951; 1011.088
734.901;   73.363; -180.049; -402.912
735.164;  441.715; -883.048; -837.913
735.427; 1291.242; -166.048; -355.913
735.690;  131.494; -205.048; -234.913
735.952;  -26.329; -923.048; -925.914
736.215;  -20.752;-1113.048;-1009.914
736.478;   45.674; -771.047; -774.915
736.740;  207.026;   33.953;  129.085
737.003;  582.478; -658.047; -672.915
737.266; 3890.505;  -94.047;   46.084
737.528;  431.382; -682.047; -660.916
737.791;  347.084; -316.046; -327.916
738.053;  780.986;  465.954;  649.083
738.316;10540.363; -162.046; -136.917
738.578; 8297.264; -770.046; -736.918
738.841;  468.691; -382.046; -446.918
739.103;  178.743; -875.045; -777.918
739.365;  500.770;   79.955;  -69.919
739.628;   17.022; -884.045; -805.919
739.890;  -30.051; -758.045; -710.919
740.152;  -32.874; -692.044; -754.920
740.414;   -4.023; -408.044; -359.920
740.677;  -37.346; -785.044; -634.921
740.939;  -40.594; -587.044; -487.921
741.201;  246.083; -432.044; -572.921
741.463;   46.885; -689.043; -745.922
741.725;   28.587;  -21.043; -199.922
741.987;   51.114;  220.957;  116.078
742.249;   -3.534; -751.043; -859.923
742.511;  190.467; -703.043; -794.923
742.773;   16.519; -546.042; -546.924
743.035;  124.596;  796.958;  533.076
743.297;  -48.252; -963.042;-1013.924
743.559;  711.575; -278.042; -262.925
743.821;   73.927; -735.042; -744.925
744.083;   14.904;  -44.041; -149.925
744.345;  -80.570; -869.041; -892.926
744.607;   34.032;   75.959;  122.074
744.868;  -54.166; -490.041; -554.927
745.130;  -96.764; -994.041;-1008.927
745.392;   29.388;   -1.040;  -44.927
745.653;  -12.360; -411.040; -378.928
745.915;  142.417;  896.960;  631.072
746.177;   44.294;   35.960;  -43.928
746.438;   13.820; -428.040; -543.929
746.700;  -34.978; -947.039; -988.929
746.961;   -0.376; -659.039; -740.930
747.223;  119.726; -190.039;  -74.930
747.484;   88.103; -391.039; -471.930
747.746;  136.380;  -23.038; -106.931
748.007;  104.507; -647.038; -689.931
748.269;  280.833; -468.038; -440.931
748.530;  475.035; -852.038; -638.932
748.791;  247.187; -354.038; -420.932
749.053;  430.314;  286.963;  163.067
749.314;  454.866; -236.037; -169.933
749.575;  499.368; -945.037; -905.933
749.836;  851.020; -217.037;   86.066
750.098; 2192.697;  -60.037;  -21.934
750.359;34881.223;  414.964;  555.066
750.620;10013.025; -121.036; -220.935
750.881; 1017.077; -585.036; -513.935
751.142; 1332.304; -950.036; -938.936
751.403;15944.481; -789.036; -705.936
751.664; 8061.433;-1034.035; -999.936
751.925;  509.885; -175.035; -262.937
752.186;  291.036; -298.035; -278.937
752.447;  129.438; -590.035; -445.937
752.708;   63.090; -532.035; -648.938
752.969;    2.192; -566.034; -576.938
753.230;   -7.556; -777.034; -672.939
753.491;   -9.204; -650.034; -631.939
753.751;   57.248;  109.966;   19.061
754.012;   95.625;  258.967;  181.060
754.273;   63.626; -174.033;  -71.940
754.534;    2.278; -487.033; -580.940
754.794;  -85.045; -926.033; -911.941
755.055;  132.632; 1051.967;  881.059
755.316;  -35.291; -700.032; -566.942
755.576;  -12.989; -606.032; -576.942
755.837;  -40.537; -527.032; -695.942
756.097;  -36.236; -530.032; -564.943
756.358;  -80.359; -725.032; -770.943
756.618;  -52.957; -705.031; -641.943
756.879;    9.320; -254.031; -349.944
757.139; -119.228;-1098.031;-1116.944
757.400;  -54.201; -538.031; -553.945
757.660;   -7.849; -365.031; -401.945
757.920;    9.103; -266.030; -228.945
758.181;  -26.871; -468.030; -351.946
758.441;  -86.544; -870.030; -809.946
758.701;  -41.817; -308.030; -215.946
758.961;  -13.790; -220.030; -278.947
759.222;  -49.613; -574.029; -502.947
759.482;  -76.486; -683.029; -723.948
759.742;  -74.034; -706.029; -547.948
760.002;   13.042;  -83.029; -143.948
760.262;   35.819;   50.972;  182.051
760.522;  -37.604; -498.028; -574.949
760.782;  -48.852; -738.028; -612.949
761.042;  -19.500; -618.028; -573.950
761.302;   65.602;   55.972;  -18.950
761.562;   52.804; -164.027; -154.951
761.822;   77.906; -710.027; -551.951
762.082;  -30.093;-1104.027;-1093.951
762.342;   83.584; -328.027; -403.952
762.601;   93.886; -567.027; -506.952
762.861;  355.138; -281.026; -207.952
763.121;  397.640; -406.026; -411.953
763.381; 7125.092; -499.026; -485.953
763.640; 9114.669; -139.026; -307.954
763.900;  397.845; -242.026; -203.954
764.160;  101.097; -458.025; -491.954
764.419;   -2.301; -726.025; -782.955
764.679;  -63.474; -795.025; -726.955
764.939;   -7.697; -124.025; -210.955
765.198;  -62.770; -608.025; -563.956
765.458;  -86.868; -710.024; -612.956
765.717;  -67.141; -454.024; -590.957
765.976;  -49.665; -428.024; -411.957
766.236;  -71.263; -475.024; -610.957
766.495;   22.039;  260.977;   73.042
766.755;  -92.259;-1090.023; -987.958
767.014;    9.443; -594.023; -665.958
767.273;  -47.530; -373.023; -397.959
767.533;  -51.353; -228.023; -307.959
767.792;  -18.327; -151.022; -188.960
768.051;  -55.075; -228.022; -276.960
768.310;  -74.748; -546.022; -650.960
768.569;   -1.921; -161.022;    4.039
768.828;  -24.769; -285.022; -363.961
769.088; -109.142;-1050.021; -942.961
769.347;  -85.790; -755.021; -599.962
769.606;  -99.189; -876.021; -857.962
769.865; -107.012;-1016.021;-1033.963
770.124;    3.640; -411.021; -336.963
770.383;  -45.583; -778.020; -910.963
770.641;   -8.831; -398.020; -400.964
770.900;  -64.729; -953.020; -846.964
771.159;  -45.827; -851.020; -951.964
771.418;   12.550; -917.020; -779.965
771.677;  138.976; -224.019; -293.965
771.936;  157.103; -794.019; -865.966
772.194; 1987.855; -465.019; -437.966
772.453;11899.307; -213.019; -391.966
772.712;  888.034;  416.982;  329.033
772.970;  134.086;   32.982;   63.033
773.229;   90.738;  -22.018;  102.033
773.488;  -69.811; -814.018; -770.968
773.746;   63.891;  296.982;  335.032
774.005;   -1.582;  190.983;  -22.969
774.263;    1.845;  243.983;  177.031
774.522;  -36.378; -422.017; -548.969
774.780;  -72.701; -484.017; -417.970
775.039;  -82.699; -551.017; -531.970
775.297;  -19.722; -135.016; -351.970
775.555; -112.846; -489.016; -612.971
775.814; -109.919; -618.016; -570.971
776.072; -115.167; -749.016; -740.971
776.330; -104.165; -630.016; -520.972
776.589; -104.788; -703.015; -721.972
776.847; -122.636; -645.015; -624.973
777.105; -178.984;-1016.015;-1032.973
777.363;  -87.083; -459.015; -454.973
777.621; -131.281; -660.015; -717.974
777.879;  -23.029;  -42.014;   32.026
778.138;  -96.627; -554.014; -717.974
778.396;  -97.850; -585.014; -526.975
778.654; -158.623;-1015.014; -970.975
778.912;  -79.646; -269.014; -371.976
779.170; -134.994; -880.013; -803.976
779.427; -137.368; -922.013; -897.976
779.685; -128.966; -880.013; -832.977
779.943;  -87.214; -654.013; -593.977
780.201; -146.162; -964.012; -883.978
780.459; -116.835; -651.012; -610.978
780.717;  -81.883; -440.012; -390.978
780.974;  -86.606; -449.012; -490.979
781.232;  -78.030; -358.012; -338.979
781.490;  -82.678; -551.011; -472.979
781.747;  -96.376; -555.011; -476.980
782.005;   17.176;  462.989;  254.020
782.263; -156.247; -542.011;-1004.981
782.520;  -79.920; -326.011; -501.981
782.778; -161.243;-1013.010;-1051.981
783.035; -159.691; -962.010; -938.982
783.293;  -60.665; -248.010; -206.982
783.550;  -65.438; -134.010; -198.982
783.808; -127.911; -764.010; -776.983
784.065; -155.359; -745.009; -874.983
784.322;  -32.157;   25.991;  -86.984
784.580; -142.155; -915.009; -771.984
784.837;  -84.103; -392.009; -466.984
785.094; -123.277; -783.009; -762.985
785.352;  -60.125; -304.008; -404.985
785.609; -112.498; -934.008; -839.985
785.866;  -78.346; -345.008; -401.986
786.123;  -73.694; -639.008; -583.986
786.380;  -89.567; -665.008; -604.987
786.637;  -43.715; -225.007; -380.987
786.895;  -25.788; -456.007; -543.987
787.152;  -38.562; -135.007; -267.988
787.409;  -46.460; -123.007; -225.988
787.666;  -87.408; -299.006; -378.988
787.923; -107.706; -616.006; -695.989
788.179;  -98.254; -551.006; -584.989
788.436; -108.002; -585.006; -585.990
788.693;  -29.750;  -92.006;  -87.990
788.950;  104.676; -125.005; -112.990
789.207;  223.703; -381.005; -372.991
789.464;  -52.395; -161.005; -301.991
789.720;  -17.693;  150.995;  110.009
789.977; -153.791;-1003.005; -671.992
790.234;  -40.739;   44.996;  -66.992
790.490; -147.862; -884.004;-1031.993
790.747;  -25.310;  -85.004;   22.007
791.004;  -32.484; -426.004; -348.993
791.260;  -77.932; -430.004; -560.994
791.517; -103.680; -843.003; -788.994
791.773;  -48.003; -379.003; -342.994
792.030; -118.176; -596.003; -660.995
792.286; -100.299; -686.003; -636.995
792.543;  -13.547;  -74.002; -159.995
792.799;  -64.321; -584.002; -382.996
793.055; -161.544;-1179.002;-1210.996
793.312;  -85.692; -827.002; -816.997
793.568;  -44.540; -746.002; -599.997
793.824;    9.887; -226.001; -284.997
794.081;   21.964; -447.001; -508.998
794.337;   76.141; -664.001; -561.998
794.593; 1139.193; -319.001; -271.999
794.849; 6906.844; -746.001; -772.999
795.105;  398.221; -270.000; -261.999
795.361;   11.123; -490.000; -457.000
795.617;  -46.825; -875.000; -945.000
795.873;  -41.300; -360.000; -407.000
796.129;  -35.550; -368.000; -306.000
796.385;  -19.425; -124.000; -156.000
796.641;   61.825;  412.000;  550.000
796.897;  -83.575; -666.000; -635.000
797.153;   64.900;  453.000;  357.000
797.409; -101.575; -785.000; -868.000
797.665;  -62.875; -625.000; -732.000
797.921;  -70.925; -775.000; -762.000
798.176;  -46.875; -744.000; -747.000
798.432;  -56.000; -824.000; -596.000
798.688;  -58.325;-1174.000;-1078.000
798.943;   96.950; -165.000; -147.000
799.199;    8.800;-1005.000; -959.000
799.455;  235.675;  369.000;  316.000
799.710;  151.825; -813.000; -380.000
799.966;  322.525; -162.000; -160.000
800.221;  478.375; -638.000; -721.000
800.477; 9762.825; -743.000; -710.000
800.732;10479.750; -773.000; -800.000
800.988;  687.725;  205.000;  -19.000
801.243; 1695.950; -454.000; -344.000
801.498; 8805.825; -814.000; -739.000
801.754;  571.550; -289.000; -163.000
802.009;  111.300; -257.000; -335.000
802.264;  -20.750; -967.000;-1033.000
802.520;   21.625;  222.000;   -3.000
802.775;  -37.900; -524.000; -359.000
803.030;   50.250;  395.000;  356.000
803.285;  -97.125; -840.000; -903.000
803.540;  -49.425; -686.000; -699.000
803.795;  -32.375; -648.000; -583.000
804.051;  -30.875; -279.000; -346.000
804.306;   25.175;  168.000;  128.000
804.561;  128.025;  451.000;  362.000
804.816;  132.225;  714.000;  861.000
805.071;    1.200; -185.000; -280.000
805.325;  207.500; -257.000; -427.000
805.580; -100.925; -841.000; -877.000
805.835;  -10.325; -204.000; -297.000
806.090;  -74.500; -760.000; -676.000
806.345;   -4.800; -344.000; -264.000
806.600;  -38.350; -549.000; -632.000
806.854;   -7.550; -408.000; -538.000
807.109;  -12.175; -493.000; -577.000
807.364;   12.950; -407.000; -328.000
807.618;    8.050; -415.000; -381.000
807.873;   60.000; -470.000; -494.000
808.128;  105.225; -257.000; -518.000
808.382;  115.775; -224.000; -332.000
808.637;   86.900; -440.000; -511.000
808.891;  187.425; -257.000; -180.000
809.146;  105.175; -902.000; -794.000
809.400;  254.250; -848.000; -923.000
809.654;  333.550; -779.000; -551.000
809.909;  483.225; -841.000; -927.000
810.163; 5650.950; -813.000; -651.000
810.418;17661.275; -940.000; -861.000
810.672; 1136.525; -685.000; -690.000
810.926;  733.000; -993.000; -973.000
811.180; 1382.200; -439.000; -372.000
811.434;31615.400;  240.000;  135.000
811.689;15655.250; -231.000; -365.000
811.943;  734.300; -936.000; -953.000
812.197;  377.825; -893.000; -671.000
812.451;  167.325; -379.000; -514.000
812.705;   -7.475; -809.000; -619.000
812.959;    7.375; -263.000; -388.000
813.213;    2.450; -283.000; -209.000
813.467;   71.600;  470.000;  253.000
813.721;  -87.225; -764.000; -792.000
813.975; -107.150; -826.000; -877.000
814.229;   42.400;  430.000;  353.000
814.482;  -63.225; -517.000; -566.000
814.736; -113.850; -766.000; -744.000
814.990; -143.875; -779.000; -872.000
815.244;  -37.925; -228.000; -285.000
815.497;  -77.025; -636.000; -601.000
815.751;  -27.400; -141.000;   82.000
816.005;  -72.300; -470.000; -586.000
816.258;  -67.000; -510.000; -363.000
816.512;  -93.675; -693.000; -610.000
816.766;   -7.075;  121.000;  157.000
817.019;   24.650;  148.000;  149.000
817.273;  -98.400;-1000.000; -802.000
817.526;  -26.325; -206.000; -173.000
817.779;  -59.975;-1049.000; -960.000
818.033;  -69.650; -693.000; -807.000
818.286; -128.975; -725.000; -792.000
818.540;  -86.775; -403.000; -403.000
818.793;  -65.925; -402.000; -489.000
819.046; -105.450; -582.000; -520.000
819.299;  -34.100; -157.000; -166.000
819.553; -107.025; -552.000; -592.000
819.806; -158.250;-1016.000; -838.000
820.059;  -54.675; -334.000; -354.000
820.312;   13.900;  152.000;  185.000
820.565;  -13.250;  110.000;  -27.000
820.818;  -48.650;  -59.000; -173.000
821.071; -159.300;-1041.000; -957.000
821.324;  -96.725; -536.000; -540.000
821.577;  -84.600; -457.000; -483.000
821.830;  -61.625; -270.000; -172.000
822.083; -124.500; -733.000; -288.000
822.336;  -45.725; -261.000; -167.000
822.589; -127.675; -805.000; -688.000
822.842; -133.475; -875.000; -770.000
823.094; -175.625;-1076.000;-1114.000
823.347; -128.325; -925.000; -729.000
823.600;   -3.125;  402.000;  187.000
823.853;  -43.800; -311.000; -267.000
824.105;  -78.125; -331.000; -575.000
824.358; -102.225; -617.000; -716.000
824.611;   22.850;  234.000;   40.000
824.863;  -41.775; -612.000; -591.000
825.116;   51.525;  -33.000;   27.000
825.368;   62.450; -366.000; -372.000
825.621;  166.900; -186.000; -240.000
825.873;   86.925; -704.000; -737.000
826.126;  516.075; -669.000; -641.000
826.378;11106.475; -389.000; -505.000
826.630; 3469.025; -890.000; -898.000
826.883;   72.675; -754.000; -693.000
827.135;   58.075; -279.000; -270.000
827.387; -111.375; -893.000; -839.000
827.639;  -34.450;  -86.000;   32.000
827.892; -119.375; -742.000; -582.000
828.144; -140.025; -848.000; -804.000
828.396;  -44.325;  104.000;  -80.000
828.648;  -94.525; -440.000; -333.000
828.900; -130.550; -702.000; -795.000
829.152; -119.325; -684.000; -683.000
829.404;  -58.525; -215.000; -267.000
829.656;   -5.025;  321.000;  214.000
829.908;  -26.800;  393.000;  229.000
830.160; -160.425;-1064.000;-1047.000
830.412;  -94.500; -481.000; -430.000
830.664; -112.375; -557.000; -665.000
830.916;  -75.300; -268.000; -206.000
831.167; -171.400;-1073.000; -951.000
831.419; -108.550; -623.000; -566.000
831.671; -150.250; -764.000; -809.000
831.923;  -91.625; -311.000; -447.000
832.174;  -76.525; -273.000; -331.000
832.426; -129.500; -493.000; -582.000
832.678; -185.275;-1043.000;-1091.000
832.929; -152.900; -947.000; -935.000
833.181;  -66.350; -575.000; -677.000
833.432;  -49.550;  -59.000; -186.000
833.684;  -18.325;  112.000;  -27.000
833.935; -103.875; -610.000; -566.000
834.187; -120.475; -829.000; -823.000
834.438;  -44.625;  -58.000;  -25.000
834.689;  -36.725; -255.000; -123.000
834.941;  -71.500; -343.000; -244.000
835.192;  -90.150; -590.000; -533.000
835.443;  -91.275; -419.000; -506.000
835.695;  -25.275;  138.000;  -16.000
835.946;  -92.075; -608.000; -378.000
836.197;  -94.850; -599.000; -622.000
836.448;  -91.025; -528.000; -395.000
836.699;  -47.825; -253.000; -341.000
836.950;    8.875;   72.000;    7.000
837.201; -140.275;-1003.000; -987.000
837.452;  -51.175; -356.000; -170.000
837.703; -105.250; -791.000; -737.000
837.954;  -32.850; -205.000; -365.000
838.205;  -92.325;-1029.000;-1008.000
838.456;  148.175; -196.000; -282.000
838.707;   14.325; -423.000; -519.000
838.958;   -3.025; -634.000; -647.000
839.209;  268.300;   18.000;   40.000
839.460;  122.425; -439.000; -201.000
839.710;  167.800; -135.000; -297.000
839.961;  409.000;  730.000;  612.000
840.212;  342.325; -382.000; -497.000
840.462; 1048.375; -328.000; -277.000
840.713;16881.550; -571.000; -536.000
840.964; 8415.250;  -62.000; -143.000
841.214;  540.850; -384.000; -624.000
841.465;  541.875; -214.000; -141.000
841.715;  513.400; -417.000; -380.000
841.966;  633.400; -746.000; -685.000
842.216; 7479.475; -330.000; -431.000
842.466;34617.525; -169.000; -313.000
842.717; 2425.325; -964.000; -952.000
842.967;  305.550; -635.000; -641.000
843.217;  267.950;   20.000;   28.000
843.468;   83.575; -104.000; -132.000
843.718;  -34.725; -718.000; -726.000
843.968;  -89.975; -837.000; -765.000
844.218;   20.100; -315.000; -262.000
844.469;  -37.650; -577.000; -561.000
844.719; -112.800; -537.000; -682.000
844.969; -105.350; -550.000; -580.000
845.219; -138.850; -814.000; -862.000
845.469;  -71.350; -392.000; -342.000
845.719; -131.675; -792.000; -884.000
845.969;  -13.675;  119.000;  174.000
846.219; -120.325; -738.000; -720.000
846.469;   12.575;  464.000;  432.000
846.718;  -49.400; -115.000;   31.000
846.968; -126.675; -827.000; -827.000
847.218;  -51.925; -224.000; -371.000
847.468; -110.500; -586.000; -555.000
847.718; -125.825; -827.000; -798.000
847.967; -133.875; -826.000; -915.000
848.217;  -88.600; -449.000; -569.000
848.467;  -54.225; -405.000; -376.000
848.716;  -94.050; -708.000; -725.000
848.966;  -10.600; -372.000; -358.000
849.215;  -65.700; -428.000; -419.000
849.465;  -91.125; -785.000; -615.000
849.714; -121.200;-1132.000;-1150.000
849.964;  -72.675; -551.000; -613.000
850.213;  -27.100; -393.000; -355.000
850.463;   70.550;  137.000;  340.000
850.712;   14.325; -542.000; -567.000
850.961;   31.350; -739.000; -678.000
851.211;   98.650; -513.000; -504.000
851.460;  160.725; -635.000; -650.000
851.709;  542.800;  -25.000;   18.000
851.958; 9412.250; -912.000; -750.000
852.208;14242.850; -859.000; -879.000
852.457;  546.650; -181.000;  -13.000
852.706;   71.225; -791.000; -823.000
852.955;   34.200; -507.000; -528.000
853.204;  -69.525; -521.000; -461.000
853.453;  -75.900; -418.000; -458.000
853.702; -125.325; -660.000; -750.000
853.951; -100.000; -532.000; -520.000
854.200; -104.550; -613.000; -562.000
854.449; -138.600; -695.000; -661.000
854.698;  -86.050; -340.000; -279.000
854.946;  -59.975; -181.000; -284.000
855.195; -160.675; -843.000; -868.000
855.444;  -96.525; -395.000; -420.000
855.693; -110.900; -345.000; -432.000
855.941; -106.650; -387.000; -516.000
856.190;  -48.825; -256.000; -382.000
856.439; -122.700; -652.000; -703.000
856.687;  -68.425;  -99.000;  -72.000
856.936; -123.350; -621.000; -323.000
857.184; -168.225;-1067.000;-1020.000
857.433;  -95.900; -423.000; -512.000
857.681; -161.950; -989.000; -953.000
857.930;  -83.500; -282.000; -433.000
858.178; -170.600; -856.000; -929.000
858.427; -146.400; -802.000; -781.000
858.675; -118.600; -377.000; -544.000
858.923; -122.025; -527.000; -819.000
859.172; -175.600;-1094.000;-1070.000
859.420;  -87.075; -339.000; -239.000
859.668; -131.475; -624.000; -628.000
859.916;  -21.175;  109.000;  115.000
860.164; -114.975; -699.000; -603.000
860.413;  227.925; -878.000; -696.000
860.661;  238.650; -709.000; -577.000
860.909;  -90.525; -339.000; -325.000
861.157;  -78.750; -277.000; -444.000
861.405; -112.075; -534.000; -670.000
861.653;   14.725;  310.000;  310.000
861.901;  127.150; -543.000; -613.000
862.149;   21.900; -801.000; -824.000
862.396;  -78.675; -297.000; -187.000
862.644;  -83.750; -368.000; -347.000
862.892;  -40.425;   98.000;  138.000
863.140; -125.425; -549.000; -530.000
863.388; -153.825; -815.000; -759.000
863.635; -122.975; -642.000; -601.000
863.883;  -29.400;  231.000;  190.000
864.131;  -91.475; -288.000; -357.000
864.378; -129.625; -675.000; -540.000
864.626; -101.125; -347.000; -415.000
864.873; -107.675; -556.000; -505.000
865.121; -131.925; -714.000; -799.000
865.368;  -46.625; -173.000;   75.000
865.616;  -43.675;  -33.000;  -40.000
865.863;  -72.850; -462.000; -506.000
866.111;  -96.500; -795.000; -824.000
866.358;   38.500; -426.000; -420.000
866.605; 2183.400;  -64.000; -804.000
866.853; 2759.275; -621.000; -537.000
867.100;   -7.475; -728.000; -775.000
867.347;  -87.900; -672.000; -611.000
867.594;  -79.600; -740.000; -714.000
867.841;   74.800;   97.000;   17.000
868.089; -142.125; -746.000; -698.000
868.336; -117.325; -477.000; -420.000
868.583; -135.375; -637.000; -741.000
868.830;  -62.425; -131.000; -170.000
869.077; -163.375; -859.000; -787.000
869.324; -121.575; -502.000; -458.000
869.571; -122.875; -398.000; -430.000
869.818; -120.000; -485.000; -439.000
870.065; -108.100; -439.000; -513.000
870.311;  -96.650; -456.000; -542.000
870.558; -113.925; -332.000; -311.000
870.805;  -86.150; -320.000; -384.000
871.052; -107.775; -494.000; -369.000
871.298;  -63.525; -204.000; -131.000
871.545;  -66.250; -151.000; -185.000
871.792;  -94.875; -173.000; -222.000
872.038;  -76.025;   43.000; -126.000
872.285; -127.975; -496.000; -387.000
872.532;  -98.650; -357.000; -387.000
872.778;   12.300;  556.000;  403.000
873.025;  -95.100; -384.000; -359.000
873.271;   14.975;  501.000;  578.000
873.517;  -31.100; -133.000; -209.000
873.764;  -33.025; -193.000;  -80.000
874.010;  -59.250; -143.000; -230.000
874.257;  -55.250;  123.000;   90.000
874.503; -143.875; -579.000; -479.000
874.749;  -64.950;   31.000;  275.000
874.995;  -68.825;  -80.000;  -20.000
875.242; -123.225; -540.000; -478.000
875.488; -108.500; -414.000; -439.000
875.734;  -57.575; -106.000; -234.000
875.980;  122.400; -872.000;-1032.000
876.226;  385.800; -157.000; -255.000
876.472;  -10.950;  343.000;  237.000
876.718;  -53.000;  184.000;  158.000
876.964;  -36.525;   56.000;   55.000
877.210; -148.950; -547.000; -677.000
877.456; -132.575; -630.000; -557.000
877.702; -176.075; -821.000; -832.000
877.948; -113.950; -377.000; -497.000
878.193;   13.825;  361.000;  255.000
878.439;  -98.800; -487.000; -472.000
878.685;  -92.975; -272.000; -343.000
878.931; -124.575; -618.000; -676.000
879.176;  -89.825; -201.000; -201.000
879.422; -177.900; -933.000; -820.000
879.668;   44.700;   10.000;   79.000
879.913;  162.025;   53.000;  137.000
880.159;  -42.050; -112.000;  -17.000
880.404;  -51.450; -152.000; -162.000
880.650;  -41.450;   91.000;  141.000
880.895; -157.775; -670.000; -710.000
881.141; -103.750; -454.000; -428.000
881.386; -142.700; -503.000; -658.000
881.631;  -91.800; -311.000; -166.000
881.877;  -37.250;  112.000;  -13.000
882.122; -135.650; -684.000; -600.000
882.367;  -86.750; -136.000; -186.000
882.612;  -75.750;  -80.000; -176.000
882.858; -170.000; -877.000; -823.000
883.103; -105.150; -297.000; -267.000
883.348; -148.625; -759.000; -852.000
883.593; -147.650; -677.000; -602.000
883.838;  -58.200; -311.000;  -24.000
884.083;   19.975;  353.000;  288.000
884.328;  -88.925; -564.000; -545.000
884.573;  -58.925; -196.000; -143.000
884.818;  140.550; -694.000; -531.000
885.063;  199.175; -348.000; -315.000
885.308; -115.375; -475.000; -398.000
885.553;   -3.300;  245.000;  325.000
885.797; -124.375; -545.000; -615.000
886.042;  -58.075;    8.000;   58.000
886.287;  -79.450; -253.000; -211.000
886.532;  -59.700;   26.000;  204.000
886.776; -104.075; -407.000; -525.000
887.021; -135.375; -621.000; -574.000
887.265; -153.375; -685.000; -689.000
887.510; -137.100; -557.000; -496.000
887.755;  -89.525; -194.000; -164.000
887.999; -137.300; -552.000; -575.000
888.244;  -62.775;  -58.000;  161.000
888.488;  -11.750;  371.000;  393.000
888.732; -117.450; -368.000; -520.000
888.977; -126.100; -622.000; -567.000
889.221; -159.625; -683.000; -659.000
889.465; -116.700; -422.000; -566.000
889.710;  -79.400;  -56.000; -299.000
889.954;   -1.925;  579.000;  467.000
890.198; -132.200; -584.000; -707.000
890.442; -156.400; -716.000; -712.000
890.687; -153.675; -800.000; -753.000
890.931; -112.150; -273.000; -210.000
891.175; -124.375; -502.000; -500.000
891.419;  -64.250; -105.000; -110.000
891.663;  -82.975; -239.000; -112.000
891.907; -154.975; -801.000; -545.000
892.151; -169.975; -920.000; -815.000
892.395; -108.675; -274.000; -387.000
892.638;  -32.850;  408.000;  291.000
892.882; -173.725; -780.000; -867.000
893.126;   17.475;  758.000;  558.000
893.370;  -81.925; -167.000; -168.000
893.614; -131.450; -714.000; -715.000
893.857;  -97.525; -183.000; -197.000
894.101; -122.975; -527.000; -631.000
894.345;  -57.125;  300.000;  150.000
894.588;   11.650;  569.000;  380.000
894.832;  -87.950; -178.000;  -84.000
895.075;  -76.325;   15.000;  -92.000
895.319; -121.050; -552.000; -420.000
895.563; -114.525; -413.000; -353.000
895.806; -165.050; -628.000; -741.000
896.049;  -85.975; -576.000; -368.000
896.293;   91.950;  527.000;  405.000
896.536;  -64.300; -465.000; -468.000
896.779;  -60.125; -149.000;   -1.000
897.023; -134.950; -751.000; -714.000
897.266;  -27.650;  325.000;  269.000
897.509; -155.250; -900.000; -901.000
897.752;  -47.550;  149.000;  171.000
897.996; -179.750; -972.000; -864.000
898.239;  -49.650;  168.000;  102.000
898.482; -116.475; -431.000; -453.000
898.725;  -43.725;  101.000;   53.000
898.968; -148.400; -609.000; -744.000
899.211; -128.600; -513.000; -361.000
899.454; -116.225; -633.000; -539.000
899.697;  -62.325;   90.000;  -43.000
899.940; -158.250; -761.000; -757.000
900.182; -114.175; -335.000; -405.000
900.425;  -97.325; -150.000; -298.000
900.668;  -29.050;  491.000;  350.000
900.911; -113.900; -292.000; -345.000
901.154;  -60.675;  141.000;   -3.000
901.396; -138.900; -407.000; -412.000
901.639; -138.075; -430.000; -496.000
901.882; -170.125; -790.000; -809.000
902.124;  -91.800;  -29.000; -143.000
902.367; -122.925; -315.000; -361.000
902.609; -131.700; -476.000; -453.000
902.852;  -86.950; -108.000; -260.000
903.094; -124.750; -458.000; -337.000
903.337;  -65.225;  -26.000;   53.000
903.579; -108.150; -228.000; -441.000
903.821; -159.150; -597.000; -744.000
904.064;  -77.925;   85.000;  127.000
904.306;  -79.175; -126.000; -166.000
904.548; -106.775; -152.000; -366.000
904.790;  -97.325; -195.000; -340.000
905.033; -139.675; -625.000; -577.000
905.275; -126.075; -513.000; -524.000
905.517;   27.650;  468.000;  256.000
905.759;  -65.375; -667.000; -761.000
906.001;  -99.200; -322.000; -369.000
906.243;  -58.350; -162.000; -224.000
906.485;   88.400; -265.000; -207.000
906.727;  112.425; -499.000; -542.000
906.969;  -29.225;  -30.000; -135.000
907.211;  104.725; -316.000; -382.000
907.453;  252.100; -188.000; -237.000
907.695;   20.775; -158.000; -385.000
907.936;   31.725;  818.000;  706.000
908.178;  -59.075;   92.000; -135.000
908.420;  -85.525; -111.000; -162.000
908.662; -137.650; -633.000; -682.000
908.903;  -97.800; -208.000; -123.000
909.145;  -64.025; -240.000; -305.000
909.386;    1.500;  315.000;  280.000
909.628;   21.250;  363.000;  397.000
909.870;   -1.625;   29.000;  264.000
910.111;  -94.725; -809.000; -949.000
910.353;   14.500; -123.000; -161.000
910.594;    4.325; -574.000; -606.000
910.835;   82.175; -265.000; -326.000
911.077;  163.725; -503.000; -604.000
911.318;  294.625; -505.000; -471.000
911.559;  488.525; -577.000; -880.000
911.801; 1324.575; -284.000; -280.000
912.042; 9633.800;  -50.000; -159.000
912.283;28714.175;  404.000;  371.000
912.524; 5381.150; -396.000; -457.000
912.765;  556.175; -193.000;   79.000
913.006;  260.225; -307.000; -338.000
913.247;   73.850; -270.000; -290.000
913.488;    7.000;  -43.000;   30.000
913.729;  -85.550; -373.000; -373.000
913.970;  -72.500;  -96.000; -292.000
914.211;  -65.925; -160.000; -198.000
914.452;  -59.825; -118.000;  -11.000
914.693;   12.700;  510.000;  592.000
914.934;   17.275;  510.000;  440.000
915.175;  -61.150;   53.000;  -95.000
915.415;  -67.850; -137.000;   27.000
915.656;  -67.850;  -28.000;  192.000
915.897; -100.175; -252.000;  -82.000
916.137;  -76.800;   74.000;   -9.000
916.378; -139.050; -573.000; -517.000
916.619;  -87.150; -159.000;  -63.000
916.859;  -25.675;  303.000;  330.000
917.100;  131.250; 1655.000; 1070.000
917.340;   40.050;  930.000;  728.000
917.581;   32.700;  965.000;  789.000
917.821;  -30.850; -171.000;  143.000
918.061;    5.425; -199.000;  -72.000
918.302;  -59.675; -152.000; -211.000
918.542;  -10.750;  -22.000;    3.000
918.782;   43.500;  369.000;  377.000
919.023;  130.375;  360.000;  427.000
919.263; 1230.525; 8131.000;  202.000
919.503; 1122.825; -137.000;  -54.000
919.743;  589.500;  390.000;  266.000
919.983;  291.750; -134.000;  -26.000
920.223;   96.075;  135.000;   14.000
920.463;  153.225;  631.000;  554.000
920.703;  142.175;   84.000;   39.000
920.943;  178.875; -110.000;   90.000
921.183;  234.650; -414.000; -405.000
921.423;  495.950;  307.000;  546.000
921.663;  746.575; -174.000; -257.000
921.903; 1551.975;  237.000;  173.000
922.143; 8210.650;  372.000;  389.000
922.383;34082.650;  158.000;  115.000
922.622;13944.825; -120.000;  -15.000
922.862; 1422.725;  796.000;  785.000
923.102;  510.425;  -51.000;   33.000
923.341;  227.575;   59.000;   74.000
923.581;  100.500;  450.000;  360.000
923.821;   31.850;  301.000;  398.000
924.060;   -1.900;  351.000;  193.000
924.300;  -57.350;  -16.000; -128.000
924.539;  -12.000;  584.000;  473.000
924.779;   20.925;  812.000;  597.000
925.018;  -45.700;  247.000;  353.000
925.257;   -3.275;  595.000;  666.000
925.497;  -40.775;  447.000;  412.000
925.736;  -75.875;  -35.000;  102.000
925.975;   13.700;  687.000;  669.000
926.214;   17.000;  907.000;  850.000
926.454;   34.050;  706.000;  757.000
926.693;  -41.775;  419.000;  543.000
926.932;   45.225; 1021.000;  825.000
927.171;   76.425; 1107.000; 1044.000
927.410;   66.125; 1144.000;  967.000
927.649;   21.025;  924.000;  742.000
927.888;  -13.225;  590.000;  564.000
928.127;   -7.925;  680.000;  678.000
928.366;   27.000;  842.000;  826.000
928.605;   26.150;  831.000;  737.000
928.844;  221.250; 1451.000; 1393.000
929.083;  570.325;  770.000;  613.000
929.321;  353.800; 1335.000; 1359.000
929.560;   91.750; 1158.000; 1122.000
929.799;  -22.625;  574.000;  475.000
930.038;   82.475; 1025.000; 1394.000
930.276;  -51.925;  334.000;  397.000
930.515;   -3.725;  827.000;  681.000
930.753;   -8.025;  614.000;  589.000
930.992;  -26.725;  664.000;  717.000
931.230;   16.800;  847.000;  847.000
931.469;  167.725; 2162.000;  892.000
931.707;   81.350;  840.000;  751.000
931.946;   72.775; 1278.000; 1344.000
932.184;   56.350; 1437.000; 1175.000
932.423;   44.125; 1265.000;  963.000
932.661;   87.225; 1296.000; 1428.000
932.899;   23.350;  987.000;  821.000
933.137;   25.225;  754.000;  564.000
933.376;  137.950; 1664.000; 1335.000
933.614;  151.950; 1759.000; 1196.000
933.852;   56.675; 1357.000; 1171.000
934.090;  143.350; 1722.000; 1747.000
934.328;  104.575; 1252.000; 1457.000
934.566;   98.975; 1431.000; 1110.000
934.804;  147.150; 1263.000; 1309.000
935.042;  483.775; 1861.000; 1850.000
935.280; 1818.575; 2088.000; 2063.000
935.518; 1995.100; 2113.000; 2007.000
935.756;  428.400; 2481.000; 2316.000
935.994;  176.525; 1808.000; 1751.000
936.231;  345.500; 2890.000; 2950.000
936.469;  187.750; 2367.000; 2378.000
936.707;  165.800; 2220.000; 2167.000
936.945;  223.900; 2825.000; 2882.000
937.182;  203.525; 2679.000; 2741.000
937.420;  291.800; 3602.000; 3031.000
937.657;  400.325; 3365.000; 3478.000
937.895;  360.225; 3331.000; 3488.000
938.133;  302.650; 3540.000; 3528.000
938.370;  339.975; 3896.000; 4191.000
938.607;  392.525; 4488.000; 4205.000
938.845;  543.875; 5587.000; 5549.000
939.082;  462.300; 5387.000; 5177.000
939.320;  545.525; 5799.000; 5728.000
939.557;  647.975; 6549.000; 6491.000
939.794;  720.025; 7285.000; 7097.000
940.031;  913.550; 8421.000; 8368.000
940.269; 1090.025; 9552.000; 9107.000
940.506; 1116.100;10901.000;10507.000

