
Integration time [ms]: 200.000
Averaging Nr. [scans]: 10
Smoothing Nr. [pixels]: 0
Data measured with spectrometer [name]: 2101013U2
Wave   ;Sample   ;Dark     ;Reference
[nm]   ;[counts] ;[counts] ;[counts] 

394.013;   81.284; -450.257; -315.536
394.305;  444.681; -461.258; -419.536
394.596; 1969.434; -676.269; -527.514
394.887; 4551.757; -796.268; -654.518
395.178; 1866.301;  145.736;   11.476
395.470;  132.017; -210.263; -356.526
395.761;  415.279;  305.734;  394.479
396.052;  718.155; -545.284; -306.489
396.343;  750.855; -557.276; -454.503
396.634;  233.010; -200.279; -290.497
396.926;  242.154; -618.268; -565.517
397.217;  228.261;   11.725;  -17.504
397.508;   87.684; -366.273; -154.507
397.799;   82.610; -555.279; -571.497
398.090;  -24.198; -973.280; -902.495
398.381;  241.548;   11.708;  -11.473
398.672;  -28.950; -585.292; -742.473
398.963;   90.819; -348.279; -373.498
399.254;  207.363;   54.709; -209.475
399.545;  -82.126;-1017.266; -883.520
399.836;  142.539; -407.277; -343.501
400.127;  103.314; -205.295; -209.468
400.418;  107.276; -423.274; -392.506
400.709;  130.284; -359.281; -333.493
401.000;  156.668; -268.291; -309.476
401.290;  219.024;  225.698;  115.545
401.581;  155.830; -166.286; -228.485
401.872;   53.574; -542.298; -486.462
402.163;  103.503; -313.296; -252.467
402.454;  180.064; -123.291; -163.475
402.744;  106.991; -844.297; -813.465
403.035;  723.036; -226.293;  -86.471
403.326;  977.054; -366.292; -384.474
403.617;  644.066;  204.701;  165.539
403.907;  409.363; -593.283; -679.490
404.198; 4049.158; -545.307; -599.446
404.489;10508.770; -618.283; -588.491
404.779; 3717.729; -618.302; -660.456
405.070;  414.098;  -67.304; -174.451
405.360;  584.138; -259.293; -238.472
405.651;  698.545;  125.699;   98.542
405.942;  359.724;  209.714;  127.516
406.232;  503.044; -432.285; -413.487
406.523;  942.328;  641.706;  758.530
406.813;  172.627; -579.286; -644.484
407.104;  643.546;  261.708;  144.527
407.394;  375.268; -604.299; -591.462
407.685;  327.943;  336.715;  222.513
407.975;  122.368; -400.283; -382.490
408.265;  222.384; -134.289; -190.478
408.556;  134.859; -472.291; -459.475
408.846;  339.829;  474.706;  429.530
409.137;  192.496;   -1.288; -216.480
409.427;  123.544; -193.285; -271.487
409.717;   49.488; -776.273; -692.508
410.007;  268.735;    4.715; -170.486
410.298;  179.418; -360.295; -342.469
410.588;  132.140; -495.285; -510.486
410.878;   37.212; -792.287; -873.482
411.168;  174.678; -481.298; -478.463
411.459;  235.060; -295.283; -242.489
411.749;   91.257; -609.292; -507.474
412.039;  102.294; -755.289; -386.480
412.329;  388.929;   40.722;  132.501
412.619;  330.527;  -62.286; -148.485
412.909;  714.288;  639.711;  594.521
413.199;  628.302; -130.280; -251.495
413.490;  728.975;  521.710;  352.523
413.780;  219.208;-1013.279; -913.496
414.070;  622.656;  -46.276;  235.497
414.360;  640.923; -729.278; -666.498
414.650;  777.206; -726.288; -688.482
414.940;  884.007; -538.280; -441.496
415.230; 1587.002;   50.712;   74.519
415.520;10329.632;  155.730;   66.486
415.809;39984.483; -305.281; -125.493
416.099;32019.242; -388.277; -229.501
416.389; 8598.373;  435.726;  236.494
416.679; 5106.622;   91.738;   85.473
416.969;  904.218; -527.287; -503.483
417.259; 1072.711;  341.721;  171.503
417.549; 1213.981;  522.718;  318.508
417.838; 2783.657; -205.268; -147.518
418.128; 8904.482;  650.710;  492.522
418.418; 7570.797; -491.272; -579.509
418.708; 5057.773;    9.726;  -48.506
418.997;18925.867; -474.275; -480.505
419.287;19882.583; -733.273; -790.507
419.577;18475.959; -160.283; -123.489
419.866;59225.639; -588.277; -498.501
420.156;61291.327; -242.270;  -55.513
420.446;11885.211; -112.263;  -26.526
420.735; 1520.518; -376.271; -446.512
421.025; 1641.422; 1830.722;  315.502
421.314; 1251.715; -203.271; -226.512
421.604; 2553.246;   89.732;  233.484
421.893; 1462.510; -705.271; -602.511
422.183;  428.012; -487.263; -461.526
422.472;  704.012;  -36.271; -107.511
422.762;  740.082; -416.266; -379.521
423.051;  399.757; -916.276; -916.503
423.341;  536.885; -491.273; -439.507
423.630;  754.591; -121.265;   15.477
423.919;  676.566;   58.725;   49.495
424.209;  625.619;  -31.263;   56.473
424.498;  799.153;   68.732;  161.483
424.787; 1702.062; -535.267; -601.518
425.077; 5399.889;   34.735;   29.478
425.366; 7570.827; -734.262; -744.528
425.655;15583.986;  639.727;  259.493
425.945;33064.511; -313.247; -268.554
426.234;19151.360;  117.741;  300.467
426.523; 8310.967;  -86.259; -350.534
426.812;11597.876;  107.734;  159.480
427.101;16593.741; -127.269; -323.515
427.390;21174.832;  -55.270;  -86.514
427.680; 4889.295; -624.257; -411.538
427.969;  868.711; -330.255; -301.540
428.258;  563.483; -385.257; -477.536
428.547;  966.203;  449.728;  397.490
428.836; 2039.934; -421.253; -398.543
429.125; 3038.270; -199.259;  -72.534
429.414; 1362.266; -330.251; -294.548
429.703; 5127.366; -231.251; -213.548
429.992;15078.471; -938.250; -828.549
430.281;10291.901; -397.264; -331.524
430.570; 1107.152;  -21.252;   32.454
430.859; 1131.766;  279.741;  352.466
431.148;  886.605;  636.752;  631.446
431.437;  631.152;  391.748;  367.454
431.725;  240.885; -544.257; -481.536
432.014;  172.244; -845.253; -756.545
432.303;  652.913; -149.239; -105.569
432.592; 1072.611; -460.263; -178.525
432.881; 1701.807; -601.248; -437.554
433.169; 9798.012; -343.255;  -61.540
433.458;20013.262;  445.765;  540.424
433.747; 8709.935; -397.261; -289.529
434.036; 1520.979; -275.242; -280.564
434.324; 3348.489; -395.249; -379.551
434.613; 5809.970;   40.757;  159.437
434.902; 2116.499;  333.760;  439.433
435.190; 1079.312;   75.761;  295.431
435.479;  623.744;  -52.245;   83.441
435.767;  203.255; -411.244; -427.561
436.056;  372.573; -340.242; -294.563
436.345;  625.203; -372.240; -223.568
436.633;  713.482;   60.750;  383.450
436.922;  526.106;  208.760;  414.432
437.210; 1135.047; -194.236;    1.426
437.499; 3437.659; -583.235; -432.576
437.787; 3825.647; -339.236;  -10.574
438.075; 1018.420;   56.761;  162.430
438.364; 1360.923;  -44.238;  250.429
438.652;  787.472; -286.226; -138.592
438.941;  303.121;    3.770;  269.415
439.229;   10.448; -665.252; -466.545
439.517;   86.971; -160.234;  -85.577
439.806;   -5.005; -501.225; -290.595
440.094;  358.382;  377.766;  650.421
440.382;  330.387; -653.233; -302.580
440.670;  363.858; -361.235; -285.576
440.959;   63.920; -347.223; -170.599
441.247;  152.037; -151.229; -109.587
441.535;  202.268; -266.235;   31.423
441.823;   34.878; -497.234; -305.578
442.111;  335.844;  173.771;  327.412
442.400;  879.043; -628.245; -335.559
442.688; 2472.581; -111.234; -620.579
442.976; 1844.645; -786.213; -450.617
443.264;  209.404; -324.224; -364.597
443.552;  183.774; -258.226;   51.408
443.840;  369.966;  602.765;  876.423
444.128;  246.386;  265.767;  269.420
444.416;   14.847; -694.228; -312.588
444.704;   27.962; -465.219;  -92.605
444.992;  168.778;   -0.226;  240.407
445.280;   68.922; -517.230;  -94.585
445.568;   57.350; -694.212; -396.618
445.856;  591.039; -174.221;  357.398
446.143; 1343.957;  -54.220;   -7.604
446.431; 1131.252;  -25.228;  625.411
446.719;  445.189;  489.783;  675.391
447.007;  353.514;  481.769;  705.416
447.295;  352.115;  597.777;  871.402
447.583;  137.734; -464.229;  -34.587
447.870;  220.135; -434.221; -202.601
448.158;  729.620; -104.230;  129.415
448.446;  504.758; -800.219; -338.604
448.733;  278.506;   13.776;  269.403
449.021;  451.949;   60.788;  341.382
449.309;  321.571; -296.210;  208.379
449.596;  365.484;  128.783;   59.392
449.884;  259.125; -571.222; -325.600
450.172;  187.660; -756.227; -406.590
450.459;  797.021;  645.786;  780.387
450.747; 3655.082; -411.218; -147.608
451.034;11507.554;  493.772;  889.411
451.322; 9743.325; -413.214; -170.614
451.609;  893.708;  292.777;  508.403
451.897;  937.660; -550.203; -183.634
452.184; 2797.616; -622.223; -400.598
452.472; 2764.401;   97.792;  269.375
452.759;  665.559;  512.781;  864.395
453.047;  194.146; -407.212; -125.617
453.334;  156.570; -732.219; -216.606
453.621;  150.028; -438.214; -161.615
453.909;  266.749;   13.796;  384.368
454.196;  220.913; -299.199; -123.641
454.483;  384.879;  317.798;  540.364
454.771;  246.605; -215.208;  196.374
455.058;   95.610; -316.207;  102.374
455.345;  230.792;   71.807;  344.347
455.632;  167.115; -128.207;  235.373
455.919;  113.946;  -82.196;  182.354
456.207;  -92.180; -774.198; -450.642
456.494;  -26.504; -475.200;  -66.639
456.781;    9.773; -399.202; -198.635
457.068;   95.024; -253.206;  -29.628
457.355;  -22.274; -698.206; -401.629
457.642;   -6.767; -552.205; -290.630
457.929;  -14.121; -778.194; -417.651
458.216;   62.446; -575.212; -354.617
458.503;  354.186; -173.193;  -19.652
458.790;  310.802; -864.208; -630.625
459.077;  472.380;  -77.202;  110.364
459.364; 1248.869; -350.195; -210.649
459.651; 2644.321;  -46.206;  220.372
459.938; 1230.089; -864.209; -665.623
460.225;  267.384;  132.799;  276.363
460.512;  -88.258; -836.197; -688.645
460.799;  199.580;  -32.218;  320.392
461.086;  167.902; -370.200; -251.640
461.372;   89.520; -509.198; -279.642
461.659;  185.647; -165.196;  108.354
461.946;  112.084; -445.193;  -54.651
462.233;  490.199;  842.800;  888.361
462.519;  509.995; -814.201; -464.639
462.806; 1533.942; -768.197; -497.645
463.093; 1389.313; -445.191;  -66.656
463.380;  -64.128; -920.186; -824.664
463.666;   92.645; -259.197;  -18.646
463.953;  168.562; -406.195; -243.648
464.239;  299.862; -173.195;  -77.648
464.526;  680.277;  413.806;  743.350
464.813;  529.030; -565.190; -304.658
465.099;  619.985;  606.807;  607.348
465.386;  642.991;  903.807;  921.348
465.672;   56.542; -694.197; -522.645
465.959;   79.355; -598.188; -520.662
466.245;   51.691; -468.193; -359.652
466.532;  166.359; -109.195;   63.352
466.818;  137.072; -357.186; -216.664
467.104;    4.529; -488.182; -415.672
467.391;  -16.167; -628.189; -459.658
467.677;   70.477; -289.186;    9.335
467.964;   19.142; -682.189; -471.660
468.250;  123.981; -331.186; -160.665
468.536;  180.234;   90.811;  180.341
468.822;  -72.902; -821.184; -574.668
469.109;  328.844;  351.827;  471.311
469.395;  402.805;  729.808;  787.346
469.681;  352.439;   46.811;  156.341
469.967; 1892.145; -699.188; -382.660
470.254; 4141.457; -494.188; -306.662
470.540; 2696.045; -601.196; -476.646
470.826;  379.845; -488.181; -397.675
471.112;  481.103;  288.816;  113.331
471.398;  229.509; -253.183;  -58.670
471.684;   77.085; -626.177; -447.680
471.970;  -46.550; -918.180; -981.675
472.256;   42.503; -521.192; -441.654
472.542;   53.460; -499.171; -434.691
472.828;    3.323; -743.182; -607.672
473.114;   61.122; -380.166; -283.700
473.400;   39.709; -504.175; -293.684
473.686;   76.630; -452.166; -400.701
473.972;  119.429; -230.174; -131.687
474.258; -109.756; -925.173; -843.689
474.544;  324.273; -183.178;   -2.679
474.830;  460.711;  -65.175;   45.316
475.116;  749.332; -123.190; -196.658
475.401;  945.153; -558.180; -467.676
475.687;  285.152; -725.180; -718.676
475.973;   -9.565; -673.181; -770.673
476.259;  465.714;  736.825;  764.315
476.544;  539.696; -539.176; -437.682
476.830; 1217.954; -398.172; -322.690
477.116; 1075.095; -430.177; -336.682
477.401;  280.753;  346.820;  358.324
477.687;  -18.391; -289.175; -405.684
477.973;  106.340;   21.819;   28.326
478.258;  -14.640; -448.163; -348.706
478.544;   98.388;   21.815;   61.334
478.829; -100.933; -818.171; -738.692
479.115;  -80.847; -749.172; -651.690
479.401;   13.223; -444.174; -449.686
479.686;   92.451; -253.180;  -74.676
479.972;  -72.219; -886.178; -776.680
480.257;   48.724; -258.166;  -65.700
480.542;    1.873; -614.170; -469.693
480.828;  498.006; 1288.824; 1392.317
481.113;  -35.797; -464.176; -426.683
481.399;  -11.907; -236.161; -202.711
481.684;  -89.877; -620.166; -462.700
481.969;   74.513; -158.159;  -73.713
482.255;   -3.212; -439.169; -285.695
482.540;   -1.119; -569.178; -441.680
482.825;   -1.135; -395.187; -404.663
483.110;  145.093;  -85.169; -105.696
483.396;  267.143; -840.157; -652.718
483.681;  732.130;  543.826;  730.313
483.966;  213.404; -696.160; -700.712
484.251;   56.928; -404.174; -310.687
484.536;    3.638; -356.165; -378.703
484.822;   36.532; -205.173; -218.687
485.107;  -37.002; -599.152; -502.726
485.392;  271.046;  662.836;  541.296
485.677;  140.707;  354.832;  163.302
485.962;  232.740;  160.843;  270.283
486.247;  189.771;  -14.162;   -8.707
486.532;   71.125; -178.166; -325.701
486.817;  308.585;  381.839;  431.291
487.102;  163.073; -453.154; -514.722
487.387;  964.746; -637.156; -652.718
487.672; 1628.853; -154.164;  -38.705
487.957; 1147.496; -394.160; -286.711
488.241;  305.021; -290.150; -314.729
488.526; 1088.400; -280.152; -148.726
488.811; 1658.684; -881.177; -818.680
489.096; 1299.077; -666.154; -702.723
489.381;  749.794;    3.847;  162.275
489.666;  502.693; -428.161; -510.710
489.950;  339.982;  558.846;  627.277
490.235;  -56.986; -480.151; -458.728
490.520; -103.008; -756.161; -723.710
490.804; -154.251; -827.156; -736.719
491.089;    1.444; -469.149; -299.732
491.374;   71.452; -132.164;  -75.704
491.658;  -41.040; -817.147; -717.735
491.943;  207.506; -657.152; -609.727
492.227;  364.867; -178.155;  -38.721
492.512;   99.439; -294.157; -341.717
492.797; -122.065; -713.149; -716.731
493.081;  -76.436; -588.147; -598.735
493.366;  -96.806; -751.161; -635.711
493.650;  432.640;  831.859;  917.254
493.935;   26.859; -648.147; -447.734
494.219;  -67.579; -778.142; -687.743
494.503; -111.872; -585.150; -487.730
494.788;   94.927;   46.842;   74.285
495.072;  202.323;  184.850;  434.271
495.356;  237.948; -463.148; -343.733
495.641;  630.773; -812.146; -736.736
495.925;  616.156; -976.156; -903.719
496.209;   46.043; -599.149; -451.732
496.494;  -90.878; -763.142; -544.744
496.778;   34.974; -364.154; -360.722
497.062;  -93.645; -819.156; -627.719
497.346;  -91.602; -869.160; -640.711
497.631;  272.753;  580.852;  560.266
497.915;  132.688;  -64.145;  175.261
498.199;   93.643; -341.157; -277.718
498.483;   99.197; -562.152; -508.725
498.767;  337.225;  301.850;  300.271
499.051;  279.140; -126.149; -100.732
499.335;   33.837; -693.149; -739.731
499.619;  -87.216; -381.129; -423.767
499.903;   60.366; -272.155;  -65.721
500.187;  -12.216; -588.153; -316.724
500.471;   34.405; -796.152; -595.727
500.755;  212.792;   62.839;  -96.710
501.039;   46.566; -270.155; -357.721
501.323;  155.642;  -21.141;  264.254
501.607;   54.460; -447.163; -503.706
501.891;    4.145; -607.156; -512.718
502.174;  -83.996; -726.144; -585.741
502.458;  162.010;   89.849;  370.273
502.742;   76.276; -180.138; -191.751
503.026;  152.959; -412.147; -254.734
503.310;  235.511; -437.159; -375.713
503.593;  127.861; -464.147; -325.735
503.877;  229.333; -232.133; -156.760
504.161;  271.087;    2.847;  -50.724
504.444;  137.730; -841.158; -710.716
504.728;  663.450; -487.164; -522.704
505.012; 1064.820; -257.150;  -76.729
505.295;  771.994; -417.161; -212.711
505.579;  797.155; -256.156; -496.719
505.862; 1083.083; -555.145; -333.738
506.146;  944.214; -681.159; -758.714
506.429;  642.815;  568.841;  461.286
506.713;   87.716; -732.151; -667.728
506.996;  471.373;   90.846;  295.278
507.280;  473.843; -633.165; -474.703
507.563;  318.764; -469.155; -261.721
507.847;  156.885; -423.153; -112.724
508.130;   87.395; -665.161; -456.711
508.413;  188.217; -758.167; -577.700
508.697;  341.318; -151.167;   12.300
508.980;  234.887; -422.153; -312.724
509.263;  -43.142; -466.155; -450.720
509.547;   81.820; -124.150;   82.271
509.830;  100.698; -172.160;  140.289
510.113;  167.555;  128.844;  298.281
510.396;   13.195; -530.152; -300.725
510.680;  274.485; -818.145; -812.738
510.963; 1165.379;  184.846;  180.277
511.246;  918.331; -493.150; -357.730
511.529;  398.892; -482.145;  -83.739
511.812;  542.229; -250.134;   10.241
512.095;  307.112; -740.151; -396.728
512.378;   98.067; -317.147; -245.736
512.661;   -6.213; -703.137; -623.753
512.944;    7.224; -750.142; -637.744
513.227;   93.183; -170.137; -171.752
513.510;   24.604; -479.144; -671.741
513.793;    9.748; -485.140; -435.747
514.076;  222.013;  -43.127;  -39.771
514.359;  177.844; -294.149; -135.732
514.642;   94.129; -442.142; -567.744
514.925; 1102.846;  581.860;  561.253
515.208; 1406.223; -498.134; -443.758
515.491;  916.043; -276.133; -182.761
515.773;  532.209; -410.143; -337.742
516.056; 3042.796;  249.864;  409.246
516.339; 3917.102; -754.136; -652.755
516.622; 2875.328; -518.150; -488.730
516.904; 2170.319;  882.857;  975.257
517.187;  883.281; -730.138; -523.752
517.470;  584.018; -568.143; -510.743
517.752;  546.106; -624.136; -470.756
518.035;  463.963; -708.139; -725.749
518.318;  483.102; -799.136; -744.755
518.600; 3342.048; -300.132; -325.762
518.883; 4582.628;  310.858;   88.256
519.165; 2294.971; -585.138; -426.751
519.448;  605.748;  -61.132;  -19.762
519.730;  278.224; -573.126; -415.773
520.013;  574.438;  588.867;  664.240
520.295; 1339.531;  -94.134;  -15.759
520.578; 3103.866; -335.131; -305.764
520.860; 3405.648; -254.132;   56.238
521.143; 1698.909; -763.135; -584.756
521.425;  705.342; -251.125; -279.775
521.707;  942.814; -622.127; -380.771
521.990; 2517.514; -199.127;  167.229
522.272; 2865.451; -116.140;   -4.748
522.554; 1337.010; -237.143; -157.742
522.836;  551.128;  -24.134;   99.241
523.119;  339.057; -496.148; -189.734
523.401;  200.976; -448.130; -314.766
523.683;   81.188; -865.137; -693.753
523.965;  423.778;  408.862;  260.248
524.247;  414.872;   54.878;  170.220
524.529;  270.931; -451.134; -367.759
524.812;  498.579;   -3.130;  191.234
525.094; 1177.977; -773.138; -631.751
525.376; 1889.055; -143.124;   78.223
525.658; 1144.398; -441.136; -339.754
525.940;  -25.339; -805.131; -671.764
526.222;   60.103; -188.136;  -88.755
526.504;  198.058; -190.131;   32.237
526.786;  233.434; -960.133; -647.760
527.068;  488.363; -124.123;  -67.778
527.349;  157.893; -865.137; -774.754
527.631;  201.847; -137.132;   22.238
527.913;  153.313; -664.127; -450.771
528.195;  168.232; -761.125; -639.774
528.477;  351.024;  -93.134;  -30.758
528.759;  148.878; -648.130; -522.766
529.040;   35.961; -569.123; -293.778
529.322;   63.636; -235.125;  -10.774
529.604;  197.182;  -47.130;   93.233
529.886;  178.223; -546.126; -302.773
530.167;  200.370;  232.870;  192.235
530.449;   83.266;    1.853;   63.265
530.731;    7.371; -572.122; -459.779
531.012;   72.701; -513.120; -216.784
531.294;   77.456; -118.116;  -43.792
531.575;  289.942;  290.875;  538.225
531.857;   36.016; -548.135; -266.757
532.138;  130.540; -113.141;   40.254
532.420;  319.311;  294.865;  403.244
532.701;  288.438; -722.133; -751.760
532.983;  562.942;  232.867;  182.239
533.264;  227.221; -243.126;  175.228
533.546;  -91.998; -491.136; -508.755
533.827;  124.233;  173.867;   -1.759
534.109;   78.116; -352.135;  -80.757
534.390;  115.453; -725.132; -582.762
534.671;  353.511; -270.135;  -82.756
534.953;  171.565; -751.123; -611.779
535.234;    6.235; -426.117; -255.789
535.515; -187.487; -891.119; -735.785
535.796;  -25.893; -431.128; -193.770
536.078; -236.545;-1050.124; -904.777
536.359;   23.066;  -22.123;    3.221
536.640;  -19.766; -480.125; -197.774
536.921;  264.689;  225.871;  143.232
537.202;  547.773;  -87.138;  -16.751
537.483;  661.365;  251.869;  377.236
537.764;  284.870;   17.870;   98.235
538.045;  -83.978; -543.134; -371.758
538.326;  -81.508; -596.129; -447.768
538.607;  -12.285; -686.127; -476.771
538.888;  235.988;   98.879;    5.218
539.169;  201.380; -704.122; -535.781
539.450;  475.288;  236.871;   16.233
539.731;  302.894; -361.121; -182.783
540.012;  208.101;  199.880;  412.216
540.293;  150.447;   82.876;  158.224
540.574;  -21.714; -895.113; -717.796
540.855;  679.591;  435.879;  377.218
541.136;  789.076;   47.878;  139.220
541.416;  405.379; -161.130; -220.766
541.697;  284.059; -274.131; -170.763
541.978; 1450.914; -270.135; -315.757
542.259; 1847.415; -211.127; -236.771
542.539;  889.548; -191.116; -186.790
542.820;  352.642;  461.875;  480.225
543.101;  146.887;  -52.145;  -77.738
543.381;  -31.186; -638.127; -591.771
543.662;  389.411;  159.873; -254.771
543.942;  760.308; -751.127; -830.770
544.223; 1449.479;  193.878;  161.219
544.504;  920.054; -275.124; -182.777
544.784;  816.623; -592.126; -408.773
545.065; 2323.853;  104.884; -254.791
545.345; 2788.313;  227.881;   14.215
545.626; 1865.485;  -14.113; -108.796
545.906; 1258.269;   77.869;   98.235
546.186;  527.430;   92.874;  -95.773
546.467;  276.158;   99.877;  -95.778
546.747;  510.947;  264.884;  327.210
547.027;  568.352;   91.876;  111.223
547.308;  435.907; -376.127; -530.770
547.588;  596.293;  299.871;  371.232
547.868;  342.271;  458.870;  588.235
548.149;  346.963;  609.885;  593.207
548.429;  162.512; -347.127; -299.771
548.709;  205.800; -645.120; -461.784
548.989;  710.426;   84.882;   88.213
549.269; 2955.645;   10.868;  139.239
549.550; 6618.764;  215.877;  117.222
549.830; 5909.010; -758.111; -556.799
550.110; 1213.521; -468.110; -320.801
550.390; 1226.472; -128.122;  -56.779
550.670; 1502.679; -868.114; -783.795
550.950; 1147.591; -509.121; -471.782
551.230;  380.886;  549.879;  460.218
551.510;   -5.311; -381.121; -326.782
551.790;   47.632; -173.109; -127.803
552.070;  478.258;  940.877; 1181.223
552.350;  577.418; -492.119; -377.786
552.630;  847.082;   -2.121;   77.219
552.909;  573.554;  181.884;   73.209
553.189;  356.255;  -49.132;   33.237
553.469;  167.418; -703.119; -514.786
553.749;  235.517; -469.127; -357.772
554.029;  254.241;   33.883;  -24.790
554.308;  218.069; -154.115;  -37.794
554.588;   78.905; -196.128; -204.770
554.868;   76.492; -366.121;  -47.782
555.147;  199.765; -114.115;  -46.793
555.427;  825.757; -260.116; -250.792
555.707; 5415.462; -284.115; -200.793
555.986; 6306.315; -719.111; -538.800
556.266; 3525.245;   23.884;   72.210
556.546;  118.789; -888.121; -675.782
556.825;  353.976; -657.114; -556.794
557.105; 2545.402; -125.128;   17.230
557.384; 2894.652;  122.884;  187.209
557.664; 1078.256; -717.116; -508.792
557.943;  113.091; -557.121; -411.782
558.222;  210.731; -345.118; -344.788
558.502;  372.567; -116.115;  -76.793
558.781;  711.161;  194.885;  499.208
559.061;  542.830; -232.118; -227.788
559.340;  454.937;  302.883;  353.211
559.619;  955.545;   93.884;  148.210
559.899; 1393.440; -239.117; -266.789
560.178; 1249.067; -778.115; -593.793
560.457; 4432.742; -623.117; -562.790
560.736; 5737.117; -472.111; -482.800
561.015; 4052.899; -500.128; -502.769
561.295;  569.260;  180.893;  215.193
561.574;  538.063;  119.885;  116.207
561.853;  741.438;  274.891;  303.197
562.132;  714.470;  -45.114;  182.206
562.411;  636.083;  396.879;  553.219
562.690;  143.161; -592.115; -458.792
562.969;  288.595;  472.888;  630.203
563.248;  948.380; 2966.878; 2487.219
563.527;  359.116; -290.111; -408.800
563.806;  463.112; -650.127; -521.771
564.085;  584.382; -297.105; -206.810
564.364;  292.045; -594.117; -405.790
564.643;  690.483; -276.121; -223.781
564.922; 2582.829;  221.890;  397.198
565.201; 2468.635; -640.109; -700.803
565.479; 1139.759; -297.115; -219.792
565.758;  429.903; -810.128; -712.770
566.037;  678.836; -155.109; -100.803
566.316;  274.152; -286.116;  -28.791
566.595;   76.763;  -17.115;  -12.793
566.873;  177.718; -166.111;  -79.801
567.152; -105.606; -490.113; -590.797
567.431;    3.847; -113.116;    6.210
567.709;   14.861; -344.107; -212.807
567.988;  339.975; -810.114; -769.794
568.266;  715.863; -160.115;  -68.793
568.545;  528.749; -644.100; -514.819
568.824;  857.158;  160.885;  356.208
569.102;  677.975; -351.114; -235.794
569.381;  316.857; -492.116; -407.792
569.659;  -94.611; -553.113; -553.796
569.938;   16.977; -743.122; -465.780
570.216;  146.340; -225.109; -225.804
570.494;  -88.421; -632.114; -572.795
570.773;  115.689;  202.879;  114.218
571.051;  -16.838; -373.123; -357.778
571.330;   74.586; -221.113; -174.796
571.608;   48.974; -181.098; -173.823
571.886; -158.593; -671.111; -581.799
572.164; -145.708; -739.121; -621.782
572.443;  -88.413; -562.105; -512.811
572.721;  -63.757; -399.117; -289.790
572.999;  -72.266; -280.117; -168.788
573.277;  186.878;  379.894;  620.191
573.555;  409.081;   94.894;   37.190
573.834; 1793.233;  -86.117; -114.788
574.112; 2136.164;  880.893;  811.193
574.390;  645.217; -143.111;  -96.801
574.668;   14.896;  -91.112;  -61.797
574.946;  -62.719; -165.106; -187.810
575.224;   41.634;   71.891;  -16.803
575.502;  -59.951; -200.116; -204.791
575.780; -175.103; -767.112; -829.798
576.058;  301.316; 1589.889; 1004.200
576.336;  -35.076; -210.110; -129.801
576.614; -111.002; -511.112; -340.798
576.891;   44.169; -711.115; -823.794
577.169;  650.851; -158.108; -285.805
577.447;  849.563;  169.893;  202.193
577.725;  434.604;  629.888;  854.201
578.003;   42.601;  -71.112; -371.798
578.280;  114.900; -208.104; -242.812
578.558;   37.567; -450.115; -422.793
578.836;  205.679; -210.114; -145.795
579.114;    8.295; -630.112; -670.797
579.391;  117.636;   -6.117;  -18.789
579.669; -145.830; -595.114; -704.794
579.947;  228.958; -326.107; -127.806
580.224;  394.058; -692.107; -524.806
580.502;  423.664;  127.893;   76.193
580.779;   58.044;  -42.117;   75.210
581.057; -134.060; -584.109; -470.804
581.334; -184.179; -726.102; -695.815
581.612;  112.082;   54.895;  511.190
581.889;  -53.460;  -83.101; -129.818
582.167;  -43.540; -298.099; -190.821
582.444; -199.368; -845.102; -814.817
582.721;  231.633;  657.899;  715.183
582.999;   69.156; -326.100; -167.821
583.276;  640.568; -812.123; -713.779
583.553;  936.125; -364.102; -294.816
583.831;  269.695; -607.104; -631.812
584.108;  119.348;  349.892;  174.195
584.385;  -27.780; -122.102;  -98.815
584.662; -132.681; -651.111; -828.801
584.940;   77.718;  204.889;  204.199
585.217;  -49.212;  -73.113; -303.796
585.494;   65.731;   71.890;  118.198
585.771;  309.041; -250.109; -354.804
586.048;  612.788; -196.113;  -76.796
586.325;  426.223; -721.110; -773.801
586.602;  171.900;  230.896;  213.188
586.879;  -32.749; -499.100; -580.820
587.156;   70.583; -156.105; -331.810
587.433;  -93.271; -701.102; -667.817
587.710;  139.098;  152.888;  234.202
587.987;  440.691; -264.105; -236.811
588.264; 1097.801;  315.888;  387.202
588.541; 1999.304;  -61.104;   26.187
588.818; 3738.545;   72.892;  171.196
589.095; 3315.297; -163.104; -174.812
589.371;  520.039; -459.109; -414.804
589.648;  -23.736; -581.107; -437.807
589.925;   -1.620; -517.114; -621.795
590.202;  -50.502; -741.112; -607.798
590.478;  129.393; -166.105;  -73.811
590.755;  377.653; -241.108; -132.806
591.032; 3361.826; -741.110; -699.802
591.308; 4459.631; -732.094; -790.831
591.585; 2363.025; -573.110; -560.802
591.862;  127.331;-1056.102; -950.817
592.138;   64.850; -475.108; -474.805
592.415;  148.901; -486.104; -495.813
592.691; 2151.898;  460.896;  518.188
592.968; 2541.977; -208.098; -123.824
593.244; 1250.247; -695.116; -595.790
593.521;   98.232; -105.102;  -42.817
593.797;  -90.127; -810.122; -720.780
594.074;  434.195; -611.096; -588.826
594.350; 1005.410;  828.905;  729.172
594.626;  461.619; -303.111; -283.801
594.903;   95.833; -643.101; -645.817
595.179;  304.607;  243.896;  418.187
595.455;   18.666; -136.107; -150.807
595.731;   52.709;  -19.103;  -38.814
596.008;  -76.789; -464.111; -434.800
596.284;   52.155; -187.100; -242.820
596.560;   19.540; -501.093; -493.833
596.836;  260.386; -173.105;  -70.810
597.112;  426.551; -582.108; -437.805
597.388;  418.592;  -49.097;  -48.826
597.665;  189.592;  437.887;  530.203
597.941; -133.218; -572.089; -658.839
598.217;   -4.770; -323.110; -293.802
598.493;  364.744;   61.891; -204.804
598.769;  676.146; -175.100;  -50.819
599.045;  376.755; -490.108; -562.806
599.321;   69.253; -193.100; -261.820
599.597;  167.443; -355.109; -476.804
599.872;  690.504;  409.896;  429.187
600.148;  525.394;  -61.097; -172.826
600.424;  442.562;   91.893;  202.193
600.700;  290.165; -170.107; -280.807
600.976;  162.886; -442.097; -464.825
601.252;  340.238; -226.109; -272.803
601.527;  221.305; -833.104; -840.813
601.803;  175.494; -453.105; -404.812
602.079;  281.846; -124.100; -118.819
602.354;  750.954; -620.092; -531.835
602.630; 1147.888; -140.113; -482.796
602.906; 3337.340; -910.101; -863.818
603.181; 8823.818; -627.119; -534.786
603.457; 7714.390;   98.903; -278.826
603.733; 1131.195; -605.120; -626.783
604.008; 1448.182; -245.106; -164.810
604.284; 4046.535; -636.101; -580.817
604.559; 3621.804;   -3.112;  -42.799
604.835;  685.986; -163.105; -225.810
605.110;  517.961; -732.099; -892.821
605.385;  958.044;  224.907;  267.167
605.661;  877.114; -625.095; -729.829
605.936; 1453.755; -664.108; -737.806
606.211; 1381.918;  -17.103; -170.815
606.487;  237.873; -329.114; -376.794
606.762;  -54.482; -791.119; -745.786
607.037;  -65.614; -501.105; -433.810
607.313; -130.595; -589.096; -574.828
607.588;  -41.819; -375.106; -137.810
607.863;   68.939;  -28.101; -143.818
608.138;  287.928;  513.890;  516.198
608.413;  -27.434; -576.099; -592.822
608.688;   42.950; -203.108; -267.805
608.964;  275.473; -509.106; -218.809
609.239;  328.482; -107.105; -212.810
609.514;  401.894;  281.895;  240.188
609.789;  879.600; -187.104; -716.812
610.064; 1162.303; -435.096; -609.827
610.339; 1131.239; -855.109; -799.804
610.614; 1542.154; -131.100; -315.820
610.889;  901.494;  215.895;  107.188
611.163;    1.595; -407.104; -591.812
611.438;  105.375;   81.886; -167.794
611.713;  -24.765; -467.101; -499.817
611.988;   85.438; -144.101; -328.818
612.263;  -94.979; -771.102; -717.815
612.538;  343.187;  385.887;  251.204
612.812;  160.756; -832.100; -911.820
613.087;  145.673; -358.098; -338.823
613.362;  -94.735; -497.107; -557.807
613.637;   82.413;  261.897;  138.186
613.911;   -9.345; -256.092; -345.835
614.186;  157.563; -249.107; -292.807
614.460;  826.788; -842.081; -758.854
614.735; 1053.415;  -55.087;  -17.843
615.010;  236.901;   43.912;  -82.841
615.284;  388.249;  360.892;  246.195
615.559;  440.653; -792.092; -955.835
615.833;  394.863;  -76.099;  -87.822
616.108;   11.870; -225.090; -390.837
616.382;  245.117;  274.913;  402.156
616.656;  193.671; -241.090; -232.837
616.931;  640.264; -785.099; -700.822
617.205; 1440.106; -973.104; -979.813
617.480; 1288.239;  -91.125;    6.225
617.754;  211.036; -396.125; -128.774
618.028;  -10.806; -369.129; -382.768
618.302;  128.647;   73.892;  -25.805
618.577; -110.185; -371.103; -518.815
618.851; -104.566; -399.109; -600.803
619.125;  -87.869; -335.134; -378.759
619.399;  -57.194; -244.104; -374.813
619.673;  -80.342; -330.115; -515.792
619.947;  -92.421; -333.114; -448.795
620.222;   -1.479; -198.110; -204.801
620.496;   13.492;  -47.121;  -96.782
620.770;   20.380; -187.122;  -93.781
621.044;  339.283;  323.895;  346.190
621.318;  968.496; -653.120; -614.783
621.592;  873.693; -430.121; -409.783
621.866;  429.705; -476.112; -572.799
622.140;   45.049; -207.116; -356.791
622.413;  126.611;  138.889;  112.200
622.687; -106.265; -746.101; -492.817
622.961;   19.347; -130.108; -143.805
623.235; -131.488; -633.111; -661.800
623.509; -234.307; -816.105; -848.811
623.783;   42.460;  -12.107;   48.193
624.056;  -26.903; -254.120; -280.783
624.330;   89.096;   63.888;   -3.797
624.604;   55.645; -271.116; -355.790
624.877;  109.127;  180.890;   26.198
625.151;   28.771; -249.114; -238.794
625.425;  -41.791; -150.103; -283.814
625.698; -120.390; -367.119; -374.785
625.972; -191.270; -799.110; -765.802
626.245;  170.547;  685.884;  484.210
626.519;  -95.897; -426.120; -340.784
626.792;  -51.635; -192.107; -380.807
627.066; -195.330; -485.122; -662.779
627.339; -198.375; -736.110; -663.802
627.613;  116.501;  351.880;  148.216
627.886;   74.533;  187.891; -612.803
628.160;  -43.905;  312.880; -161.783
628.433; -150.157; -695.125; -703.775
628.706; -132.697; -517.120; -615.784
628.979;   89.852;  296.876;  117.223
629.253; -166.683; -785.119; -833.786
629.526;  508.421; -334.126; -253.772
629.799;  372.262; -641.123; -479.778
630.072;  155.296; -497.128; -516.769
630.346; -206.253;-1115.116;-1080.790
630.619;  601.966; -467.107; -545.808
630.892;  921.013;  709.889;  593.200
631.165;  521.006;  790.896;  679.187
631.438; -179.899;-1092.112;-1055.798
631.711;  123.267;  453.877;  257.221
631.984; -112.460; -523.117; -624.789
632.257; -139.564; -636.117; -681.789
632.530;  -90.489; -412.119; -433.785
632.803;   88.368; -109.115;    7.207
633.076; -130.442; -360.123; -422.777
633.349;   35.602;  173.872;  121.231
633.622;  -38.691; -187.119; -240.785
633.895; -253.403; -903.120; -823.783
634.167; -113.276; -496.126; -525.773
634.440;    1.556;  -19.116; -137.792
634.713;   23.516;  -22.119; -120.786
634.986;  151.987;  593.871;  453.233
635.258; -155.134; -507.115; -597.793
635.531;  208.930;  742.882; -343.788
635.804;  -70.961; -303.117; -318.789
636.077; -216.149; -830.116; -852.791
636.349;  -62.736; -586.115; -474.793
636.622;  729.320; 1695.874; 1392.228
636.894;  287.903; -474.120; -909.784
637.167;   90.712; -836.127; -789.771
637.439;   79.306; -278.128; -213.770
637.712;  -85.578; -312.126; -293.772
637.984; -130.848; -635.116; -707.791
638.257;  627.258;  515.877;  488.222
638.529;  682.944; -881.125; -924.776
638.802;  286.796; -508.128; -449.769
639.074; -231.821; -927.122; -952.781
639.346; -239.481; -942.135; -930.757
639.619;   18.326;  -79.142; -319.744
639.891;    1.870;  -83.122; -168.779
640.163; -144.928; -689.122; -756.780
640.435;   68.875;  273.878;  103.220
640.708;    4.878;  -72.122; -132.780
640.980;  -61.620; -366.122; -362.781
641.252;  349.683;  -25.121;  -71.781
641.524; 2727.285;  580.879;  573.219
641.796; 2415.288;-1094.121; -907.782
642.068;  468.491; -191.121; -300.782
642.340;  -98.507; -486.121; -566.783
642.613;  128.496;  294.880;  323.217
642.885; -203.102; -787.120; -878.783
643.157; -158.499; -810.120; -658.784
643.428;  147.404;  170.880;  218.216
643.700; -108.494; -498.120; -425.784
643.972;  -42.091;  -16.119; -133.785
644.244; -146.989; -474.119; -559.785
644.516;  -65.286; -250.119; -114.786
644.788;  154.517;  662.881;  548.214
645.060;    7.519;  -12.119; -124.786
645.332; -182.178; -525.118; -535.787
645.603;  109.124;  479.882;  342.213
645.875; -113.173; -334.118; -369.787
646.147;  408.830; 1487.882; 1242.212
646.418; -168.968; -931.117; -918.788
646.690;   96.435; -714.117; -715.789
646.962;   13.637; -413.117; -451.789
647.233;   33.640;   15.883;   11.211
647.505; -214.058; -595.117; -475.790
647.776;  100.745;  328.884;  229.210
648.048;  -37.252; -248.116; -418.790
648.320; -150.550; -752.116; -679.791
648.591; -278.247;-1055.116; -958.791
648.862; -166.545; -505.116; -577.792
649.134;   41.158;  115.885;  198.208
649.405; -101.439; -661.115; -618.792
649.677;  -79.437; -475.115; -598.793
649.948;  -23.934; -181.115; -296.793
650.219;    8.568;  -37.115; -147.793
650.491; -145.729; -431.114; -520.794
650.762; -192.626; -705.114; -731.794
651.033; -131.424; -437.114; -424.795
651.304; -207.121; -743.114; -728.795
651.576; -148.319; -680.114; -645.795
651.847;  -32.916; -250.113; -140.796
652.118;  -13.513;  -32.113; -189.796
652.389; -201.511; -639.113; -722.796
652.660;  -30.508; -147.113;  -89.797
652.931; -276.806; -897.112; -871.797
653.202; -143.903; -382.112; -541.798
653.473; -134.500; -633.112; -533.798
653.744;  157.802; -595.112; -590.798
654.015;  138.105; -356.112; -303.799
654.286; -129.993; -642.111; -663.799
654.557; -123.590; -586.111; -521.799
654.828; -286.587;-1114.111;-1088.800
655.099; -144.685; -404.111; -291.800
655.370; -146.082; -427.111; -543.801
655.641; -205.080; -656.110; -714.801
655.911; -208.777; -618.110; -638.801
656.182;  171.226;  437.890;  387.198
656.453;  255.428;  830.890;  746.198
656.724; -124.069; -466.110; -426.802
656.994; -133.267; -553.109; -568.803
657.265; -244.564; -862.109; -873.803
657.536; -111.961; -500.109; -377.804
657.806; -188.059; -561.109; -593.804
658.077; -262.456; -866.109; -950.804
658.347; -142.554; -523.108; -598.805
658.618; -223.851; -646.108; -694.805
658.888;  -36.648;  -41.108;  112.195
659.159; -113.246; -432.108; -548.806
659.429;  -46.743; -292.108; -349.806
659.700;   12.759; -435.107; -390.807
659.970;  -38.938; -370.107; -359.807
660.241;  -38.135; -754.107; -921.807
660.511;  668.067; -147.107; -174.808
660.781;   74.470; -793.106; -748.808
661.052; -101.028; -222.106; -381.808
661.322;  -15.725;   21.894;   -9.809
661.592;   60.578;  257.894;  148.191
661.862; -115.720; -369.106; -382.810
662.133; -196.017; -551.105; -502.810
662.403; -212.715; -770.105; -676.810
662.673;  -63.412; -256.105; -213.811
662.943; -175.709; -612.105; -551.811
663.213;   -8.107;  -85.105;  -81.811
663.483; -146.904; -593.104; -568.812
663.753;  -72.702; -194.104; -152.812
664.023;   30.301;   68.896;  -32.813
664.293;  -79.496; -319.104; -126.813
664.563; -173.994; -694.104; -648.813
664.833; -209.491; -743.103; -608.814
665.103; -235.689; -730.103; -793.814
665.373; -220.986; -766.103; -806.814
665.643; -180.183; -863.103; -918.815
665.913;   45.619; -534.103; -714.815
666.182;  150.022; -685.102; -719.816
666.452;  366.224;  -22.102;  -89.816
666.722;  -96.973; -724.102; -784.816
666.992; -238.570; -948.102; -921.817
667.261; -199.768; -824.102; -808.817
667.531;  356.635;  134.899;   45.183
667.801;  767.137; -440.101; -412.818
668.070;  471.240;  714.899;  697.182
668.340; -204.657; -883.101; -840.819
668.609;  199.845;  588.900;  301.181
668.879; -128.852; -490.100; -558.819
669.149; -120.850; -539.100; -516.820
669.418; -202.847; -698.100; -726.820
669.688;  -86.644; -482.100; -666.820
669.957;   33.458; -423.099; -546.821
670.226;  -38.839; -268.099; -331.821
670.496; -152.637; -431.099; -635.822
670.765; -144.634; -418.099; -501.822
671.034; -254.731; -872.099; -828.822
671.304;    7.571;   55.902; -111.823
671.573; -301.826;-1085.098; -957.823
671.842;   98.676; -380.098; -294.823
672.112;   -3.921; -692.098; -586.824
672.381;    6.782; -239.098; -214.824
672.650; -249.316;-1005.097;-1021.825
672.919; -160.413; -631.097; -507.825
673.188; -187.511; -681.097; -878.825
673.457; -331.208;-1101.097;-1143.826
673.726; -139.805; -579.096; -646.826
673.995;  -81.403; -533.096; -479.826
674.265;  -37.600; -263.096; -333.827
674.534;   -2.298; -183.096; -235.827
674.802;  -25.395; -618.096; -703.828
675.071; 1403.007; -886.095; -801.828
675.340; 4955.010; -464.095; -339.828
675.609; 1702.013;  103.905;   82.171
675.878;   48.015; -949.095; -893.829
676.147;   89.618;  -26.095;   -8.829
676.416;  139.320; -210.094; -294.830
676.685; 1099.523; 1000.906; -622.830
676.953;   74.026; -603.094; -452.831
677.222;  -22.972; -193.094; -273.831
677.491;  -14.669;  -24.094; -127.831
677.759;    8.033;   11.907;  172.168
678.028;  -17.764; -279.093; -222.832
678.297;   25.639;   71.907;  197.168
678.565; -265.859; -898.093; -944.833
678.834;  -96.256; -311.093; -268.833
679.102; -101.354; -411.092; -391.834
679.371; -293.051; -898.092; -727.834
679.639; -233.848; -797.092; -786.834
679.908; -226.246; -794.092; -724.835
680.176; -285.443; -895.091; -941.835
680.445; -117.241; -346.091; -352.835
680.713;   15.362;  -58.091;  -23.836
680.982; -164.735; -523.091; -525.836
681.250; -166.733; -578.091; -507.837
681.518; -171.930; -534.090; -751.837
681.787;  -14.228; -204.090; -167.837
682.055; -127.725; -490.090; -422.838
682.323; -264.522; -993.090; -992.838
682.591;   46.180; -216.090; -538.838
682.859;  127.983;    9.911;  -35.839
683.128;   57.585;  232.911;  497.161
683.396; -309.412;-1102.089;-1122.840
683.664;  -33.709; -241.089;   21.160
683.932;   31.593;  144.911;  -76.840
684.200; -136.604; -576.088; -320.841
684.468;   -6.102;  -73.088; -124.841
684.736;  -32.999; -214.088; -175.841
685.004; -247.596;-1024.088; -982.842
685.272; -116.294; -880.088; -774.842
685.540; -123.191; -499.087; -557.843
685.808; -155.989; -651.087; -682.843
686.076; -200.786; -894.087; -969.843
686.343; -116.283; -601.087; -815.844
686.611;   69.419; -195.087; -224.844
686.879;  660.022; -530.086; -553.844
687.147; 4216.124; -483.086; -480.845
687.414; 1225.227;  -12.086; -169.845
687.682;  -46.870; -658.086; -757.846
687.950;  465.932;  259.915;  263.154
688.217;  -50.165; -792.085; -760.846
688.485;  -34.263; -632.085; -636.847
688.753;  736.940;  -11.085; -102.847
689.020;  112.443; -820.085; -851.847
689.288; -176.555; -853.084; -787.848
689.555;  -27.552; -195.084; -148.848
689.823;  -91.950; -241.084; -345.849
690.090; -146.447; -546.084; -651.849
690.358; -290.944; -877.084; -897.849
690.625;   27.958;  120.917;   45.150
690.892; -145.539; -403.083; -369.850
691.160;   -4.037;   72.917;  -35.850
691.427;   39.866;  141.917;  130.149
691.694; -249.831; -855.083; -929.851
691.962; -271.029;-1177.082;-1060.852
692.229;   44.074;  127.918;   56.148
692.496;  172.676;  130.918;  -49.852
692.763;   26.179; -164.082; -201.853
693.031; -110.518; -739.082; -716.853
693.298;  -75.616; -509.081; -368.853
693.565;  443.187; -155.081; -163.854
693.832; 1615.189;   -5.081;   -9.854
694.099;  172.092; -643.081; -642.855
694.366; -130.805; -882.081; -896.855
694.633;  -90.103; -920.080; -633.855
694.900; 1561.800; 4367.920; -114.856
695.167;  631.602; -214.080; -380.856
695.434;  110.305; -646.080; -623.856
695.701;  359.708;  121.921;  -61.857
695.968;  649.510; -365.079; -361.857
696.234; 1666.113; -415.079; -646.858
696.501;15755.115; -776.079; -614.858
696.768; 7538.218; -554.079; -617.858
697.035;  478.721; -632.078; -667.859
697.302;   45.023; -448.078; -552.859
697.568;   30.926; -458.078; -497.859
697.835;  -73.272; -683.078; -624.860
698.102;  -22.969; -498.078; -407.860
698.368;  199.234;  384.923;  396.139
698.635;  -68.764;  -47.077; -424.861
698.901;   -0.061; -240.077; -348.861
699.168;   88.741; -534.077; -456.862
699.435;  135.344;  -72.077;  -13.862
699.701; -272.053; -868.076; -764.862
699.968;  -78.951;  144.924; -441.863
700.234; -188.548; -783.076; -822.863
700.500;  -72.946; -448.076; -539.864
700.767;   45.357;   -1.075;   26.136
701.033; -232.440;-1015.075; -963.864
701.299; -103.338; -450.075; -483.865
701.566;  333.865;  950.925;  763.135
701.832;   47.367;  -31.075;  -76.865
702.098; -196.830;-1054.074;-1034.866
702.365; -200.728;-1098.074;-1030.866
702.631;  -85.325;-1038.074;-1063.867
702.897; 1964.678; -765.074; -676.867
703.163; 3086.680;  348.926;  254.133
703.429;  234.383; -256.073; -273.868
703.695;  -88.215; -796.073; -792.868
703.961;   47.088; -214.073; -210.868
704.227;  -74.909; -630.073; -725.869
704.493;  295.393;  613.927;  510.131
704.759;  -24.704; -565.072; -540.870
705.025;   50.998; -203.072; -194.870
705.291;  -26.499; -666.072; -562.870
705.557;  379.304;  719.928;   34.129
705.823;   45.506; -742.072; -694.871
706.089;  216.809; -307.071; -326.871
706.355;  732.511; -315.071; -244.872
706.620; 9315.814; -776.071; -729.872
706.886;11551.717; -309.071; -362.873
707.152;  978.919; -818.070; -973.873
707.418;  -62.678;-1153.070;-1186.873
707.683;   -9.676; -550.070; -530.874
707.949;  -69.273; -547.070; -578.874
708.215;   10.530; -129.070; -207.874
708.480;  -73.068; -520.069; -420.875
708.746;  180.435;   68.931;   28.125
709.011;  -93.563; -578.069; -612.876
709.277; -132.360; -538.069; -543.876
709.542;  -63.057; -428.069; -387.876
709.808;   15.945;  -59.068;   89.123
710.073; -145.452; -577.068; -695.877
710.339;  -31.450; -242.068; -228.877
710.604;   93.453; -780.068; -845.878
710.869;  421.656; -277.068; -366.878
711.135; -120.042; -715.067; -628.879
711.400; -168.639; -507.067; -608.879
711.665;  -57.637; -404.067; -479.879
711.931; -180.734; -661.067; -677.880
712.196; -240.531; -876.067; -954.880
712.461;  149.071; -402.066; -490.880
712.726;  146.774; -727.066; -771.881
712.991; -184.424; -647.066; -664.881
713.256;  -55.421; -350.066; -332.882
713.521;  -79.818; -417.065; -381.882
713.787; -103.316; -454.065; -472.882
714.052;  -29.613; -214.065; -400.883
714.317; -196.111;-1045.065; -981.883
714.581; 1702.892; -374.065; -268.883
714.846; 2008.795; -822.064; -888.884
715.111;  218.897;  261.936;  257.116
715.376;  -22.800;  -86.064; -223.885
715.641;  -27.898; -365.064; -367.885
715.906;  389.805;   15.936; -551.885
716.171;  227.008;  221.937;  209.114
716.436;   68.210;  -78.063; -104.886
716.700; -198.687; -818.063; -692.886
716.965; -183.685; -794.063; -807.887
717.230; -108.082; -339.063; -392.887
717.494;  -16.379;  -40.062; -134.888
717.759; -156.677; -784.062; -640.888
718.024;   76.826;  269.938;  250.112
718.288;  171.528;  685.938;  395.111
718.553; -263.369; -803.062; -977.889
718.817; -270.466; -883.061; -899.889
719.082;  -46.364; -115.061; -125.890
719.346; -238.761;-1000.061; -947.890
719.611;  -87.559; -300.061; -255.891
719.875; -169.956; -568.060; -537.891
720.140; -133.753; -453.060; -603.891
720.404;   66.049; -136.060; -249.892
720.668; 1117.352; -475.060; -411.892
720.933;  463.654;  146.940;  137.108
721.197; -162.743; -667.059; -600.893
721.461; -253.640; -851.059; -826.893
721.725;   27.062;  -21.059; -250.894
721.990;  -55.735; -284.059; -204.894
722.254;  -10.333;  -26.059; -108.894
722.518; -112.230; -286.058; -442.895
722.782; -166.527; -743.058; -594.895
723.046;  252.575;  614.942;  570.105
723.310;  106.878;  374.942;  210.104
723.574; -159.720; -654.058; -614.896
723.838; -204.317; -576.057; -642.897
724.102;  -49.614; -226.057; -239.897
724.366; -267.912;-1032.057; -978.897
724.630; -186.009; -749.057; -571.898
724.894; -131.907; -722.057; -514.898
725.158;    8.296;   38.944; -295.898
725.422;  -76.901; -394.056; -327.899
725.685;  -88.099; -441.056; -349.899
725.949; -137.996; -566.056; -519.900
726.213; -147.694; -732.056; -811.900
726.477;  191.909;-1020.055; -933.900
726.740;  200.912; -274.055; -104.901
727.004;  556.414; -384.055; -510.901
727.268; 5051.917; -442.055; -400.901
727.531; 1238.019; -961.055; -775.902
727.795;  -78.678; -713.054; -673.902
728.059; -117.275; -552.054; -557.903
728.322; -134.173; -841.054; -669.903
728.586;   15.830; -692.054; -701.903
728.849; -161.568; -695.053; -756.904
729.112; -235.465; -812.053; -912.904
729.376; -232.663; -959.053; -905.904
729.639; -114.060; -536.053; -536.905
729.903; -182.357; -733.053; -699.905
730.166;  -73.755; -437.052; -399.906
730.429;    1.048; -317.052; -468.906
730.693; -120.850; -355.052; -894.906
730.956;  421.553;  810.948;  651.093
731.219;  945.356; -310.052; -103.907
731.482;   96.558;-1003.051; -894.907
731.745;   63.161; -794.051; -935.908
732.009;   52.163;  -30.051;   50.092
732.272; -154.134; -904.051; -771.909
732.535;  -57.131; -300.051; -310.909
732.798; -266.629;-1083.050;-1166.909
733.061; -106.226; -430.050; -456.910
733.324;   50.376;   31.950; -180.910
733.587;  178.079;  290.950;  365.090
733.850;  -95.118; -973.049;-1050.911
734.113;   80.584;   33.951;   32.089
734.376;   11.187; -328.049; -447.912
734.639;  440.889; 1188.951; 1011.088
734.901;  141.392; -180.049; -402.912
735.164;  689.495; -883.048; -837.913
735.427; 1726.197; -166.048; -355.913
735.690;  171.700; -205.048; -234.913
735.952;  -87.998; -923.048; -925.914
736.215;  -87.295;-1113.048;-1009.914
736.478;   15.808; -771.047; -774.915
736.740;  344.710;   33.953;  129.085
737.003; 1108.213; -658.047; -672.915
737.266; 5494.815;  -94.047;   46.084
737.528;  566.718; -682.047; -660.916
737.791;  445.821; -316.046; -327.916
738.053; 1368.823;  465.954;  649.083
738.316;17063.126; -162.046; -136.917
738.578;10425.128; -770.046; -736.918
738.841;  644.531; -382.046; -446.918
739.103;  258.234; -875.045; -777.918
739.365;  743.336;   79.955;  -69.919
739.628;  -34.361; -884.045; -805.919
739.890;  -49.959; -758.045; -710.919
740.152;  -95.956; -692.044; -754.920
740.414;   -3.753; -408.044; -359.920
740.677;  -68.251; -785.044; -634.921
740.939;  -79.248; -587.044; -487.921
741.201;  351.854; -432.044; -572.921
741.463;   23.557; -689.043; -745.922
741.725;    8.660;  -21.043; -199.922
741.987;  102.762;  220.957;  116.078
742.249;  -67.735; -751.043; -859.923
742.511;  254.967; -703.043; -794.923
742.773;   18.270; -546.042; -546.924
743.035;  245.073;  796.958;  533.076
743.297;  -81.625; -963.042;-1013.924
743.559; 1029.078; -278.042; -262.925
743.821;   45.580; -735.042; -744.925
744.083;   39.883;  -44.041; -149.925
744.345; -162.714; -869.041; -892.926
744.607;  102.988;   75.959;  122.074
744.868;  -84.709; -490.041; -554.927
745.130; -235.107; -994.041;-1008.927
745.392;   85.296;   -1.040;  -44.927
745.653;  -31.501; -411.040; -378.928
745.915;  367.501;  896.960;  631.072
746.177;   97.504;   35.960;  -43.928
746.438;  -36.494; -428.040; -543.929
746.700;  -83.791; -947.039; -988.929
746.961;  -19.188; -659.039; -740.930
747.223;  252.914; -190.039;  -74.930
747.484;  122.517; -391.039; -471.930
747.746;  206.819;  -23.038; -106.931
748.007;  108.322; -647.038; -689.931
748.269;  458.425; -468.038; -440.931
748.530;  607.727; -852.038; -638.932
748.791;  411.930; -354.038; -420.932
749.053;  705.632;  286.963;  163.067
749.314;  660.535; -236.037; -169.933
749.575;  695.738; -945.037; -905.933
749.836; 1234.840; -217.037;   86.066
750.098; 4196.843;  -60.037;  -21.934
750.359;51326.145;  414.964;  555.066
750.620;11798.848; -121.036; -220.935
750.881; 1452.951; -585.036; -513.935
751.142; 2067.153; -950.036; -938.936
751.403;25634.756; -789.036; -705.936
751.664; 9585.058;-1034.035; -999.936
751.925;  760.761; -175.035; -262.937
752.186;  429.664; -298.035; -278.937
752.447;  217.266; -590.035; -445.937
752.708;   82.169; -532.035; -648.938
752.969;    6.971; -566.034; -576.938
753.230;  -23.826; -777.034; -672.939
753.491;  -14.023; -650.034; -631.939
753.751;  185.279;  109.966;   19.061
754.012;  197.082;  258.967;  181.060
754.273;  123.984; -174.033;  -71.940
754.534;   32.187; -487.033; -580.940
754.794; -160.510; -926.033; -911.941
755.055;  357.992; 1051.967;  881.059
755.316;  -42.905; -700.032; -566.942
755.576;  -25.603; -606.032; -576.942
755.837;  -83.000; -527.032; -695.942
756.097;  -48.198; -530.032; -564.943
756.358; -158.895; -725.032; -770.943
756.618;  -59.692; -705.031; -641.943
756.879;    6.110; -254.031; -349.944
757.139; -240.687;-1098.031;-1116.944
757.400;  -78.785; -538.031; -553.945
757.660;  -32.382; -365.031; -401.945
757.920;   22.621; -266.030; -228.945
758.181;  -20.977; -468.030; -351.946
758.441; -206.674; -870.030; -809.946
758.701;  -15.072; -308.030; -215.946
758.961;   10.031; -220.030; -278.947
759.222;  -70.366; -574.029; -502.947
759.482; -138.164; -683.029; -723.948
759.742; -165.061; -706.029; -547.948
760.002;   78.541;  -83.029; -143.948
760.262;   90.144;   50.972;  182.051
760.522;  -63.853; -498.028; -574.949
760.782; -101.751; -738.028; -612.949
761.042;  -51.548; -618.028; -573.950
761.302;  123.954;   55.972;  -18.950
761.562;  122.957; -164.027; -154.951
761.822;  124.760; -710.027; -551.951
762.082;  -94.738;-1104.027;-1093.951
762.342;  139.365; -328.027; -403.952
762.601;  119.667; -567.027; -506.952
762.861;  548.270; -281.026; -207.952
763.121;  722.273; -406.026; -411.953
763.381;12840.775; -499.026; -485.953
763.640;11606.478; -139.026; -307.954
763.900;  575.080; -242.026; -203.954
764.160;  177.083; -458.025; -491.954
764.419;    0.186; -726.025; -782.955
764.679; -109.012; -795.025; -726.955
764.939;   15.591; -124.025; -210.955
765.198;  -97.907; -608.025; -563.956
765.458; -168.204; -710.024; -612.956
765.717; -110.301; -454.024; -590.957
765.976;  -80.599; -428.024; -411.957
766.236; -107.796; -475.024; -610.957
766.495;   64.406;  260.977;   73.042
766.755; -192.091;-1090.023; -987.958
767.014;   -8.088; -594.023; -665.958
767.273;  -61.686; -373.023; -397.959
767.533;  -13.783; -228.023; -307.959
767.792;  -22.081; -151.022; -188.960
768.051;  -83.878; -228.022; -276.960
768.310; -143.475; -546.022; -650.960
768.569;   50.727; -161.022;    4.039
768.828;  -26.070; -285.022; -363.961
769.088; -229.968;-1050.021; -942.961
769.347; -157.165; -755.021; -599.962
769.606; -163.462; -876.021; -857.962
769.865; -196.060;-1016.021;-1033.963
770.124;   36.643; -411.021; -336.963
770.383; -103.455; -778.020; -910.963
770.641;  -14.952; -398.020; -400.964
770.900; -100.249; -953.020; -846.964
771.159; -110.447; -851.020; -951.964
771.418;   -8.644; -917.020; -779.965
771.677;  233.658; -224.019; -293.965
771.936;  212.261; -794.019; -865.966
772.194; 4305.064; -465.019; -437.966
772.453;16403.166; -213.019; -391.966
772.712; 1238.669;  416.982;  329.033
772.970;  290.571;   32.982;   63.033
773.229;  179.874;  -22.018;  102.033
773.488; -151.123; -814.018; -770.968
773.746;  153.179;  296.982;  335.032
774.005;   75.782;  190.983;  -22.969
774.263;   85.584;  243.983;  177.031
774.522; -109.913; -422.017; -548.969
774.780;  -77.310; -484.017; -417.970
775.039; -123.408; -551.017; -531.970
775.297;    7.795; -135.016; -351.970
775.555; -146.803; -489.016; -612.971
775.814; -197.200; -618.016; -570.971
776.072; -207.097; -749.016; -740.971
776.330; -155.295; -630.016; -520.972
776.589; -169.192; -703.015; -721.972
776.847; -220.390; -645.015; -624.973
777.105; -272.787;-1016.015;-1032.973
777.363; -132.284; -459.015; -454.973
777.621; -214.782; -660.015; -717.974
777.879;    6.121;  -42.014;   32.026
778.138; -142.577; -554.014; -717.974
778.396; -156.974; -585.014; -526.975
778.654; -261.371;-1015.014; -970.975
778.912;  -79.869; -269.014; -371.976
779.170; -186.866; -880.013; -803.976
779.427; -276.564; -922.013; -897.976
779.685; -248.161; -880.013; -832.977
779.943; -153.258; -654.013; -593.977
780.201; -288.356; -964.012; -883.978
780.459; -164.653; -651.012; -610.978
780.717;  -99.251; -440.012; -390.978
780.974; -170.248; -449.012; -490.979
781.232;  -60.945; -358.012; -338.979
781.490; -125.743; -551.011; -472.979
781.747; -116.740; -555.011; -476.980
782.005;   94.762;  462.989;  254.020
782.263; -287.235; -542.011;-1004.981
782.520; -103.633; -326.011; -501.981
782.778; -291.930;-1013.010;-1051.981
783.035; -291.627; -962.010; -938.982
783.293; -100.025; -248.010; -206.982
783.550;  -35.622; -134.010; -198.982
783.808; -193.520; -764.010; -776.983
784.065; -288.717; -745.009; -874.983
784.322;  -37.714;   25.991;  -86.984
784.580; -237.612; -915.009; -771.984
784.837; -119.709; -392.009; -466.984
785.094; -219.907; -783.009; -762.985
785.352;  -84.304; -304.008; -404.985
785.609; -208.901; -934.008; -839.985
785.866; -115.799; -345.008; -401.986
786.123; -104.996; -639.008; -583.986
786.380; -160.194; -665.008; -604.987
786.637;  -49.591; -225.007; -380.987
786.895;  -70.488; -456.007; -543.987
787.152;  -36.786; -135.007; -267.988
787.409;  -39.083; -123.007; -225.988
787.666; -141.981; -299.006; -378.988
787.923; -165.078; -616.006; -695.989
788.179; -147.775; -551.006; -584.989
788.436; -179.273; -585.006; -585.990
788.693;  -21.870;  -92.006;  -87.990
788.950;  253.032; -125.005; -112.990
789.207;  278.435; -381.005; -372.991
789.464;  -34.462; -161.005; -301.991
789.720;   37.040;  150.995;  110.009
789.977; -293.457;-1003.005; -671.992
790.234;  -21.755;   44.996;  -66.992
790.490; -244.352; -884.004;-1031.993
790.747;   -2.449;  -85.004;   22.007
791.004;   10.353; -426.004; -348.993
791.260; -110.444; -430.004; -560.994
791.517; -174.042; -843.003; -788.994
791.773;  -69.739; -379.003; -342.994
792.030; -182.036; -596.003; -660.995
792.286; -167.634; -686.003; -636.995
792.543;    3.169;  -74.002; -159.995
792.799;  -77.429; -584.002; -382.996
793.055; -289.426;-1179.002;-1210.996
793.312; -164.323; -827.002; -816.997
793.568; -112.821; -746.002; -599.997
793.824;   33.882; -226.001; -284.997
794.081;   46.584; -447.001; -508.998
794.337;   97.987; -664.001; -561.998
794.593; 2575.490; -319.001; -271.999
794.849; 9585.692; -746.001; -772.999
795.105;  495.695; -270.000; -261.999
795.361;   -3.003; -490.000; -457.000
795.617; -106.400; -875.000; -945.000
795.873;  -68.300; -360.000; -407.000
796.129;  -52.100; -368.000; -306.000
796.385;  -29.800; -124.000; -156.000
796.641;  185.200;  412.000;  550.000
796.897; -114.300; -666.000; -635.000
797.153;  195.500;  453.000;  357.000
797.409; -175.100; -785.000; -868.000
797.665; -118.300; -625.000; -732.000
797.921; -144.800; -775.000; -762.000
798.176;  -73.600; -744.000; -747.000
798.432;  -86.200; -824.000; -596.000
798.688; -135.300;-1174.000;-1078.000
798.943;  145.300; -165.000; -147.000
799.199;  -24.900;-1005.000; -959.000
799.455;  442.500;  369.000;  316.000
799.710;  189.600; -813.000; -380.000
799.966;  470.600; -162.000; -160.000
800.221;  801.500; -638.000; -721.000
800.477;17428.900; -743.000; -710.000
800.732;12084.000; -773.000; -800.000
800.988; 1043.900;  205.000;  -19.000
801.243; 3693.200; -454.000; -344.000
801.498;12350.600; -814.000; -739.000
801.754;  733.800; -289.000; -163.000
802.009;  170.000; -257.000; -335.000
802.264;  -84.600; -967.000;-1033.000
802.520;   46.000;  222.000;   -3.000
802.775;  -30.200; -524.000; -359.000
803.030;  147.700;  395.000;  356.000
803.285; -210.700; -840.000; -903.000
803.540;  -94.900; -686.000; -699.000
803.795;  -63.800; -648.000; -583.000
804.051;  -53.500; -279.000; -346.000
804.306;  118.200;  168.000;  128.000
804.561;  278.700;  451.000;  362.000
804.816;  322.800;  714.000;  861.000
805.071;   63.800; -185.000; -280.000
805.325;  300.600; -257.000; -427.000
805.580; -218.700; -841.000; -877.000
805.835;   35.100; -204.000; -297.000
806.090; -105.100; -760.000; -676.000
806.345;   -2.300; -344.000; -264.000
806.600;  -81.800; -549.000; -632.000
806.854;  -23.600; -408.000; -538.000
807.109;   -2.800; -493.000; -577.000
807.364;   35.200; -407.000; -328.000
807.618;   -6.400; -415.000; -381.000
807.873;  110.900; -470.000; -494.000
808.128;  176.200; -257.000; -518.000
808.382;  167.900; -224.000; -332.000
808.637;  112.100; -440.000; -511.000
808.891;  271.200; -257.000; -180.000
809.146;  155.300; -902.000; -794.000
809.400;  390.800; -848.000; -923.000
809.654;  442.600; -779.000; -551.000
809.909;  738.200; -841.000; -927.000
810.163;11542.100; -813.000; -651.000
810.418;22881.600; -940.000; -861.000
810.672; 1458.600; -685.000; -690.000
810.926; 1091.400; -993.000; -973.000
811.180; 2574.300; -439.000; -372.000
811.434;53839.400;  240.000;  135.000
811.689;16680.900; -231.000; -365.000
811.943;  915.500; -936.000; -953.000
812.197;  536.700; -893.000; -671.000
812.451;  222.000; -379.000; -514.000
812.705;  -52.700; -809.000; -619.000
812.959;  -80.300; -263.000; -388.000
813.213;   28.200; -283.000; -209.000
813.467;  203.800;  470.000;  253.000
813.721; -155.400; -764.000; -792.000
813.975; -198.000; -826.000; -877.000
814.229;  144.400;  430.000;  353.000
814.482;  -95.300; -517.000; -566.000
814.736; -199.000; -766.000; -744.000
814.990; -185.400; -779.000; -872.000
815.244;  -52.000; -228.000; -285.000
815.497; -120.200; -636.000; -601.000
815.751;   -3.500; -141.000;   82.000
816.005; -109.700; -470.000; -586.000
816.258; -105.400; -510.000; -363.000
816.512; -136.800; -693.000; -610.000
816.766;   57.100;  121.000;  157.000
817.019;   95.100;  148.000;  149.000
817.273; -200.100;-1000.000; -802.000
817.526;   -9.100; -206.000; -173.000
817.779;  -92.700;-1049.000; -960.000
818.033; -162.600; -693.000; -807.000
818.286; -178.600; -725.000; -792.000
818.540; -143.100; -403.000; -403.000
818.793; -109.800; -402.000; -489.000
819.046; -175.200; -582.000; -520.000
819.299;  -34.100; -157.000; -166.000
819.553; -188.100; -552.000; -592.000
819.806; -258.000;-1016.000; -838.000
820.059;  -49.400; -334.000; -354.000
820.312;   60.000;  152.000;  185.000
820.565;   13.700;  110.000;  -27.000
820.818;  -39.900;  -59.000; -173.000
821.071; -261.500;-1041.000; -957.000
821.324; -173.300; -536.000; -540.000
821.577; -148.800; -457.000; -483.000
821.830;  -80.200; -270.000; -172.000
822.083; -210.400; -733.000; -288.000
822.336;  -68.800; -261.000; -167.000
822.589; -226.800; -805.000; -688.000
822.842; -236.500; -875.000; -770.000
823.094; -301.500;-1076.000;-1114.000
823.347; -228.800; -925.000; -729.000
823.600;   84.600;  402.000;  187.000
823.853;  -47.300; -311.000; -267.000
824.105; -128.700; -331.000; -575.000
824.358; -204.000; -617.000; -716.000
824.611;   81.500;  234.000;   40.000
824.863;  -57.200; -612.000; -591.000
825.116;   94.200;  -33.000;   27.000
825.368;  115.000; -366.000; -372.000
825.621;  231.200; -186.000; -240.000
825.873;  108.300; -704.000; -737.000
826.126; 1059.000; -669.000; -641.000
826.378;18140.700; -389.000; -505.000
826.630; 3136.400; -890.000; -898.000
826.883;   65.800; -754.000; -693.000
827.135;  107.400; -279.000; -270.000
827.387; -193.700; -893.000; -839.000
827.639;   -9.000;  -86.000;   32.000
827.892; -225.800; -742.000; -582.000
828.144; -230.300; -848.000; -804.000
828.396;   -9.300;  104.000;  -80.000
828.648; -148.200; -440.000; -333.000
828.900; -228.800; -702.000; -795.000
829.152; -194.600; -684.000; -683.000
829.404;  -61.000; -215.000; -267.000
829.656;  -26.200;  321.000;  214.000
829.908;    3.600;  393.000;  229.000
830.160; -300.300;-1064.000;-1047.000
830.412; -130.700; -481.000; -430.000
830.664; -213.300; -557.000; -665.000
830.916;  -99.100; -268.000; -206.000
831.167; -296.900;-1073.000; -951.000
831.419; -177.700; -623.000; -566.000
831.671; -249.900; -764.000; -809.000
831.923; -105.700; -311.000; -447.000
832.174;  -64.000; -273.000; -331.000
832.426; -171.600; -493.000; -582.000
832.678; -344.200;-1043.000;-1091.000
832.929; -291.900; -947.000; -935.000
833.181;  -93.700; -575.000; -677.000
833.432;  -44.600;  -59.000; -186.000
833.684;   54.500;  112.000;  -27.000
833.935; -170.700; -610.000; -566.000
834.187; -189.900; -829.000; -823.000
834.438;  -43.500;  -58.000;  -25.000
834.689;  -28.600; -255.000; -123.000
834.941;  -35.000; -343.000; -244.000
835.192; -121.500; -590.000; -533.000
835.443; -125.200; -419.000; -506.000
835.695;   47.400;  138.000;  -16.000
835.946; -137.900; -608.000; -378.000
836.197; -173.800; -599.000; -622.000
836.448; -139.600; -528.000; -395.000
836.699;  -69.900; -253.000; -341.000
836.950;   49.000;   72.000;    7.000
837.201; -268.300;-1003.000; -987.000
837.452;  -47.000; -356.000; -170.000
837.703; -201.000; -791.000; -737.000
837.954;  -63.100; -205.000; -365.000
838.205; -140.200;-1029.000;-1008.000
838.456;  256.500; -196.000; -282.000
838.707;   14.400; -423.000; -519.000
838.958;    1.800; -634.000; -647.000
839.209;  429.900;   18.000;   40.000
839.460;  181.000; -439.000; -201.000
839.710;  294.000; -135.000; -297.000
839.961;  690.000;  730.000;  612.000
840.212;  504.000; -382.000; -497.000
840.462; 1929.300; -328.000; -277.000
840.713;29243.100; -571.000; -536.000
840.964; 8741.000;  -62.000; -143.000
841.214;  709.500; -384.000; -624.000
841.465;  856.000; -214.000; -141.000
841.715;  687.500; -417.000; -380.000
841.966;  940.800; -746.000; -685.000
842.216;15976.900; -330.000; -431.000
842.466;46272.000; -169.000; -313.000
842.717; 1841.000; -964.000; -952.000
842.967;  462.700; -635.000; -641.000
843.217;  417.700;   20.000;   28.000
843.468;  140.000; -104.000; -132.000
843.718;  -45.500; -718.000; -726.000
843.968; -190.100; -837.000; -765.000
844.218;   76.800; -315.000; -262.000
844.469;  -83.400; -577.000; -561.000
844.719; -187.700; -537.000; -682.000
844.969; -121.000; -550.000; -580.000
845.219; -246.100; -814.000; -862.000
845.469; -124.900; -392.000; -342.000
845.719; -260.900; -792.000; -884.000
845.969;   17.100;  119.000;  174.000
846.219; -209.600; -738.000; -720.000
846.469;   96.400;  464.000;  432.000
846.718;  -28.300; -115.000;   31.000
846.968; -218.700; -827.000; -827.000
847.218;  -27.400; -224.000; -371.000
847.468; -180.100; -586.000; -555.000
847.718; -224.000; -827.000; -798.000
847.967; -233.500; -826.000; -915.000
848.217;  -96.500; -449.000; -569.000
848.467;  -77.800; -405.000; -376.000
848.716; -205.200; -708.000; -725.000
848.966;    7.000; -372.000; -358.000
849.215;  -73.700; -428.000; -419.000
849.465; -171.600; -785.000; -615.000
849.714; -243.300;-1132.000;-1150.000
849.964;  -94.900; -551.000; -613.000
850.213;  -14.100; -393.000; -355.000
850.463;  189.800;  137.000;  340.000
850.712;   23.800; -542.000; -567.000
850.961;   34.600; -739.000; -678.000
851.211;  143.600; -513.000; -504.000
851.460;  240.400; -635.000; -650.000
851.709; 1021.800;  -25.000;   18.000
851.958;18058.900; -912.000; -750.000
852.208;16754.300; -859.000; -879.000
852.457;  626.300; -181.000;  -13.000
852.706;  119.700; -791.000; -823.000
852.955;   52.000; -507.000; -528.000
853.204;  -80.000; -521.000; -461.000
853.453; -140.100; -418.000; -458.000
853.702; -209.700; -660.000; -750.000
853.951; -162.000; -532.000; -520.000
854.200; -191.400; -613.000; -562.000
854.449; -207.700; -695.000; -661.000
854.698; -118.400; -340.000; -279.000
854.946;  -71.800; -181.000; -284.000
855.195; -248.200; -843.000; -868.000
855.444; -119.400; -395.000; -420.000
855.693; -172.200; -345.000; -432.000
855.941; -156.300; -387.000; -516.000
856.190;  -51.600; -256.000; -382.000
856.439; -227.100; -652.000; -703.000
856.687;  -41.100;  -99.000;  -72.000
856.936; -184.200; -621.000; -323.000
857.184; -287.700;-1067.000;-1020.000
857.433; -148.900; -423.000; -512.000
857.681; -236.200; -989.000; -953.000
857.930;  -92.500; -282.000; -433.000
858.178; -298.300; -856.000; -929.000
858.427; -277.700; -802.000; -781.000
858.675; -151.800; -377.000; -544.000
858.923; -146.400; -527.000; -819.000
859.172; -306.000;-1094.000;-1070.000
859.420; -135.200; -339.000; -239.000
859.668; -240.600; -624.000; -628.000
859.916;   15.600;  109.000;  115.000
860.164; -156.100; -699.000; -603.000
860.413;  377.800; -878.000; -696.000
860.661;  215.200; -709.000; -577.000
860.909; -113.600; -339.000; -325.000
861.157;  -97.100; -277.000; -444.000
861.405; -187.500; -534.000; -670.000
861.653;   99.100;  310.000;  310.000
861.901;  274.100; -543.000; -613.000
862.149; -136.900; -801.000; -824.000
862.396;  -85.600; -297.000; -187.000
862.644;  -93.100; -368.000; -347.000
862.892;  -36.400;   98.000;  138.000
863.140; -161.700; -549.000; -530.000
863.388; -250.200; -815.000; -759.000
863.635; -202.900; -642.000; -601.000
863.883;   25.300;  231.000;  190.000
864.131; -112.000; -288.000; -357.000
864.378; -196.900; -675.000; -540.000
864.626; -130.800; -347.000; -415.000
864.873; -180.600; -556.000; -505.000
865.121; -220.100; -714.000; -799.000
865.368;  -43.600; -173.000;   75.000
865.616;  -14.800;  -33.000;  -40.000
865.863; -110.000; -462.000; -506.000
866.111; -157.700; -795.000; -824.000
866.358;  117.100; -426.000; -420.000
866.605; 4419.000;  -64.000; -804.000
866.853; 3305.700; -621.000; -537.000
867.100;  -89.600; -728.000; -775.000
867.347; -145.800; -672.000; -611.000
867.594; -167.500; -740.000; -714.000
867.841;  154.900;   97.000;   17.000
868.089; -239.500; -746.000; -698.000
868.336; -136.300; -477.000; -420.000
868.583; -224.600; -637.000; -741.000
868.830;  -33.100; -131.000; -170.000
869.077; -277.200; -859.000; -787.000
869.324; -187.000; -502.000; -458.000
869.571; -199.500; -398.000; -430.000
869.818; -201.800; -485.000; -439.000
870.065; -170.800; -439.000; -513.000
870.311; -148.400; -456.000; -542.000
870.558; -130.900; -332.000; -311.000
870.805; -141.600; -320.000; -384.000
871.052; -148.500; -494.000; -369.000
871.298;  -44.500; -204.000; -131.000
871.545; -105.800; -151.000; -185.000
871.792;  -67.300; -173.000; -222.000
872.038;  -70.900;   43.000; -126.000
872.285; -189.000; -496.000; -387.000
872.532; -116.200; -357.000; -387.000
872.778;   99.600;  556.000;  403.000
873.025; -134.500; -384.000; -359.000
873.271;  121.700;  501.000;  578.000
873.517;   19.200; -133.000; -209.000
873.764;  -51.400; -193.000;  -80.000
874.010;  -59.400; -143.000; -230.000
874.257;  -18.200;  123.000;   90.000
874.503; -207.000; -579.000; -479.000
874.749;  -81.200;   31.000;  275.000
874.995;  -65.100;  -80.000;  -20.000
875.242; -196.600; -540.000; -478.000
875.488; -118.500; -414.000; -439.000
875.734;  -51.100; -106.000; -234.000
875.980;  253.800; -872.000;-1032.000
876.226;  400.000; -157.000; -255.000
876.472;   71.000;  343.000;  237.000
876.718;    7.000;  184.000;  158.000
876.964;   -8.500;   56.000;   55.000
877.210; -257.800; -547.000; -677.000
877.456; -188.300; -630.000; -557.000
877.702; -289.600; -821.000; -832.000
877.948; -135.000; -377.000; -497.000
878.193;   77.500;  361.000;  255.000
878.439; -150.400; -487.000; -472.000
878.685; -133.300; -272.000; -343.000
878.931; -186.500; -618.000; -676.000
879.176; -109.900; -201.000; -201.000
879.422; -294.600; -933.000; -820.000
879.668;  117.600;   10.000;   79.000
879.913;  253.300;   53.000;  137.000
880.159;  -73.600; -112.000;  -17.000
880.404;  -42.200; -152.000; -162.000
880.650;   21.600;   91.000;  141.000
880.895; -247.200; -670.000; -710.000
881.141; -197.200; -454.000; -428.000
881.386; -217.700; -503.000; -658.000
881.631; -122.100; -311.000; -166.000
881.877;   17.200;  112.000;  -13.000
882.122; -226.800; -684.000; -600.000
882.367;  -89.800; -136.000; -186.000
882.612;  -88.000;  -80.000; -176.000
882.858; -302.200; -877.000; -823.000
883.103; -133.300; -297.000; -267.000
883.348; -245.500; -759.000; -852.000
883.593; -228.600; -677.000; -602.000
883.838;  -57.500; -311.000;  -24.000
884.083;  131.900;  353.000;  288.000
884.328; -141.300; -564.000; -545.000
884.573;  -25.300; -196.000; -143.000
884.818;  340.800; -694.000; -531.000
885.063;  218.700; -348.000; -315.000
885.308; -154.500; -475.000; -398.000
885.553;   40.200;  245.000;  325.000
885.797; -174.900; -545.000; -615.000
886.042;  -25.300;    8.000;   58.000
886.287; -107.100; -253.000; -211.000
886.532;  -33.000;   26.000;  204.000
886.776; -148.800; -407.000; -525.000
887.021; -241.900; -621.000; -574.000
887.265; -215.300; -685.000; -689.000
887.510; -218.700; -557.000; -496.000
887.755; -112.200; -194.000; -164.000
887.999; -215.800; -552.000; -575.000
888.244;  -40.900;  -58.000;  161.000
888.488;   79.300;  371.000;  393.000
888.732; -189.400; -368.000; -520.000
888.977; -224.400; -622.000; -567.000
889.221; -277.500; -683.000; -659.000
889.465; -182.800; -422.000; -566.000
889.710;  -88.000;  -56.000; -299.000
889.954;   58.400;  579.000;  467.000
890.198; -231.200; -584.000; -707.000
890.442; -266.000; -716.000; -712.000
890.687; -272.900; -800.000; -753.000
890.931; -131.000; -273.000; -210.000
891.175; -210.700; -502.000; -500.000
891.419;  -83.800; -105.000; -110.000
891.663;  -90.800; -239.000; -112.000
891.907; -255.100; -801.000; -545.000
892.151; -280.400; -920.000; -815.000
892.395; -148.400; -274.000; -387.000
892.638;   57.600;  408.000;  291.000
892.882; -296.900; -780.000; -867.000
893.126;  109.200;  758.000;  558.000
893.370; -114.700; -167.000; -168.000
893.614; -221.500; -714.000; -715.000
893.857; -124.300; -183.000; -197.000
894.101; -200.300; -527.000; -631.000
894.345;  -21.900;  300.000;  150.000
894.588;  120.300;  569.000;  380.000
894.832; -100.200; -178.000;  -84.000
895.075; -106.500;   15.000;  -92.000
895.319; -188.300; -552.000; -420.000
895.563; -164.500; -413.000; -353.000
895.806; -238.600; -628.000; -741.000
896.049;  -70.400; -576.000; -368.000
896.293;  206.600;  527.000;  405.000
896.536; -121.600; -465.000; -468.000
896.779;  -54.100; -149.000;   -1.000
897.023; -233.300; -751.000; -714.000
897.266;   -6.600;  325.000;  269.000
897.509; -288.700; -900.000; -901.000
897.752;  -20.000;  149.000;  171.000
897.996; -313.000; -972.000; -864.000
898.239;  -33.700;  168.000;  102.000
898.482; -173.300; -431.000; -453.000
898.725;    7.900;  101.000;   53.000
898.968; -270.900; -609.000; -744.000
899.211; -154.700; -513.000; -361.000
899.454; -193.700; -633.000; -539.000
899.697;  -46.800;   90.000;  -43.000
899.940; -258.100; -761.000; -757.000
900.182; -136.100; -335.000; -405.000
900.425; -109.700; -150.000; -298.000
900.668;   36.200;  491.000;  350.000
900.911; -120.800; -292.000; -345.000
901.154;  -42.900;  141.000;   -3.000
901.396; -186.400; -407.000; -412.000
901.639; -221.900; -430.000; -496.000
901.882; -323.900; -790.000; -809.000
902.124;  -97.100;  -29.000; -143.000
902.367; -174.800; -315.000; -361.000
902.609; -163.800; -476.000; -453.000
902.852; -103.300; -108.000; -260.000
903.094; -183.300; -458.000; -337.000
903.337;  -39.900;  -26.000;   53.000
903.579; -153.000; -228.000; -441.000
903.821; -247.000; -597.000; -744.000
904.064;  -52.500;   85.000;  127.000
904.306;  -99.500; -126.000; -166.000
904.548; -143.400; -152.000; -366.000
904.790; -131.300; -195.000; -340.000
905.033; -196.500; -625.000; -577.000
905.275; -209.700; -513.000; -524.000
905.517;  152.800;  468.000;  256.000
905.759; -140.200; -667.000; -761.000
906.001; -157.100; -322.000; -369.000
906.243;  -64.800; -162.000; -224.000
906.485;  191.800; -265.000; -207.000
906.727;   83.500; -499.000; -542.000
906.969;    2.700;  -30.000; -135.000
907.211;  211.500; -316.000; -382.000
907.453;  400.900; -188.000; -237.000
907.695;   18.000; -158.000; -385.000
907.936;  148.300;  818.000;  706.000
908.178;  -32.300;   92.000; -135.000
908.420;  -87.300; -111.000; -162.000
908.662; -183.000; -633.000; -682.000
908.903; -134.700; -208.000; -123.000
909.145;  -69.600; -240.000; -305.000
909.386;   56.200;  315.000;  280.000
909.628;  120.600;  363.000;  397.000
909.870;   62.800;   29.000;  264.000
910.111; -200.700; -809.000; -949.000
910.353;   33.600; -123.000; -161.000
910.594;   22.000; -574.000; -606.000
910.835;  153.100; -265.000; -326.000
911.077;  286.400; -503.000; -604.000
911.318;  497.000; -505.000; -471.000
911.559;  807.500; -577.000; -880.000
911.801; 2552.400; -284.000; -280.000
912.042;21363.700;  -50.000; -159.000
912.283;44445.900;  404.000;  371.000
912.524; 5229.200; -396.000; -457.000
912.765;  785.200; -193.000;   79.000
913.006;  443.600; -307.000; -338.000
913.247;  106.800; -270.000; -290.000
913.488;   33.100;  -43.000;   30.000
913.729; -137.700; -373.000; -373.000
913.970;  -48.200;  -96.000; -292.000
914.211;  -84.400; -160.000; -198.000
914.452;  -50.200; -118.000;  -11.000
914.693;  102.400;  510.000;  592.000
914.934;  124.200;  510.000;  440.000
915.175;  -86.600;   53.000;  -95.000
915.415;  -80.200; -137.000;   27.000
915.656;  -70.000;  -28.000;  192.000
915.897; -112.100; -252.000;  -82.000
916.137;  -56.200;   74.000;   -9.000
916.378; -175.500; -573.000; -517.000
916.619; -108.400; -159.000;  -63.000
916.859;  -23.700;  303.000;  330.000
917.100;  359.800; 1655.000; 1070.000
917.340;  204.800;  930.000;  728.000
917.581;  157.800;  965.000;  789.000
917.821;   14.100; -171.000;  143.000
918.061;   10.700; -199.000;  -72.000
918.302;  -68.600; -152.000; -211.000
918.542;  -55.400;  -22.000;    3.000
918.782;  119.600;  369.000;  377.000
919.023;  281.100;  360.000;  427.000
919.263; 2727.100; 8131.000;  202.000
919.503; 1596.700; -137.000;  -54.000
919.743; 1000.800;  390.000;  266.000
919.983;  334.200; -134.000;  -26.000
920.223;  162.500;  135.000;   14.000
920.463;  345.800;  631.000;  554.000
920.703;  282.900;   84.000;   39.000
920.943;  292.800; -110.000;   90.000
921.183;  410.600; -414.000; -405.000
921.423;  898.800;  307.000;  546.000
921.663; 1191.400; -174.000; -257.000
921.903; 2780.500;  237.000;  173.000
922.143;17021.600;  372.000;  389.000
922.383;57239.100;  158.000;  115.000
922.622;14653.300; -120.000;  -15.000
922.862; 1851.500;  796.000;  785.000
923.102;  726.400;  -51.000;   33.000
923.341;  308.500;   59.000;   74.000
923.581;  221.500;  450.000;  360.000
923.821;   61.500;  301.000;  398.000
924.060;   91.200;  351.000;  193.000
924.300;  -41.300;  -16.000; -128.000
924.539;   57.800;  584.000;  473.000
924.779;  119.300;  812.000;  597.000
925.018;  -35.200;  247.000;  353.000
925.257;   63.100;  595.000;  666.000
925.497;   -0.900;  447.000;  412.000
925.736;  -73.800;  -35.000;  102.000
925.975;   68.200;  687.000;  669.000
926.214;  162.100;  907.000;  850.000
926.454;  147.900;  706.000;  757.000
926.693;    7.100;  419.000;  543.000
926.932;  199.500; 1021.000;  825.000
927.171;  242.500; 1107.000; 1044.000
927.410;  209.900; 1144.000;  967.000
927.649;  150.700;  924.000;  742.000
927.888;   62.500;  590.000;  564.000
928.127;   83.300;  680.000;  678.000
928.366;  153.800;  842.000;  826.000
928.605;  203.600;  831.000;  737.000
928.844;  544.500; 1451.000; 1393.000
929.083; 1082.300;  770.000;  613.000
929.321;  530.400; 1335.000; 1359.000
929.560;  283.000; 1158.000; 1122.000
929.799;   19.000;  574.000;  475.000
930.038;  245.500; 1025.000; 1394.000
930.276;  -17.600;  334.000;  397.000
930.515;  102.500;  827.000;  681.000
930.753;   62.500;  614.000;  589.000
930.992;   50.200;  664.000;  717.000
931.230;   93.400;  847.000;  847.000
931.469;  460.400; 2162.000;  892.000
931.707;  236.400;  840.000;  751.000
931.946;  220.100; 1278.000; 1344.000
932.184;  221.100; 1437.000; 1175.000
932.423;  202.200; 1265.000;  963.000
932.661;  245.500; 1296.000; 1428.000
932.899;  110.400;  987.000;  821.000
933.137;  118.300;  754.000;  564.000
933.376;  328.200; 1664.000; 1335.000
933.614;  397.400; 1759.000; 1196.000
933.852;  201.900; 1357.000; 1171.000
934.090;  382.300; 1722.000; 1747.000
934.328;  275.100; 1252.000; 1457.000
934.566;  224.500; 1431.000; 1110.000
934.804;  332.300; 1263.000; 1309.000
935.042; 1017.400; 1861.000; 1850.000
935.280; 3840.900; 2088.000; 2063.000
935.518; 2922.500; 2113.000; 2007.000
935.756;  721.700; 2481.000; 2316.000
935.994;  382.900; 1808.000; 1751.000
936.231;  742.400; 2890.000; 2950.000
936.469;  507.400; 2367.000; 2378.000
936.707;  428.900; 2220.000; 2167.000
936.945;  542.700; 2825.000; 2882.000
937.182;  497.900; 2679.000; 2741.000
937.420;  706.800; 3602.000; 3031.000
937.657;  908.000; 3365.000; 3478.000
937.895;  702.700; 3331.000; 3488.000
938.133;  704.700; 3540.000; 3528.000
938.370;  801.800; 3896.000; 4191.000
938.607;  905.500; 4488.000; 4205.000
938.845; 1243.900; 5587.000; 5549.000
939.082; 1045.800; 5387.000; 5177.000
939.320; 1156.200; 5799.000; 5728.000
939.557; 1411.700; 6549.000; 6491.000
939.794; 1566.900; 7285.000; 7097.000
940.031; 1989.800; 8421.000; 8368.000
940.269; 2260.800; 9552.000; 9107.000
940.506; 2399.600;10901.000;10507.000

