
Integration time [ms]: 200.000
Averaging Nr. [scans]: 10
Smoothing Nr. [pixels]: 0
Data measured with spectrometer [name]: 2101013U2
Wave   ;Sample   ;Dark     ;Reference
[nm]   ;[counts] ;[counts] ;[counts] 

394.013;   85.245; -450.257; -315.536
394.305;  382.542; -461.258; -419.536
394.596; 1806.984; -676.269; -527.514
394.887; 4378.110; -796.268; -654.518
395.178; 1772.356;  145.736;   11.476
395.470;  149.474; -210.263; -356.526
395.761;  434.332;  305.734;  394.479
396.052;  627.792; -545.284; -306.489
396.343;  650.299; -557.276; -454.503
396.634;  217.251; -200.279; -290.497
396.926;  183.006; -618.268; -565.517
397.217;  188.206;   11.725;  -17.504
397.508;   77.831; -366.273; -154.507
397.799;   50.551; -555.279; -571.497
398.090;  -20.057; -973.280; -902.495
398.381;  198.477;   11.708;  -11.473
398.672;  -13.121; -585.292; -742.473
398.963;   83.461; -348.279; -373.498
399.254;  210.293;   54.709; -209.475
399.545;  -86.573;-1017.266; -883.520
399.836;  121.683; -407.277; -343.501
400.127;   64.041; -205.295; -209.468
400.418;   83.822; -423.274; -392.506
400.709;  102.023; -359.281; -333.493
401.000;   96.399; -268.291; -309.476
401.290;  223.844;  225.698;  115.545
401.581;  134.166; -166.286; -228.485
401.872;   13.298; -542.298; -486.462
402.163;  130.929; -313.296; -252.467
402.454;  152.894; -123.291; -163.475
402.744;  114.916; -844.297; -813.465
403.035;  722.864; -226.293;  -86.471
403.326;  908.584; -366.292; -384.474
403.617;  633.190;  204.701;  165.539
403.907;  436.401; -593.283; -679.490
404.198; 3908.073; -545.307; -599.446
404.489; 9999.309; -618.283; -588.491
404.779; 3484.749; -618.302; -660.456
405.070;  421.316;  -67.304; -174.451
405.360;  532.067; -259.293; -238.472
405.651;  626.466;  125.699;   98.542
405.942;  387.859;  209.714;  127.516
406.232;  494.881; -432.285; -413.487
406.523;  943.556;  641.706;  758.530
406.813;  183.362; -579.286; -644.484
407.104;  614.376;  261.708;  144.527
407.394;  316.391; -604.299; -591.462
407.685;  331.080;  336.715;  222.513
407.975;  151.106; -400.283; -382.490
408.265;  214.416; -134.289; -190.478
408.556;  113.189; -472.291; -459.475
408.846;  304.757;  474.706;  429.530
409.137;  211.629;   -1.288; -216.480
409.427;   94.780; -193.285; -271.487
409.717;   54.335; -776.273; -692.508
410.007;  255.971;    4.715; -170.486
410.298;  160.345; -360.295; -342.469
410.588;  106.776; -495.285; -510.486
410.878;   16.946; -792.287; -873.482
411.168;  196.702; -481.298; -478.463
411.459;  239.298; -295.283; -242.489
411.749;  104.887; -609.292; -507.474
412.039;   90.726; -755.289; -386.480
412.329;  423.272;   40.722;  132.501
412.619;  354.363;  -62.286; -148.485
412.909;  693.420;  639.711;  594.521
413.199;  624.043; -130.280; -251.495
413.490;  692.006;  521.710;  352.523
413.780;  240.249;-1013.279; -913.496
414.070;  542.701;  -46.276;  235.497
414.360;  624.766; -729.278; -666.498
414.650;  683.140; -726.288; -688.482
414.940;  832.348; -538.280; -441.496
415.230; 1501.435;   50.712;   74.519
415.520;10454.083;  155.730;   66.486
415.809;38850.222; -305.281; -125.493
416.099;30712.286; -388.277; -229.501
416.389; 8261.919;  435.726;  236.494
416.679; 4968.079;   91.738;   85.473
416.969;  880.453; -527.287; -503.483
417.259; 1010.952;  341.721;  171.503
417.549; 1199.921;  522.718;  318.508
417.838; 2710.809; -205.268; -147.518
418.128; 8799.614;  650.710;  492.522
418.418; 7396.745; -491.272; -579.509
418.708; 5189.319;    9.726;  -48.506
418.997;18454.412; -474.275; -480.505
419.287;19424.129; -733.273; -790.507
419.577;18394.897; -160.283; -123.489
419.866;57970.083; -588.277; -498.501
420.156;59601.777; -242.270;  -55.513
420.446;11722.368; -112.263;  -26.526
420.735; 1518.068; -376.271; -446.512
421.025; 1531.965; 1830.722;  315.502
421.314; 1217.365; -203.271; -226.512
421.604; 2463.898;   89.732;  233.484
421.893; 1437.359; -705.271; -602.511
422.183;  385.068; -487.263; -461.526
422.472;  672.761;  -36.271; -107.511
422.762;  748.436; -416.266; -379.521
423.051;  406.002; -916.276; -916.503
423.341;  519.532; -491.273; -439.507
423.630;  728.645; -121.265;   15.477
423.919;  667.911;   58.725;   49.495
424.209;  662.676;  -31.263;   56.473
424.498;  768.305;   68.732;  161.483
424.787; 1792.615; -535.267; -601.518
425.077; 5299.943;   34.735;   29.478
425.366; 7426.785; -734.262; -744.528
425.655;15637.433;  639.727;  259.493
425.945;32360.683; -313.247; -268.554
426.234;18656.720;  117.741;  300.467
426.523; 8260.228;  -86.259; -350.534
426.812;11430.330;  107.734;  159.480
427.101;16507.592; -127.269; -323.515
427.390;20280.783;  -55.270;  -86.514
427.680; 4796.158; -624.257; -411.538
427.969;  832.474; -330.255; -301.540
428.258;  562.345; -385.257; -477.536
428.547;  928.051;  449.728;  397.490
428.836; 2035.199; -421.253; -398.543
429.125; 2863.830; -199.259;  -72.534
429.414; 1384.834; -330.251; -294.548
429.703; 5276.334; -231.251; -213.548
429.992;14788.939; -938.250; -828.549
430.281; 9961.057; -397.264; -331.524
430.570; 1154.119;  -21.252;   32.454
430.859; 1075.127;  279.741;  352.466
431.148;  930.176;  636.752;  631.446
431.437;  636.618;  391.748;  367.454
431.725;  314.847; -544.257; -481.536
432.014;  185.810; -845.253; -756.545
432.303;  679.392; -149.239; -105.569
432.592; 1007.067; -460.263; -178.525
432.881; 1675.178; -601.248; -437.554
433.169;10021.776; -343.255;  -61.540
433.458;19686.544;  445.765;  540.424
433.747; 8567.293; -397.261; -289.529
434.036; 1527.355; -275.242; -280.564
434.324; 3428.458; -395.249; -379.551
434.613; 5824.645;   40.757;  159.437
434.902; 2060.777;  333.760;  439.433
435.190; 1012.990;   75.761;  295.431
435.479;  595.917;  -52.245;   83.441
435.767;  226.730; -411.244; -427.561
436.056;  388.349; -340.242; -294.563
436.345;  616.280; -372.240; -223.568
436.633;  700.751;   60.750;  383.450
436.922;  553.484;  208.760;  414.432
437.210; 1109.228; -194.236;    1.426
437.499; 3377.641; -583.235; -432.576
437.787; 3607.628; -339.236;  -10.574
438.075;  999.399;   56.761;  162.430
438.364; 1270.003;  -44.238;  250.429
438.652;  800.063; -286.226; -138.592
438.941;  252.708;    3.770;  269.415
439.229;   32.815; -665.252; -466.545
439.517;   84.354; -160.234;  -85.577
439.806;   -9.813; -501.225; -290.595
440.094;  374.865;  377.766;  650.421
440.382;  310.571; -653.233; -302.580
440.670;  354.040; -361.235; -285.576
440.959;   45.614; -347.223; -170.599
441.247;  141.225; -151.229; -109.587
441.535;  209.151; -266.235;   31.423
441.823;   59.261; -497.234; -305.578
442.111;  358.032;  173.771;  327.412
442.400;  876.016; -628.245; -335.559
442.688; 2363.865; -111.234; -620.579
442.976; 1672.348; -786.213; -450.617
443.264;  206.997; -324.224; -364.597
443.552;  167.365; -258.226;   51.408
443.840;  341.049;  602.765;  876.423
444.128;  247.870;  265.767;  269.420
444.416;   32.836; -694.228; -312.588
444.704;   55.759; -465.219;  -92.605
444.992;  176.369;   -0.226;  240.407
445.280;   62.009; -517.230;  -94.585
445.568;   79.653; -694.212; -396.618
445.856;  589.535; -174.221;  357.398
446.143; 1259.553;  -54.220;   -7.604
446.431; 1098.041;  -25.228;  625.411
446.719;  496.988;  489.783;  675.391
447.007;  340.000;  481.769;  705.416
447.295;  368.509;  597.777;  871.402
447.583;  158.822; -464.229;  -34.587
447.870;  278.030; -434.221; -202.601
448.158;  729.007; -104.230;  129.415
448.446;  488.155; -800.219; -338.604
448.733;  292.499;   13.776;  269.403
449.021;  469.253;   60.788;  341.382
449.309;  336.776; -296.210;  208.379
449.596;  380.283;  128.783;   59.392
449.884;  247.720; -571.222; -325.600
450.172;  214.250; -756.227; -406.590
450.459;  751.422;  645.786;  780.387
450.747; 3797.880; -411.218; -147.608
451.034;11657.743;  493.772;  889.411
451.322; 9737.027; -413.214; -170.614
451.609;  895.502;  292.777;  508.403
451.897;  980.572; -550.203; -183.634
452.184; 2776.609; -622.223; -400.598
452.472; 2836.708;   97.792;  269.375
452.759;  622.756;  512.781;  864.395
453.047;  228.849; -407.212; -125.617
453.334;  144.568; -732.219; -216.606
453.621;  140.430; -438.214; -161.615
453.909;  225.960;   13.796;  384.368
454.196;  211.329; -299.199; -123.641
454.483;  407.392;  317.798;  540.364
454.771;  279.313; -215.208;  196.374
455.058;   96.818; -316.207;  102.374
455.345;  234.314;   71.807;  344.347
455.632;  194.623; -128.207;  235.373
455.919;  146.764;  -82.196;  182.354
456.207; -105.764; -774.198; -450.642
456.494;    7.910; -475.200;  -66.639
456.781;   34.085; -399.202; -198.635
457.068;  140.433; -253.206;  -29.628
457.355;  -19.765; -698.206; -401.629
457.642;   46.143; -552.205; -290.630
457.929;   10.400; -778.194; -417.651
458.216;  112.149; -575.212; -354.617
458.503;  407.207; -173.193;  -19.652
458.790;  331.710; -864.208; -630.625
459.077;  472.993;  -77.202;  110.364
459.364; 1278.589; -350.195; -210.649
459.651; 2635.530;  -46.206;  220.372
459.938; 1274.495; -864.209; -665.623
460.225;  295.798;  132.799;  276.363
460.512;  -27.441; -836.197; -688.645
460.799;  233.778;  -32.218;  320.392
461.086;  135.617; -370.200; -251.640
461.372;   77.437; -509.198; -279.642
461.659;  238.866; -165.196;  108.354
461.946;   92.005; -445.193;  -54.651
462.233;  484.614;  842.800;  888.361
462.519;  563.809; -814.201; -464.639
462.806; 1566.860; -768.197; -497.645
463.093; 1409.937; -445.191;  -66.656
463.380;  -60.100; -920.186; -824.664
463.666;  125.863; -259.197;  -18.646
463.953;  156.181; -406.195; -243.648
464.239;  331.881; -173.195;  -77.648
464.526;  746.698;  413.806;  743.350
464.813;  526.054; -565.190; -304.658
465.099;  658.607;  606.807;  607.348
465.386;  662.012;  903.807;  921.348
465.672;   65.860; -694.197; -522.645
465.959;   42.582; -598.188; -520.662
466.245;   72.113; -468.193; -359.652
466.532;  195.178; -109.195;   63.352
466.818;  139.099; -357.186; -216.664
467.104;   56.461; -488.182; -415.672
467.391;    2.557; -628.189; -459.658
467.677;   95.705; -289.186;    9.335
467.964;   48.767; -682.189; -471.660
468.250;  165.709; -331.186; -160.665
468.536;  208.159;   90.811;  180.341
468.822;  -61.373; -821.184; -574.668
469.109;  339.084;  351.827;  471.311
469.395;  419.727;  729.808;  787.346
469.681;  402.464;   46.811;  156.341
469.967; 2025.371; -699.188; -382.660
470.254; 4130.683; -494.188; -306.662
470.540; 2774.563; -601.196; -476.646
470.826;  395.478; -488.181; -397.675
471.112;  526.432;  288.816;  113.331
471.398;  178.539; -253.183;  -58.670
471.684;   91.621; -626.177; -447.680
471.970;  -31.017; -918.180; -981.675
472.256;   49.826; -521.192; -441.654
472.542;   30.901; -499.171; -434.691
472.828;   51.555; -743.182; -607.672
473.114;  105.767; -380.166; -283.700
473.400;   57.546; -504.175; -293.684
473.686;   96.777; -452.166; -400.701
473.972;  124.169; -230.174; -131.687
474.258;  -84.016; -925.173; -843.689
474.544;  356.408; -183.178;   -2.679
474.830;  532.649;  -65.175;   45.316
475.116;  800.157; -123.190; -196.658
475.401;  963.687; -558.180; -467.676
475.687;  299.885; -725.180; -718.676
475.973;   24.967; -673.181; -770.673
476.259;  495.652;  736.825;  764.315
476.544;  628.833; -539.176; -437.682
476.830; 1288.995; -398.172; -322.690
477.116; 1096.131; -430.177; -336.682
477.401;  265.986;  346.820;  358.324
477.687;   -5.454; -289.175; -405.684
477.973;   79.172;   21.819;   28.326
478.258;    9.208; -448.163; -348.706
478.544;  105.017;   21.815;   61.334
478.829;  -73.991; -818.171; -738.692
479.115;  -77.006; -749.172; -651.690
479.401;   10.762; -444.174; -449.686
479.686;   54.984; -253.180;  -74.676
479.972;  -69.484; -886.178; -776.680
480.257;   81.770; -258.166;  -65.700
480.542;   12.015; -614.170; -469.693
480.828;  522.944; 1288.824; 1392.317
481.113;  -32.360; -464.176; -426.683
481.399;   -6.055; -236.161; -202.711
481.684;  -82.831; -620.166; -462.700
481.969;   57.465; -158.159;  -73.713
482.255;    6.932; -439.169; -285.695
482.540;   19.217; -569.178; -441.680
482.825;    3.292; -395.187; -404.663
483.110;  200.137;  -85.169; -105.696
483.396;  306.498; -840.157; -652.718
483.681;  868.369;  543.826;  730.313
483.966;  252.356; -696.160; -700.712
484.251;   35.467; -404.174; -310.687
484.536;   56.685; -356.165; -378.703
484.822;   71.772; -205.173; -218.687
485.107;  -38.643; -599.152; -502.726
485.392;  337.194;  662.836;  541.296
485.677;  214.852;  354.832;  163.302
485.962;  217.694;  160.843;  270.283
486.247;  201.320;  -14.162;   -8.707
486.532;   75.171; -178.166; -325.701
486.817;  350.236;  381.839;  431.291
487.102;  194.431; -453.154; -514.722
487.387; 1008.601; -637.156; -652.718
487.672; 1708.302; -154.164;  -38.705
487.957; 1181.647; -394.160; -286.711
488.241;  317.482; -290.150; -314.729
488.526; 1163.159; -280.152; -148.726
488.811; 1776.119; -881.177; -818.680
489.096; 1337.435; -666.154; -702.723
489.381;  778.453;    3.847;  162.275
489.666;  572.344; -428.161; -510.710
489.950;  361.939;  558.846;  627.277
490.235;  -59.225; -480.151; -458.728
490.520;  -83.457; -756.161; -723.710
490.804; -106.796; -827.156; -736.719
491.089;   18.506; -469.149; -299.732
491.374;   83.900; -132.164;  -75.704
491.658;   -9.576; -817.147; -717.735
491.943;  257.665; -657.152; -609.727
492.227;  414.424; -178.155;  -38.721
492.512;  108.894; -294.157; -341.717
492.797; -125.603; -713.149; -716.731
493.081;  -85.472; -588.147; -598.735
493.366;  -61.455; -751.161; -635.711
493.650;  430.309;  831.859;  917.254
493.935;   36.223; -648.147; -447.734
494.219; -129.910; -778.142; -687.743
494.503;  -81.911; -585.150; -487.730
494.788;  125.281;   46.842;   74.285
495.072;  212.584;  184.850;  434.271
495.356;  264.111; -463.148; -343.733
495.641;  679.238; -812.146; -736.736
495.925;  630.212; -976.156; -903.719
496.209;   71.405; -599.149; -451.732
496.494;  -92.109; -763.142; -544.744
496.778;   17.831; -364.154; -360.722
497.062; -130.689; -819.156; -627.719
497.346;  -75.950; -869.160; -640.711
497.631;  268.717;  580.852;  560.266
497.915;  146.854;  -64.145;  175.261
498.199;  102.198; -341.157; -277.718
498.483;   67.256; -562.152; -508.725
498.767;  348.086;  301.850;  300.271
499.051;  318.402; -126.149; -100.732
499.335;   24.899; -693.149; -739.731
499.619;  -52.936; -381.129; -423.767
499.903;   96.622; -272.155;  -65.721
500.187;   75.742; -588.153; -316.724
500.471;   17.164; -796.152; -595.727
500.755;  185.843;   62.839;  -96.710
501.039;   62.023; -270.155; -357.721
501.323;  203.612;  -21.141;  264.254
501.607;   57.709; -447.163; -503.706
501.891;    2.001; -607.156; -512.718
502.174;  -77.529; -726.144; -585.741
502.458;  156.170;   89.849;  370.273
502.742;   72.048; -180.138; -191.751
503.026;  187.922; -412.147; -254.734
503.310;  298.164; -437.159; -375.713
503.593;  208.125; -464.147; -325.735
503.877;  198.310; -232.133; -156.760
504.161;  291.045;    2.847;  -50.724
504.444;  178.884; -841.158; -710.716
504.728;  715.098; -487.164; -522.704
505.012; 1066.781; -257.150;  -76.729
505.295;  889.845; -417.161; -212.711
505.579;  873.011; -256.156; -496.719
505.862; 1093.648; -555.145; -333.738
506.146; 1041.667; -681.159; -758.714
506.429;  704.468;  568.841;  461.286
506.713;  135.077; -732.151; -667.728
506.996;  562.130;   90.846;  295.278
507.280;  509.591; -633.165; -474.703
507.563;  356.320; -469.155; -261.721
507.847;  158.743; -423.153; -112.724
508.130;  143.946; -665.161; -456.711
508.413;  219.963; -758.167; -577.700
508.697;  400.763; -151.167;   12.300
508.980;  256.845; -422.153; -312.724
509.263;  -27.486; -466.155; -450.720
509.547;  112.781; -124.150;   82.271
509.830;   92.949; -172.160;  140.289
510.113;  178.410;  128.844;  298.281
510.396;   59.654; -530.152; -300.725
510.680;  287.851; -818.145; -812.738
510.963; 1108.237;  184.846;  180.277
511.246;  915.993; -493.150; -357.730
511.529;  425.958; -482.145;  -83.739
511.812;  569.505; -250.134;   10.241
512.095;  376.872; -740.151; -396.728
512.378;  140.131; -317.147; -245.736
512.661;   47.960; -703.137; -623.753
512.944;   21.893; -750.142; -637.744
513.227;  110.256; -170.137; -171.752
513.510;   52.971; -479.144; -671.741
513.793;   49.518; -485.140; -435.747
514.076;  248.996;  -43.127;  -39.771
514.359;  187.207; -294.149; -135.732
514.642;  148.797; -442.142; -567.744
514.925; 1243.216;  581.860;  561.253
515.208; 1454.299; -498.134; -443.758
515.491;  989.720; -276.133; -182.761
515.773;  621.577; -410.143; -337.742
516.056; 3221.270;  249.864;  409.246
516.339; 4156.576; -754.136; -652.755
516.622; 3147.989; -518.150; -488.730
516.904; 2126.687;  882.857;  975.257
517.187;  950.254; -730.138; -523.752
517.470;  627.086; -568.143; -510.743
517.752;  632.180; -624.136; -470.756
518.035;  466.835; -708.139; -725.749
518.318;  549.976; -799.136; -744.755
518.600; 3626.526; -300.132; -325.762
518.883; 4779.296;  310.858;   88.256
519.165; 2430.743; -585.138; -426.751
519.448;  650.525;  -61.132;  -19.762
519.730;  315.307; -573.126; -415.773
520.013;  619.114;  588.867;  664.240
520.295; 1440.707;  -94.134;  -15.759
520.578; 2991.445; -335.131; -305.764
520.860; 3513.425; -254.132;   56.238
521.143; 1763.283; -763.135; -584.756
521.425;  733.727; -251.125; -279.775
521.707; 1043.796; -622.127; -380.771
521.990; 2708.797; -199.127;  167.229
522.272; 3043.821; -116.140;   -4.748
522.554; 1468.478; -237.143; -157.742
522.836;  611.804;  -24.134;   99.241
523.119;  339.420; -496.148; -189.734
523.401;  232.456; -448.130; -314.766
523.683;  138.261; -865.137; -693.753
523.965;  453.451;  408.862;  260.248
524.247;  477.259;   54.878;  170.220
524.529;  305.107; -451.134; -367.759
524.812;  557.058;   -3.130;  191.234
525.094; 1329.550; -773.138; -631.751
525.376; 2018.441; -143.124;   78.223
525.658; 1264.472; -441.136; -339.754
525.940;   54.940; -805.131; -671.764
526.222;   75.577; -188.136;  -88.755
526.504;  170.937; -190.131;   32.237
526.786;  258.111; -960.133; -647.760
527.068;  528.149; -124.123;  -67.778
527.349;  193.866; -865.137; -774.754
527.631;  235.325; -137.132;   22.238
527.913;  167.895; -664.127; -450.771
528.195;  211.016; -761.125; -639.774
528.477;  368.599;  -93.134;  -30.758
528.759;  160.458; -648.130; -522.766
529.040;   73.547; -569.123; -293.778
529.322;  131.920; -235.125;  -10.774
529.604;  211.962;  -47.130;   93.233
529.886;  231.707; -546.126; -302.773
530.167;  234.649;  232.870;  192.235
530.449;   97.630;    1.853;   63.265
530.731;   16.058; -572.122; -459.779
531.012;  103.590; -513.120; -216.784
531.294;  105.849; -118.116;  -43.792
531.575;  275.627;  290.875;  538.225
531.857;   56.192; -548.135; -266.757
532.138;  267.710; -113.141;   40.254
532.420;  294.586;  294.865;  403.244
532.701;  329.315; -722.133; -751.760
532.983;  616.119;  232.867;  182.239
533.264;  219.804; -243.126;  175.228
533.546;  -38.723; -491.136; -508.755
533.827;  156.909;  173.867;   -1.759
534.109;   83.291; -352.135;  -80.757
534.390;  144.731; -725.132; -582.762
534.671;  363.385; -270.135;  -82.756
534.953;  192.651; -751.123; -611.779
535.234;   25.026; -426.117; -255.789
535.515; -143.898; -891.119; -735.785
535.796;  -23.511; -431.128; -193.770
536.078; -193.560;-1050.124; -904.777
536.359;   13.452;  -22.123;    3.221
536.640;   -8.882; -480.125; -197.774
536.921;  307.870;  225.871;  143.232
537.202;  616.445;  -87.138;  -16.751
537.483;  724.944;  251.869;  377.236
537.764;  333.949;   17.870;   98.235
538.045;  -67.502; -543.134; -371.758
538.326;  -45.028; -596.129; -447.768
538.607;    2.698; -686.127; -476.771
538.888;  284.976;   98.879;    5.218
539.169;  238.568; -704.122; -535.781
539.450;  508.268;  236.871;   16.233
539.731;  377.482; -361.121; -182.783
540.012;  241.090;  199.880;  412.216
540.293;  112.632;   82.876;  158.224
540.574;  -17.419; -895.113; -717.796
540.855;  716.580;  435.879;  377.218
541.136;  826.664;   47.878;  139.220
541.416;  447.259; -161.130; -220.766
541.697;  329.638; -274.131; -170.763
541.978; 1584.589; -270.135; -315.757
542.259; 1925.897; -211.127; -236.771
542.539;  966.940; -191.116; -186.790
542.820;  343.626;  461.875;  480.225
543.101;  223.653;  -52.145;  -77.738
543.381;   -2.603; -638.127; -591.771
543.662;  468.893;  159.873; -254.771
543.942;  883.890; -751.127; -830.770
544.223; 1608.266;  193.878;  161.219
544.504;  999.440; -275.124; -182.777
544.784;  912.906; -592.126; -408.773
545.065; 2470.846;  104.884; -254.791
545.345; 3034.803;  227.881;   14.215
545.626; 2007.580;  -14.113; -108.796
545.906; 1298.848;   77.869;   98.235
546.186;  595.913;   92.874;  -95.773
546.467;  317.144;   99.877;  -95.778
546.747;  555.940;  264.884;  327.210
547.027;  592.338;   91.876;  111.223
547.308;  486.589; -376.127; -530.770
547.588;  576.273;  299.871;  371.232
547.868;  387.150;  458.870;  588.235
548.149;  399.857;  609.885;  593.207
548.429;  186.994; -347.127; -299.771
548.709;  285.589; -645.120; -461.784
548.989;  750.817;   84.882;   88.213
549.269; 3200.123;   10.868;  139.239
549.550; 7153.050;  215.877;  117.222
549.830; 6402.907; -758.111; -556.799
550.110; 1289.219; -468.110; -320.801
550.390; 1240.858; -128.122;  -56.779
550.670; 1655.073; -868.114; -783.795
550.950; 1228.279; -509.121; -471.782
551.230;  381.373;  549.879;  460.218
551.510;   -1.623; -381.121; -326.782
551.790;   54.131; -173.109; -127.803
552.070;  492.444;  940.877; 1181.223
552.350;  607.309; -492.119; -377.786
552.630;  884.770;   -2.121;   77.219
552.909;  551.246;  181.884;   73.209
553.189;  385.933;  -49.132;   33.237
553.469;  296.208; -703.119; -514.786
553.749;  248.499; -469.127; -357.772
554.029;  295.033;   33.883;  -24.790
554.308;  210.263; -154.115;  -37.794
554.588;  100.887; -196.128; -204.770
554.868;  103.980; -366.121;  -47.782
555.147;  270.159; -114.115;  -46.793
555.427;  939.950; -260.116; -250.792
555.707; 5799.056; -284.115; -200.793
555.986; 6701.012; -719.111; -538.800
556.266; 3776.138;   23.884;   72.210
556.546;  140.477; -888.121; -675.782
556.825;  375.170; -657.114; -556.794
557.105; 2646.184; -125.128;   17.230
557.384; 3027.445;  122.884;  187.209
557.664; 1126.949; -717.116; -508.792
557.943;  140.979; -557.121; -411.782
558.222;  221.022; -345.118; -344.788
558.502;  457.061; -116.115;  -76.793
558.781;  782.954;  194.885;  499.208
559.061;  607.222; -232.118; -227.788
559.340;  494.529;  302.883;  353.211
559.619; 1049.537;   93.884;  148.210
559.899; 1512.132; -239.117; -266.789
560.178; 1412.060; -778.115; -593.793
560.457; 4782.934; -623.117; -562.790
560.736; 6167.014; -472.111; -482.800
561.015; 4279.581; -500.128; -502.769
561.295;  641.961;  180.893;  215.193
561.574;  567.057;  119.885;  116.207
561.853;  763.637;  274.891;  303.197
562.132;  756.964;  -45.114;  182.206
562.411;  687.070;  396.879;  553.219
562.690;  178.054; -592.115; -458.792
562.969;  268.991;  472.888;  630.203
563.248;  970.667; 2966.878; 2487.219
563.527;  392.913; -290.111; -408.800
563.806;  550.594; -650.127; -521.771
564.085;  631.184; -297.105; -206.810
564.364;  336.737; -594.117; -405.790
564.643;  789.371; -276.121; -223.781
564.922; 2824.528;  221.890;  397.198
565.201; 2646.033; -640.109; -700.803
565.479; 1224.052; -297.115; -219.792
565.758;  472.384; -810.128; -712.770
566.037;  707.335; -155.109; -100.803
566.316;  335.645; -286.116;  -28.791
566.595;  109.756;  -17.115;  -12.793
566.873;  206.616; -166.111;  -79.801
567.152; -131.710; -490.113; -590.797
567.431;   82.239; -113.116;    6.210
567.709;   22.361; -344.107; -212.807
567.988;  358.570; -810.114; -769.794
568.266;  738.856; -160.115;  -68.793
568.545;  518.656; -644.100; -514.819
568.824;  890.451;  160.885;  356.208
569.102;  772.769; -351.114; -235.794
569.381;  328.150; -492.116; -407.792
569.659;  -74.416; -553.113; -553.796
569.938;   43.664; -743.122; -465.780
570.216;  189.539; -225.109; -225.804
570.494;  -59.326; -632.114; -572.795
570.773;  110.377;  202.879;  114.218
571.051;    2.448; -373.123; -357.778
571.330;  101.181; -221.113; -174.796
571.608;   47.983; -181.098; -173.823
571.886; -126.096; -671.111; -581.799
572.164; -145.420; -739.121; -621.782
572.443;  -71.310; -562.105; -512.811
572.721;  -69.665; -399.117; -289.790
572.999;  -51.975; -280.117; -168.788
573.277;  158.080;  379.894;  620.191
573.555;  460.583;   94.894;   37.190
573.834; 1924.624;  -86.117; -114.788
574.112; 2301.165;  880.893;  811.193
574.390;  716.615; -143.111;  -96.801
574.668;   65.792;  -91.112;  -61.797
574.946;   -6.417; -165.106; -187.810
575.224;   77.333;   71.891;  -16.803
575.502;  -22.558; -200.116; -204.791
575.780; -159.907; -767.112; -829.798
576.058;  508.213; 1589.889; 1004.200
576.336;  -12.678; -210.110; -129.801
576.614;  -90.906; -511.112; -340.798
576.891;   49.863; -711.115; -823.794
577.169;  673.751; -158.108; -285.805
577.447;  877.564;  169.893;  202.193
577.725;  450.500;  629.888;  854.201
578.003;   45.497;  -71.112; -371.798
578.280;  164.603; -208.104; -242.812
578.558;   90.561; -450.115; -422.793
578.836;  203.474; -210.114; -145.795
579.114;   38.591; -630.112; -670.797
579.391;  133.327;   -6.117;  -18.789
579.669; -110.736; -595.114; -704.794
579.947;  299.059; -326.107; -127.806
580.224;  388.159; -692.107; -524.806
580.502;  466.965;  127.893;   76.193
580.779;   65.836;  -42.117;   75.210
581.057; -141.160; -584.109; -470.804
581.334; -141.974; -726.102; -695.815
581.612;  103.385;   54.895;  511.190
581.889;  -17.254;  -83.101; -129.818
582.167;  -52.132; -298.099; -190.821
582.444; -183.662; -845.102; -814.817
582.721;  199.339;  657.899;  715.183
582.999;   73.464; -326.100; -167.821
583.276;  704.054; -812.123; -713.779
583.553;  961.531; -364.102; -294.816
583.831;  272.698; -607.104; -631.812
584.108;  162.048;  349.892;  174.195
584.385;    1.125; -122.102;  -98.815
584.662; -104.683; -651.111; -828.801
584.940;   66.815;  204.889;  204.199
585.217;  -33.716;  -73.113; -303.796
585.494;   68.829;   71.890;  118.198
585.771;  334.641; -250.109; -354.804
586.048;  705.183; -196.113;  -76.796
586.325;  459.520; -721.110; -773.801
586.602;  160.904;  230.896;  213.188
586.879;  -90.341; -499.100; -580.820
587.156;   81.586; -156.105; -331.810
587.433;  -98.065; -701.102; -667.817
587.710;  120.794;  152.888;  234.202
587.987;  503.694; -264.105; -236.811
588.264; 1205.397;  315.888;  387.202
588.541; 2162.608;  -61.104;   26.187
588.818; 3933.444;   72.892;  171.196
589.095; 3428.501; -163.104; -174.812
589.371;  524.238; -459.109; -414.804
589.648;  -28.535; -581.107; -437.807
589.925;    4.475; -517.114; -621.795
590.202;    2.794; -741.112; -607.798
590.478;  129.496; -166.105;  -73.811
590.755;  441.153; -241.108; -132.806
591.032; 3618.224; -741.110; -699.802
591.308; 4725.944; -732.094; -790.831
591.585; 2514.523; -573.110; -560.802
591.862;  157.937;-1056.102; -950.817
592.138;   66.150; -475.108; -474.805
592.415;  238.605; -486.104; -495.813
592.691; 2371.102;  460.896;  518.188
592.968; 2654.286; -208.098; -123.824
593.244; 1287.739; -695.116; -595.790
593.521;  122.938; -105.102;  -42.817
593.797;  -52.240; -810.122; -720.780
594.074;  502.705; -611.096; -588.826
594.350; 1074.222;  828.905;  729.172
594.626;  432.717; -303.111; -283.801
594.903;  134.139; -643.101; -645.817
595.179;  295.511;  243.896;  418.187
595.455;   32.167; -136.107; -150.807
595.731;   51.913;  -19.103;  -38.814
596.008;  -61.492; -464.111; -434.800
596.284;   81.162; -187.100; -242.820
596.560;   63.454; -501.093; -493.833
596.836;  291.489; -173.105;  -70.810
597.112;  484.651; -582.108; -437.805
597.388;  439.902;  -49.097;  -48.826
597.665;  204.788;  437.887;  530.203
597.941; -120.501; -572.089; -658.839
598.217;   22.229; -323.110; -293.802
598.493;  413.843;   61.891; -204.804
598.769;  737.554; -175.100;  -50.819
599.045;  423.455; -490.108; -562.806
599.321;   74.861; -193.100; -261.820
599.597;  206.642; -355.109; -476.804
599.872;  764.308;  409.896;  429.187
600.148;  564.504;  -61.097; -172.826
600.424;  485.063;   91.893;  202.193
600.700;  346.866; -170.107; -280.807
600.976;  136.296; -442.097; -464.825
601.252;  375.237; -226.109; -272.803
601.527;  214.309; -833.104; -840.813
601.803;  209.097; -453.105; -404.812
602.079;  282.254; -124.100; -118.819
602.354;  777.569; -620.092; -531.835
602.630; 1214.384; -140.113; -482.796
602.906; 3586.246; -910.101; -863.818
603.181; 9337.908; -627.119; -534.786
603.457; 8286.301;   98.903; -278.826
603.733; 1251.683; -605.120; -626.783
604.008; 1548.684; -245.106; -164.810
604.284; 4272.841; -636.101; -580.817
604.559; 3902.800;   -3.112;  -42.799
604.835;  673.088; -163.105; -225.810
605.110;  616.169; -732.099; -892.821
605.385; 1056.758;  224.907;  267.167
605.661;  960.826; -625.095; -729.829
605.936; 1556.656; -664.108; -737.806
606.211; 1490.123;  -17.103; -170.815
606.487;  309.167; -329.114; -376.794
606.762;   25.909; -791.119; -745.786
607.037;  -41.111; -501.105; -433.810
607.313;  -88.184; -589.096; -574.828
607.588;   -0.117; -375.106; -137.810
607.863;   88.246;  -28.101; -143.818
608.138;  324.327;  513.890;  516.198
608.413;   36.475; -576.099; -592.822
608.688;   48.050; -203.108; -267.805
608.964;  315.475; -509.106; -218.809
609.239;  346.785; -107.105; -212.810
609.514;  441.597;  281.895;  240.188
609.789;  925.603; -187.104; -716.812
610.064; 1251.614; -435.096; -609.827
610.339; 1195.438; -855.109; -799.804
610.614; 1582.561; -131.100; -315.820
610.889;  958.697;  215.895;  107.188
611.163;   31.198; -407.104; -591.812
611.438;  113.269;   81.886; -167.794
611.713;   40.341; -467.101; -499.817
611.988;   56.744; -144.101; -328.818
612.263;  -76.574; -771.102; -717.815
612.538;  389.183;  385.887;  251.204
612.812;  194.963; -832.100; -911.820
613.087;  147.983; -358.098; -338.823
613.362;  -78.734; -497.107; -557.807
613.637;  105.517;  261.897;  138.186
613.911;    1.570; -256.092; -345.835
614.186;  187.764; -249.107; -292.807
614.460;  865.513; -842.081; -758.854
614.735; 1087.234;  -55.087;  -17.843
615.010;  266.019;   43.912;  -82.841
615.284;  442.249;  360.892;  246.195
615.559;  520.968; -792.092; -955.835
615.833;  440.072;  -76.099;  -87.822
616.108;   10.186; -225.090; -390.837
616.382;  253.237;  274.913;  402.156
616.656;  223.787; -241.090; -232.837
616.931;  706.373; -785.099; -700.822
617.205; 1471.210; -973.104; -979.813
617.480; 1410.323;  -91.125;    6.225
617.754;  235.020; -396.125; -128.774
618.028;   -6.725; -369.129; -382.768
618.302;  135.847;   73.892;  -25.805
618.577;  -85.081; -371.103; -518.815
618.851;  -94.968; -399.109; -600.803
619.125;  -50.793; -335.134; -378.759
619.399;  -36.690; -244.104; -374.813
619.673;  -81.449; -330.115; -515.792
619.947;  -57.527; -333.114; -448.795
620.222;   -5.082; -198.110; -204.801
620.496;   34.980;  -47.121;  -96.782
620.770;   42.667; -187.122;  -93.781
621.044;  406.886;  323.895;  346.190
621.318; 1078.784; -653.120; -614.783
621.592;  933.281; -430.121; -409.783
621.866;  454.602; -476.112; -572.799
622.140;   72.042; -207.116; -356.791
622.413;  142.208;  138.889;  112.200
622.687;  -55.459; -746.101; -492.817
622.961;   18.947; -130.108; -143.805
623.235; -113.191; -633.111; -661.800
623.509; -215.504; -816.105; -848.811
623.783;   58.860;  -12.107;   48.193
624.056;  -26.114; -254.120; -280.783
624.330;  130.492;   63.888;   -3.797
624.604;   82.537; -271.116; -355.790
624.877;  155.125;  180.890;   26.198
625.151;   64.865; -249.114; -238.794
625.425;  -32.087; -150.103; -283.814
625.698; -119.500; -367.119; -374.785
625.972; -181.371; -799.110; -765.802
626.245;  166.439;  685.884;  484.210
626.519;  -26.408; -426.120; -340.784
626.792;  -53.034; -192.107; -380.807
627.066; -142.844; -485.122; -662.779
627.339; -193.977; -736.110; -663.802
627.613;  126.890;  351.880;  148.216
627.886;  108.432;  187.891; -612.803
628.160;   -0.716;  312.880; -161.783
628.433; -193.772; -695.125; -703.775
628.706; -134.308; -517.120; -615.784
628.979;  100.038;  296.876;  117.223
629.253; -171.893; -785.119; -833.786
629.526;  528.804; -334.126; -253.772
629.799;  428.549; -641.123; -479.778
630.072;  207.977; -497.128; -516.769
630.346; -154.360;-1115.116;-1080.790
630.619;  620.867; -467.107; -545.808
630.892;  972.710;  709.889;  593.200
631.165;  572.310;  790.896;  679.187
631.438; -168.803;-1092.112;-1055.798
631.711;  114.153;  453.877;  257.221
631.984; -103.968; -523.117; -624.789
632.257; -151.573; -636.117; -681.789
632.530;  -59.200; -412.119; -433.785
632.803;   52.662; -109.115;    7.207
633.076; -113.157; -360.123; -422.777
633.349;   46.483;  173.872;  121.231
633.622;  -43.601; -187.119; -240.785
633.895; -230.214; -903.120; -823.783
634.167; -119.393; -496.126; -525.773
634.440;   -9.651;  -19.116; -137.792
634.713;   36.106;  -22.119; -120.786
634.986;  192.768;  593.871;  453.233
635.258; -142.440; -507.115; -597.793
635.531;  200.721;  742.882; -343.788
635.804;  -34.370; -303.117; -318.789
636.077; -185.457; -830.116; -852.791
636.349;  -16.143; -586.115; -474.793
636.622;  752.103; 1695.874; 1392.228
636.894;  371.592; -474.120; -909.784
637.167;  169.494; -836.127; -789.771
637.439;   64.588; -278.128; -213.770
637.712;  -36.795; -312.126; -293.772
637.984; -137.556; -635.116; -707.791
638.257;  667.144;  515.877;  488.222
638.529;  733.429; -881.125; -924.776
638.802;  333.177; -508.128; -449.769
639.074; -189.434; -927.122; -952.781
639.346; -231.906; -942.135; -930.757
639.619;   14.395;  -79.142; -319.744
639.891;   -6.844;  -83.122; -168.779
640.163; -146.241; -689.122; -756.780
640.435;   49.762;  273.878;  103.220
640.708;    6.765;  -72.122; -132.780
640.980;  -39.332; -366.122; -362.781
641.252;  354.670;  -25.121;  -71.781
641.524; 2780.473;  580.879;  573.219
641.796; 2602.776;-1094.121; -907.782
642.068;  500.079; -191.121; -300.782
642.340;  -88.219; -486.121; -566.783
642.613;  142.484;  294.880;  323.217
642.885; -155.613; -787.120; -878.783
643.157;  -79.110; -810.120; -658.784
643.428;  159.793;  170.880;  218.216
643.700; -114.605; -498.120; -425.784
643.972;  -50.902;  -16.119; -133.785
644.244; -130.199; -474.119; -559.785
644.516;  -53.096; -250.119; -114.786
644.788;  189.407;  662.881;  548.214
645.060;   24.309;  -12.119; -124.786
645.332; -158.288; -525.118; -535.787
645.603;  125.315;  479.882;  342.213
645.875; -117.082; -334.118; -369.787
646.147;  381.821; 1487.882; 1242.212
646.418; -143.177; -931.117; -918.788
646.690;  164.926; -714.117; -715.789
646.962;   16.429; -413.117; -451.789
647.233;   34.832;   15.883;   11.211
647.505; -202.166; -595.117; -475.790
647.776;  109.637;  328.884;  229.210
648.048;    1.140; -248.116; -418.790
648.320; -149.557; -752.116; -679.791
648.591; -282.754;-1055.116; -958.791
648.862; -133.352; -505.116; -577.792
649.134;   64.251;  115.885;  198.208
649.405;  -94.346; -661.115; -618.792
649.677; -110.643; -475.115; -598.793
649.948;    2.560; -181.115; -296.793
650.219;   13.362;  -37.115; -147.793
650.491;  -81.335; -431.114; -520.794
650.762; -217.932; -705.114; -731.794
651.033; -157.329; -437.114; -424.795
651.304; -205.426; -743.114; -728.795
651.576; -136.924; -680.114; -645.795
651.847;  -49.421; -250.113; -140.796
652.118;  -12.518;  -32.113; -189.796
652.389; -167.715; -639.113; -722.796
652.660;  -20.412; -147.113;  -89.797
652.931; -294.210; -897.112; -871.797
653.202; -131.207; -382.112; -541.798
653.473; -146.104; -633.112; -533.798
653.744;  178.999; -595.112; -590.798
654.015;  174.301; -356.112; -303.799
654.286; -108.196; -642.111; -663.799
654.557; -133.593; -586.111; -521.799
654.828; -276.890;-1114.111;-1088.800
655.099; -101.187; -404.111; -291.800
655.370; -145.185; -427.111; -543.801
655.641; -207.082; -656.110; -714.801
655.911; -170.079; -618.110; -638.801
656.182;  159.724;  437.890;  387.198
656.453;  255.927;  830.890;  746.198
656.724; -115.271; -466.110; -426.802
656.994; -138.668; -553.109; -568.803
657.265; -208.665; -862.109; -873.803
657.536; -107.162; -500.109; -377.804
657.806; -147.859; -561.109; -593.804
658.077; -240.857; -866.109; -950.804
658.347; -142.154; -523.108; -598.805
658.618; -167.351; -646.108; -694.805
658.888;   18.752;  -41.108;  112.195
659.159; -112.846; -432.108; -548.806
659.429;  -28.243; -292.108; -349.806
659.700;    1.060; -435.107; -390.807
659.970;  -59.837; -370.107; -359.807
660.241;    7.366; -754.107; -921.807
660.511;  690.068; -147.107; -174.808
660.781;  130.471; -793.106; -748.808
661.052;  -66.526; -222.106; -381.808
661.322;    2.077;   21.894;   -9.809
661.592;   70.080;  257.894;  148.191
661.862; -103.818; -369.106; -382.810
662.133; -163.815; -551.105; -502.810
662.403; -221.512; -770.105; -676.810
662.673;  -62.909; -256.105; -213.811
662.943; -144.306; -612.105; -551.811
663.213;   16.896;  -85.105;  -81.811
663.483; -109.801; -593.104; -568.812
663.753;  -55.298; -194.104; -152.812
664.023;   -8.095;   68.896;  -32.813
664.293;  -85.693; -319.104; -126.813
664.563; -193.990; -694.104; -648.813
664.833; -215.887; -743.103; -608.814
665.103; -205.184; -730.103; -793.814
665.373; -233.181; -766.103; -806.814
665.643; -165.579; -863.103; -918.815
665.913;   32.724; -534.103; -714.815
666.182;  191.327; -685.102; -719.816
666.452;  358.330;  -22.102;  -89.816
666.722;  -84.767; -724.102; -784.816
666.992; -247.565; -948.102; -921.817
667.261; -161.262; -824.102; -808.817
667.531;  328.541;  134.899;   45.183
667.801;  810.244; -440.101; -412.818
668.070;  443.247;  714.899;  697.182
668.340; -167.651; -883.101; -840.819
668.609;  189.452;  588.900;  301.181
668.879; -135.745; -490.100; -558.819
669.149; -120.242; -539.100; -516.820
669.418; -156.139; -698.100; -726.820
669.688;  -31.837; -482.100; -666.820
669.957;   64.966; -423.099; -546.821
670.226;  -33.531; -268.099; -331.821
670.496; -141.328; -431.099; -635.822
670.765; -130.226; -418.099; -501.822
671.034; -219.323; -872.099; -828.822
671.304;  -13.020;   55.902; -111.823
671.573; -284.117;-1085.098; -957.823
671.842;  132.486; -380.098; -294.823
672.112;   -2.712; -692.098; -586.824
672.381;   -1.909; -239.098; -214.824
672.650; -233.306;-1005.097;-1021.825
672.919; -163.903; -631.097; -507.825
673.188; -142.600; -681.097; -878.825
673.457; -286.698;-1101.097;-1143.826
673.726; -143.995; -579.096; -646.826
673.995;  -85.492; -533.096; -479.826
674.265;   51.011; -263.096; -333.827
674.534;    2.814; -183.096; -235.827
674.802;    2.616; -618.096; -703.828
675.071; 1523.619; -886.095; -801.828
675.340; 5204.022; -464.095; -339.828
675.609; 1837.525;  103.905;   82.171
675.878;   52.027; -949.095; -893.829
676.147;   89.030;  -26.095;   -8.829
676.416;  116.933; -210.094; -294.830
676.685; 1134.436; 1000.906; -622.830
676.953;  132.639; -603.094; -452.831
677.222;  -25.059; -193.094; -273.831
677.491;   14.944;  -24.094; -127.831
677.759;   45.047;   11.907;  172.168
678.028;  -17.450; -279.093; -222.832
678.297;   35.253;   71.907;  197.168
678.565; -239.345; -898.093; -944.833
678.834;  -82.942; -311.093; -268.833
679.102;  -94.239; -411.092; -391.834
679.371; -259.936; -898.092; -727.834
679.639; -246.033; -797.092; -786.834
679.908; -238.631; -794.092; -724.835
680.176; -273.428; -895.091; -941.835
680.445; -134.925; -346.091; -352.835
680.713;  -12.222;  -58.091;  -23.836
680.982; -134.919; -523.091; -525.836
681.250; -170.517; -578.091; -507.837
681.518; -170.814; -534.090; -751.837
681.787;  -51.911; -204.090; -167.837
682.055; -112.508; -490.090; -422.838
682.323; -256.906; -993.090; -992.838
682.591;   61.497; -216.090; -538.838
682.859;  132.100;    9.911;  -35.839
683.128;   64.703;  232.911;  497.161
683.396; -290.194;-1102.089;-1122.840
683.664;  -67.892; -241.089;   21.160
683.932;   78.511;  144.911;  -76.840
684.200; -125.586; -576.088; -320.841
684.468;    8.317;  -73.088; -124.841
684.736;  -35.580; -214.088; -175.841
685.004; -229.178;-1024.088; -982.842
685.272; -126.875; -880.088; -774.842
685.540; -115.172; -499.087; -557.843
685.808; -150.069; -651.087; -682.843
686.076; -188.166; -894.087; -969.843
686.343; -126.564; -601.087; -815.844
686.611;   62.339; -195.087; -224.844
686.879;  742.642; -530.086; -553.844
687.147; 4581.745; -483.086; -480.845
687.414; 1289.547;  -12.086; -169.845
687.682;  -36.050; -658.086; -757.846
687.950;  524.353;  259.915;  263.154
688.217;  -45.744; -792.085; -760.846
688.485;  -22.641; -632.085; -636.847
688.753;  801.561;  -11.085; -102.847
689.020;  142.364; -820.085; -851.847
689.288; -166.933; -853.084; -787.848
689.555;  -17.630; -195.084; -148.848
689.823;  -33.627; -241.084; -345.849
690.090; -126.025; -546.084; -651.849
690.358; -255.622; -877.084; -897.849
690.625;   34.081;  120.917;   45.150
690.892; -107.816; -403.083; -369.850
691.160;  -21.013;   72.917;  -35.850
691.427;   62.989;  141.917;  130.149
691.694; -246.508; -855.083; -929.851
691.962; -251.105;-1177.082;-1060.852
692.229;   73.398;  127.918;   56.148
692.496;  139.401;  130.918;  -49.852
692.763;   32.803; -164.082; -201.853
693.031; -139.094; -739.082; -716.853
693.298; -110.791; -509.081; -368.853
693.565;  495.512; -155.081; -163.854
693.832; 1725.214;   -5.081;   -9.854
694.099;  173.917; -643.081; -642.855
694.366; -116.180; -882.081; -896.855
694.633;  -95.977; -920.080; -633.855
694.900; 1548.326; 4367.920; -114.856
695.167;  654.528; -214.080; -380.856
695.434;  124.431; -646.080; -623.856
695.701;  390.834;  121.921;  -61.857
695.968;  689.937; -365.079; -361.857
696.234; 1875.640; -415.079; -646.858
696.501;16998.542; -776.079; -614.858
696.768; 8153.445; -554.079; -617.858
697.035;  542.048; -632.078; -667.859
697.302;   73.951; -448.078; -552.859
697.568;   48.154; -458.078; -497.859
697.835;  -35.044; -683.078; -624.860
698.102;  -24.541; -498.078; -407.860
698.368;  207.162;  384.923;  396.139
698.635;  -44.235;  -47.077; -424.861
698.901;   10.167; -240.077; -348.861
699.168;   96.270; -534.077; -456.862
699.435;  159.173;  -72.077;  -13.862
699.701; -215.824; -868.076; -764.862
699.968;  -46.021;  144.924; -441.863
700.234; -156.619; -783.076; -822.863
700.500;  -29.716; -448.076; -539.864
700.767;   35.887;   -1.075;   26.136
701.033; -245.410;-1015.075; -963.864
701.299;  -81.907; -450.075; -483.865
701.566;  305.795;  950.925;  763.135
701.832;   93.698;  -31.075;  -76.865
702.098; -128.499;-1054.074;-1034.866
702.365; -173.796;-1098.074;-1030.866
702.631;  -72.393;-1038.074;-1063.867
702.897; 2134.509; -765.074; -676.867
703.163; 3158.712;  348.926;  254.133
703.429;  260.015; -256.073; -273.868
703.695;  -84.382; -796.073; -792.868
703.961;   64.421; -214.073; -210.868
704.227;  -79.477; -630.073; -725.869
704.493;  294.526;  613.927;  510.131
704.759;    2.429; -565.072; -540.870
705.025;   68.432; -203.072; -194.870
705.291;  -13.266; -666.072; -562.870
705.557;  404.137;  719.928;   34.129
705.823;   84.240; -742.072; -694.871
706.089;  256.543; -307.071; -326.871
706.355;  738.046; -315.071; -244.872
706.620; 9879.448; -776.071; -729.872
706.886;12231.351; -309.071; -362.873
707.152; 1103.154; -818.070; -973.873
707.418;  -57.143;-1153.070;-1186.873
707.683;   18.460; -550.070; -530.874
707.949;  -44.638; -547.070; -578.874
708.215;   56.165; -129.070; -207.874
708.480;   17.668; -520.069; -420.875
708.746;  198.971;   68.931;   28.125
709.011;  -56.526; -578.069; -612.876
709.277;  -97.824; -538.069; -543.876
709.542;  -54.721; -428.069; -387.876
709.808;   23.882;  -59.068;   89.123
710.073; -121.515; -577.068; -695.877
710.339;   -1.913; -242.068; -228.877
710.604;  136.390; -780.068; -845.878
710.869;  463.693; -277.068; -366.878
711.135;  -89.204; -715.067; -628.879
711.400; -112.701; -507.067; -608.879
711.665;  -88.399; -404.067; -479.879
711.931; -170.196; -661.067; -677.880
712.196; -189.693; -876.067; -954.880
712.461;  156.610; -402.066; -490.880
712.726;  153.613; -727.066; -771.881
712.991; -186.085; -647.066; -664.881
713.256;  -14.582; -350.066; -332.882
713.521; -101.679; -417.065; -381.882
713.787; -103.976; -454.065; -472.882
714.052;  -25.873; -214.065; -400.883
714.317; -171.571;-1045.065; -981.883
714.581; 1773.832; -374.065; -268.883
714.846; 2131.735; -822.064; -888.884
715.111;  257.338;  261.936;  257.116
715.376;  -13.259;  -86.064; -223.885
715.641;   17.443; -365.064; -367.885
715.906;  434.146;   15.936; -551.885
716.171;  242.449;  221.937;  209.114
716.436;   85.552;  -78.063; -104.886
716.700; -181.946; -818.063; -692.886
716.965; -206.243; -794.063; -807.887
717.230;  -93.840; -339.063; -392.887
717.494;    9.763;  -40.062; -134.888
717.759; -163.534; -784.062; -640.888
718.024;   57.268;  269.938;  250.112
718.288;  165.871;  685.938;  395.111
718.553; -247.126; -803.062; -977.889
718.817; -239.123; -883.061; -899.889
719.082;  -11.320; -115.061; -125.890
719.346; -248.218;-1000.061; -947.890
719.611;  -38.415; -300.061; -255.891
719.875; -148.612; -568.060; -537.891
720.140;  -85.009; -453.060; -603.891
720.404;   73.094; -136.060; -249.892
720.668; 1162.096; -475.060; -411.892
720.933;  443.199;  146.940;  137.108
721.197; -148.598; -667.059; -600.893
721.461; -222.595; -851.059; -826.893
721.725;   65.907;  -21.059; -250.894
721.990;  -88.390; -284.059; -204.894
722.254;    4.413;  -26.059; -108.894
722.518;  -90.784; -286.058; -442.895
722.782; -132.181; -743.058; -594.895
723.046;  283.921;  614.942;  570.105
723.310;  116.824;  374.942;  210.104
723.574; -168.573; -654.058; -614.896
723.838; -130.170; -576.057; -642.897
724.102;  -44.767; -226.057; -239.897
724.366; -222.265;-1032.057; -978.897
724.630; -141.662; -749.057; -571.898
724.894; -111.259; -722.057; -514.898
725.158;   13.244;   38.944; -295.898
725.422;  -42.153; -394.056; -327.899
725.685;  -81.951; -441.056; -349.899
725.949; -114.448; -566.056; -519.900
726.213; -133.145; -732.056; -811.900
726.477;  216.458;-1020.055; -933.900
726.740;  230.960; -274.055; -104.901
727.004;  572.863; -384.055; -510.901
727.268; 5290.866; -442.055; -400.901
727.531; 1357.069; -961.055; -775.902
727.795;  -68.628; -713.054; -673.902
728.059; -106.426; -552.054; -557.903
728.322; -124.323; -841.054; -669.903
728.586;   40.380; -692.054; -701.903
728.849; -126.117; -695.053; -756.904
729.112; -190.214; -812.053; -912.904
729.376; -233.012; -959.053; -905.904
729.639;  -76.309; -536.053; -536.905
729.903; -161.806; -733.053; -699.905
730.166;  -10.503; -437.052; -399.906
730.429;  -13.700; -317.052; -468.906
730.693; -101.698; -355.052; -894.906
730.956;  446.705;  810.948;  651.093
731.219;  997.708; -310.052; -103.907
731.482;  116.911;-1003.051; -894.907
731.745;   92.914; -794.051; -935.908
732.009;  121.416;  -30.051;   50.092
732.272; -130.181; -904.051; -771.909
732.535;  -48.178; -300.051; -310.909
732.798; -273.175;-1083.050;-1166.909
733.061;  -68.373; -430.050; -456.910
733.324;   72.730;   31.950; -180.910
733.587;  155.133;  290.950;  365.090
733.850;  -78.264; -973.049;-1050.911
734.113;  110.839;   33.951;   32.089
734.376;    6.641; -328.049; -447.912
734.639;  456.344; 1188.951; 1011.088
734.901;  146.747; -180.049; -402.912
735.164;  828.050; -883.048; -837.913
735.427; 1825.453; -166.048; -355.913
735.690;  238.655; -205.048; -234.913
735.952;  -26.642; -923.048; -925.914
736.215;  -69.139;-1113.048;-1009.914
736.478;   58.764; -771.047; -774.915
736.740;  382.867;   33.953;  129.085
737.003; 1130.069; -658.047; -672.915
737.266; 5658.872;  -94.047;   46.084
737.528;  646.475; -682.047; -660.916
737.791;  519.378; -316.046; -327.916
738.053; 1503.580;  465.954;  649.083
738.316;17925.383; -162.046; -136.917
738.578;11116.686; -770.046; -736.918
738.841;  725.489; -382.046; -446.918
739.103;  301.792; -875.045; -777.918
739.365;  760.394;   79.955;  -69.919
739.628;   31.197; -884.045; -805.919
739.890;  -34.200; -758.045; -710.919
740.152;  -36.397; -692.044; -754.920
740.414;   10.906; -408.044; -359.920
740.677;  -43.392; -785.044; -634.921
740.939;  -66.689; -587.044; -487.921
741.201;  413.014; -432.044; -572.921
741.463;   58.217; -689.043; -745.922
741.725;   73.420;  -21.043; -199.922
741.987;  162.522;  220.957;  116.078
742.249;   20.025; -751.043; -859.923
742.511;  275.028; -703.043; -794.923
742.773;   28.331; -546.042; -546.924
743.035;  276.634;  796.958;  533.076
743.297;  -43.464; -963.042;-1013.924
743.559; 1098.639; -278.042; -262.925
743.821;   73.242; -735.042; -744.925
744.083;   54.845;  -44.041; -149.925
744.345; -143.353; -869.041; -892.926
744.607;  123.450;   75.959;  122.074
744.868;  -79.847; -490.041; -554.927
745.130; -188.344; -994.041;-1008.927
745.392;  135.259;   -1.040;  -44.927
745.653;   -4.039; -411.040; -378.928
745.915;  351.564;  896.960;  631.072
746.177;  141.467;   35.960;  -43.928
746.438;   -0.230; -428.040; -543.929
746.700;  -75.527; -947.039; -988.929
746.961;   28.275; -659.039; -740.930
747.223;  250.578; -190.039;  -74.930
747.484;  184.081; -391.039; -471.930
747.746;  261.884;  -23.038; -106.931
748.007;  197.587; -647.038; -689.931
748.269;  510.389; -468.038; -440.931
748.530;  665.392; -852.038; -638.932
748.791;  430.595; -354.038; -420.932
749.053;  750.898;  286.963;  163.067
749.314;  781.300; -236.037; -169.933
749.575;  704.603; -945.037; -905.933
749.836; 1320.106; -217.037;   86.066
750.098; 4391.609;  -60.037;  -21.934
750.359;53227.412;  414.964;  555.066
750.620;12324.314; -121.036; -220.935
750.881; 1593.017; -585.036; -513.935
751.142; 2216.020; -950.036; -938.936
751.403;27047.823; -789.036; -705.936
751.664;10346.526;-1034.035; -999.936
751.925;  764.228; -175.035; -262.937
752.186;  477.031; -298.035; -278.937
752.447;  264.534; -590.035; -445.937
752.708;   90.637; -532.035; -648.938
752.969;   48.440; -566.034; -576.938
753.230;   -3.558; -777.034; -672.939
753.491;   -3.555; -650.034; -631.939
753.751;  157.448;  109.966;   19.061
754.012;  246.551;  258.967;  181.060
754.273;  161.954; -174.033;  -71.940
754.534;   23.656; -487.033; -580.940
754.794; -141.241; -926.033; -911.941
755.055;  337.762; 1051.967;  881.059
755.316;  -35.735; -700.032; -566.942
755.576;  -21.933; -606.032; -576.942
755.837;  -54.630; -527.032; -695.942
756.097;  -64.527; -530.032; -564.943
756.358; -106.324; -725.032; -770.943
756.618;  -71.521; -705.031; -641.943
756.879;   47.481; -254.031; -349.944
757.139; -241.016;-1098.031;-1116.944
757.400;  -68.013; -538.031; -553.945
757.660;   27.490; -365.031; -401.945
757.920;   73.693; -266.030; -228.945
758.181;   -3.305; -468.030; -351.946
758.441; -157.902; -870.030; -809.946
758.701;  -43.299; -308.030; -215.946
758.961;   15.004; -220.030; -278.947
759.222;  -80.493; -574.029; -502.947
759.482; -115.091; -683.029; -723.948
759.742; -125.588; -706.029; -547.948
760.002;  100.615;  -83.029; -143.948
760.262;  119.718;   50.972;  182.051
760.522;  -45.880; -498.028; -574.949
760.782;  -47.877; -738.028; -612.949
761.042;  -25.274; -618.028; -573.950
761.302;  141.629;   55.972;  -18.950
761.562;  144.532; -164.027; -154.951
761.822;  136.534; -710.027; -551.951
762.082;  -85.263;-1104.027;-1093.951
762.342;  168.840; -328.027; -403.952
762.601;  162.943; -567.027; -506.952
762.861;  629.846; -281.026; -207.952
763.121;  845.248; -406.026; -411.953
763.381;13943.751; -499.026; -485.953
763.640;12793.654; -139.026; -307.954
763.900;  663.057; -242.026; -203.954
764.160;  225.760; -458.025; -491.954
764.419;    5.362; -726.025; -782.955
764.679; -103.535; -795.025; -726.955
764.939;   37.368; -124.025; -210.955
765.198;  -73.829; -608.025; -563.956
765.458; -119.426; -710.024; -612.956
765.717;  -91.524; -454.024; -590.957
765.976;  -83.821; -428.024; -411.957
766.236;  -74.118; -475.024; -610.957
766.495;   89.685;  260.977;   73.042
766.755; -141.413;-1090.023; -987.958
767.014;    7.890; -594.023; -665.958
767.273;  -38.007; -373.023; -397.959
767.533;  -39.204; -228.023; -307.959
767.792;  -11.901; -151.022; -188.960
768.051;  -57.099; -228.022; -276.960
768.310; -121.196; -546.022; -650.960
768.569;   38.507; -161.022;    4.039
768.828;    9.810; -285.022; -363.961
769.088; -186.387;-1050.021; -942.961
769.347; -102.985; -755.021; -599.962
769.606; -154.782; -876.021; -857.962
769.865; -199.979;-1016.021;-1033.963
770.124;   20.124; -411.021; -336.963
770.383;  -72.173; -778.020; -910.963
770.641;   -7.571; -398.020; -400.964
770.900; -102.368; -953.020; -846.964
771.159;  -82.065; -851.020; -951.964
771.418;  -23.462; -917.020; -779.965
771.677;  276.240; -224.019; -293.965
771.936;  289.343; -794.019; -865.966
772.194; 4567.446; -465.019; -437.966
772.453;17675.449; -213.019; -391.966
772.712; 1328.452;  416.982;  329.033
772.970;  252.954;   32.982;   63.033
773.229;  204.457;  -22.018;  102.033
773.488; -116.140; -814.018; -770.968
773.746;  164.563;  296.982;  335.032
774.005;   61.466;  190.983;  -22.969
774.263;   67.668;  243.983;  177.031
774.522; -109.029; -422.017; -548.969
774.780;  -87.926; -484.017; -417.970
775.039; -120.823; -551.017; -531.970
775.297;    5.080; -135.016; -351.970
775.555; -154.118; -489.016; -612.971
775.814; -193.015; -618.016; -570.971
776.072; -178.912; -749.016; -740.971
776.330; -141.509; -630.016; -520.972
776.589; -175.407; -703.015; -721.972
776.847; -207.404; -645.015; -624.973
777.105; -275.201;-1016.015;-1032.973
777.363; -127.698; -459.015; -454.973
777.621; -203.695; -660.015; -717.974
777.879;   31.607;  -42.014;   32.026
778.138; -127.490; -554.014; -717.974
778.396; -168.187; -585.014; -526.975
778.654; -283.184;-1015.014; -970.975
778.912;  -74.081; -269.014; -371.976
779.170; -196.479; -880.013; -803.976
779.427; -245.476; -922.013; -897.976
779.685; -218.873; -880.013; -832.977
779.943; -157.670; -654.013; -593.977
780.201; -238.667; -964.012; -883.978
780.459; -176.465; -651.012; -610.978
780.717; -107.562; -440.012; -390.978
780.974; -123.359; -449.012; -490.979
781.232;  -78.256; -358.012; -338.979
781.490; -139.253; -551.011; -472.979
781.747; -107.851; -555.011; -476.980
782.005;  104.352;  462.989;  254.020
782.263; -279.245; -542.011;-1004.981
782.520; -117.942; -326.011; -501.981
782.778; -287.740;-1013.010;-1051.981
783.035; -292.537; -962.010; -938.982
783.293;  -59.934; -248.010; -206.982
783.550;  -59.631; -134.010; -198.982
783.808; -204.028; -764.010; -776.983
784.065; -261.526; -745.009; -874.983
784.322;   -4.623;   25.991;  -86.984
784.580; -242.020; -915.009; -771.984
784.837; -133.517; -392.009; -466.984
785.094; -224.314; -783.009; -762.985
785.352;  -90.012; -304.008; -404.985
785.609; -195.809; -934.008; -839.985
785.866;  -81.806; -345.008; -401.986
786.123; -116.403; -639.008; -583.986
786.380; -146.700; -665.008; -604.987
786.637;  -13.698; -225.007; -380.987
786.895;  -46.795; -456.007; -543.987
787.152;  -30.692; -135.007; -267.988
787.409;  -52.689; -123.007; -225.988
787.666; -117.387; -299.006; -378.988
787.923; -133.984; -616.006; -695.989
788.179; -142.481; -551.006; -584.989
788.436; -156.878; -585.006; -585.990
788.693;   -9.075;  -92.006;  -87.990
788.950;  270.227; -125.005; -112.990
789.207;  261.330; -381.005; -372.991
789.464;  -56.467; -161.005; -301.991
789.720;   54.036;  150.995;  110.009
789.977; -274.161;-1003.005; -671.992
790.234;   -5.959;   44.996;  -66.992
790.490; -228.356; -884.004;-1031.993
790.747;    6.947;  -85.004;   22.007
791.004;    0.850; -426.004; -348.993
791.260;  -97.247; -430.004; -560.994
791.517; -136.445; -843.003; -788.994
791.773;  -54.142; -379.003; -342.994
792.030; -163.839; -596.003; -660.995
792.286; -163.836; -686.003; -636.995
792.543;   68.467;  -74.002; -159.995
792.799;  -38.731; -584.002; -382.996
793.055; -301.128;-1179.002;-1210.996
793.312; -152.125; -827.002; -816.997
793.568;  -60.822; -746.002; -599.997
793.824;   43.280; -226.001; -284.997
794.081;   36.783; -447.001; -508.998
794.337;  122.586; -664.001; -561.998
794.593; 2760.989; -319.001; -271.999
794.849;10479.292; -746.001; -772.999
795.105;  568.494; -270.000; -261.999
795.361;   48.697; -490.000; -457.000
795.617;  -99.800; -875.000; -945.000
795.873;  -93.600; -360.000; -407.000
796.129;  -13.100; -368.000; -306.000
796.385;   39.200; -124.000; -156.000
796.641;  206.100;  412.000;  550.000
796.897;  -95.800; -666.000; -635.000
797.153;  202.100;  453.000;  357.000
797.409; -151.300; -785.000; -868.000
797.665;  -94.700; -625.000; -732.000
797.921; -132.300; -775.000; -762.000
798.176;  -48.900; -744.000; -747.000
798.432;  -61.600; -824.000; -596.000
798.688; -108.600;-1174.000;-1078.000
798.943;  166.900; -165.000; -147.000
799.199;   15.600;-1005.000; -959.000
799.455;  467.100;  369.000;  316.000
799.710;  247.000; -813.000; -380.000
799.966;  514.100; -162.000; -160.000
800.221;  806.600; -638.000; -721.000
800.477;18701.000; -743.000; -710.000
800.732;13038.200; -773.000; -800.000
800.988; 1109.400;  205.000;  -19.000
801.243; 4075.800; -454.000; -344.000
801.498;13328.600; -814.000; -739.000
801.754;  756.900; -289.000; -163.000
802.009;  212.700; -257.000; -335.000
802.264;  -66.000; -967.000;-1033.000
802.520;  141.000;  222.000;   -3.000
802.775;  -38.000; -524.000; -359.000
803.030;  143.700;  395.000;  356.000
803.285; -168.400; -840.000; -903.000
803.540;  -57.100; -686.000; -699.000
803.795;  -52.100; -648.000; -583.000
804.051;  -22.400; -279.000; -346.000
804.306;  104.400;  168.000;  128.000
804.561;  300.100;  451.000;  362.000
804.816;  322.100;  714.000;  861.000
805.071;   88.400; -185.000; -280.000
805.325;  325.800; -257.000; -427.000
805.580; -160.200; -841.000; -877.000
805.835;   26.600; -204.000; -297.000
806.090; -113.500; -760.000; -676.000
806.345;   54.400; -344.000; -264.000
806.600;  -15.900; -549.000; -632.000
806.854;  -11.100; -408.000; -538.000
807.109;   14.700; -493.000; -577.000
807.364;   84.600; -407.000; -328.000
807.618;   31.400; -415.000; -381.000
807.873;  124.900; -470.000; -494.000
808.128;  231.800; -257.000; -518.000
808.382;  244.000; -224.000; -332.000
808.637;  139.800; -440.000; -511.000
808.891;  368.500; -257.000; -180.000
809.146;  134.200; -902.000; -794.000
809.400;  453.300; -848.000; -923.000
809.654;  563.500; -779.000; -551.000
809.909;  903.800; -841.000; -927.000
810.163;12312.100; -813.000; -651.000
810.418;24996.400; -940.000; -861.000
810.672; 1624.900; -685.000; -690.000
810.926; 1271.000; -993.000; -973.000
811.180; 2812.600; -439.000; -372.000
811.434;58068.100;  240.000;  135.000
811.689;18470.000; -231.000; -365.000
811.943; 1097.700; -936.000; -953.000
812.197;  609.200; -893.000; -671.000
812.451;  286.900; -379.000; -514.000
812.705;  -20.800; -809.000; -619.000
812.959;   -3.200; -263.000; -388.000
813.213;   50.600; -283.000; -209.000
813.467;  213.900;  470.000;  253.000
813.721; -144.500; -764.000; -792.000
813.975; -147.100; -826.000; -877.000
814.229;  155.600;  430.000;  353.000
814.482;  -83.000; -517.000; -566.000
814.736; -188.900; -766.000; -744.000
814.990; -172.800; -779.000; -872.000
815.244;  -25.300; -228.000; -285.000
815.497; -102.100; -636.000; -601.000
815.751;    7.900; -141.000;   82.000
816.005;  -98.400; -470.000; -586.000
816.258;  -70.200; -510.000; -363.000
816.512; -168.200; -693.000; -610.000
816.766;   81.900;  121.000;  157.000
817.019;  122.100;  148.000;  149.000
817.273; -174.300;-1000.000; -802.000
817.526;  -20.800; -206.000; -173.000
817.779;  -65.200;-1049.000; -960.000
818.033; -113.600; -693.000; -807.000
818.286; -179.400; -725.000; -792.000
818.540;  -98.100; -403.000; -403.000
818.793;  -85.600; -402.000; -489.000
819.046; -157.000; -582.000; -520.000
819.299;   -9.400; -157.000; -166.000
819.553; -117.600; -552.000; -592.000
819.806; -266.800;-1016.000; -838.000
820.059;  -52.400; -334.000; -354.000
820.312;   87.100;  152.000;  185.000
820.565;   49.700;  110.000;  -27.000
820.818;   -9.000;  -59.000; -173.000
821.071; -252.100;-1041.000; -957.000
821.324; -151.000; -536.000; -540.000
821.577; -147.400; -457.000; -483.000
821.830;  -18.000; -270.000; -172.000
822.083; -190.600; -733.000; -288.000
822.336;  -23.400; -261.000; -167.000
822.589; -216.600; -805.000; -688.000
822.842; -225.400; -875.000; -770.000
823.094; -313.200;-1076.000;-1114.000
823.347; -194.600; -925.000; -729.000
823.600;   92.600;  402.000;  187.000
823.853;  -17.300; -311.000; -267.000
824.105;  -66.400; -331.000; -575.000
824.358; -176.500; -617.000; -716.000
824.611;  122.500;  234.000;   40.000
824.863;  -78.800; -612.000; -591.000
825.116;  108.100;  -33.000;   27.000
825.368;  150.700; -366.000; -372.000
825.621;  303.700; -186.000; -240.000
825.873;  159.200; -704.000; -737.000
826.126; 1152.800; -669.000; -641.000
826.378;19247.900; -389.000; -505.000
826.630; 3486.700; -890.000; -898.000
826.883;   61.200; -754.000; -693.000
827.135;  123.100; -279.000; -270.000
827.387; -170.400; -893.000; -839.000
827.639;   11.300;  -86.000;   32.000
827.892; -218.500; -742.000; -582.000
828.144; -202.300; -848.000; -804.000
828.396;   16.500;  104.000;  -80.000
828.648; -120.700; -440.000; -333.000
828.900; -245.300; -702.000; -795.000
829.152; -150.700; -684.000; -683.000
829.404;  -75.800; -215.000; -267.000
829.656;   57.900;  321.000;  214.000
829.908;   33.000;  393.000;  229.000
830.160; -273.100;-1064.000;-1047.000
830.412; -120.100; -481.000; -430.000
830.664; -197.500; -557.000; -665.000
830.916;  -88.900; -268.000; -206.000
831.167; -296.800;-1073.000; -951.000
831.419; -128.000; -623.000; -566.000
831.671; -223.800; -764.000; -809.000
831.923; -132.900; -311.000; -447.000
832.174;  -58.200; -273.000; -331.000
832.426; -150.900; -493.000; -582.000
832.678; -302.300;-1043.000;-1091.000
832.929; -240.400; -947.000; -935.000
833.181; -107.400; -575.000; -677.000
833.432;  -59.500;  -59.000; -186.000
833.684;   36.800;  112.000;  -27.000
833.935; -142.900; -610.000; -566.000
834.187; -183.900; -829.000; -823.000
834.438;  -13.300;  -58.000;  -25.000
834.689;  -40.300; -255.000; -123.000
834.941;  -41.400; -343.000; -244.000
835.192; -151.900; -590.000; -533.000
835.443; -102.400; -419.000; -506.000
835.695;   58.200;  138.000;  -16.000
835.946;  -99.100; -608.000; -378.000
836.197; -163.000; -599.000; -622.000
836.448; -112.500; -528.000; -395.000
836.699;  -54.000; -253.000; -341.000
836.950;   56.400;   72.000;    7.000
837.201; -241.400;-1003.000; -987.000
837.452;  -30.200; -356.000; -170.000
837.703; -174.700; -791.000; -737.000
837.954;  -40.000; -205.000; -365.000
838.205; -122.500;-1029.000;-1008.000
838.456;  258.100; -196.000; -282.000
838.707;   41.800; -423.000; -519.000
838.958;    9.700; -634.000; -647.000
839.209;  473.500;   18.000;   40.000
839.460;  214.200; -439.000; -201.000
839.710;  314.300; -135.000; -297.000
839.961;  763.200;  730.000;  612.000
840.212;  565.900; -382.000; -497.000
840.462; 2080.800; -328.000; -277.000
840.713;30729.900; -571.000; -536.000
840.964; 9418.600;  -62.000; -143.000
841.214;  811.900; -384.000; -624.000
841.465;  922.500; -214.000; -141.000
841.715;  893.900; -417.000; -380.000
841.966;  995.000; -746.000; -685.000
842.216;17544.600; -330.000; -431.000
842.466;50925.100; -169.000; -313.000
842.717; 2053.200; -964.000; -952.000
842.967;  552.900; -635.000; -641.000
843.217;  504.600;   20.000;   28.000
843.468;  145.500; -104.000; -132.000
843.718;  -46.000; -718.000; -726.000
843.968; -141.500; -837.000; -765.000
844.218;   75.100; -315.000; -262.000
844.469;  -83.900; -577.000; -561.000
844.719; -140.900; -537.000; -682.000
844.969;  -99.900; -550.000; -580.000
845.219; -209.100; -814.000; -862.000
845.469;  -62.200; -392.000; -342.000
845.719; -210.200; -792.000; -884.000
845.969;   30.200;  119.000;  174.000
846.219; -164.800; -738.000; -720.000
846.469;   99.600;  464.000;  432.000
846.718;    9.800; -115.000;   31.000
846.968; -206.100; -827.000; -827.000
847.218;  -16.600; -224.000; -371.000
847.468; -157.800; -586.000; -555.000
847.718; -202.800; -827.000; -798.000
847.967; -222.900; -826.000; -915.000
848.217;  -79.300; -449.000; -569.000
848.467;  -72.800; -405.000; -376.000
848.716; -167.000; -708.000; -725.000
848.966;   40.800; -372.000; -358.000
849.215;  -45.400; -428.000; -419.000
849.465; -148.000; -785.000; -615.000
849.714; -235.300;-1132.000;-1150.000
849.964;  -65.400; -551.000; -613.000
850.213;   39.900; -393.000; -355.000
850.463;  214.500;  137.000;  340.000
850.712;   22.900; -542.000; -567.000
850.961;   51.400; -739.000; -678.000
851.211;  170.200; -513.000; -504.000
851.460;  294.400; -635.000; -650.000
851.709; 1005.500;  -25.000;   18.000
851.958;18954.900; -912.000; -750.000
852.208;17884.700; -859.000; -879.000
852.457;  703.600; -181.000;  -13.000
852.706;  139.300; -791.000; -823.000
852.955;   32.300; -507.000; -528.000
853.204;  -72.400; -521.000; -461.000
853.453;  -85.800; -418.000; -458.000
853.702; -195.000; -660.000; -750.000
853.951; -164.700; -532.000; -520.000
854.200; -132.000; -613.000; -562.000
854.449; -207.800; -695.000; -661.000
854.698; -118.300; -340.000; -279.000
854.946;  -49.100; -181.000; -284.000
855.195; -269.800; -843.000; -868.000
855.444; -114.900; -395.000; -420.000
855.693; -174.200; -345.000; -432.000
855.941; -163.900; -387.000; -516.000
856.190;  -72.400; -256.000; -382.000
856.439; -217.200; -652.000; -703.000
856.687;  -36.000;  -99.000;  -72.000
856.936; -199.200; -621.000; -323.000
857.184; -274.400;-1067.000;-1020.000
857.433; -121.600; -423.000; -512.000
857.681; -281.000; -989.000; -953.000
857.930;  -95.600; -282.000; -433.000
858.178; -263.900; -856.000; -929.000
858.427; -245.700; -802.000; -781.000
858.675; -166.900; -377.000; -544.000
858.923; -166.800; -527.000; -819.000
859.172; -296.800;-1094.000;-1070.000
859.420; -103.400; -339.000; -239.000
859.668; -217.300; -624.000; -628.000
859.916;   36.100;  109.000;  115.000
860.164; -176.100; -699.000; -603.000
860.413;  443.400; -878.000; -696.000
860.661;  196.300; -709.000; -577.000
860.909; -120.900; -339.000; -325.000
861.157;  -98.800; -277.000; -444.000
861.405; -212.200; -534.000; -670.000
861.653;   89.800;  310.000;  310.000
861.901;  314.900; -543.000; -613.000
862.149;  -69.200; -801.000; -824.000
862.396;  -93.700; -297.000; -187.000
862.644; -107.700; -368.000; -347.000
862.892;    8.300;   98.000;  138.000
863.140; -166.500; -549.000; -530.000
863.388; -228.700; -815.000; -759.000
863.635; -165.400; -642.000; -601.000
863.883;   53.600;  231.000;  190.000
864.131; -132.800; -288.000; -357.000
864.378; -202.200; -675.000; -540.000
864.626; -127.600; -347.000; -415.000
864.873; -172.000; -556.000; -505.000
865.121; -195.200; -714.000; -799.000
865.368;  -13.400; -173.000;   75.000
865.616;    5.000;  -33.000;  -40.000
865.863;  -83.000; -462.000; -506.000
866.111; -170.100; -795.000; -824.000
866.358;  116.700; -426.000; -420.000
866.605; 4718.700;  -64.000; -804.000
866.853; 3543.200; -621.000; -537.000
867.100;  -62.800; -728.000; -775.000
867.347; -136.800; -672.000; -611.000
867.594;  -85.900; -740.000; -714.000
867.841;  203.400;   97.000;   17.000
868.089; -241.300; -746.000; -698.000
868.336; -162.000; -477.000; -420.000
868.583; -189.900; -637.000; -741.000
868.830;  -27.900; -131.000; -170.000
869.077; -263.200; -859.000; -787.000
869.324; -172.400; -502.000; -458.000
869.571; -180.000; -398.000; -430.000
869.818; -191.500; -485.000; -439.000
870.065; -130.900; -439.000; -513.000
870.311; -183.100; -456.000; -542.000
870.558; -150.900; -332.000; -311.000
870.805;  -91.500; -320.000; -384.000
871.052; -120.500; -494.000; -369.000
871.298;  -58.700; -204.000; -131.000
871.545;  -17.400; -151.000; -185.000
871.792; -125.400; -173.000; -222.000
872.038;  -74.200;   43.000; -126.000
872.285; -169.400; -496.000; -387.000
872.532; -107.000; -357.000; -387.000
872.778;   83.200;  556.000;  403.000
873.025;  -88.800; -384.000; -359.000
873.271;  135.100;  501.000;  578.000
873.517;   31.200; -133.000; -209.000
873.764;  -46.600; -193.000;  -80.000
874.010;  -83.000; -143.000; -230.000
874.257;    1.900;  123.000;   90.000
874.503; -171.900; -579.000; -479.000
874.749;  -39.000;   31.000;  275.000
874.995;  -23.200;  -80.000;  -20.000
875.242; -172.400; -540.000; -478.000
875.488; -161.800; -414.000; -439.000
875.734;  -51.200; -106.000; -234.000
875.980;  339.300; -872.000;-1032.000
876.226;  462.500; -157.000; -255.000
876.472;  104.300;  343.000;  237.000
876.718;   -7.300;  184.000;  158.000
876.964;   -7.400;   56.000;   55.000
877.210; -212.800; -547.000; -677.000
877.456; -213.400; -630.000; -557.000
877.702; -259.900; -821.000; -832.000
877.948; -112.900; -377.000; -497.000
878.193;  123.300;  361.000;  255.000
878.439; -143.500; -487.000; -472.000
878.685; -141.000; -272.000; -343.000
878.931; -211.100; -618.000; -676.000
879.176;  -77.100; -201.000; -201.000
879.422; -270.800; -933.000; -820.000
879.668;  160.600;   10.000;   79.000
879.913;  236.200;   53.000;  137.000
880.159;  -42.500; -112.000;  -17.000
880.404;  -30.600; -152.000; -162.000
880.650;    8.400;   91.000;  141.000
880.895; -232.500; -670.000; -710.000
881.141; -162.500; -454.000; -428.000
881.386; -215.400; -503.000; -658.000
881.631; -143.400; -311.000; -166.000
881.877;    9.000;  112.000;  -13.000
882.122; -232.300; -684.000; -600.000
882.367;  -99.200; -136.000; -186.000
882.612;  -78.800;  -80.000; -176.000
882.858; -259.800; -877.000; -823.000
883.103; -115.200; -297.000; -267.000
883.348; -202.400; -759.000; -852.000
883.593; -214.800; -677.000; -602.000
883.838;   -7.500; -311.000;  -24.000
884.083;  130.400;  353.000;  288.000
884.328; -141.100; -564.000; -545.000
884.573;  -53.300; -196.000; -143.000
884.818;  396.700; -694.000; -531.000
885.063;  221.800; -348.000; -315.000
885.308; -116.400; -475.000; -398.000
885.553;   52.000;  245.000;  325.000
885.797; -200.700; -545.000; -615.000
886.042;  -29.100;    8.000;   58.000
886.287;  -99.900; -253.000; -211.000
886.532;  -20.000;   26.000;  204.000
886.776; -125.700; -407.000; -525.000
887.021; -232.000; -621.000; -574.000
887.265; -218.200; -685.000; -689.000
887.510; -194.800; -557.000; -496.000
887.755;  -84.500; -194.000; -164.000
887.999; -209.900; -552.000; -575.000
888.244;  -15.400;  -58.000;  161.000
888.488;   38.500;  371.000;  393.000
888.732; -161.900; -368.000; -520.000
888.977; -199.300; -622.000; -567.000
889.221; -259.200; -683.000; -659.000
889.465; -180.500; -422.000; -566.000
889.710;  -52.200;  -56.000; -299.000
889.954;  107.700;  579.000;  467.000
890.198; -203.400; -584.000; -707.000
890.442; -244.800; -716.000; -712.000
890.687; -232.000; -800.000; -753.000
890.931; -125.400; -273.000; -210.000
891.175; -187.800; -502.000; -500.000
891.419; -122.400; -105.000; -110.000
891.663; -112.400; -239.000; -112.000
891.907; -266.800; -801.000; -545.000
892.151; -293.300; -920.000; -815.000
892.395; -145.600; -274.000; -387.000
892.638;   49.500;  408.000;  291.000
892.882; -294.200; -780.000; -867.000
893.126;  131.400;  758.000;  558.000
893.370; -106.000; -167.000; -168.000
893.614; -218.100; -714.000; -715.000
893.857; -148.300; -183.000; -197.000
894.101; -184.700; -527.000; -631.000
894.345;  -37.200;  300.000;  150.000
894.588;  127.000;  569.000;  380.000
894.832;  -91.900; -178.000;  -84.000
895.075;  -54.600;   15.000;  -92.000
895.319; -200.000; -552.000; -420.000
895.563; -165.200; -413.000; -353.000
895.806; -213.300; -628.000; -741.000
896.049;  -19.000; -576.000; -368.000
896.293;  205.700;  527.000;  405.000
896.536;  -83.100; -465.000; -468.000
896.779;  -52.900; -149.000;   -1.000
897.023; -203.500; -751.000; -714.000
897.266;   31.900;  325.000;  269.000
897.509; -277.400; -900.000; -901.000
897.752;   -8.100;  149.000;  171.000
897.996; -306.800; -972.000; -864.000
898.239;  -39.200;  168.000;  102.000
898.482; -189.300; -431.000; -453.000
898.725;  -39.000;  101.000;   53.000
898.968; -232.600; -609.000; -744.000
899.211; -144.600; -513.000; -361.000
899.454; -170.000; -633.000; -539.000
899.697;  -50.200;   90.000;  -43.000
899.940; -232.400; -761.000; -757.000
900.182; -145.100; -335.000; -405.000
900.425;  -96.700; -150.000; -298.000
900.668;   20.700;  491.000;  350.000
900.911; -141.600; -292.000; -345.000
901.154;  -33.200;  141.000;   -3.000
901.396; -202.900; -407.000; -412.000
901.639; -198.800; -430.000; -496.000
901.882; -277.900; -790.000; -809.000
902.124; -113.200;  -29.000; -143.000
902.367; -165.900; -315.000; -361.000
902.609; -204.300; -476.000; -453.000
902.852;  -92.000; -108.000; -260.000
903.094; -176.900; -458.000; -337.000
903.337;  -24.600;  -26.000;   53.000
903.579; -155.100; -228.000; -441.000
903.821; -224.700; -597.000; -744.000
904.064;  -67.700;   85.000;  127.000
904.306; -100.700; -126.000; -166.000
904.548; -156.200; -152.000; -366.000
904.790; -117.100; -195.000; -340.000
905.033; -193.300; -625.000; -577.000
905.275; -167.700; -513.000; -524.000
905.517;  141.200;  468.000;  256.000
905.759; -140.200; -667.000; -761.000
906.001; -133.200; -322.000; -369.000
906.243;  -68.400; -162.000; -224.000
906.485;  269.600; -265.000; -207.000
906.727;  136.700; -499.000; -542.000
906.969;   -3.700;  -30.000; -135.000
907.211;  236.400; -316.000; -382.000
907.453;  397.800; -188.000; -237.000
907.695;    1.800; -158.000; -385.000
907.936;  158.700;  818.000;  706.000
908.178;  -33.900;   92.000; -135.000
908.420;  -57.700; -111.000; -162.000
908.662; -195.000; -633.000; -682.000
908.903; -107.600; -208.000; -123.000
909.145;  -41.500; -240.000; -305.000
909.386;  117.600;  315.000;  280.000
909.628;  173.100;  363.000;  397.000
909.870;   88.600;   29.000;  264.000
910.111; -127.500; -809.000; -949.000
910.353;   87.300; -123.000; -161.000
910.594;   47.200; -574.000; -606.000
910.835;  212.800; -265.000; -326.000
911.077;  321.200; -503.000; -604.000
911.318;  542.800; -505.000; -471.000
911.559;  815.100; -577.000; -880.000
911.801; 2824.300; -284.000; -280.000
912.042;23503.200;  -50.000; -159.000
912.283;49095.400;  404.000;  371.000
912.524; 5818.700; -396.000; -457.000
912.765;  884.800; -193.000;   79.000
913.006;  518.800; -307.000; -338.000
913.247;  128.000; -270.000; -290.000
913.488;   56.800;  -43.000;   30.000
913.729;  -92.600; -373.000; -373.000
913.970;  -26.800;  -96.000; -292.000
914.211;  -75.000; -160.000; -198.000
914.452;  -32.100; -118.000;  -11.000
914.693;  130.700;  510.000;  592.000
914.934;  117.000;  510.000;  440.000
915.175;  -70.800;   53.000;  -95.000
915.415;  -82.000; -137.000;   27.000
915.656;  -32.500;  -28.000;  192.000
915.897;  -96.900; -252.000;  -82.000
916.137;  -53.600;   74.000;   -9.000
916.378; -195.800; -573.000; -517.000
916.619;  -98.500; -159.000;  -63.000
916.859;   47.000;  303.000;  330.000
917.100;  353.400; 1655.000; 1070.000
917.340;  187.500;  930.000;  728.000
917.581;  173.000;  965.000;  789.000
917.821;   18.700; -171.000;  143.000
918.061;   23.700; -199.000;  -72.000
918.302;  -60.500; -152.000; -211.000
918.542;   -0.800;  -22.000;    3.000
918.782;  159.900;  369.000;  377.000
919.023;  262.900;  360.000;  427.000
919.263; 2673.900; 8131.000;  202.000
919.503; 1770.100; -137.000;  -54.000
919.743; 1067.600;  390.000;  266.000
919.983;  396.200; -134.000;  -26.000
920.223;  183.100;  135.000;   14.000
920.463;  332.600;  631.000;  554.000
920.703;  311.000;   84.000;   39.000
920.943;  331.400; -110.000;   90.000
921.183;  509.800; -414.000; -405.000
921.423;  948.300;  307.000;  546.000
921.663; 1324.200; -174.000; -257.000
921.903; 2947.900;  237.000;  173.000
922.143;17992.300;  372.000;  389.000
922.383;60526.500;  158.000;  115.000
922.622;15798.500; -120.000;  -15.000
922.862; 1991.500;  796.000;  785.000
923.102;  826.800;  -51.000;   33.000
923.341;  392.300;   59.000;   74.000
923.581;  217.600;  450.000;  360.000
923.821;   86.800;  301.000;  398.000
924.060;  137.500;  351.000;  193.000
924.300;  -45.100;  -16.000; -128.000
924.539;   85.000;  584.000;  473.000
924.779;  129.500;  812.000;  597.000
925.018;   21.800;  247.000;  353.000
925.257;   86.800;  595.000;  666.000
925.497;   -6.100;  447.000;  412.000
925.736;  -91.500;  -35.000;  102.000
925.975;   73.100;  687.000;  669.000
926.214;  121.800;  907.000;  850.000
926.454;  143.900;  706.000;  757.000
926.693;    6.000;  419.000;  543.000
926.932;  173.100; 1021.000;  825.000
927.171;  253.600; 1107.000; 1044.000
927.410;  208.100; 1144.000;  967.000
927.649;  144.200;  924.000;  742.000
927.888;   66.500;  590.000;  564.000
928.127;   46.500;  680.000;  678.000
928.366;  126.200;  842.000;  826.000
928.605;  140.700;  831.000;  737.000
928.844;  567.400; 1451.000; 1393.000
929.083; 1113.700;  770.000;  613.000
929.321;  552.500; 1335.000; 1359.000
929.560;  259.000; 1158.000; 1122.000
929.799;   27.900;  574.000;  475.000
930.038;  261.900; 1025.000; 1394.000
930.276;   -6.600;  334.000;  397.000
930.515;   73.700;  827.000;  681.000
930.753;   49.700;  614.000;  589.000
930.992;   33.400;  664.000;  717.000
931.230;  102.200;  847.000;  847.000
931.469;  432.200; 2162.000;  892.000
931.707;  234.900;  840.000;  751.000
931.946;  183.800; 1278.000; 1344.000
932.184;  221.200; 1437.000; 1175.000
932.423;  194.800; 1265.000;  963.000
932.661;  264.200; 1296.000; 1428.000
932.899;  135.000;  987.000;  821.000
933.137;   97.000;  754.000;  564.000
933.376;  387.300; 1664.000; 1335.000
933.614;  379.300; 1759.000; 1196.000
933.852;  189.900; 1357.000; 1171.000
934.090;  360.000; 1722.000; 1747.000
934.328;  282.400; 1252.000; 1457.000
934.566;  254.900; 1431.000; 1110.000
934.804;  372.900; 1263.000; 1309.000
935.042;  990.900; 1861.000; 1850.000
935.280; 3895.500; 2088.000; 2063.000
935.518; 2980.300; 2113.000; 2007.000
935.756;  731.300; 2481.000; 2316.000
935.994;  399.300; 1808.000; 1751.000
936.231;  762.300; 2890.000; 2950.000
936.469;  465.000; 2367.000; 2378.000
936.707;  413.000; 2220.000; 2167.000
936.945;  541.800; 2825.000; 2882.000
937.182;  501.700; 2679.000; 2741.000
937.420;  705.100; 3602.000; 3031.000
937.657;  913.800; 3365.000; 3478.000
937.895;  782.900; 3331.000; 3488.000
938.133;  733.900; 3540.000; 3528.000
938.370;  796.300; 3896.000; 4191.000
938.607;  932.600; 4488.000; 4205.000
938.845; 1199.200; 5587.000; 5549.000
939.082; 1051.400; 5387.000; 5177.000
939.320; 1202.000; 5799.000; 5728.000
939.557; 1386.800; 6549.000; 6491.000
939.794; 1555.300; 7285.000; 7097.000
940.031; 1921.600; 8421.000; 8368.000
940.269; 2312.800; 9552.000; 9107.000
940.506; 2316.700;10901.000;10507.000

