
Integration time [ms]: 100.000
Averaging Nr. [scans]: 40
Smoothing Nr. [pixels]: 0
Data measured with spectrometer [name]: 2101013U2
Wave   ;Sample   ;Dark     ;Reference
[nm]   ;[counts] ;[counts] ;[counts] 

394.013;   57.316; -450.257; -315.536
394.305;  219.114; -461.258; -419.536
394.596; 1029.587; -676.269; -527.514
394.887; 2496.628; -796.268; -654.518
395.178; 1010.508;  145.736;   11.476
395.470;   95.469; -210.263; -356.526
395.761;  219.493;  305.734;  394.479
396.052;  322.587; -545.284; -306.489
396.343;  329.957; -557.276; -454.503
396.634;  137.951; -200.279; -290.497
396.926;  181.200; -618.268; -565.517
397.217;  153.536;   11.725;  -17.504
397.508;   74.827; -366.273; -154.507
397.799;   63.151; -555.279; -571.497
398.090;   17.720; -973.280; -902.495
398.381;  146.488;   11.708;  -11.473
398.672;    8.289; -585.292; -742.473
398.963;   68.682; -348.279; -373.498
399.254;  135.823;   54.709; -209.475
399.545;  -12.961;-1017.266; -883.520
399.836;   91.046; -407.277; -343.501
400.127;   76.790; -205.295; -209.468
400.418;   87.321; -423.274; -392.506
400.709;   82.682; -359.281; -333.493
401.000;   65.902; -268.291; -309.476
401.290;  131.027;  225.698;  115.545
401.581;   84.670; -166.286; -228.485
401.872;   29.087; -542.298; -486.462
402.163;   66.832; -313.296; -252.467
402.454;   98.424; -123.291; -163.475
402.744;  100.773; -844.297; -813.465
403.035;  539.829; -226.293;  -86.471
403.326;  717.542; -366.292; -384.474
403.617;  443.181;  204.701;  165.539
403.907;  254.518; -593.283; -679.490
404.198; 2260.781; -545.307; -599.446
404.489; 5961.273; -618.283; -588.491
404.779; 2172.005; -618.302; -660.456
405.070;  233.559;  -67.304; -174.451
405.360;  326.756; -259.293; -238.472
405.651;  377.266;  125.699;   98.542
405.942;  231.141;  209.714;  127.516
406.232;  365.430; -432.285; -413.487
406.523;  583.549;  641.706;  758.530
406.813;  131.318; -579.286; -644.484
407.104;  423.987;  261.708;  144.527
407.394;  237.083; -604.299; -591.462
407.685;  190.579;  336.715;  222.513
407.975;   93.572; -400.283; -382.490
408.265;  140.138; -134.289; -190.478
408.556;   85.771; -472.291; -459.475
408.846;  176.850;  474.706;  429.530
409.137;  105.721;   -1.288; -216.480
409.427;   63.655; -193.285; -271.487
409.717;   42.755; -776.273; -692.508
410.007;  156.648;    4.715; -170.486
410.298;  111.592; -360.295; -342.469
410.588;   72.752; -495.285; -510.486
410.878;   42.207; -792.287; -873.482
411.168;  121.214; -481.298; -478.463
411.459;  121.441; -295.283; -242.489
411.749;   76.594; -609.292; -507.474
412.039;   58.295; -755.289; -386.480
412.329;  223.714;   40.722;  132.501
412.619;  234.668;  -62.286; -148.485
412.909;  401.016;  639.711;  594.521
413.199;  383.795; -130.280; -251.495
413.490;  461.607;  521.710;  352.523
413.780;  163.549;-1013.279; -913.496
414.070;  341.708;  -46.276;  235.497
414.360;  403.135; -729.278; -666.498
414.650;  448.529; -726.288; -688.482
414.940;  524.274; -538.280; -441.496
415.230;  925.476;   50.712;   74.519
415.520; 5829.036;  155.730;   66.486
415.809;22751.732; -305.281; -125.493
416.099;17877.623; -388.277; -229.501
416.389; 4815.419;  435.726;  236.494
416.679; 2869.198;   91.738;   85.473
416.969;  511.112; -527.287; -503.483
417.259;  609.051;  341.721;  171.503
417.549;  694.256;  522.718;  318.508
417.838; 1571.302; -205.268; -147.518
418.128; 5068.962;  650.710;  492.522
418.418; 4271.186; -491.272; -579.509
418.708; 2909.944;    9.726;  -48.506
418.997;10691.340; -474.275; -480.505
419.287;11286.851; -733.273; -790.507
419.577;10374.391; -160.283; -123.489
419.866;34643.471; -588.277; -498.501
420.156;36325.157; -242.270;  -55.513
420.446; 6773.690; -112.263;  -26.526
420.735;  989.926; -376.271; -446.512
421.025;  885.584; 1830.722;  315.502
421.314;  790.399; -203.271; -226.512
421.604; 1852.495;   89.732;  233.484
421.893; 1104.345; -705.271; -602.511
422.183;  253.491; -487.263; -461.526
422.472;  405.697;  -36.271; -107.511
422.762;  473.570; -416.266; -379.521
423.051;  265.358; -916.276; -916.503
423.341;  349.153; -491.273; -439.507
423.630;  443.526; -121.265;   15.477
423.919;  403.739;   58.725;   49.495
424.209;  387.296;  -31.263;   56.473
424.498;  507.875;   68.732;  161.483
424.787; 1073.681; -535.267; -601.518
425.077; 3320.650;   34.735;   29.478
425.366; 5006.727; -734.262; -744.528
425.655; 9459.504;  639.727;  259.493
425.945;18971.729; -313.247; -268.554
426.234;10812.749;  117.741;  300.467
426.523; 4829.429;  -86.259; -350.534
426.812; 6653.066;  107.734;  159.480
427.101; 9611.317; -127.269; -323.515
427.390;12525.611;  -55.270;  -86.514
427.680; 3270.049; -624.257; -411.538
427.969;  526.285; -330.255; -301.540
428.258;  344.915; -385.257; -477.536
428.547;  587.665;  449.728;  397.490
428.836; 1484.475; -421.253; -398.543
429.125; 2207.081; -199.259;  -72.534
429.414;  895.048; -330.251; -294.548
429.703; 2959.398; -231.251; -213.548
429.992; 8735.526; -938.250; -828.549
430.281; 5841.784; -397.264; -331.524
430.570;  640.764;  -21.252;   32.454
430.859;  686.379;  279.741;  352.466
431.148;  492.975;  636.752;  631.446
431.437;  321.238;  391.748;  367.454
431.725;  170.367; -544.257; -481.536
432.014;  132.733; -845.253; -756.545
432.303;  423.400; -149.239; -105.569
432.592;  709.815; -460.263; -178.525
432.881; 1048.701; -601.248; -437.554
433.169; 5672.635; -343.255;  -61.540
433.458;11575.809;  445.765;  540.424
433.747; 5048.307; -397.261; -289.529
434.036; 1015.301; -275.242; -280.564
434.324; 2048.039; -395.249; -379.551
434.613; 3470.595;   40.757;  159.437
434.902; 1254.365;  333.760;  439.433
435.190;  761.399;   75.761;  295.431
435.479;  453.652;  -52.245;   83.441
435.767;  149.685; -411.244; -427.561
436.056;  268.947; -340.242; -294.563
436.345;  386.893; -372.240; -223.568
436.633;  401.534;   60.750;  383.450
436.922;  328.445;  208.760;  414.432
437.210;  835.674; -194.236;    1.426
437.499; 2677.057; -583.235; -432.576
437.787; 3020.273; -339.236;  -10.574
438.075;  715.705;   56.761;  162.430
438.364;  939.182;  -44.238;  250.429
438.652;  612.186; -286.226; -138.592
438.941;  187.450;    3.770;  269.415
439.229;   25.536; -665.252; -466.545
439.517;   67.690; -160.234;  -85.577
439.806;    9.801; -501.225; -290.595
440.094;  219.048;  377.766;  650.421
440.382;  252.776; -653.233; -302.580
440.670;  280.456; -361.235; -285.576
440.959;   48.394; -347.223; -170.599
441.247;   94.212; -151.229; -109.587
441.535;  139.238; -266.235;   31.423
441.823;   68.795; -497.234; -305.578
442.111;  224.316;  173.771;  327.412
442.400;  698.051; -628.245; -335.559
442.688; 1909.472; -111.234; -620.579
442.976; 1436.805; -786.213; -450.617
443.264;  170.483; -324.224; -364.597
443.552;  127.087; -258.226;   51.408
443.840;  197.662;  602.765;  876.423
444.128;  121.676;  265.767;  269.420
444.416;   27.218; -694.228; -312.588
444.704;   43.348; -465.219;  -92.605
444.992;   95.865;   -0.226;  240.407
445.280;   53.526; -517.230;  -94.585
445.568;   82.134; -694.212; -396.618
445.856;  444.157; -174.221;  357.398
446.143; 1000.994;  -54.220;   -7.604
446.431;  849.072;  -25.228;  625.411
446.719;  300.142;  489.783;  675.391
447.007;  189.045;  481.769;  705.416
447.295;  201.616;  597.777;  871.402
447.583;  107.509; -464.229;  -34.587
447.870;  183.954; -434.221; -202.601
448.158;  505.600; -104.230;  129.415
448.446;  410.145; -800.219; -338.604
448.733;  199.809;   13.776;  269.403
449.021;  291.834;   60.788;  341.382
449.309;  209.423; -296.210;  208.379
449.596;  239.263;  128.783;   59.392
449.884;  170.373; -571.222; -325.600
450.172;  155.127; -756.227; -406.590
450.459;  422.164;  645.786;  780.387
450.747; 2108.562; -411.218; -147.608
451.034; 6849.273;  493.772;  889.411
451.322; 5710.667; -413.214; -170.614
451.609;  522.336;  292.777;  508.403
451.897;  537.511; -550.203; -183.634
452.184; 1655.066; -622.223; -400.598
452.472; 1592.370;   97.792;  269.375
452.759;  379.521;  512.781;  864.395
453.047;  152.056; -407.212; -125.617
453.334;  101.004; -732.219; -216.606
453.621;  116.194; -438.214; -161.615
453.909;  139.053;   13.796;  384.368
454.196;  130.248; -299.199; -123.641
454.483;  234.549;  317.798;  540.364
454.771;  158.248; -215.208;  196.374
455.058;   50.576; -316.207;  102.374
455.345;  125.452;   71.807;  344.347
455.632;   87.404; -128.207;  235.373
455.919;   49.295;  -82.196;  182.354
456.207;  -48.598; -774.198; -450.642
456.494;  -14.539; -475.200;  -66.639
456.781;   16.119; -399.202; -198.635
457.068;   65.711; -253.206;  -29.628
457.355;    5.012; -698.206; -401.629
457.642;    6.767; -552.205; -290.630
457.929;    6.843; -778.194; -417.651
458.216;   75.331; -575.212; -354.617
458.503;  210.298; -173.193;  -19.652
458.790;  207.295; -864.208; -630.625
459.077;  271.649;  -77.202;  110.364
459.364;  759.061; -350.195; -210.649
459.651; 1570.833;  -46.206;  220.372
459.938;  747.861; -864.209; -665.623
460.225;  171.127;  132.799;  276.363
460.512;  -36.783; -836.197; -688.645
460.799;  126.811;  -32.218;  320.392
461.086;   88.990; -370.200; -251.640
461.372;   59.828; -509.198; -279.642
461.659;  131.321; -165.196;  108.354
461.946;   87.022; -445.193;  -54.651
462.233;  259.238;  842.800;  888.361
462.519;  357.760; -814.201; -464.639
462.806;  960.693; -768.197; -497.645
463.093;  816.817; -445.191;  -66.656
463.380;  -15.192; -920.186; -824.664
463.666;   64.494; -259.197;  -18.646
463.953;  106.081; -406.195; -243.648
464.239;  197.981; -173.195;  -77.648
464.526;  425.292;  413.806;  743.350
464.813;  387.229; -565.190; -304.658
465.099;  389.498;  606.807;  607.348
465.386;  357.502;  903.807;  921.348
465.672;   57.118; -694.197; -522.645
465.959;   50.046; -598.188; -520.662
466.245;   27.052; -468.193; -359.652
466.532;  120.279; -109.195;   63.352
466.818;  103.833; -357.186; -216.664
467.104;   20.147; -488.182; -415.672
467.391;  -20.145; -628.189; -459.658
467.677;   48.761; -289.186;    9.335
467.964;   12.187; -682.189; -471.660
468.250;   79.114; -331.186; -160.665
468.536;   91.782;   90.811;  180.341
468.822;  -19.124; -821.184; -574.668
469.109;  149.852;  351.827;  471.311
469.395;  205.336;  729.808;  787.346
469.681;  204.185;   46.811;  156.341
469.967; 1161.964; -699.188; -382.660
470.254; 2483.272; -494.188; -306.662
470.540; 1630.195; -601.196; -476.646
470.826;  234.208; -488.181; -397.675
471.112;  282.204;  288.816;  113.331
471.398;   92.159; -253.183;  -58.670
471.684;   42.161; -626.177; -447.680
471.970;    4.737; -918.180; -981.675
472.256;   36.385; -521.192; -441.654
472.542;   30.563; -499.171; -434.691
472.828;   27.268; -743.182; -607.672
473.114;   56.131; -380.166; -283.700
473.400;   27.578; -504.175; -293.684
473.686;   38.637; -452.166; -400.701
473.972;   70.667; -230.174; -131.687
474.258;  -47.698; -925.173; -843.689
474.544;  167.178; -183.178;   -2.679
474.830;  280.979;  -65.175;   45.316
475.116;  422.005; -123.190; -196.658
475.401;  580.614; -558.180; -467.676
475.687;  192.513; -725.180; -718.676
475.973;   21.576; -673.181; -770.673
476.259;  273.582;  736.825;  764.315
476.544;  377.669; -539.176; -437.682
476.830;  730.734; -398.172; -322.690
477.116;  607.193; -430.177; -336.682
477.401;  147.789;  346.820;  358.324
477.687;  -14.872; -289.175; -405.684
477.973;   57.905;   21.819;   28.326
478.258;  -18.617; -448.163; -348.706
478.544;   56.144;   21.815;   61.334
478.829;  -47.031; -818.171; -738.692
479.115;  -40.991; -749.172; -651.690
479.401;    5.463; -444.174; -449.686
479.686;   38.588; -253.180;  -74.676
479.972;  -28.817; -886.178; -776.680
480.257;   38.158; -258.166;  -65.700
480.542;    3.322; -614.170; -469.693
480.828;  250.276; 1288.824; 1392.317
481.113;  -33.051; -464.176; -426.683
481.399;    0.106; -236.161; -202.711
481.684;  -58.443; -620.166; -462.700
481.969;   25.094; -158.159;  -73.713
482.255;    0.133; -439.169; -285.695
482.540;   -2.016; -569.178; -441.680
482.825;    6.953; -395.187; -404.663
483.110;   91.761;  -85.169; -105.696
483.396;  144.466; -840.157; -652.718
483.681;  442.942;  543.826;  730.313
483.966;  122.088; -696.160; -700.712
484.251;   18.191; -404.174; -310.687
484.536;    3.968; -356.165; -378.703
484.822;   20.494; -205.173; -218.687
485.107;  -29.547; -599.152; -502.726
485.392;  122.973;  662.836;  541.296
485.677;   81.121;  354.832;  163.302
485.962;  123.938;  160.843;  270.283
486.247;   99.015;  -14.162;   -8.707
486.532;   53.584; -178.166; -325.701
486.817;  156.801;  381.839;  431.291
487.102;  119.787; -453.154; -514.722
487.387;  569.168; -637.156; -652.718
487.672; 1003.978; -154.164;  -38.705
487.957;  657.958; -394.160; -286.711
488.241;  188.745; -290.150; -314.729
488.526;  654.230; -280.152; -148.726
488.811; 1046.135; -881.177; -818.680
489.096;  816.464; -666.154; -702.723
489.381;  473.401;    3.847;  162.275
489.666;  331.406; -428.161; -510.710
489.950;  177.042;  558.846;  627.277
490.235;  -20.860; -480.151; -458.728
490.520;  -24.070; -756.161; -723.710
490.804;  -62.805; -827.156; -736.719
491.089;    4.936; -469.149; -299.732
491.374;   27.352; -132.164;  -75.704
491.658;   23.322; -817.147; -717.735
491.943;  201.059; -657.152; -609.727
492.227;  290.533; -178.155;  -38.721
492.512;   69.113; -294.157; -341.717
492.797;  -60.695; -713.149; -716.731
493.081;  -42.825; -588.147; -598.735
493.366;  -30.694; -751.161; -635.711
493.650;  233.577;  831.859;  917.254
493.935;   29.421; -648.147; -447.734
494.219;  -38.510; -778.142; -687.743
494.503;  -49.875; -585.150; -487.730
494.788;   52.730;   46.842;   74.285
495.072;  101.971;  184.850;  434.271
495.356;  170.814; -463.148; -343.733
495.641;  478.156; -812.146; -736.736
495.925;  476.624; -976.156; -903.719
496.209;   67.535; -599.149; -451.732
496.494;  -45.510; -763.142; -544.744
496.778;   14.237; -364.154; -360.722
497.062;  -42.476; -819.156; -627.719
497.346;  -47.266; -869.160; -640.711
497.631;  150.017;  580.852;  560.266
497.915;   78.841;  -64.145;  175.261
498.199;   66.941; -341.157; -277.718
498.483;   44.278; -562.152; -508.725
498.767;  169.722;  301.850;  300.271
499.051;  176.333; -126.149; -100.732
499.335;   26.381; -693.149; -739.731
499.619;  -26.948; -381.129; -423.767
499.903;   43.256; -272.155;  -65.721
500.187;   21.319; -588.153; -316.724
500.471;   18.408; -796.152; -595.727
500.755;  122.830;   62.839;  -96.710
501.039;   33.757; -270.155; -357.721
501.323;   96.379;  -21.141;  264.254
501.607;   46.358; -447.163; -503.706
501.891;   22.867; -607.156; -512.718
502.174;   -9.097; -726.144; -585.741
502.458;   75.762;   89.849;  370.273
502.742;   49.102; -180.138; -191.751
503.026;   83.321; -412.147; -254.734
503.310;  147.268; -437.159; -375.713
503.593;  111.123; -464.147; -325.735
503.877;  136.117; -232.133; -156.760
504.161;  195.696;    2.847;  -50.724
504.444;  132.357; -841.158; -710.716
504.728;  386.476; -487.164; -522.704
505.012;  647.919; -257.150;  -76.729
505.295;  502.081; -417.161; -212.711
505.579;  479.674; -256.156; -496.719
505.862;  655.238; -555.145; -333.738
506.146;  636.196; -681.159; -758.714
506.429;  385.796;  568.841;  461.286
506.713;   66.691; -732.151; -667.728
506.996;  308.036;   90.846;  295.278
507.280;  313.321; -633.165; -474.703
507.563;  211.480; -469.155; -261.721
507.847;   92.620; -423.153; -112.724
508.130;   83.232; -665.161; -456.711
508.413;  102.053; -758.167; -577.700
508.697;  226.903; -151.167;   12.300
508.980;  133.696; -422.153; -312.724
509.263;  -18.599; -466.155; -450.720
509.547;   42.769; -124.150;   82.271
509.830;   46.259; -172.160;  140.289
510.113;   84.274;  128.844;  298.281
510.396;   49.252; -530.152; -300.725
510.680;  241.964; -818.145; -812.738
510.963;  895.591;  184.846;  180.277
511.246;  786.952; -493.150; -357.730
511.529;  296.044; -482.145;  -83.739
511.812;  311.864; -250.134;   10.241
512.095;  230.964; -740.151; -396.728
512.378;   90.577; -317.147; -245.736
512.661;   23.210; -703.137; -623.753
512.944;   25.267; -750.142; -637.744
513.227;   53.307; -170.137; -171.752
513.510;   25.328; -479.144; -671.741
513.793;   46.558; -485.140; -435.747
514.076;  134.423;  -43.127;  -39.771
514.359;  105.386; -294.149; -135.732
514.642;   78.494; -442.142; -567.744
514.925;  673.082;  581.860;  561.253
515.208;  848.985; -498.134; -443.758
515.491;  555.749; -276.133; -182.761
515.773;  340.231; -410.143; -337.742
516.056; 1823.891;  249.864;  409.246
516.339; 2551.245; -754.136; -652.755
516.622; 2067.999; -518.150; -488.730
516.904; 1626.738;  882.857;  975.257
517.187;  773.406; -730.138; -523.752
517.470;  430.237; -568.143; -510.743
517.752;  389.548; -624.136; -470.756
518.035;  305.994; -708.139; -725.749
518.318;  330.495; -799.136; -744.755
518.600; 2068.702; -300.132; -325.762
518.883; 2887.644;  310.858;   88.256
519.165; 1419.874; -585.138; -426.751
519.448;  405.802;  -61.132;  -19.762
519.730;  211.130; -573.126; -415.773
520.013;  348.770;  588.867;  664.240
520.295; 1119.366;  -94.134;  -15.759
520.578; 2460.915; -335.131; -305.764
520.860; 2752.852; -254.132;   56.238
521.143; 1385.650; -763.135; -584.756
521.425;  492.743; -251.125; -279.775
521.707;  640.573; -622.127; -380.771
521.990; 1581.074; -199.127;  167.229
522.272; 1793.660; -116.140;   -4.748
522.554;  911.482; -237.143; -157.742
522.836;  448.863;  -24.134;   99.241
523.119;  254.970; -496.148; -189.734
523.401;  154.197; -448.130; -314.766
523.683;   81.235; -865.137; -693.753
523.965;  255.254;  408.862;  260.248
524.247;  236.739;   54.878;  170.220
524.529;  198.640; -451.134; -367.759
524.812;  344.599;   -3.130;  191.234
525.094;  751.178; -773.138; -631.751
525.376; 1201.527; -143.124;   78.223
525.658;  740.517; -441.136; -339.754
525.940;   22.062; -805.131; -671.764
526.222;   45.421; -188.136;  -88.755
526.504;  149.735; -190.131;   32.237
526.786;  277.568; -960.133; -647.760
527.068;  421.607; -124.123;  -67.778
527.349;  203.664; -865.137; -774.754
527.631;  149.777; -137.132;   22.238
527.913;  131.472; -664.127; -450.771
528.195;  134.111; -761.125; -639.774
528.477;  214.485;  -93.134;  -30.758
528.759;  115.224; -648.130; -522.766
529.040;   41.731; -569.123; -293.778
529.322;   50.289; -235.125;  -10.774
529.604;  161.926;  -47.130;   93.233
529.886;  170.055; -546.126; -302.773
530.167;  166.718;  232.870;  192.235
530.449;   45.751;    1.853;   63.265
530.731;   20.713; -572.122; -459.779
531.012;   46.334; -513.120; -216.784
531.294;   50.622; -118.116;  -43.792
531.575;  144.518;  290.875;  538.225
531.857;   36.855; -548.135; -266.757
532.138;  112.702; -113.141;   40.254
532.420;  197.327;  294.865;  403.244
532.701;  288.520; -722.133; -751.760
532.983;  416.473;  232.867;  182.239
533.264;  157.228; -243.126;  175.228
533.546;  -24.704; -491.136; -508.755
533.827;   72.992;  173.867;   -1.759
534.109;   62.080; -352.135;  -80.757
534.390;  105.756; -725.132; -582.762
534.671;  266.201; -270.135;  -82.756
534.953;  150.109; -751.123; -611.779
535.234;   23.982; -426.117; -255.789
535.515;  -74.408; -891.119; -735.785
535.796;  -40.157; -431.128; -193.770
536.078; -118.324;-1050.124; -904.777
536.359;   21.909;  -22.123;    3.221
536.640;   -9.163; -480.125; -197.774
536.921;  162.006;  225.871;  143.232
537.202;  357.825;  -87.138;  -16.751
537.483;  431.715;  251.869;  377.236
537.764;  156.443;   17.870;   98.235
538.045;  -28.615; -543.134; -371.758
538.326;  -30.767; -596.129; -447.768
538.607;   19.799; -686.127; -476.771
538.888;  149.000;   98.879;    5.218
539.169;  176.144; -704.122; -535.781
539.450;  347.955;  236.871;   16.233
539.731;  221.754; -361.121; -182.783
540.012;  139.634;  199.880;  412.216
540.293;   98.746;   82.876;  158.224
540.574;   30.893; -895.113; -717.796
540.855;  464.177;  435.879;  377.218
541.136;  523.567;   47.878;  139.220
541.416;  258.024; -161.130; -220.766
541.697;  182.060; -274.131; -170.763
541.978;  907.404; -270.135; -315.757
542.259; 1179.399; -211.127; -236.771
542.539;  577.741; -191.116; -186.790
542.820;  181.292;  461.875;  480.225
543.101;  135.816;  -52.145;  -77.738
543.381;   30.398; -638.127; -591.771
543.662;  279.071;  159.873; -254.771
543.942;  497.744; -751.127; -830.770
544.223;  925.118;  193.878;  161.219
544.504;  608.776; -275.124; -182.777
544.784;  513.680; -592.126; -408.773
545.065; 1497.545;  104.884; -254.791
545.345; 1792.667;  227.881;   14.215
545.626; 1166.942;  -14.113; -108.796
545.906;  775.967;   77.869;   98.235
546.186;  326.134;   92.874;  -95.773
546.467;  176.329;   99.877;  -95.778
546.747;  284.766;  264.884;  327.210
547.027;  333.425;   91.876;  111.223
547.308;  291.194; -376.127; -530.770
547.588;  379.858;  299.871;  371.232
547.868;  182.493;  458.870;  588.235
548.149;  200.702;  609.885;  593.207
548.429;  115.747; -347.127; -299.771
548.709;  147.158; -645.120; -461.784
548.989;  415.426;   84.882;   88.213
549.269; 1882.826;   10.868;  139.239
549.550; 4202.983;  215.877;  117.222
549.830; 3748.635; -758.111; -556.799
550.110;  776.967; -468.110; -320.801
550.390;  740.713; -128.122;  -56.779
550.670;  989.988; -868.114; -783.795
550.950;  707.777; -509.121; -471.782
551.230;  166.573;  549.879;  460.218
551.510;  -19.049; -381.121; -326.782
551.790;   27.850; -173.109; -127.803
552.070;  241.879;  940.877; 1181.223
552.350;  341.446; -492.119; -377.786
552.630;  501.871;   -2.121;   77.219
552.909;  317.870;  181.884;   73.209
553.189;  195.032;  -49.132;   33.237
553.469;  143.020; -703.119; -514.786
553.749;  151.250; -469.127; -357.772
554.029;  146.661;   33.883;  -24.790
554.308;  123.556; -154.115;  -37.794
554.588;   57.567; -196.128; -204.770
554.868;   48.227; -366.121;  -47.782
555.147;  117.753; -114.115;  -46.793
555.427;  536.073; -260.116; -250.792
555.707; 3422.201; -284.115; -200.793
555.986; 4076.088; -719.111; -538.800
556.266; 2158.790;   23.884;   72.210
556.546;   98.626; -888.121; -675.782
556.825;  211.586; -657.114; -556.794
557.105; 1551.740; -125.128;   17.230
557.384; 1851.544;  122.884;  187.209
557.664;  693.772; -717.116; -508.792
557.943;   90.077; -557.121; -411.782
558.222;  130.704; -345.118; -344.788
558.502;  266.830; -116.115;  -76.793
558.781;  445.425;  194.885;  499.208
559.061;  349.804; -232.118; -227.788
559.340;  248.684;  302.883;  353.211
559.619;  598.214;   93.884;  148.210
559.899;  871.661; -239.117; -266.789
560.178;  796.254; -778.115; -593.793
560.457; 2720.637; -623.117; -562.790
560.736; 3785.114; -472.111; -482.800
561.015; 2541.838; -500.128; -502.769
561.295;  359.769;  180.893;  215.193
561.574;  323.252;  119.885;  116.207
561.853;  458.579;  274.891;  303.197
562.132;  437.007;  -45.114;  182.206
562.411;  400.721;  396.879;  553.219
562.690;   99.525; -592.115; -458.792
562.969;  135.349;  472.888;  630.203
563.248;  523.494; 2966.878; 2487.219
563.527;  243.713; -290.111; -408.800
563.806;  328.947; -650.127; -521.771
564.085;  362.409; -297.105; -206.810
564.364;  193.414; -594.117; -405.790
564.643;  440.597; -276.121; -223.781
564.922; 1592.898;  221.890;  397.198
565.201; 1614.751; -640.109; -700.803
565.479;  707.874; -297.115; -219.792
565.758;  268.791; -810.128; -712.770
566.037;  416.353; -155.109; -100.803
566.316;  221.344; -286.116;  -28.791
566.595;   38.477;  -17.115;  -12.793
566.873;  103.590; -166.111;  -79.801
567.152;  -54.577; -490.113; -590.797
567.431;    3.140; -113.116;    6.210
567.709;   14.095; -344.107; -212.807
567.988;  219.035; -810.114; -769.794
568.266;  454.601; -160.115;  -68.793
568.545;  334.356; -644.100; -514.819
568.824;  521.848;  160.885;  356.208
569.102;  458.235; -351.114; -235.794
569.381;  186.522; -492.116; -407.792
569.659;  -48.180; -553.113; -553.796
569.938;   14.467; -743.122; -465.780
570.216;   83.530; -225.109; -225.804
570.494;  -16.987; -632.114; -572.795
570.773;   32.750;  202.879;  114.218
571.051;   11.407; -373.123; -357.778
571.330;   29.742; -221.113; -174.796
571.608;   32.373; -181.098; -173.823
571.886;  -88.567; -671.111; -581.799
572.164;  -73.498; -739.121; -621.782
572.443;  -53.787; -562.105; -512.811
572.721;  -39.537; -399.117; -289.790
572.999;  -30.969; -280.117; -168.788
573.277;  101.782;  379.894;  620.191
573.555;  244.809;   94.894;   37.190
573.834; 1152.856;  -86.117; -114.788
574.112; 1360.047;  880.893;  811.193
574.390;  417.239; -143.111;  -96.801
574.668;   -1.375;  -91.112;  -61.797
574.946;  -13.541; -165.106; -187.810
575.224;    8.526;   71.891;  -16.803
575.502;  -33.308; -200.116; -204.791
575.780;  -88.074; -767.112; -829.798
576.058;  212.189; 1589.889; 1004.200
576.336;  -17.306; -210.110; -129.801
576.614;  -57.074; -511.112; -340.798
576.891;   24.331; -711.115; -823.794
577.169;  393.163; -158.108; -285.805
577.447;  491.746;  169.893;  202.193
577.725;  258.905;  629.888;  854.201
578.003;    5.803;  -71.112; -371.798
578.280;   89.022; -208.104; -242.812
578.558;   70.155; -450.115; -422.793
578.836;  128.488; -210.114; -145.795
579.114;   50.374; -630.112; -670.797
579.391;   83.008;   -6.117;  -18.789
579.669;  -67.493; -595.114; -704.794
579.947;  154.043; -326.107; -127.806
580.224;  259.293; -692.107; -524.806
580.502;  271.597;  127.893;   76.193
580.779;   26.464;  -42.117;   75.210
581.057;  -67.944; -584.109; -470.804
581.334;  -91.064; -726.102; -695.815
581.612;   45.835;   54.895;  511.190
581.889;  -21.550;  -83.101; -129.818
582.167;  -31.836; -298.099; -190.821
582.444; -103.331; -845.102; -814.817
582.721;  104.170;  657.899;  715.183
582.999;   41.711; -326.100; -167.821
583.276;  422.136; -812.123; -713.779
583.553;  614.390; -364.102; -294.816
583.831;  175.194; -607.104; -631.812
584.108;   54.736;  349.892;  174.195
584.385;    1.611; -122.102;  -98.815
584.662;  -79.184; -651.111; -828.801
584.940;   28.690;  204.889;  204.199
585.217;  -18.256;  -73.113; -303.796
585.494;   28.074;   71.890;  118.198
585.771;  167.331; -250.109; -354.804
586.048;  458.994; -196.113;  -76.796
586.325;  277.243; -721.110; -773.801
586.602;   80.372;  230.896;  213.188
586.879;  -20.917; -499.100; -580.820
587.156;   48.160; -156.105; -331.810
587.433;  -40.183; -701.102; -667.817
587.710;   73.551;  152.888;  234.202
587.987;  287.366; -264.105; -236.811
588.264;  715.728;  315.888;  387.202
588.541; 1226.500;  -61.104;   26.187
588.818; 2424.883;   72.892;  171.196
589.095; 2081.545; -163.104; -174.812
589.371;  354.704; -459.109; -414.804
589.648;    5.997; -581.107; -437.807
589.925;    2.039; -517.114; -621.795
590.202;  -11.049; -741.112; -607.798
590.478;   83.467; -166.105;  -73.811
590.755;  233.389; -241.108; -132.806
591.032; 2153.620; -741.110; -699.802
591.308; 2962.363; -732.094; -790.831
591.585; 1499.895; -573.110; -560.802
591.862;   98.194;-1056.102; -950.817
592.138;   55.162; -475.108; -474.805
592.415;  115.373; -486.104; -495.813
592.691; 1335.796;  460.896;  518.188
592.968; 1677.325; -208.098; -123.824
593.244;  788.066; -695.116; -595.790
593.521;   68.944; -105.102;  -42.817
593.797;  -39.685; -810.122; -720.780
594.074;  285.713; -611.096; -588.826
594.350;  592.124;  828.905;  729.172
594.626;  268.716; -303.111; -283.801
594.903;   83.770; -643.101; -645.817
595.179;  180.802;  243.896;  418.187
595.455;   14.523; -136.107; -150.807
595.731;    0.953;  -19.103;  -38.814
596.008;  -62.540; -464.111; -434.800
596.284;   19.310; -187.100; -242.820
596.560;   40.794; -501.093; -493.833
596.836;  173.037; -173.105;  -70.810
597.112;  286.163; -582.108; -437.805
597.388;  239.961;  -49.097;  -48.826
597.665;  100.247;  437.887;  530.203
597.941;  -63.027; -572.089; -658.839
598.217;    1.773; -323.110; -293.802
598.493;  237.883;   61.891; -204.804
598.769;  433.754; -175.100;  -50.819
599.045;  273.541; -490.108; -562.806
599.321;   32.884; -193.100; -261.820
599.597;  116.682; -355.109; -476.804
599.872;  422.949;  409.896;  429.187
600.148;  321.037;  -61.097; -172.826
600.424;  267.845;   91.893;  202.193
600.700;  197.273; -170.107; -280.807
600.976;   96.056; -442.097; -464.825
601.252;  205.554; -226.109; -272.803
601.527;  166.025; -833.104; -840.813
601.803;  136.593; -453.105; -404.812
602.079;  158.804; -124.100; -118.819
602.354;  501.679; -620.092; -531.835
602.630;  713.069; -140.113; -482.796
602.906; 2059.350; -910.101; -863.818
603.181; 5777.146; -627.119; -534.786
603.457; 5002.560;   98.903; -278.826
603.733;  715.479; -605.120; -626.783
604.008;  886.734; -245.106; -164.810
604.284; 2702.096; -636.101; -580.817
604.559; 2354.830;   -3.112;  -42.799
604.835;  424.862; -163.105; -225.810
605.110;  342.439; -732.099; -892.821
605.385;  605.422;  224.907;  267.167
605.661;  555.276; -625.095; -729.829
605.936;  985.541; -664.108; -737.806
606.211;  858.535;  -17.103; -170.815
606.487;  168.209; -329.114; -376.794
606.762;   -7.079; -791.119; -745.786
607.037;  -35.788; -501.105; -433.810
607.313;  -56.605; -589.096; -574.828
607.588;   -7.591; -375.106; -137.810
607.863;   28.074;  -28.101; -143.818
608.138;  180.022;  513.890;  516.198
608.413;    2.343; -576.099; -592.822
608.688;   27.912; -203.108; -267.805
608.964;  157.978; -509.106; -218.809
609.239;  190.885; -107.105; -212.810
609.514;  240.993;  281.895;  240.188
609.789;  569.147; -187.104; -716.812
610.064;  770.443; -435.096; -609.827
610.339;  725.979; -855.109; -799.804
610.614; 1004.859; -131.100; -315.820
610.889;  576.568;  215.895;  107.188
611.163;   26.318; -407.104; -591.812
611.438;   71.235;   81.886; -167.794
611.713;   -6.904; -467.101; -499.817
611.988;   20.298; -144.101; -328.818
612.263;  -65.439; -771.102; -717.815
612.538;  192.969;  385.887;  251.204
612.812;  132.061; -832.100; -911.820
613.087;  113.648; -358.098; -338.823
613.362;  -53.152; -497.107; -557.807
613.637;   38.881;  261.897;  138.186
613.911;  -12.470; -256.092; -345.835
614.186;   94.171; -249.107; -292.807
614.460;  553.422; -842.081; -758.854
614.735;  672.896;  -55.087;  -17.843
615.010;  142.211;   43.912;  -82.841
615.284;  225.262;  360.892;  246.195
615.559;  306.903; -792.092; -955.835
615.833;  246.841;  -76.099;  -87.822
616.108;    3.840; -225.090; -390.837
616.382;  132.023;  274.913;  402.156
616.656;  136.190; -241.090; -232.837
616.931;  445.792; -785.099; -700.822
617.205;  914.451; -973.104; -979.813
617.480;  838.216;  -91.125;    6.225
617.754;  138.963; -396.125; -128.774
618.028;    8.334; -369.129; -382.768
618.302;   57.985;   73.892;  -25.805
618.577;  -50.668; -371.103; -518.815
618.851;  -70.049; -399.109; -600.803
619.125;  -48.660; -335.134; -378.759
619.399;  -28.524; -244.104; -374.813
619.673;  -34.852; -330.115; -515.792
619.947;  -48.612; -333.114; -448.795
620.222;  -22.783; -198.110; -204.801
620.496;   -4.298;  -47.121;  -96.782
620.770;   12.269; -187.122;  -93.781
621.044;  179.310;  323.895;  346.190
621.318;  666.730; -653.120; -614.783
621.592;  598.903; -430.121; -409.783
621.866;  291.656; -476.112; -572.799
622.140;   14.867; -207.116; -356.791
622.413;   55.010;  138.889;  112.200
622.687;  -52.304; -746.101; -492.817
622.961;   16.235; -130.108; -143.805
623.235;  -54.889; -633.111; -661.800
623.509; -108.083; -816.105; -848.811
623.783;    6.669;  -12.107;   48.193
624.056;  -29.594; -254.120; -280.783
624.330;   39.250;   63.888;   -3.797
624.604;   36.264; -271.116; -355.790
624.877;   52.096;  180.890;   26.198
625.151;   33.633; -249.114; -238.794
625.425;  -33.597; -150.103; -283.814
625.698;  -79.085; -367.119; -374.785
625.972;  -86.527; -799.110; -765.802
626.245;   78.791;  685.884;  484.210
626.519;  -53.390; -426.120; -340.784
626.792;  -29.127; -192.107; -380.807
627.066;  -96.213; -485.122; -662.779
627.339; -101.831; -736.110; -663.802
627.613;   46.834;  351.880;  148.216
627.886;  -48.850;  187.891; -612.803
628.160;  -18.545;  312.880; -161.783
628.433;  -98.907; -695.125; -703.775
628.706;  -89.190; -517.120; -615.784
628.979;   24.375;  296.876;  117.223
629.253; -101.030; -785.119; -833.786
629.526;  303.953; -334.126; -253.772
629.799;  264.507; -641.123; -479.778
630.072;  138.111; -497.128; -516.769
630.346;  -89.159;-1115.116;-1080.790
630.619;  390.448; -467.107; -545.808
630.892;  556.737;  709.889;  593.200
631.165;  296.701;  790.896;  679.187
631.438; -105.247;-1092.112;-1055.798
631.711;   58.485;  453.877;  257.221
631.984;  -65.164; -523.117; -624.789
632.257;  -70.917; -636.117; -681.789
632.530;  -40.185; -412.119; -433.785
632.803;   24.481; -109.115;    7.207
633.076;  -80.921; -360.123; -422.777
633.349;   10.915;  173.872;  121.231
633.622;  -46.711; -187.119; -240.785
633.895; -145.044; -903.120; -823.783
634.167;  -77.870; -496.126; -525.773
634.440;  -22.003;  -19.116; -137.792
634.713;  -15.381;  -22.119; -120.786
634.986;   77.580;  593.871;  453.233
635.258;  -77.821; -507.115; -597.793
635.531;   90.279;  742.882; -343.788
635.804;  -34.840; -303.117; -318.789
636.077;  -94.582; -830.116; -852.791
636.349;  -29.948; -586.115; -474.793
636.622;  361.452; 1695.874; 1392.228
636.894;  209.085; -474.120; -909.784
637.167;  125.847; -836.127; -789.771
637.439;   12.643; -278.128; -213.770
637.712;  -63.246; -312.126; -293.772
637.984;  -89.706; -635.116; -707.791
638.257;  366.404;  515.877;  488.222
638.529;  516.969; -881.125; -924.776
638.802;  199.611; -508.128; -449.769
639.074; -105.957; -927.122; -952.781
639.346; -123.243; -942.135; -930.757
639.619;   -3.132;  -79.142; -319.744
639.891;    0.187;  -83.122; -168.779
640.163;  -96.011; -689.122; -756.780
640.435;   25.966;  273.878;  103.220
640.708;    4.642;  -72.122; -132.780
640.980;  -33.431; -366.122; -362.781
641.252;  161.621;  -25.121;  -71.781
641.524; 1694.398;  580.879;  573.219
641.796; 1665.525;-1094.121; -907.782
642.068;  309.751; -191.121; -300.782
642.340;  -48.997; -486.121; -566.783
642.613;   39.480;  294.880;  323.217
642.885; -108.643; -787.120; -878.783
643.157;  -56.991; -810.120; -658.784
643.428;   55.810;  170.880;  218.216
643.700;  -65.913; -498.120; -425.784
643.972;  -42.236;  -16.119; -133.785
644.244;  -96.909; -474.119; -559.785
644.516;  -55.632; -250.119; -114.786
644.788;   72.344;  662.881;  548.214
645.060;  -13.054;  -12.119; -124.786
645.332; -104.852; -525.118; -535.787
645.603;   34.000;  479.882;  342.213
645.875;  -72.773; -334.118; -369.787
646.147;  171.504; 1487.882; 1242.212
646.418;  -84.945; -931.117; -918.788
646.690;   95.232; -714.117; -715.789
646.962;   18.009; -413.117; -451.789
647.233;   -2.614;   15.883;   11.211
647.505; -105.312; -595.117; -475.790
647.776;   34.289;  328.884;  229.210
648.048;  -12.284; -248.116; -418.790
648.320;  -76.957; -752.116; -679.791
648.591; -159.055;-1055.116; -958.791
648.862;  -87.753; -505.116; -577.792
649.134;   16.748;  115.885;  198.208
649.405;  -58.025; -661.115; -618.792
649.677;  -57.523; -475.115; -598.793
649.948;  -17.546; -181.115; -296.793
650.219;   -7.219;  -37.115; -147.793
650.491;  -74.418; -431.114; -520.794
650.762; -133.516; -705.114; -731.794
651.033;  -91.039; -437.114; -424.795
651.304;  -94.412; -743.114; -728.795
651.576;  -68.585; -680.114; -645.795
651.847;  -47.559; -250.113; -140.796
652.118;  -29.482;  -32.113; -189.796
652.389; -114.630; -639.113; -722.796
652.660;  -45.778; -147.113;  -89.797
652.931; -145.426; -897.112; -871.797
653.202;  -79.250; -382.112; -541.798
653.473;  -62.323; -633.112; -533.798
653.744;  124.804; -595.112; -590.798
654.015;  102.506; -356.112; -303.799
654.286;  -73.067; -642.111; -663.799
654.557;  -65.666; -586.111; -521.799
654.828; -163.139;-1114.111;-1088.800
655.099;  -73.712; -404.111; -291.800
655.370;  -87.535; -427.111; -543.801
655.641; -121.483; -656.110; -714.801
655.911; -100.707; -618.110; -638.801
656.182;   46.045;  437.890;  387.198
656.453;   94.347;  830.890;  746.198
656.724;  -67.476; -466.110; -426.802
656.994;  -81.574; -553.109; -568.803
657.265; -110.748; -862.109; -873.803
657.536;  -86.721; -500.109; -377.804
657.806; -112.619; -561.109; -593.804
658.077; -122.717; -866.109; -950.804
658.347;  -94.890; -523.108; -598.805
658.618; -105.163; -646.108; -694.805
658.888;  -22.487;  -41.108;  112.195
659.159;  -83.260; -432.108; -548.806
659.429;  -25.583; -292.108; -349.806
659.700;    9.444; -435.107; -390.807
659.970;  -10.979; -370.107; -359.807
660.241;   -2.328; -754.107; -921.807
660.511;  428.299; -147.107; -174.808
660.781;   74.676; -793.106; -748.808
661.052;  -61.272; -222.106; -381.808
661.322;  -23.195;   21.894;   -9.809
661.592;    8.381;  257.894;  148.191
661.862;  -81.667; -369.106; -382.810
662.133; -101.390; -551.105; -502.810
662.403; -124.938; -770.105; -676.810
662.673;  -55.686; -256.105; -213.811
662.943;  -96.085; -612.105; -551.811
663.213;  -15.808;  -85.105;  -81.811
663.483;  -66.206; -593.104; -568.812
663.753;  -48.304; -194.104; -152.812
664.023;  -16.077;   68.896;  -32.813
664.293;  -57.676; -319.104; -126.813
664.563; -120.099; -694.104; -648.813
664.833; -124.172; -743.103; -608.814
665.103; -136.870; -730.103; -793.814
665.373; -115.568; -766.103; -806.814
665.643;  -98.717; -863.103; -918.815
665.913;   15.285; -534.103; -714.815
666.182;  112.712; -685.102; -719.816
666.452;  226.714;  -22.102;  -89.816
666.722;  -32.984; -724.102; -784.816
666.992; -146.133; -948.102; -921.817
667.261;  -98.531; -824.102; -808.817
667.531;  208.771;  134.899;   45.183
667.801;  528.673; -440.101; -412.818
668.070;  229.475;  714.899;  697.182
668.340; -111.599; -883.101; -840.819
668.609;   74.453;  588.900;  301.181
668.879;  -82.020; -490.100; -558.819
669.149;  -75.143; -539.100; -516.820
669.418; -112.841; -698.100; -726.820
669.688;  -26.289; -482.100; -666.820
669.957;   42.412; -423.099; -546.821
670.226;  -45.286; -268.099; -331.821
670.496;  -99.609; -431.099; -635.822
670.765;  -74.407; -418.099; -501.822
671.034; -135.405; -872.099; -828.822
671.304;  -12.379;   55.902; -111.823
671.573; -151.252;-1085.098; -957.823
671.842;   41.000; -380.098; -294.823
672.112;    1.927; -692.098; -586.824
672.381;    1.879; -239.098; -214.824
672.650; -130.620;-1005.097;-1021.825
672.919; -100.993; -631.097; -507.825
673.188; -100.591; -681.097; -878.825
673.457; -157.039;-1101.097;-1143.826
673.726;  -91.037; -579.096; -646.826
673.995;  -44.186; -533.096; -479.826
674.265;  -18.309; -263.096; -333.827
674.534;   -1.707; -183.096; -235.827
674.802;  -13.130; -618.096; -703.828
675.071;  895.972; -886.095; -801.828
675.340; 3435.523; -464.095; -339.828
675.609; 1158.300;  103.905;   82.171
675.878;   33.777; -949.095; -893.829
676.147;   31.879;  -26.095;   -8.829
676.416;   72.056; -210.094; -294.830
676.685;  656.607; 1000.906; -622.830
676.953;   93.309; -603.094; -452.831
677.222;  -30.689; -193.094; -273.831
677.491;  -36.212;  -24.094; -127.831
677.759;  -18.110;   11.907;  172.168
678.028;  -41.909; -279.093; -222.832
678.297;  -11.082;   71.907;  197.168
678.565; -149.730; -898.093; -944.833
678.834;  -62.728; -311.093; -268.833
679.102;  -79.526; -411.092; -391.834
679.371; -146.525; -898.092; -727.834
679.639; -143.698; -797.092; -786.834
679.908; -125.046; -794.092; -724.835
680.176; -157.619; -895.091; -941.835
680.445;  -72.617; -346.091; -352.835
680.713;  -28.640;  -58.091;  -23.836
680.982;  -98.264; -523.091; -525.836
681.250; -117.162; -578.091; -507.837
681.518; -103.760; -534.090; -751.837
681.787;  -33.633; -204.090; -167.837
682.055;  -69.181; -490.090; -422.838
682.323; -165.030; -993.090; -992.838
682.591;   21.297; -216.090; -538.838
682.859;   66.449;    9.911;  -35.839
683.128;   14.826;  232.911;  497.161
683.396; -167.747;-1102.089;-1122.840
683.664;  -37.996; -241.089;   21.160
683.932;   -6.744;  144.911;  -76.840
684.200;  -84.692; -576.088; -320.841
684.468;  -38.340;  -73.088; -124.841
684.736;  -46.088; -214.088; -175.841
685.004; -119.112;-1024.088; -982.842
685.272;  -60.160; -880.088; -774.842
685.540;  -83.783; -499.087; -557.843
685.808;  -92.431; -651.087; -682.843
686.076; -114.004; -894.087; -969.843
686.343;  -71.428; -601.087; -815.844
686.611;   22.299; -195.087; -224.844
686.879;  401.001; -530.086; -553.844
687.147; 2935.003; -483.086; -480.845
687.414;  819.030;  -12.086; -169.845
687.682;   -1.169; -658.086; -757.846
687.950;  279.683;  259.915;  263.154
688.217;   -7.965; -792.085; -760.846
688.485;  -15.163; -632.085; -636.847
688.753;  475.339;  -11.085; -102.847
689.020;  111.215; -820.085; -851.847
689.288; -113.933; -853.084; -787.848
689.555;  -42.131; -195.084; -148.848
689.823;  -40.954; -241.084; -345.849
690.090;  -70.877; -546.084; -651.849
690.358; -153.876; -877.084; -897.849
690.625;   16.326;  120.917;   45.150
690.892;  -82.947; -403.083; -369.850
691.160;  -10.095;   72.917;  -35.850
691.427;   -3.668;  141.917;  130.149
691.694; -133.441; -855.083; -929.851
691.962; -143.965;-1177.082;-1060.852
692.229;    7.987;  127.918;   56.148
692.496;   54.914;  130.918;  -49.852
692.763;    2.891; -164.082; -201.853
693.031;  -83.282; -739.082; -716.853
693.298;  -55.181; -509.081; -368.853
693.565;  269.971; -155.081; -163.854
693.832; 1091.473;   -5.081;   -9.854
694.099;  107.100; -643.081; -642.855
694.366;  -65.048; -882.081; -896.855
694.633;  -63.597; -920.080; -633.855
694.900;  764.480; 4367.920; -114.856
695.167;  374.832; -214.080; -380.856
695.434;  105.984; -646.080; -623.856
695.701;  177.936;  121.921;  -61.857
695.968;  427.512; -365.079; -361.857
696.234; 1012.164; -415.079; -646.858
696.501;10492.741; -776.079; -614.858
696.768; 5185.343; -554.079; -617.858
697.035;  307.495; -632.078; -667.859
697.302;   24.621; -448.078; -552.859
697.568;    4.273; -458.078; -497.859
697.835;  -44.050; -683.078; -624.860
698.102;  -19.723; -498.078; -407.860
698.368;   79.579;  384.923;  396.139
698.635;  -41.670;  -47.077; -424.861
698.901;  -24.343; -240.077; -348.861
699.168;   43.884; -534.077; -456.862
699.435;   57.961;  -72.077;  -13.862
699.701; -102.462; -868.076; -764.862
699.968;  -51.336;  144.924; -441.863
700.234; -108.284; -783.076; -822.863
700.500;  -61.032; -448.076; -539.864
700.767;    0.520;   -1.075;   26.136
701.033; -135.428;-1015.075; -963.864
701.299;  -55.627; -450.075; -483.865
701.566;  117.750;  950.925;  763.135
701.832;   39.177;  -31.075;  -76.865
702.098; -102.821;-1054.074;-1034.866
702.365;  -99.044;-1098.074;-1030.866
702.631;  -40.617;-1038.074;-1063.867
702.897; 1302.784; -765.074; -676.867
703.163; 2076.186;  348.926;  254.133
703.429;  152.288; -256.073; -273.868
703.695;  -38.535; -796.073; -792.868
703.961;   10.717; -214.073; -210.868
704.227;  -52.832; -630.073; -725.869
704.493;  126.495;  613.927;  510.131
704.759;  -27.553; -565.072; -540.870
705.025;   26.724; -203.072; -194.870
705.291;    3.251; -666.072; -562.870
705.557;  201.952;  719.928;   34.129
705.823;   22.454; -742.072; -694.871
706.089;  149.381; -307.071; -326.871
706.355;  393.408; -315.071; -244.872
706.620; 5989.785; -776.071; -729.872
706.886; 7897.536; -309.071; -362.873
707.152;  706.788; -818.070; -973.873
707.418;  -22.485;-1153.070;-1186.873
707.683;    1.142; -550.070; -530.874
707.949;  -41.606; -547.070; -578.874
708.215;    5.595; -129.070; -207.874
708.480;  -29.003; -520.069; -420.875
708.746;   80.849;   68.931;   28.125
709.011;  -52.874; -578.069; -612.876
709.277;  -79.397; -538.069; -543.876
709.542;  -56.671; -428.069; -387.876
709.808;  -10.669;  -59.068;   89.123
710.073;  -79.917; -577.068; -695.877
710.339;  -34.865; -242.068; -228.877
710.604;   79.437; -780.068; -845.878
710.869;  292.113; -277.068; -366.878
711.135;  -75.785; -715.067; -628.879
711.400;  -96.133; -507.067; -608.879
711.665;  -57.306; -404.067; -479.879
711.931;  -94.804; -661.067; -677.880
712.196; -111.978; -876.067; -954.880
712.461;  100.399; -402.066; -490.880
712.726;  120.926; -727.066; -771.881
712.991;  -98.497; -647.066; -664.881
713.256;  -48.195; -350.066; -332.882
713.521;  -51.919; -417.065; -381.882
713.787;  -69.967; -454.065; -472.882
714.052;  -32.790; -214.065; -400.883
714.317;  -85.263;-1045.065; -981.883
714.581; 1115.639; -374.065; -268.883
714.846; 1445.066; -822.064; -888.884
715.111;  133.442;  261.936;  257.116
715.376;  -25.431;  -86.064; -223.885
715.641;  -12.404; -365.064; -367.885
715.906;  271.773;   15.936; -551.885
716.171;  115.400;  221.937;  209.114
716.436;   38.251;  -78.063; -104.886
716.700; -109.022; -818.063; -692.886
716.965; -128.920; -794.063; -807.887
717.230;  -70.718; -339.063; -392.887
717.494;  -31.466;  -40.062; -134.888
717.759;  -94.415; -784.062; -640.888
718.024;   -7.438;  269.938;  250.112
718.288;   56.214;  685.938;  395.111
718.553; -149.959; -803.062; -977.889
718.817; -140.357; -883.061; -899.889
719.082;  -30.231; -115.061; -125.890
719.346; -145.479;-1000.061; -947.890
719.611;  -49.502; -300.061; -255.891
719.875; -109.025; -568.060; -537.891
720.140;  -53.273; -453.060; -603.891
720.404;   30.328; -136.060; -249.892
720.668;  765.030; -475.060; -411.892
720.933;  280.432;  146.940;  137.108
721.197;  -91.141; -667.059; -600.893
721.461; -132.889; -851.059; -826.893
721.725;   -3.588;  -21.059; -250.894
721.990;  -63.986; -284.059; -204.894
722.254;  -25.859;  -26.059; -108.894
722.518;  -83.707; -286.058; -442.895
722.782;  -90.780; -743.058; -594.895
723.046;  129.471;  614.942;  570.105
723.310;   27.548;  374.942;  210.104
723.574; -104.250; -654.058; -614.896
723.838;  -93.323; -576.057; -642.897
724.102;  -43.871; -226.057; -239.897
724.366; -132.245;-1032.057; -978.897
724.630;  -98.468; -749.057; -571.898
724.894;  -75.741; -722.057; -514.898
725.158;  -12.514;   38.944; -295.898
725.422;  -54.737; -394.056; -327.899
725.685;  -68.585; -441.056; -349.899
725.949;  -78.034; -566.056; -519.900
726.213;  -84.757; -732.056; -811.900
726.477;  120.320;-1020.055; -933.900
726.740;  123.872; -274.055; -104.901
727.004;  342.599; -384.055; -510.901
727.268; 3459.800; -442.055; -400.901
727.531;  906.502; -961.055; -775.902
727.795;  -52.021; -713.054; -673.902
728.059;  -69.694; -552.054; -557.903
728.322;  -79.742; -841.054; -669.903
728.586;    0.934; -692.054; -701.903
728.849; -100.639; -695.053; -756.904
729.112; -126.762; -812.053; -912.904
729.376; -134.585; -959.053; -905.904
729.639;  -80.558; -536.053; -536.905
729.903; -114.332; -733.053; -699.905
730.166;  -59.905; -437.052; -399.906
730.429;  -26.453; -317.052; -468.906
730.693;  -71.476; -355.052; -894.906
730.956;  215.676;  810.948;  651.093
731.219;  619.827; -310.052; -103.907
731.482;  104.154;-1003.051; -894.907
731.745;   52.131; -794.051; -935.908
732.009;   18.633;  -30.051;   50.092
732.272; -116.090; -904.051; -771.909
732.535;  -54.539; -300.051; -310.909
732.798; -166.037;-1083.050;-1166.909
733.061;  -66.360; -430.050; -456.910
733.324;   -1.358;   31.950; -180.910
733.587;   65.994;  290.950;  365.090
733.850;  -74.530; -973.049;-1050.911
734.113;   23.222;   33.951;   32.089
734.376;   -9.976; -328.049; -447.912
734.639;  217.676; 1188.951; 1011.088
734.901;   64.503; -180.049; -402.912
735.164;  476.054; -883.048; -837.913
735.427; 1161.106; -166.048; -355.913
735.690;  114.808; -205.048; -234.913
735.952;  -51.140; -923.048; -925.914
736.215;  -42.763;-1113.048;-1009.914
736.478;   31.589; -771.047; -774.915
736.740;  200.115;   33.953;  129.085
737.003;  648.917; -658.047; -672.915
737.266; 3686.519;  -94.047;   46.084
737.528;  390.546; -682.047; -660.916
737.791;  320.398; -316.046; -327.916
738.053;  819.449;  465.954;  649.083
738.316;11131.676; -162.046; -136.917
738.578; 7327.078; -770.046; -736.918
738.841;  442.380; -382.046; -446.918
739.103;  185.682; -875.045; -777.918
739.365;  464.833;   79.955;  -69.919
739.628;   -5.715; -884.045; -805.919
739.890;  -37.763; -758.045; -710.919
740.152;  -49.361; -692.044; -754.920
740.414;  -13.234; -408.044; -359.920
740.677;  -58.258; -785.044; -634.921
740.939;  -57.156; -587.044; -487.921
741.201;  240.846; -432.044; -572.921
741.463;    9.973; -689.043; -745.922
741.725;    3.625;  -21.043; -199.922
741.987;   47.151;  220.957;  116.078
742.249;  -11.947; -751.043; -859.923
742.511;  184.030; -703.043; -794.923
742.773;    5.357; -546.042; -546.924
743.035;  131.759;  796.958;  533.076
743.297;  -39.040; -963.042;-1013.924
743.559;  671.262; -278.042; -262.925
743.821;   46.714; -735.042; -744.925
744.083;    0.266;  -44.041; -149.925
744.345; -112.632; -869.041; -892.926
744.607;   34.269;   75.959;  122.074
744.868;  -62.854; -490.041; -554.927
745.130; -114.952; -994.041;-1008.927
745.392;   29.850;   -1.040;  -44.927
745.653;  -18.348; -411.040; -378.928
745.915;  154.503;  896.960;  631.072
746.177;   44.130;   35.960;  -43.928
746.438;   -0.343; -428.040; -543.929
746.700;  -56.091; -947.039; -988.929
746.961;   22.586; -659.039; -740.930
747.223;  129.488; -190.039;  -74.930
747.484;   81.489; -391.039; -471.930
747.746;  127.166;  -23.038; -106.931
748.007;  103.693; -647.038; -689.931
748.269;  266.670; -468.038; -440.931
748.530;  427.872; -852.038; -638.932
748.791;  245.023; -354.038; -420.932
749.053;  420.800;  286.963;  163.067
749.314;  436.777; -236.037; -169.933
749.575;  459.979; -945.037; -905.933
749.836;  790.031; -217.037;   86.066
750.098; 2459.182;  -60.037;  -21.934
750.359;35388.784;  414.964;  555.066
750.620; 8415.011; -121.036; -220.935
750.881;  998.613; -585.036; -513.935
751.142; 1321.215; -950.036; -938.936
751.403;16921.341; -789.036; -705.936
751.664; 6966.893;-1034.035; -999.936
751.925;  458.920; -175.035; -262.937
752.186;  249.747; -298.035; -278.937
752.447;  132.049; -590.035; -445.937
752.708;   40.250; -532.035; -648.938
752.969;   -7.173; -566.034; -576.938
753.230;  -10.771; -777.034; -672.939
753.491;  -15.619; -650.034; -631.939
753.751;   63.808;  109.966;   19.061
754.012;   70.084;  258.967;  181.060
754.273;   48.361; -174.033;  -71.940
754.534;    8.638; -487.033; -580.940
754.794;  -79.260; -926.033; -911.941
755.055;  133.917; 1051.967;  881.059
755.316;  -56.932; -700.032; -566.942
755.576;  -19.255; -606.032; -576.942
755.837;  -54.878; -527.032; -695.942
756.097;  -44.026; -530.032; -564.943
756.358;  -79.549; -725.032; -770.943
756.618;  -54.948; -705.031; -641.943
756.879;  -15.346; -254.031; -349.944
757.139; -132.544;-1098.031;-1116.944
757.400;  -68.192; -538.031; -553.945
757.660;  -14.865; -365.031; -401.945
757.920;    8.987; -266.030; -228.945
758.181;  -35.112; -468.030; -351.946
758.441; -104.485; -870.030; -809.946
758.701;  -25.283; -308.030; -215.946
758.961;  -23.531; -220.030; -278.947
759.222;  -62.279; -574.029; -502.947
759.482;  -81.028; -683.029; -723.948
759.742;  -93.801; -706.029; -547.948
760.002;    6.426;  -83.029; -143.948
760.262;   25.728;   50.972;  182.051
760.522;  -55.445; -498.028; -574.949
760.782;  -63.094; -738.028; -612.949
761.042;  -48.667; -618.028; -573.950
761.302;   38.310;   55.972;  -18.950
761.562;   33.162; -164.027; -154.951
761.822;   73.664; -710.027; -551.951
762.082;  -65.285;-1104.027;-1093.951
762.342;   57.992; -328.027; -403.952
762.601;   75.744; -567.027; -506.952
762.861;  340.121; -281.026; -207.952
763.121;  409.523; -406.026; -411.953
763.381; 7568.549; -499.026; -485.953
763.640; 7719.901; -139.026; -307.954
763.900;  340.203; -242.026; -203.954
764.160;   64.405; -458.025; -491.954
764.419;  -30.443; -726.025; -782.955
764.679;  -74.542; -795.025; -726.955
764.939;  -10.365; -124.025; -210.955
765.198;  -87.663; -608.025; -563.956
765.458;  -74.086; -710.024; -612.956
765.717;  -78.559; -454.024; -590.957
765.976;  -68.508; -428.024; -411.957
766.236;  -72.606; -475.024; -610.957
766.495;   18.071;  260.977;   73.042
766.755; -106.152;-1090.023; -987.958
767.014;  -16.900; -594.023; -665.958
767.273;  -59.699; -373.023; -397.959
767.533;  -47.722; -228.023; -307.959
767.792;  -40.145; -151.022; -188.960
768.051;  -51.568; -228.022; -276.960
768.310;  -94.666; -546.022; -650.960
768.569;  -10.540; -161.022;    4.039
768.828;  -33.263; -285.022; -363.961
769.088; -121.086;-1050.021; -942.961
769.347;  -84.259; -755.021; -599.962
769.606; -100.957; -876.021; -857.962
769.865; -126.180;-1016.021;-1033.963
770.124;  -10.429; -411.021; -336.963
770.383;  -47.977; -778.020; -910.963
770.641;  -10.650; -398.020; -400.964
770.900;  -58.948; -953.020; -846.964
771.159;  -44.971; -851.020; -951.964
771.418;   -2.070; -917.020; -779.965
771.677;  130.532; -224.019; -293.965
771.936;  157.559; -794.019; -865.966
772.194; 2523.661; -465.019; -437.966
772.453;11201.788; -213.019; -391.966
772.712;  757.589;  416.982;  329.033
772.970;  130.216;   32.982;   63.033
773.229;   83.818;  -22.018;  102.033
773.488;  -88.455; -814.018; -770.968
773.746;   55.472;  296.982;  335.032
774.005;   -3.302;  190.983;  -22.969
774.263;   18.100;  243.983;  177.031
774.522;  -87.898; -422.017; -548.969
774.780;  -75.471; -484.017; -417.970
775.039;  -84.319; -551.017; -531.970
775.297;  -20.743; -135.016; -351.970
775.555; -105.291; -489.016; -612.971
775.814; -122.314; -618.016; -570.971
776.072; -132.762; -749.016; -740.971
776.330; -107.810; -630.016; -520.972
776.589; -125.509; -703.015; -721.972
776.847; -126.332; -645.015; -624.973
777.105; -167.105;-1016.015;-1032.973
777.363;  -81.653; -459.015; -454.973
777.621; -149.851; -660.015; -717.974
777.879;  -25.000;  -42.014;   32.026
778.138; -106.023; -554.014; -717.974
778.396; -110.946; -585.014; -526.975
778.654; -167.069;-1015.014; -970.975
778.912;  -69.142; -269.014; -371.976
779.170; -142.216; -880.013; -803.976
779.427; -159.814; -922.013; -897.976
779.685; -136.187; -880.013; -832.977
779.943;  -96.410; -654.013; -593.977
780.201; -164.683; -964.012; -883.978
780.459; -121.281; -651.012; -610.978
780.717;  -79.430; -440.012; -390.978
780.974; -102.253; -449.012; -490.979
781.232;  -76.876; -358.012; -338.979
781.490;  -92.799; -551.011; -472.979
781.747;  -97.122; -555.011; -476.980
782.005;   28.979;  462.989;  254.020
782.263; -182.194; -542.011;-1004.981
782.520;  -99.617; -326.011; -501.981
782.778; -170.540;-1013.010;-1051.981
783.035; -167.238; -962.010; -938.982
783.293;  -67.312; -248.010; -206.982
783.550;  -56.835; -134.010; -198.982
783.808; -137.258; -764.010; -776.983
784.065; -156.981; -745.009; -874.983
784.322;  -63.454;   25.991;  -86.984
784.580; -135.553; -915.009; -771.984
784.837;  -80.101; -392.009; -466.984
785.094; -150.224; -783.009; -762.985
785.352;  -73.322; -304.008; -404.985
785.609; -118.670; -934.008; -839.985
785.866;  -88.944; -345.008; -401.986
786.123;  -85.467; -639.008; -583.986
786.380; -110.290; -665.008; -604.987
786.637;  -62.388; -225.007; -380.987
786.895;  -32.161; -456.007; -543.987
787.152;  -50.985; -135.007; -267.988
787.409;  -50.083; -123.007; -225.988
787.666;  -85.506; -299.006; -378.988
787.923; -122.454; -616.006; -695.989
788.179;  -88.902; -551.006; -584.989
788.436; -111.376; -585.006; -585.990
788.693;  -30.499;  -92.006;  -87.990
788.950;  134.103; -125.005; -112.990
789.207;  181.805; -381.005; -372.991
789.464;  -48.418; -161.005; -301.991
789.720;   -5.017;  150.995;  110.009
789.977; -166.265;-1003.005; -671.992
790.234;  -46.488;   44.996;  -66.992
790.490; -160.111; -884.004;-1031.993
790.747;  -27.409;  -85.004;   22.007
791.004;  -31.757; -426.004; -348.993
791.260;  -90.206; -430.004; -560.994
791.517; -102.854; -843.003; -788.994
791.773;  -67.277; -379.003; -342.994
792.030; -114.050; -596.003; -660.995
792.286; -112.323; -686.003; -636.995
792.543;  -19.472;  -74.002; -159.995
792.799;  -57.920; -584.002; -382.996
793.055; -162.718;-1179.002;-1210.996
793.312; -104.516; -827.002; -816.997
793.568;  -72.789; -746.002; -599.997
793.824;   13.712; -226.001; -284.997
794.081;   11.014; -447.001; -508.998
794.337;   61.291; -664.001; -561.998
794.593; 1393.593; -319.001; -271.999
794.849; 6230.170; -746.001; -772.999
795.105;  300.021; -270.000; -261.999
795.361;   12.323; -490.000; -457.000
795.617;  -65.625; -875.000; -945.000
795.873;  -57.175; -360.000; -407.000
796.129;  -33.900; -368.000; -306.000
796.385;  -22.000; -124.000; -156.000
796.641;   78.375;  412.000;  550.000
796.897;  -96.450; -666.000; -635.000
797.153;   68.200;  453.000;  357.000
797.409; -113.225; -785.000; -868.000
797.665;  -77.800; -625.000; -732.000
797.921;  -77.425; -775.000; -762.000
798.176;  -62.350; -744.000; -747.000
798.432;  -48.575; -824.000; -596.000
798.688;  -79.900;-1174.000;-1078.000
798.943;   78.350; -165.000; -147.000
799.199;  -10.875;-1005.000; -959.000
799.455;  242.875;  369.000;  316.000
799.710;  141.875; -813.000; -380.000
799.966;  303.525; -162.000; -160.000
800.221;  492.225; -638.000; -721.000
800.477;10997.250; -743.000; -710.000
800.732; 8924.125; -773.000; -800.000
800.988;  642.325;  205.000;  -19.000
801.243; 2100.150; -454.000; -344.000
801.498; 8310.000; -814.000; -739.000
801.754;  458.275; -289.000; -163.000
802.009;   88.075; -257.000; -335.000
802.264;  -36.700; -967.000;-1033.000
802.520;   30.100;  222.000;   -3.000
802.775;  -51.200; -524.000; -359.000
803.030;   44.400;  395.000;  356.000
803.285; -109.350; -840.000; -903.000
803.540;  -66.575; -686.000; -699.000
803.795;  -40.825; -648.000; -583.000
804.051;  -38.775; -279.000; -346.000
804.306;   19.175;  168.000;  128.000
804.561;  148.700;  451.000;  362.000
804.816;  145.350;  714.000;  861.000
805.071;    9.475; -185.000; -280.000
805.325;  187.125; -257.000; -427.000
805.580; -114.400; -841.000; -877.000
805.835;  -13.350; -204.000; -297.000
806.090;  -83.325; -760.000; -676.000
806.345;  -35.400; -344.000; -264.000
806.600;  -42.450; -549.000; -632.000
806.854;  -29.000; -408.000; -538.000
807.109;  -20.075; -493.000; -577.000
807.364;    2.150; -407.000; -328.000
807.618;   -2.275; -415.000; -381.000
807.873;   41.400; -470.000; -494.000
808.128;   95.825; -257.000; -518.000
808.382;   90.425; -224.000; -332.000
808.637;   60.550; -440.000; -511.000
808.891;  168.500; -257.000; -180.000
809.146;   86.775; -902.000; -794.000
809.400;  224.575; -848.000; -923.000
809.654;  332.275; -779.000; -551.000
809.909;  471.750; -841.000; -927.000
810.163; 6642.075; -813.000; -651.000
810.418;15674.775; -940.000; -861.000
810.672;  972.000; -685.000; -690.000
810.926;  708.975; -993.000; -973.000
811.180; 1439.700; -439.000; -372.000
811.434;32868.425;  240.000;  135.000
811.689;12028.500; -231.000; -365.000
811.943;  581.650; -936.000; -953.000
812.197;  312.450; -893.000; -671.000
812.451;  105.075; -379.000; -514.000
812.705;  -20.525; -809.000; -619.000
812.959;    4.450; -263.000; -388.000
813.213;   -2.875; -283.000; -209.000
813.467;   67.725;  470.000;  253.000
813.721; -103.475; -764.000; -792.000
813.975; -113.050; -826.000; -877.000
814.229;   50.350;  430.000;  353.000
814.482;  -66.525; -517.000; -566.000
814.736; -143.100; -766.000; -744.000
814.990; -140.675; -779.000; -872.000
815.244;  -44.075; -228.000; -285.000
815.497;  -90.375; -636.000; -601.000
815.751;  -10.600; -141.000;   82.000
816.005;  -89.750; -470.000; -586.000
816.258;  -83.500; -510.000; -363.000
816.512; -121.700; -693.000; -610.000
816.766;  -12.875;  121.000;  157.000
817.019;   20.975;  148.000;  149.000
817.273; -134.475;-1000.000; -802.000
817.526;  -33.800; -206.000; -173.000
817.779;  -48.925;-1049.000; -960.000
818.033;  -92.175; -693.000; -807.000
818.286; -120.825; -725.000; -792.000
818.540; -104.650; -403.000; -403.000
818.793;  -88.550; -402.000; -489.000
819.046; -113.600; -582.000; -520.000
819.299;  -39.975; -157.000; -166.000
819.553; -121.575; -552.000; -592.000
819.806; -167.775;-1016.000; -838.000
820.059;  -64.700; -334.000; -354.000
820.312;    3.350;  152.000;  185.000
820.565;  -27.925;  110.000;  -27.000
820.818;  -65.350;  -59.000; -173.000
821.071; -165.925;-1041.000; -957.000
821.324; -112.625; -536.000; -540.000
821.577; -109.475; -457.000; -483.000
821.830;  -67.675; -270.000; -172.000
822.083; -134.050; -733.000; -288.000
822.336;  -42.775; -261.000; -167.000
822.589; -131.775; -805.000; -688.000
822.842; -139.125; -875.000; -770.000
823.094; -194.125;-1076.000;-1114.000
823.347; -128.600; -925.000; -729.000
823.600;   13.000;  402.000;  187.000
823.853;  -50.675; -311.000; -267.000
824.105;  -63.675; -331.000; -575.000
824.358; -119.425; -617.000; -716.000
824.611;   22.025;  234.000;   40.000
824.863;  -43.425; -612.000; -591.000
825.116;   47.575;  -33.000;   27.000
825.368;   71.225; -366.000; -372.000
825.621;  140.325; -186.000; -240.000
825.873;   73.025; -704.000; -737.000
826.126;  623.900; -669.000; -641.000
826.378;11864.750; -389.000; -505.000
826.630; 2522.575; -890.000; -898.000
826.883;   33.500; -754.000; -693.000
827.135;   43.325; -279.000; -270.000
827.387; -110.200; -893.000; -839.000
827.639;  -29.475;  -86.000;   32.000
827.892; -127.100; -742.000; -582.000
828.144; -150.100; -848.000; -804.000
828.396;  -24.925;  104.000;  -80.000
828.648; -108.750; -440.000; -333.000
828.900; -163.875; -702.000; -795.000
829.152; -123.875; -684.000; -683.000
829.404;  -55.300; -215.000; -267.000
829.656;  -52.125;  321.000;  214.000
829.908;   -9.925;  393.000;  229.000
830.160; -161.500;-1064.000;-1047.000
830.412;  -99.850; -481.000; -430.000
830.664; -128.900; -557.000; -665.000
830.916;  -68.700; -268.000; -206.000
831.167; -178.550;-1073.000; -951.000
831.419; -120.100; -623.000; -566.000
831.671; -149.875; -764.000; -809.000
831.923;  -96.075; -311.000; -447.000
832.174;  -68.350; -273.000; -331.000
832.426; -122.300; -493.000; -582.000
832.678; -188.775;-1043.000;-1091.000
832.929; -168.925; -947.000; -935.000
833.181;  -87.075; -575.000; -677.000
833.432;  -48.025;  -59.000; -186.000
833.684;  -26.200;  112.000;  -27.000
833.935; -110.800; -610.000; -566.000
834.187; -133.050; -829.000; -823.000
834.438;  -40.625;  -58.000;  -25.000
834.689;  -52.900; -255.000; -123.000
834.941;  -63.350; -343.000; -244.000
835.192;  -96.400; -590.000; -533.000
835.443; -109.300; -419.000; -506.000
835.695;  -16.900;  138.000;  -16.000
835.946;  -91.575; -608.000; -378.000
836.197; -112.975; -599.000; -622.000
836.448; -100.700; -528.000; -395.000
836.699;  -60.850; -253.000; -341.000
836.950;   -8.300;   72.000;    7.000
837.201; -163.225;-1003.000; -987.000
837.452;  -48.825; -356.000; -170.000
837.703; -122.550; -791.000; -737.000
837.954;  -52.175; -205.000; -365.000
838.205;  -86.750;-1029.000;-1008.000
838.456;  142.325; -196.000; -282.000
838.707;  -11.575; -423.000; -519.000
838.958;    2.950; -634.000; -647.000
839.209;  253.175;   18.000;   40.000
839.460;   97.525; -439.000; -201.000
839.710;  159.975; -135.000; -297.000
839.961;  397.225;  730.000;  612.000
840.212;  335.300; -382.000; -497.000
840.462; 1148.050; -328.000; -277.000
840.713;18430.375; -571.000; -536.000
840.964; 6660.450;  -62.000; -143.000
841.214;  457.700; -384.000; -624.000
841.465;  529.375; -214.000; -141.000
841.715;  447.025; -417.000; -380.000
841.966;  599.300; -746.000; -685.000
842.216; 9000.175; -330.000; -431.000
842.466;31143.275; -169.000; -313.000
842.717; 1528.675; -964.000; -952.000
842.967;  271.825; -635.000; -641.000
843.217;  227.900;   20.000;   28.000
843.468;   46.350; -104.000; -132.000
843.718;  -42.675; -718.000; -726.000
843.968; -112.525; -837.000; -765.000
844.218;   -4.000; -315.000; -262.000
844.469;  -61.000; -577.000; -561.000
844.719; -119.550; -537.000; -682.000
844.969; -109.750; -550.000; -580.000
845.219; -145.075; -814.000; -862.000
845.469;  -98.750; -392.000; -342.000
845.719; -143.475; -792.000; -884.000
845.969;  -12.625;  119.000;  174.000
846.219; -125.650; -738.000; -720.000
846.469;   19.600;  464.000;  432.000
846.718;  -49.150; -115.000;   31.000
846.968; -136.100; -827.000; -827.000
847.218;  -48.275; -224.000; -371.000
847.468;    3.950; -586.000; -555.000
847.718; -149.150; -827.000; -798.000
847.967; -142.500; -826.000; -915.000
848.217;  -92.625; -449.000; -569.000
848.467;  -70.750; -405.000; -376.000
848.716; -118.375; -708.000; -725.000
848.966;  -20.175; -372.000; -358.000
849.215;  -69.800; -428.000; -419.000
849.465; -109.075; -785.000; -615.000
849.714; -154.500;-1132.000;-1150.000
849.964;  -73.825; -551.000; -613.000
850.213;  -24.975; -393.000; -355.000
850.463;   79.250;  137.000;  340.000
850.712;   -5.475; -542.000; -567.000
850.961;    4.750; -739.000; -678.000
851.211;   91.075; -513.000; -504.000
851.460;  159.200; -635.000; -650.000
851.709;  576.700;  -25.000;   18.000
851.958;10925.825; -912.000; -750.000
852.208;12109.525; -859.000; -879.000
852.457;  431.800; -181.000;  -13.000
852.706;   50.025; -791.000; -823.000
852.955;    1.350; -507.000; -528.000
853.204;  -84.000; -521.000; -461.000
853.453;  -80.425; -418.000; -458.000
853.702; -147.975; -660.000; -750.000
853.951; -112.650; -532.000; -520.000
854.200; -121.375; -613.000; -562.000
854.449; -130.750; -695.000; -661.000
854.698; -105.100; -340.000; -279.000
854.946;  -71.400; -181.000; -284.000
855.195; -149.925; -843.000; -868.000
855.444; -109.375; -395.000; -420.000
855.693; -142.250; -345.000; -432.000
855.941; -106.100; -387.000; -516.000
856.190;  -71.200; -256.000; -382.000
856.439; -141.525; -652.000; -703.000
856.687;  -68.575;  -99.000;  -72.000
856.936; -118.875; -621.000; -323.000
857.184; -187.350;-1067.000;-1020.000
857.433; -111.300; -423.000; -512.000
857.681; -174.525; -989.000; -953.000
857.930;  -79.800; -282.000; -433.000
858.178; -175.450; -856.000; -929.000
858.427; -154.325; -802.000; -781.000
858.675; -135.250; -377.000; -544.000
858.923; -120.200; -527.000; -819.000
859.172; -183.125;-1094.000;-1070.000
859.420;  -87.350; -339.000; -239.000
859.668; -137.600; -624.000; -628.000
859.916;  -37.275;  109.000;  115.000
860.164; -118.700; -699.000; -603.000
860.413;  228.675; -878.000; -696.000
860.661;  152.275; -709.000; -577.000
860.909;  -88.375; -339.000; -325.000
861.157;  -92.950; -277.000; -444.000
861.405; -137.275; -534.000; -670.000
861.653;    6.575;  310.000;  310.000
861.901;  151.825; -543.000; -613.000
862.149;  -25.775; -801.000; -824.000
862.396;  -75.575; -297.000; -187.000
862.644;  -98.475; -368.000; -347.000
862.892;  -36.525;   98.000;  138.000
863.140; -112.800; -549.000; -530.000
863.388; -164.700; -815.000; -759.000
863.635; -127.500; -642.000; -601.000
863.883;  -29.150;  231.000;  190.000
864.131;  -97.000; -288.000; -357.000
864.378; -148.550; -675.000; -540.000
864.626; -103.900; -347.000; -415.000
864.873; -127.000; -556.000; -505.000
865.121; -138.850; -714.000; -799.000
865.368;  -58.250; -173.000;   75.000
865.616;  -42.700;  -33.000;  -40.000
865.863;  -79.175; -462.000; -506.000
866.111; -105.800; -795.000; -824.000
866.358;   47.625; -426.000; -420.000
866.605; 2651.325;  -64.000; -804.000
866.853; 2479.550; -621.000; -537.000
867.100;  -49.400; -728.000; -775.000
867.347; -100.175; -672.000; -611.000
867.594;  -96.450; -740.000; -714.000
867.841;   64.250;   97.000;   17.000
868.089; -155.650; -746.000; -698.000
868.336; -119.450; -477.000; -420.000
868.583; -144.325; -637.000; -741.000
868.830;  -54.625; -131.000; -170.000
869.077; -166.675; -859.000; -787.000
869.324; -133.400; -502.000; -458.000
869.571; -126.450; -398.000; -430.000
869.818; -137.850; -485.000; -439.000
870.065; -104.350; -439.000; -513.000
870.311; -117.650; -456.000; -542.000
870.558; -101.850; -332.000; -311.000
870.805;  -97.000; -320.000; -384.000
871.052; -109.250; -494.000; -369.000
871.298;  -59.225; -204.000; -131.000
871.545;  -73.300; -151.000; -185.000
871.792;  -89.525; -173.000; -222.000
872.038;  -71.100;   43.000; -126.000
872.285; -127.900; -496.000; -387.000
872.532;  -97.625; -357.000; -387.000
872.778;    3.650;  556.000;  403.000
873.025;  -92.600; -384.000; -359.000
873.271;   17.700;  501.000;  578.000
873.517;  -37.275; -133.000; -209.000
873.764;  -46.400; -193.000;  -80.000
874.010;  -82.125; -143.000; -230.000
874.257;  -36.725;  123.000;   90.000
874.503; -122.875; -579.000; -479.000
874.749;  -85.025;   31.000;  275.000
874.995;  -66.225;  -80.000;  -20.000
875.242; -134.875; -540.000; -478.000
875.488; -101.950; -414.000; -439.000
875.734;  -53.650; -106.000; -234.000
875.980;  153.500; -872.000;-1032.000
876.226;  293.450; -157.000; -255.000
876.472;   -3.400;  343.000;  237.000
876.718;  -42.825;  184.000;  158.000
876.964;  -50.700;   56.000;   55.000
877.210; -180.875; -547.000; -677.000
877.456; -131.425; -630.000; -557.000
877.702; -191.550; -821.000; -832.000
877.948; -121.650; -377.000; -497.000
878.193;  -18.850;  361.000;  255.000
878.439; -103.850; -487.000; -472.000
878.685; -109.775; -272.000; -343.000
878.931; -136.925; -618.000; -676.000
879.176;  -95.850; -201.000; -201.000
879.422; -194.425; -933.000; -820.000
879.668;   57.000;   10.000;   79.000
879.913;  114.225;   53.000;  137.000
880.159;  -74.900; -112.000;  -17.000
880.404;  -63.450; -152.000; -162.000
880.650;  -55.200;   91.000;  141.000
880.895; -163.825; -670.000; -710.000
881.141; -136.025; -454.000; -428.000
881.386; -146.325; -503.000; -658.000
881.631;  -88.550; -311.000; -166.000
881.877;  -29.400;  112.000;  -13.000
882.122; -143.975; -684.000; -600.000
882.367;  -88.450; -136.000; -186.000
882.612;  -78.475;  -80.000; -176.000
882.858; -184.750; -877.000; -823.000
883.103;  -97.550; -297.000; -267.000
883.348; -158.225; -759.000; -852.000
883.593; -149.375; -677.000; -602.000
883.838;  -68.600; -311.000;  -24.000
884.083;   15.575;  353.000;  288.000
884.328;  -98.825; -564.000; -545.000
884.573;  -58.250; -196.000; -143.000
884.818;  165.800; -694.000; -531.000
885.063;  120.725; -348.000; -315.000
885.308; -113.575; -475.000; -398.000
885.553;  -17.875;  245.000;  325.000
885.797; -134.900; -545.000; -615.000
886.042;  -66.225;    8.000;   58.000
886.287; -109.275; -253.000; -211.000
886.532;  -49.725;   26.000;  204.000
886.776; -109.625; -407.000; -525.000
887.021; -137.825; -621.000; -574.000
887.265; -160.425; -685.000; -689.000
887.510; -136.000; -557.000; -496.000
887.755;  -97.150; -194.000; -164.000
887.999; -148.525; -552.000; -575.000
888.244;  -62.325;  -58.000;  161.000
888.488;  -16.200;  371.000;  393.000
888.732; -134.800; -368.000; -520.000
888.977; -122.625; -622.000; -567.000
889.221; -170.050; -683.000; -659.000
889.465; -130.800; -422.000; -566.000
889.710;  -76.350;  -56.000; -299.000
889.954;   -1.950;  579.000;  467.000
890.198; -161.575; -584.000; -707.000
890.442; -161.050; -716.000; -712.000
890.687; -171.275; -800.000; -753.000
890.931;  -88.775; -273.000; -210.000
891.175; -130.575; -502.000; -500.000
891.419;  -75.850; -105.000; -110.000
891.663;  -90.850; -239.000; -112.000
891.907; -172.925; -801.000; -545.000
892.151; -179.200; -920.000; -815.000
892.395; -119.600; -274.000; -387.000
892.638;  -30.750;  408.000;  291.000
892.882; -183.475; -780.000; -867.000
893.126;    8.275;  758.000;  558.000
893.370;  -91.200; -167.000; -168.000
893.614; -142.175; -714.000; -715.000
893.857; -108.450; -183.000; -197.000
894.101; -134.575; -527.000; -631.000
894.345;  -67.950;  300.000;  150.000
894.588;   16.850;  569.000;  380.000
894.832;  -81.450; -178.000;  -84.000
895.075;  -82.075;   15.000;  -92.000
895.319; -138.350; -552.000; -420.000
895.563; -111.375; -413.000; -353.000
895.806; -144.350; -628.000; -741.000
896.049;  -64.975; -576.000; -368.000
896.293;   75.150;  527.000;  405.000
896.536;  -80.325; -465.000; -468.000
896.779;  -59.725; -149.000;   -1.000
897.023; -147.225; -751.000; -714.000
897.266;  -32.450;  325.000;  269.000
897.509; -191.200; -900.000; -901.000
897.752;  -67.550;  149.000;  171.000
897.996; -191.225; -972.000; -864.000
898.239;  -34.725;  168.000;  102.000
898.482; -138.375; -431.000; -453.000
898.725;  -33.100;  101.000;   53.000
898.968; -162.350; -609.000; -744.000
899.211; -128.375; -513.000; -361.000
899.454; -135.975; -633.000; -539.000
899.697;  -76.625;   90.000;  -43.000
899.940; -184.000; -761.000; -757.000
900.182; -106.975; -335.000; -405.000
900.425;  -88.475; -150.000; -298.000
900.668;  -20.200;  491.000;  350.000
900.911; -104.925; -292.000; -345.000
901.154;  -69.725;  141.000;   -3.000
901.396; -144.675; -407.000; -412.000
901.639; -150.825; -430.000; -496.000
901.882; -195.425; -790.000; -809.000
902.124;  -83.300;  -29.000; -143.000
902.367; -116.775; -315.000; -361.000
902.609; -139.725; -476.000; -453.000
902.852;  -94.375; -108.000; -260.000
903.094; -132.375; -458.000; -337.000
903.337;  -59.025;  -26.000;   53.000
903.579; -121.225; -228.000; -441.000
903.821; -159.975; -597.000; -744.000
904.064;  -56.975;   85.000;  127.000
904.306;  -97.875; -126.000; -166.000
904.548; -116.400; -152.000; -366.000
904.790; -110.975; -195.000; -340.000
905.033; -148.925; -625.000; -577.000
905.275; -141.375; -513.000; -524.000
905.517;   15.800;  468.000;  256.000
905.759;  -83.450; -667.000; -761.000
906.001; -105.900; -322.000; -369.000
906.243;  -78.850; -162.000; -224.000
906.485;   98.900; -265.000; -207.000
906.727;   65.325; -499.000; -542.000
906.969;  -46.100;  -30.000; -135.000
907.211;   93.450; -316.000; -382.000
907.453;  211.275; -188.000; -237.000
907.695;  -12.300; -158.000; -385.000
907.936;   33.000;  818.000;  706.000
908.178;  -63.375;   92.000; -135.000
908.420;  -81.350; -111.000; -162.000
908.662; -133.050; -633.000; -682.000
908.903; -100.000; -208.000; -123.000
909.145;  -74.100; -240.000; -305.000
909.386;    8.850;  315.000;  280.000
909.628;   22.800;  363.000;  397.000
909.870;  -10.725;   29.000;  264.000
910.111; -124.150; -809.000; -949.000
910.353;    2.450; -123.000; -161.000
910.594;   -0.575; -574.000; -606.000
910.835;   67.825; -265.000; -326.000
911.077;  146.175; -503.000; -604.000
911.318;  289.025; -505.000; -471.000
911.559;  424.800; -577.000; -880.000
911.801; 1389.550; -284.000; -280.000
912.042;10845.375;  -50.000; -159.000
912.283;26168.950;  404.000;  371.000
912.524; 3627.600; -396.000; -457.000
912.765;  442.800; -193.000;   79.000
913.006;  215.500; -307.000; -338.000
913.247;   49.200; -270.000; -290.000
913.488;   -2.750;  -43.000;   30.000
913.729;  -86.100; -373.000; -373.000
913.970;  -57.550;  -96.000; -292.000
914.211;  -78.375; -160.000; -198.000
914.452;  -76.400; -118.000;  -11.000
914.693;   21.450;  510.000;  592.000
914.934;    0.500;  510.000;  440.000
915.175;  -72.475;   53.000;  -95.000
915.415;  -88.200; -137.000;   27.000
915.656;  -56.450;  -28.000;  192.000
915.897; -106.750; -252.000;  -82.000
916.137;  -77.425;   74.000;   -9.000
916.378; -137.925; -573.000; -517.000
916.619;  -92.500; -159.000;  -63.000
916.859;  -31.375;  303.000;  330.000
917.100;  130.525; 1655.000; 1070.000
917.340;   47.100;  930.000;  728.000
917.581;   48.650;  965.000;  789.000
917.821;  -51.850; -171.000;  143.000
918.061;  -11.425; -199.000;  -72.000
918.302;  -49.050; -152.000; -211.000
918.542;  -35.500;  -22.000;    3.000
918.782;   31.750;  369.000;  377.000
919.023;  126.500;  360.000;  427.000
919.263; 1372.150; 8131.000;  202.000
919.503; 1036.225; -137.000;  -54.000
919.743;  560.550;  390.000;  266.000
919.983;  218.050; -134.000;  -26.000
920.223;   77.025;  135.000;   14.000
920.463;  139.425;  631.000;  554.000
920.703;  132.700;   84.000;   39.000
920.943;  166.350; -110.000;   90.000
921.183;  223.775; -414.000; -405.000
921.423;  538.275;  307.000;  546.000
921.663;  745.225; -174.000; -257.000
921.903; 1674.100;  237.000;  173.000
922.143; 9512.850;  372.000;  389.000
922.383;34999.950;  158.000;  115.000
922.622;10742.200; -120.000;  -15.000
922.862; 1184.125;  796.000;  785.000
923.102;  468.025;  -51.000;   33.000
923.341;  181.375;   59.000;   74.000
923.581;   86.350;  450.000;  360.000
923.821;   13.400;  301.000;  398.000
924.060;    9.925;  351.000;  193.000
924.300;  -73.950;  -16.000; -128.000
924.539;  -18.500;  584.000;  473.000
924.779;   -6.725;  812.000;  597.000
925.018;  -51.550;  247.000;  353.000
925.257;   -0.450;  595.000;  666.000
925.497;  -42.000;  447.000;  412.000
925.736;  -76.425;  -35.000;  102.000
925.975;  -10.950;  687.000;  669.000
926.214;   29.825;  907.000;  850.000
926.454;   11.950;  706.000;  757.000
926.693;  -40.975;  419.000;  543.000
926.932;   37.425; 1021.000;  825.000
927.171;   73.475; 1107.000; 1044.000
927.410;   53.575; 1144.000;  967.000
927.649;   31.875;  924.000;  742.000
927.888;  -19.500;  590.000;  564.000
928.127;   -7.075;  680.000;  678.000
928.366;   24.275;  842.000;  826.000
928.605;   32.775;  831.000;  737.000
928.844;  248.975; 1451.000; 1393.000
929.083;  604.775;  770.000;  613.000
929.321;  295.250; 1335.000; 1359.000
929.560;   92.000; 1158.000; 1122.000
929.799;  -43.750;  574.000;  475.000
930.038;   78.550; 1025.000; 1394.000
930.276;  -50.550;  334.000;  397.000
930.515;  -21.700;  827.000;  681.000
930.753;  -24.775;  614.000;  589.000
930.992;   -1.625;  664.000;  717.000
931.230;   -2.900;  847.000;  847.000
931.469;  169.925; 2162.000;  892.000
931.707;   75.675;  840.000;  751.000
931.946;   64.325; 1278.000; 1344.000
932.184;   52.850; 1437.000; 1175.000
932.423;   45.775; 1265.000;  963.000
932.661;   93.350; 1296.000; 1428.000
932.899;   17.150;  987.000;  821.000
933.137;    3.175;  754.000;  564.000
933.376;  135.200; 1664.000; 1335.000
933.614;  157.150; 1759.000; 1196.000
933.852;   54.125; 1357.000; 1171.000
934.090;  138.850; 1722.000; 1747.000
934.328;  104.400; 1252.000; 1457.000
934.566;   95.075; 1431.000; 1110.000
934.804;  137.225; 1263.000; 1309.000
935.042;  530.425; 1861.000; 1850.000
935.280; 2107.750; 2088.000; 2063.000
935.518; 1856.250; 2113.000; 2007.000
935.756;  364.900; 2481.000; 2316.000
935.994;  165.425; 1808.000; 1751.000
936.231;  327.675; 2890.000; 2950.000
936.469;  190.500; 2367.000; 2378.000
936.707;  170.550; 2220.000; 2167.000
936.945;  229.800; 2825.000; 2882.000
937.182;  202.925; 2679.000; 2741.000
937.420;  307.875; 3602.000; 3031.000
937.657;  403.050; 3365.000; 3478.000
937.895;  339.875; 3331.000; 3488.000
938.133;  317.800; 3540.000; 3528.000
938.370;  354.150; 3896.000; 4191.000
938.607;  410.500; 4488.000; 4205.000
938.845;  549.400; 5587.000; 5549.000
939.082;  490.350; 5387.000; 5177.000
939.320;  549.250; 5799.000; 5728.000
939.557;  627.900; 6549.000; 6491.000
939.794;  733.200; 7285.000; 7097.000
940.031;  930.125; 8421.000; 8368.000
940.269; 1078.825; 9552.000; 9107.000
940.506; 1127.225;10901.000;10507.000

