
Integration time [ms]: 200.000
Averaging Nr. [scans]: 10
Smoothing Nr. [pixels]: 0
Data measured with spectrometer [name]: 2101013U2
Wave   ;Sample   ;Dark     ;Reference
[nm]   ;[counts] ;[counts] ;[counts] 

394.013;   63.855; -450.257; -315.536
394.305;  301.952; -461.258; -419.536
394.596; 1603.604; -676.269; -527.514
394.887; 3824.728; -796.268; -654.518
395.178; 1567.972;  145.736;   11.476
395.470;  126.288; -210.263; -356.526
395.761;  369.749;  305.734;  394.479
396.052;  494.824; -545.284; -306.489
396.343;  491.724; -557.276; -454.503
396.634;  175.279; -200.279; -290.497
396.926;   89.124; -618.268; -565.517
397.217;  147.030;   11.725;  -17.504
397.508;   -2.447; -366.273; -154.507
397.799;   47.179; -555.279; -571.497
398.090;  -74.429; -973.280; -902.495
398.381;  177.416;   11.708;  -11.473
398.672;  -34.783; -585.292; -742.473
398.963;   39.488; -348.279; -373.498
399.254;  168.530;   54.709; -209.475
399.545;  -85.156;-1017.266; -883.520
399.836;  105.008; -407.277; -343.501
400.127;   88.081; -205.295; -209.468
400.418;   55.445; -423.274; -392.506
400.709;   41.752; -359.281; -333.493
401.000;   55.436; -268.291; -309.476
401.290;  184.490;  225.698;  115.545
401.581;   92.399; -166.286; -228.485
401.872;  -15.459; -542.298; -486.462
402.163;   69.771; -313.296; -252.467
402.454;  107.931; -123.291; -163.475
402.744;   48.358; -844.297; -813.465
403.035;  493.303; -226.293;  -86.471
403.326;  627.121; -366.292; -384.474
403.617;  549.433;  204.701;  165.539
403.907;  303.132; -593.283; -679.490
404.198; 3446.424; -545.307; -599.446
404.489; 8656.539; -618.283; -588.491
404.779; 2854.195; -618.302; -660.456
405.070;  354.664;  -67.304; -174.451
405.360;  461.506; -259.293; -238.472
405.651;  523.611;  125.699;   98.542
405.942;  281.792;  209.714;  127.516
406.232;  276.813; -432.285; -413.487
406.523;  699.195;  641.706;  758.530
406.813;   82.395; -579.286; -644.484
407.104;  479.614;  261.708;  144.527
407.394;  180.235; -604.299; -591.462
407.685;  259.312;  336.715;  222.513
407.975;   66.037; -400.283; -382.490
408.265;  184.852; -134.289; -190.478
408.556;   72.427; -472.291; -459.475
408.846;  304.597;  474.706;  429.530
409.137;  124.864;   -1.288; -216.480
409.427;   59.212; -193.285; -271.487
409.717;   15.058; -776.273; -692.508
410.007;  214.003;    4.715; -170.486
410.298;  106.085; -360.295; -342.469
410.588;  120.209; -495.285; -510.486
410.878;  -34.420; -792.287; -873.482
411.168;  134.045; -481.298; -478.463
411.459;  160.729; -295.283; -242.489
411.749;   34.525; -609.292; -507.474
412.039;   23.262; -755.289; -386.480
412.329;  317.498;   40.722;  132.501
412.619;  264.696;  -62.286; -148.485
412.909;  583.956;  639.711;  594.521
413.199;  431.371; -130.280; -251.495
413.490;  584.542;  521.710;  352.523
413.780;  100.477;-1013.279; -913.496
414.070;  487.925;  -46.276;  235.497
414.360;  446.293; -729.278; -666.498
414.650;  527.574; -726.288; -688.482
414.940;  717.776; -538.280; -441.496
415.230; 1308.170;   50.712;   74.519
415.520; 9011.503;  155.730;   66.486
415.809;33600.052; -305.281; -125.493
416.099;26789.411; -388.277; -229.501
416.389; 7476.542;  435.726;  236.494
416.679; 4564.993;   91.738;   85.473
416.969;  751.587; -527.287; -503.483
417.259;  893.980;  341.721;  171.503
417.549; 1056.350;  522.718;  318.508
417.838; 2394.227; -205.268; -147.518
418.128; 7781.250;  650.710;  492.522
418.418; 6592.567; -491.272; -579.509
418.708; 4485.542;    9.726;  -48.506
418.997;16553.736; -474.275; -480.505
419.287;17293.552; -733.273; -790.507
419.577;16858.028; -160.283; -123.489
419.866;53192.109; -588.277; -498.501
420.156;54144.497; -242.270;  -55.513
420.446;10292.482; -112.263;  -26.526
420.735; 1161.288; -376.271; -446.512
421.025; 1376.391; 1830.722;  315.502
421.314;  925.385; -203.271; -226.512
421.604; 1821.516;   89.732;  233.484
421.893; 1006.580; -705.271; -602.511
422.183;  289.682; -487.263; -461.526
422.472;  544.182;  -36.271; -107.511
422.762;  640.853; -416.266; -379.521
423.051;  269.926; -916.276; -916.503
423.341;  411.955; -491.273; -439.507
423.630;  563.461; -121.265;   15.477
423.919;  557.035;   58.725;   49.495
424.209;  538.990;  -31.263;   56.473
424.498;  706.123;   68.732;  161.483
424.787; 1550.432; -535.267; -601.518
425.077; 4651.359;   34.735;   29.478
425.366; 6183.498; -734.262; -744.528
425.655;14276.656;  639.727;  259.493
425.945;30826.984; -313.247; -268.554
426.234;17702.431;  117.741;  300.467
426.523; 7172.538;  -86.259; -350.534
426.812; 9920.347;  107.734;  159.480
427.101;14762.611; -127.269; -323.515
427.390;18222.902;  -55.270;  -86.514
427.680; 3879.467; -624.257; -411.538
427.969;  667.282; -330.255; -301.540
428.258;  411.355; -385.257; -477.536
428.547;  825.873;  449.728;  397.490
428.836; 1547.805; -421.253; -398.543
429.125; 2121.041; -199.259;  -72.534
429.414; 1089.738; -330.251; -294.548
429.703; 4519.338; -231.251; -213.548
429.992;13132.943; -938.250; -828.549
430.281; 8858.472; -397.264; -331.524
430.570;  925.024;  -21.252;   32.454
430.859;  842.138;  279.741;  352.466
431.148;  728.278;  636.752;  631.446
431.437;  500.324;  391.748;  367.454
431.725;  191.157; -544.257; -481.536
432.014;  135.016; -845.253; -756.545
432.303;  518.687; -149.239; -105.569
432.592;  774.482; -460.263; -178.525
432.881; 1463.680; -601.248; -437.554
433.169; 9051.283; -343.255;  -61.540
433.458;17669.235;  445.765;  540.424
433.747; 7622.106; -397.261; -289.529
434.036; 1211.652; -275.242; -280.564
434.324; 2931.861; -395.249; -379.551
434.613; 5030.943;   40.757;  159.437
434.902; 1791.473;  333.760;  439.433
435.190;  737.385;   75.761;  295.431
435.479;  396.317;  -52.245;   83.441
435.767;   92.828; -411.244; -427.561
436.056;  296.146; -340.242; -294.563
436.345;  487.076; -372.240; -223.568
436.633;  568.054;   60.750;  383.450
436.922;  414.179;  208.760;  414.432
437.210;  746.221; -194.236;    1.426
437.499; 2137.933; -583.235; -432.576
437.787; 2434.820; -339.236;  -10.574
438.075;  667.293;   56.761;  162.430
438.364;  891.097;  -44.238;  250.429
438.652;  525.847; -286.226; -138.592
438.941;  230.996;    3.770;  269.415
439.229;  -39.080; -665.252; -466.545
439.517;   89.545; -160.234;  -85.577
439.806;  -49.130; -501.225; -290.595
440.094;  291.156;  377.766;  650.421
440.382;  189.561; -653.233; -302.580
440.670;  227.732; -361.235; -285.576
440.959;   14.095; -347.223; -170.599
441.247;   87.412; -151.229; -109.587
441.535;  135.342; -266.235;   31.423
441.823;   11.552; -497.234; -305.578
442.111;  273.418;  173.771;  327.412
442.400;  595.816; -628.245; -335.559
442.688; 1670.855; -111.234; -620.579
442.976; 1089.121; -786.213; -450.617
443.264;  121.480; -324.224; -364.597
443.552;  138.349; -258.226;   51.408
443.840;  300.040;  602.765;  876.423
444.128;  187.760;  265.767;  269.420
444.416;  -12.478; -694.228; -312.588
444.704;   29.938; -465.219;  -92.605
444.992;  117.353;   -0.226;  240.407
445.280;   29.597; -517.230;  -94.585
445.568;    2.026; -694.212; -396.618
445.856;  439.515; -174.221;  357.398
446.143;  958.932;  -54.220;   -7.604
446.431;  809.427;  -25.228;  625.411
446.719;  408.565;  489.783;  675.391
447.007;  309.188;  481.769;  705.416
447.295;  336.291;  597.777;  871.402
447.583;  129.609; -464.229;  -34.587
447.870;  183.710; -434.221; -202.601
448.158;  525.595; -104.230;  129.415
448.446;  379.334; -800.219; -338.604
448.733;  237.082;   13.776;  269.403
449.021;  349.526;   60.788;  341.382
449.309;  247.747; -296.210;  208.379
449.596;  332.760;  128.783;   59.392
449.884;  182.301; -571.222; -325.600
450.172;  192.035; -756.227; -406.590
450.459;  685.997;  645.786;  780.387
450.747; 3616.558; -411.218; -147.608
451.034;11081.729;  493.772;  889.411
451.322; 9072.701; -413.214; -170.614
451.609;  848.584;  292.777;  508.403
451.897;  843.538; -550.203; -183.634
452.184; 2498.191; -622.223; -400.598
452.472; 2454.878;   97.792;  269.375
452.759;  522.935;  512.781;  864.395
453.047;  140.422; -407.212; -125.617
453.334;   44.546; -732.219; -216.606
453.621;   76.605; -438.214; -161.615
453.909;  206.326;   13.796;  384.368
454.196;  119.591; -299.199; -123.641
454.483;  335.556;  317.798;  540.364
454.771;  194.482; -215.208;  196.374
455.058;  100.087; -316.207;  102.374
455.345;  224.771;   71.807;  344.347
455.632;  106.792; -128.207;  235.373
455.919;   87.224;  -82.196;  182.354
456.207; -114.502; -774.198; -450.642
456.494;    7.674; -475.200;  -66.639
456.781;    9.950; -399.202; -198.635
457.068;   99.301; -253.206;  -29.628
457.355;  -32.397; -698.206; -401.629
457.642;  -16.389; -552.205; -290.630
457.929;  -22.042; -778.194; -417.651
458.216;   53.923; -575.212; -354.617
458.503;  345.265; -173.193;  -19.652
458.790;  329.779; -864.208; -630.625
459.077;  397.357;  -77.202;  110.364
459.364; 1182.348; -350.195; -210.649
459.651; 2404.098;  -46.206;  220.372
459.938; 1144.065; -864.209; -665.623
460.225;  238.762;  132.799;  276.363
460.512; -113.180; -836.197; -688.645
460.799;  173.956;  -32.218;  320.392
461.086;   77.580; -370.200; -251.640
461.372;   47.798; -509.198; -279.642
461.659;  161.325; -165.196;  108.354
461.946;  106.763; -445.193;  -54.651
462.233;  418.577;  842.800;  888.361
462.519;  462.772; -814.201; -464.639
462.806; 1352.420; -768.197; -497.645
463.093; 1279.092; -445.191;  -66.656
463.380;  -92.349; -920.186; -824.664
463.666;   64.223; -259.197;  -18.646
463.953;  154.940; -406.195; -243.648
464.239;  241.540; -173.195;  -77.648
464.526;  588.656;  413.806;  743.350
464.813;  396.809; -565.190; -304.658
465.099;  574.864;  606.807;  607.348
465.386;  573.970;  903.807;  921.348
465.672;  -17.479; -694.197; -522.645
465.959;    9.635; -598.188; -520.662
466.245;   -3.530; -468.193; -359.652
466.532;  128.337; -109.195;   63.352
466.818;   95.551; -357.186; -216.664
467.104;  -11.791; -488.182; -415.672
467.391;  -47.688; -628.189; -459.658
467.677;   80.356; -289.186;    9.335
467.964;   -0.179; -682.189; -471.660
468.250;   82.860; -331.186; -160.665
468.536;  143.713;   90.811;  180.341
468.822;  -77.723; -821.184; -574.668
469.109;  295.825;  351.827;  471.311
469.395;  387.284;  729.808;  787.346
469.681;  317.218;   46.811;  156.341
469.967; 1814.724; -699.188; -382.660
470.254; 3784.636; -494.188; -306.662
470.540; 2471.623; -601.196; -476.646
470.826;  381.425; -488.181; -397.675
471.112;  494.782;  288.816;  113.331
471.398;  139.289; -253.183;  -58.670
471.684;   29.765; -626.177; -447.680
471.970;  -72.970; -918.180; -981.675
472.256;   48.182; -521.192; -441.654
472.542;    8.040; -499.171; -434.691
472.828;   -4.197; -743.182; -607.672
473.114;   50.103; -380.166; -283.700
473.400;  -25.311; -504.175; -293.684
473.686;   -0.488; -452.166; -400.701
473.972;  126.110; -230.174; -131.687
474.258; -107.975; -925.173; -843.689
474.544;  333.154; -183.178;   -2.679
474.830;  516.692;  -65.175;   45.316
475.116;  821.711; -123.190; -196.658
475.401;  993.834; -558.180; -467.676
475.687;  293.632; -725.180; -718.676
475.973;  -48.185; -673.181; -770.673
476.259;  437.995;  736.825;  764.315
476.544;  569.177; -539.176; -437.682
476.830; 1264.035; -398.172; -322.690
477.116; 1080.475; -430.177; -336.682
477.401;  293.933;  346.820;  358.324
477.687;  -30.411; -289.175; -405.684
477.973;   64.119;   21.819;   28.326
478.258;  -32.359; -448.163; -348.706
478.544;   99.368;   21.815;   61.334
478.829; -119.652; -818.171; -738.692
479.115;  -88.266; -749.172; -651.690
479.401;  -17.496; -444.174; -449.686
479.686;   62.731; -253.180;  -74.676
479.972; -111.839; -886.178; -776.680
480.257;   68.705; -258.166;  -65.700
480.542;  -23.146; -614.170; -469.693
480.828;  455.287; 1288.824; 1392.317
481.113;  -55.116; -464.176; -426.683
481.399;    1.976; -236.161; -202.711
481.684;  -83.496; -620.166; -462.700
481.969;   49.695; -158.159;  -73.713
482.255;    9.369; -439.169; -285.695
482.540;  -20.239; -569.178; -441.680
482.825;    9.844; -395.187; -404.663
483.110;  163.274;  -85.169; -105.696
483.396;  287.826; -840.157; -652.718
483.681;  850.310;  543.826;  730.313
483.966;  222.286; -696.160; -700.712
484.251;   -0.191; -404.174; -310.687
484.536;   17.920; -356.165; -378.703
484.822;    0.613; -205.173; -218.687
485.107;  -61.519; -599.152; -502.726
485.392;  239.428;  662.836;  541.296
485.677;  148.588;  354.832;  163.302
485.962;  220.022;  160.843;  270.283
486.247;  167.553;  -14.162;   -8.707
486.532;   87.507; -178.166; -325.701
486.817;  292.267;  381.839;  431.291
487.102;  154.056; -453.154; -514.722
487.387; 1092.829; -637.156; -652.718
487.672; 1746.835; -154.164;  -38.705
487.957; 1144.978; -394.160; -286.711
488.241;  318.605; -290.150; -314.729
488.526; 1128.083; -280.152; -148.726
488.811; 1733.664; -881.177; -818.680
489.096; 1395.060; -666.154; -702.723
489.381;  789.277;    3.847;  162.275
489.666;  537.475; -428.161; -510.710
489.950;  370.665;  558.846;  627.277
490.235;  -51.702; -480.151; -458.728
490.520;  -94.726; -756.161; -723.710
490.804;  -98.969; -827.156; -736.719
491.089;  -14.673; -469.149; -299.732
491.374;   71.833; -132.164;  -75.704
491.658;  -56.256; -817.147; -717.735
491.943;  208.289; -657.152; -609.727
492.227;  351.350; -178.155;  -38.721
492.512;   70.422; -294.157; -341.717
492.797; -137.081; -713.149; -716.731
493.081;  -93.252; -588.147; -598.735
493.366;  -65.924; -751.161; -635.711
493.650;  426.724;  831.859;  917.254
493.935;   32.643; -648.147; -447.734
494.219;  -98.094; -778.142; -687.743
494.503;  -94.689; -585.150; -487.730
494.788;   94.010;   46.842;   74.285
495.072;  224.506;  184.850;  434.271
495.356;  282.132; -463.148; -343.733
495.641;  653.457; -812.146; -736.736
495.925;  518.338; -976.156; -903.719
496.209;   77.826; -599.149; -451.732
496.494;  -84.094; -763.142; -544.744
496.778;  -19.444; -364.154; -360.722
497.062; -118.062; -819.156; -627.719
497.346;  -78.920; -869.160; -640.711
497.631;  297.437;  580.852;  560.266
497.915;  151.672;  -64.145;  175.261
498.199;   93.526; -341.157; -277.718
498.483;   72.380; -562.152; -508.725
498.767;  335.808;  301.850;  300.271
499.051;  304.823; -126.149; -100.732
499.335;    7.521; -693.149; -739.731
499.619;  -25.231; -381.129; -423.767
499.903;   40.248; -272.155;  -65.721
500.187;   16.267; -588.153; -316.724
500.471;  -54.612; -796.152; -595.727
500.755;  184.374;   62.839;  -96.710
501.039;   25.049; -270.155; -357.721
501.323;  135.027;  -21.141;  264.254
501.607;   50.442; -447.163; -503.706
501.891;  -15.972; -607.156; -512.718
502.174;  -99.012; -726.144; -585.741
502.458;  131.093;   89.849;  370.273
502.742;   84.161; -180.138; -191.751
503.026;  169.242; -412.147; -254.734
503.310;  268.493; -437.159; -375.713
503.593;  212.645; -464.147; -325.735
503.877;  200.419; -232.133; -156.760
504.161;  250.170;    2.847;  -50.724
504.444;  113.113; -841.158; -710.716
504.728;  711.432; -487.164; -522.704
505.012; 1043.804; -257.150;  -76.729
505.295;  810.276; -417.161; -212.711
505.579;  834.838; -256.156; -496.719
505.862; 1213.967; -555.145; -333.738
506.146; 1072.597; -681.159; -758.714
506.429;  697.098;  568.841;  461.286
506.713;   84.500; -732.151; -667.728
506.996;  520.356;   90.846;  295.278
507.280;  484.025; -633.165; -474.703
507.563;  392.446; -469.155; -261.721
507.847;  153.468; -423.153; -112.724
508.130;  137.277; -665.161; -456.711
508.413;  189.999; -758.167; -577.700
508.697;  394.299; -151.167;   12.300
508.980;  292.870; -422.153; -312.724
509.263;  -17.559; -466.155; -450.720
509.547;   96.903; -124.150;   82.271
509.830;   78.080; -172.160;  140.289
510.113;  201.337;  128.844;  298.281
510.396;   42.778; -530.152; -300.725
510.680;  138.669; -818.145; -812.738
510.963;  785.762;  184.846;  180.277
511.246;  627.014; -493.150; -357.730
511.529;  375.476; -482.145;  -83.739
511.812;  587.514; -250.134;   10.241
512.095;  387.495; -740.151; -396.728
512.378;  116.150; -317.147; -245.736
512.661;   14.272; -703.137; -623.753
512.944;   -9.491; -750.142; -637.744
513.227;  100.868; -170.137; -171.752
513.510;   20.488; -479.144; -671.741
513.793;   33.933; -485.140; -435.747
514.076;  218.399;  -43.127;  -39.771
514.359;  176.228; -294.149; -135.732
514.642;  142.813; -442.142; -567.744
514.925; 1236.130;  581.860;  561.253
515.208; 1481.708; -498.134; -443.758
515.491; 1043.728; -276.133; -182.761
515.773;  624.694; -410.143; -337.742
516.056; 3363.081;  249.864;  409.246
516.339; 3927.287; -754.136; -652.755
516.622; 2785.911; -518.150; -488.730
516.904; 1649.304;  882.857;  975.257
517.187;  692.766; -730.138; -523.752
517.470;  538.902; -568.143; -510.743
517.752;  647.791; -624.136; -470.756
518.035;  480.048; -708.139; -725.749
518.318;  570.687; -799.136; -744.755
518.600; 3832.533; -300.132; -325.762
518.883; 4941.312;  310.858;   88.256
519.165; 2467.455; -585.138; -426.751
519.448;  537.233;  -61.132;  -19.762
519.730;  254.210; -573.126; -415.773
520.013;  512.623;  588.867;  664.240
520.295; 1115.616;  -94.134;  -15.759
520.578; 2202.052; -335.131; -305.764
520.860; 2562.533; -254.132;   56.238
521.143; 1372.894; -763.135; -584.756
521.425;  701.228; -251.125; -279.775
521.707; 1078.500; -622.127; -380.771
521.990; 2866.700; -199.127;  167.229
522.272; 3092.135; -116.140;   -4.748
522.554; 1421.095; -237.143; -157.742
522.836;  503.713;  -24.134;   99.241
523.119;  315.940; -496.148; -189.734
523.401;  232.362; -448.130; -314.766
523.683;  128.272; -865.137; -693.753
523.965;  504.163;  408.862;  260.248
524.247;  473.059;   54.878;  170.220
524.529;  317.316; -451.134; -367.759
524.812;  587.364;   -3.130;  191.234
525.094; 1354.462; -773.138; -631.751
525.376; 2102.541; -143.124;   78.223
525.658; 1297.083; -441.136; -339.754
525.940;   50.147; -805.131; -671.764
526.222;   62.888; -188.136;  -88.755
526.504;  202.244; -190.131;   32.237
526.786;  167.320; -960.133; -647.760
527.068;  388.849; -124.123;  -67.778
527.349;   96.478; -865.137; -774.754
527.631;  226.533; -137.132;   22.238
527.913;  200.598; -664.127; -450.771
528.195;  235.618; -761.125; -639.774
528.477;  406.709;  -93.134;  -30.758
528.759;  210.664; -648.130; -522.766
529.040;   82.648; -569.123; -293.778
529.322;  100.422; -235.125;  -10.774
529.604;  202.367;  -47.130;   93.233
529.886;  135.709; -546.126; -302.773
530.167;  206.555;  232.870;  192.235
530.449;  108.250;    1.853;   63.265
530.731;   45.558; -572.122; -459.779
531.012;   86.087; -513.120; -216.784
531.294;  116.443; -118.116;  -43.792
531.575;  283.628;  290.875;  538.225
531.857;   93.201; -548.135; -266.757
532.138;  246.124; -113.141;   40.254
532.420;  305.296;  294.865;  403.244
532.701;  263.723; -722.133; -751.760
532.983;  487.427;  232.867;  182.239
533.264;  185.107; -243.126;  175.228
533.546;  -54.313; -491.136; -508.755
533.827;   92.018;  173.867;   -1.759
534.109;   30.001; -352.135;  -80.757
534.390;   73.639; -725.132; -582.762
534.671;  368.596; -270.135;  -82.756
534.953;  195.851; -751.123; -611.779
535.234;   25.622; -426.117; -255.789
535.515; -136.601; -891.119; -735.785
535.796;  -12.607; -431.128; -193.770
536.078; -203.559;-1050.124; -904.777
536.359;   18.952;  -22.123;    3.221
536.640;  -46.179; -480.125; -197.774
536.921;  282.075;  225.871;  143.232
537.202;  630.957;  -87.138;  -16.751
537.483;  729.251;  251.869;  377.236
537.764;  314.155;   17.870;   98.235
538.045;  -74.893; -543.134; -371.758
538.326;  -54.323; -596.129; -447.768
538.607;   -3.299; -686.127; -476.771
538.888;  305.675;   98.879;    5.218
539.169;  269.767; -704.122; -535.781
539.450;  530.973;  236.871;   16.233
539.731;  338.980; -361.121; -182.783
540.012;  192.787;  199.880;  412.216
540.293;  150.333;   82.876;  158.224
540.574;  -19.827; -895.113; -717.796
540.855;  718.378;  435.879;  377.218
541.136;  762.263;   47.878;  139.220
541.416;  408.665; -161.130; -220.766
541.697;  330.845; -274.131; -170.763
541.978; 1675.399; -270.135; -315.757
542.259; 1994.401; -211.127; -236.771
542.539;  965.435; -191.116; -186.790
542.820;  377.128;  461.875;  480.225
543.101;  164.971;  -52.145;  -77.738
543.381;    6.300; -638.127; -591.771
543.662;  475.397;  159.873; -254.771
543.942;  893.394; -751.127; -830.770
544.223; 1618.465;  193.878;  161.219
544.504; 1009.541; -275.124; -182.777
544.784; 1002.809; -592.126; -408.773
545.065; 2443.840;  104.884; -254.791
545.345; 2899.000;  227.881;   14.215
545.626; 2028.572;  -14.113; -108.796
545.906; 1350.355;   77.869;   98.235
546.186;  607.316;   92.874;  -95.773
546.467;  315.244;   99.877;  -95.778
546.747;  537.534;  264.884;  327.210
547.027;  563.738;   91.876;  111.223
547.308;  483.193; -376.127; -530.770
547.588;  646.778;  299.871;  371.232
547.868;  367.856;  458.870;  588.235
548.149;  372.351;  609.885;  593.207
548.429;  188.598; -347.127; -299.771
548.709;  274.787; -645.120; -461.784
548.989;  806.613;   84.882;   88.213
549.269; 3522.631;   10.868;  139.239
549.550; 7374.550;  215.877;  117.222
549.830; 6523.598; -758.111; -556.799
550.110; 1427.109; -468.110; -320.801
550.390; 1262.058; -128.122;  -56.779
550.670; 1640.766; -868.114; -783.795
550.950; 1278.777; -509.121; -471.782
551.230;  389.872;  549.879;  460.218
551.510;   -5.224; -381.121; -326.782
551.790;   49.720; -173.109; -127.803
552.070;  531.844;  940.877; 1181.223
552.350;  636.605; -492.119; -377.786
552.630;  916.169;   -2.121;   77.219
552.909;  623.641;  181.884;   73.209
553.189;  385.840;  -49.132;   33.237
553.469;  275.605; -703.119; -514.786
553.749;  338.303; -469.127; -357.772
554.029;  284.028;   33.883;  -24.790
554.308;  223.857; -154.115;  -37.794
554.588;  145.491; -196.128; -204.770
554.868;  140.179; -366.121;  -47.782
555.147;  255.753; -114.115;  -46.793
555.427; 1005.744; -260.116; -250.792
555.707; 6205.250; -284.115; -200.793
555.986; 6807.203; -719.111; -538.800
556.266; 3906.833;   23.884;   72.210
556.546;  172.876; -888.121; -675.782
556.825;  404.263; -657.114; -556.794
557.105; 2895.888; -125.128;   17.230
557.384; 3108.639;  122.884;  187.209
557.664; 1239.343; -717.116; -508.792
557.943;  184.378; -557.121; -411.782
558.222;  256.018; -345.118; -344.788
558.502;  442.055; -116.115;  -76.793
558.781;  774.648;  194.885;  499.208
559.061;  593.517; -232.118; -227.788
559.340;  571.424;  302.883;  353.211
559.619; 1184.032;   93.884;  148.210
559.899; 1603.427; -239.117; -266.789
560.178; 1530.254; -778.115; -593.793
560.457; 5182.229; -623.117; -562.790
560.736; 6418.304; -472.111; -482.800
561.015; 4526.085; -500.128; -502.769
561.295;  662.448;  180.893;  215.193
561.574;  540.150;  119.885;  116.207
561.853;  799.126;  274.891;  303.197
562.132;  806.658;  -45.114;  182.206
562.411;  750.269;  396.879;  553.219
562.690;  208.348; -592.115; -458.792
562.969;  356.782;  472.888;  630.203
563.248; 1033.766; 2966.878; 2487.219
563.527;  441.603; -290.111; -408.800
563.806;  561.198; -650.127; -521.771
564.085;  660.770; -297.105; -206.810
564.364;  395.632; -594.117; -405.790
564.643;  849.870; -276.121; -223.781
564.922; 3024.317;  221.890;  397.198
565.201; 2804.222; -640.109; -700.803
565.479; 1272.446; -297.115; -219.792
565.758;  492.489; -810.128; -712.770
566.037;  717.824; -155.109; -100.803
566.316;  394.840; -286.116;  -28.791
566.595;   84.850;  -17.115;  -12.793
566.873;  232.706; -166.111;  -79.801
567.152;  -99.919; -490.113; -590.797
567.431;   32.334; -113.116;    6.210
567.709;   50.649; -344.107; -212.807
567.988;  388.862; -810.114; -769.794
568.266;  792.750; -160.115;  -68.793
568.545;  605.837; -644.100; -514.819
568.824; 1004.345;  160.885;  356.208
569.102;  875.562; -351.114; -235.794
569.381;  392.344; -492.116; -407.792
569.659;  -69.924; -553.113; -553.796
569.938;   79.564; -743.122; -465.780
570.216;  162.928; -225.109; -225.804
570.494;  -37.233; -632.114; -572.795
570.773;   97.176;  202.879;  114.218
571.051;   28.748; -373.123; -357.778
571.330;  125.573; -221.113; -174.796
571.608;   79.963; -181.098; -173.823
571.886;  -97.505; -671.111; -581.799
572.164; -109.221; -739.121; -621.782
572.443;  -55.825; -562.105; -512.811
572.721;  -65.370; -399.117; -289.790
572.999;  -24.479; -280.117; -168.788
573.277;  166.566;  379.894;  620.191
573.555;  513.269;   94.894;   37.190
573.834; 2147.520;  -86.117; -114.788
574.112; 2434.552;  880.893;  811.193
574.390;  772.505; -143.111;  -96.801
574.668;   52.983;  -91.112;  -61.797
574.946;   35.469; -165.106; -187.810
575.224;   22.722;   71.891;  -16.803
575.502;  -32.264; -200.116; -204.791
575.780; -157.015; -767.112; -829.798
576.058;  310.404; 1589.889; 1004.200
576.336;  -27.188; -210.110; -129.801
576.614;  -79.615; -511.112; -340.798
576.891;  106.256; -711.115; -823.794
577.169;  740.739; -158.108; -285.805
577.447;  930.551;  169.893;  202.193
577.725;  504.791;  629.888;  854.201
578.003;   42.289;  -71.112; -371.798
578.280;  139.088; -208.104; -242.812
578.558;   70.155; -450.115; -422.793
578.836;  235.066; -210.114; -145.795
579.114;   63.983; -630.112; -670.797
579.391;  125.823;   -6.117;  -18.789
579.669; -139.243; -595.114; -704.794
579.947;  262.747; -326.107; -127.806
580.224;  469.546; -692.107; -524.806
580.502;  502.252;  127.893;   76.193
580.779;   87.631;  -42.117;   75.210
581.057; -137.972; -584.109; -470.804
581.334; -172.390; -726.102; -695.815
581.612;   88.371;   54.895;  511.190
581.889;  -58.971;  -83.101; -129.818
582.167;  -44.651; -298.099; -190.821
582.444; -185.579; -845.102; -814.817
582.721;  213.422;  657.899;  715.183
582.999;  113.545; -326.100; -167.821
583.276;  785.654; -812.123; -713.779
583.553; 1063.914; -364.102; -294.816
583.831;  312.283; -607.104; -631.812
584.108;  165.736;  349.892;  174.195
584.385;   25.709; -122.102;  -98.815
584.662; -108.293; -651.111; -828.801
584.940;   83.706;  204.889;  204.199
585.217;   -3.924;  -73.113; -303.796
585.494;   95.419;   71.890;  118.198
585.771;  347.029; -250.109; -354.804
586.048;  768.575; -196.113;  -76.796
586.325;  460.710; -721.110; -773.801
586.602;  162.389;  230.896;  213.188
586.879;    4.440; -499.100; -580.820
587.156;  128.872; -156.105; -331.810
587.433;  -70.082; -701.102; -667.817
587.710;  160.686;  152.888;  234.202
587.987;  506.279; -264.105; -236.811
588.264; 1214.188;  315.888;  387.202
588.541; 2162.592;  -61.104;   26.187
588.818; 3930.733;   72.892;  171.196
589.095; 3431.586; -163.104; -174.812
589.371;  591.626; -459.109; -414.804
589.648;   17.652; -581.107; -437.807
589.925;   33.268; -517.114; -621.795
590.202;    1.785; -741.112; -607.798
590.478;  152.982; -166.105;  -73.811
590.755;  444.241; -241.108; -132.806
591.032; 3967.913; -741.110; -699.802
591.308; 5002.021; -732.094; -790.831
591.585; 2720.413; -573.110; -560.802
591.862;  210.920;-1056.102; -950.817
592.138;  102.838; -475.108; -474.805
592.415;  267.090; -486.104; -495.813
592.691; 2369.687;  460.896;  518.188
592.968; 2689.966; -208.098; -123.824
593.244; 1362.934; -695.116; -595.790
593.521;  150.921; -105.102;  -42.817
593.797;  -55.640; -810.122; -720.780
594.074;  500.884; -611.096; -588.826
594.350; 1062.500;  828.905;  729.172
594.626;  489.107; -303.111; -283.801
594.903;  154.921; -643.101; -645.817
595.179;  353.895;  243.896;  418.187
595.455;   -2.346; -136.107; -150.807
595.731;   65.098;  -19.103;  -38.814
596.008;  -68.701; -464.111; -434.800
596.284;   72.243; -187.100; -242.820
596.560;   74.630; -501.093; -493.833
596.836;  349.275; -173.105;  -70.810
597.112;  554.839; -582.108; -437.805
597.388;  462.181;  -49.097;  -48.826
597.665;  235.279;  437.887;  530.203
597.941;  -71.128; -572.089; -658.839
598.217;   44.118; -323.110; -293.802
598.493;  416.932;   61.891; -204.804
598.769;  735.635; -175.100;  -50.819
599.045;  432.543; -490.108; -562.806
599.321;   78.842; -193.100; -261.820
599.597;  279.131; -355.109; -476.804
599.872;  847.292;  409.896;  429.187
600.148;  573.183;  -61.097; -172.826
600.424;  508.650;   91.893;  202.193
600.700;  366.953; -170.107; -280.807
600.976;  214.775; -442.097; -464.825
601.252;  405.426; -226.109; -272.803
601.527;  273.493; -833.104; -840.813
601.803;  237.782; -453.105; -404.812
602.079;  314.535; -124.100; -118.819
602.354;  856.844; -620.092; -531.835
602.630; 1221.676; -140.113; -482.796
602.906; 3834.929; -910.101; -863.818
603.181; 9893.505; -627.119; -534.786
603.457; 8533.280;   98.903; -278.826
603.733; 1291.681; -605.120; -626.783
604.008; 1606.770; -245.106; -164.810
604.284; 4418.323; -636.101; -580.817
604.559; 3958.491;   -3.112;  -42.799
604.835;  761.674; -163.105; -225.810
605.110;  624.650; -732.099; -892.821
605.385; 1038.534;  224.907;  267.167
605.661; 1024.704; -625.095; -729.829
605.936; 1704.243; -664.108; -737.806
606.211; 1487.507;  -17.103; -170.815
606.487;  301.760; -329.114; -376.794
606.762;    6.905; -791.119; -745.786
607.037;  -23.625; -501.105; -433.810
607.313;  -56.106; -589.096; -574.828
607.588;    8.069; -375.106; -137.810
607.863;  108.328;  -28.101; -143.818
608.138;  351.516;  513.890;  516.198
608.413;   45.255; -576.099; -592.822
608.688;  102.138; -203.108; -267.805
608.964;  283.561; -509.106; -218.809
609.239;  391.771; -107.105; -212.810
609.514;  461.182;  281.895;  240.188
609.789;  971.388; -187.104; -716.812
610.064; 1294.192; -435.096; -609.827
610.339; 1383.026; -855.109; -799.804
610.614; 1778.543; -131.100; -315.820
610.889; 1063.482;  215.895;  107.188
611.163;   55.883; -407.104; -591.812
611.438;  141.462;   81.886; -167.794
611.713;  -11.277; -467.101; -499.817
611.988;  132.126; -144.101; -328.818
612.263;  -38.490; -771.102; -717.815
612.538;  412.375;  385.887;  251.204
612.812;  269.244; -832.100; -911.820
613.087;  214.163; -358.098; -338.823
613.362;  -96.747; -497.107; -557.807
613.637;  131.801;  261.897;  138.186
613.911;  -34.155; -256.092; -345.835
614.186;  188.551; -249.107; -292.807
614.460; 1003.779; -842.081; -758.854
614.735; 1221.105;  -55.087;  -17.843
615.010;  285.391;   43.912;  -82.841
615.284;  458.137;  360.892;  246.195
615.559;  499.543; -792.092; -955.835
615.833;  475.452;  -76.099;  -87.822
616.108;   24.060; -225.090; -390.837
616.382;  279.707;  274.913;  402.156
616.656;  229.661; -241.090; -232.837
616.931;  714.453; -785.099; -700.822
617.205; 1573.194; -973.104; -979.813
617.480; 1511.225;  -91.125;    6.225
617.754;  258.322; -396.125; -128.774
618.028;   36.479; -369.129; -382.768
618.302;  160.835;   73.892;  -25.805
618.577; -101.797; -371.103; -518.815
618.851; -113.379; -399.109; -600.803
619.125;  -64.584; -335.134; -378.759
619.399;  -21.605; -244.104; -374.813
619.673;  -53.155; -330.115; -515.792
619.947;  -63.334; -333.114; -448.795
620.222;  -16.192; -198.110; -204.801
620.496;   19.678;  -47.121;  -96.782
620.770;   60.366; -187.122;  -93.781
621.044;  398.772;  323.895;  346.190
621.318; 1144.682; -653.120; -614.783
621.592; 1025.479; -430.121; -409.783
621.866;  534.893; -476.112; -572.799
622.140;   77.736; -207.116; -356.791
622.413;   97.399;  138.889;  112.200
622.687;  -83.076; -746.101; -492.817
622.961;   62.035; -130.108; -143.805
623.235; -112.400; -633.111; -661.800
623.509; -160.419; -816.105; -848.811
623.783;   42.148;  -12.107;   48.193
624.056;  -16.816; -254.120; -280.783
624.330;   96.883;   63.888;   -3.797
624.604;  121.232; -271.116; -355.790
624.877;  149.215;  180.890;   26.198
625.151;   82.959; -249.114; -238.794
625.425;   -3.803; -150.103; -283.814
625.698;  -58.703; -367.119; -374.785
625.972; -163.482; -799.110; -765.802
626.245;  183.334;  685.884;  484.210
626.519;  -62.310; -426.120; -340.784
626.792;  -17.247; -192.107; -380.807
627.066; -136.144; -485.122; -662.779
627.339; -151.688; -736.110; -663.802
627.613;  105.288;  351.880;  148.216
627.886;  126.921;  187.891; -612.803
628.160;  -11.618;  312.880; -161.783
628.433; -161.871; -695.125; -703.775
628.706; -133.910; -517.120; -615.784
628.979;  115.539;  296.876;  117.223
629.253; -153.196; -785.119; -833.786
629.526;  627.807; -334.126; -253.772
629.799;  480.649; -641.123; -479.778
630.072;  235.982; -497.128; -516.769
630.346; -112.766;-1115.116;-1080.790
630.619;  670.154; -467.107; -545.808
630.892; 1023.201;  709.889;  593.200
631.165;  583.294;  790.896;  679.187
631.438; -169.712;-1092.112;-1055.798
631.711;  153.753;  453.877;  257.221
631.984;  -80.073; -523.117; -624.789
632.257; -130.877; -636.117; -681.789
632.530;  -38.402; -412.119; -433.785
632.803;   77.056; -109.115;    7.207
633.076; -109.856; -360.123; -422.777
633.349;   44.987;  173.872;  121.231
633.622;  -40.504; -187.119; -240.785
633.895; -241.716; -903.120; -823.783
634.167; -107.890; -496.126; -525.773
634.440;   23.743;  -19.116; -137.792
634.713;   21.102;  -22.119; -120.786
634.986;  178.673;  593.871;  453.233
635.258; -110.947; -507.115; -597.793
635.531;  225.217;  742.882; -343.788
635.804;  -29.874; -303.117; -318.789
636.077; -161.662; -830.116; -852.791
636.349;  -12.049; -586.115; -474.793
636.622;  728.606; 1695.874; 1392.228
636.894;  332.990; -474.120; -909.784
637.167;  236.397; -836.127; -789.771
637.439;  106.092; -278.128; -213.770
637.712;  -47.792; -312.126; -293.772
637.984; -138.161; -635.116; -707.791
638.257;  670.045;  515.877;  488.222
638.529;  736.331; -881.125; -924.776
638.802;  347.381; -508.128; -449.769
639.074; -194.335; -927.122; -952.781
639.346; -232.896; -942.135; -930.757
639.619;   33.210;  -79.142; -319.744
639.891;   41.056;  -83.122; -168.779
640.163; -117.941; -689.122; -756.780
640.435;  113.161;  273.878;  103.220
640.708;   21.764;  -72.122; -132.780
640.980;  -50.433; -366.122; -362.781
641.252;  368.869;  -25.121;  -71.781
641.524; 2762.872;  580.879;  573.219
641.796; 2471.874;-1094.121; -907.782
642.068;  507.077; -191.121; -300.782
642.340; -112.320; -486.121; -566.783
642.613;  122.582;  294.880;  323.217
642.885; -161.915; -787.120; -878.783
643.157; -112.212; -810.120; -658.784
643.428;  137.490;  170.880;  218.216
643.700; -102.707; -498.120; -425.784
643.972;    1.495;  -16.119; -133.785
644.244; -127.102; -474.119; -559.785
644.516;  -70.299; -250.119; -114.786
644.788;  168.503;  662.881;  548.214
645.060;   -2.794;  -12.119; -124.786
645.332; -141.891; -525.118; -535.787
645.603;  142.411;  479.882;  342.213
645.875; -100.986; -334.118; -369.787
646.147;  370.816; 1487.882; 1242.212
646.418; -114.281; -931.117; -918.788
646.690;  222.322; -714.117; -715.789
646.962;   67.524; -413.117; -451.789
647.233;   44.727;   15.883;   11.211
647.505; -140.670; -595.117; -475.790
647.776;   71.332;  328.884;  229.210
648.048;  -21.365; -248.116; -418.790
648.320; -117.363; -752.116; -679.791
648.591; -288.860;-1055.116; -958.791
648.862; -134.957; -505.116; -577.792
649.134;   66.945;  115.885;  198.208
649.405;  -70.252; -661.115; -618.792
649.677; -118.149; -475.115; -598.793
649.948;   31.153; -181.115; -296.793
650.219;   50.056;  -37.115; -147.793
650.491; -119.542; -431.114; -520.794
650.762; -183.139; -705.114; -731.794
651.033; -146.036; -437.114; -424.795
651.304; -152.734; -743.114; -728.795
651.576; -117.631; -680.114; -645.795
651.847;  -29.329; -250.113; -140.796
652.118;  -12.226;  -32.113; -189.796
652.389; -169.423; -639.113; -722.796
652.660;  -19.421; -147.113;  -89.797
652.931; -237.018; -897.112; -871.797
653.202; -164.715; -382.112; -541.798
653.473; -109.513; -633.112; -533.798
653.744;  207.490; -595.112; -590.798
654.015;  242.192; -356.112; -303.799
654.286; -113.605; -642.111; -663.799
654.557; -106.702; -586.111; -521.799
654.828; -268.900;-1114.111;-1088.800
655.099; -110.797; -404.111; -291.800
655.370; -115.094; -427.111; -543.801
655.641; -190.092; -656.110; -714.801
655.911; -163.289; -618.110; -638.801
656.182;  119.613;  437.890;  387.198
656.453;  250.116;  830.890;  746.198
656.724; -101.181; -466.110; -426.802
656.994;  -98.979; -553.109; -568.803
657.265; -166.876; -862.109; -873.803
657.536; -136.573; -500.109; -377.804
657.806; -163.571; -561.109; -593.804
658.077; -208.368; -866.109; -950.804
658.347; -150.266; -523.108; -598.805
658.618; -173.763; -646.108; -694.805
658.888;  -19.260;  -41.108;  112.195
659.159; -121.958; -432.108; -548.806
659.429;  -26.755; -292.108; -349.806
659.700;   26.447; -435.107; -390.807
659.970;  -28.550; -370.107; -359.807
660.241;   14.053; -754.107; -921.807
660.511;  778.555; -147.107; -174.808
660.781;  116.658; -793.106; -748.808
661.052;  -42.039; -222.106; -381.808
661.322;   29.763;   21.894;   -9.809
661.592;   67.766;  257.894;  148.191
661.862; -107.932; -369.106; -382.810
662.133; -131.729; -551.105; -502.810
662.403; -211.626; -770.105; -676.810
662.673;  -85.724; -256.105; -213.811
662.943; -138.421; -612.105; -551.811
663.213;   -3.818;  -85.105;  -81.811
663.483; -131.816; -593.104; -568.812
663.753;  -21.613; -194.104; -152.812
664.023;   30.089;   68.896;  -32.813
664.293;  -75.908; -319.104; -126.813
664.563; -181.405; -694.104; -648.813
664.833; -199.903; -743.103; -608.814
665.103; -211.300; -730.103; -793.814
665.373; -195.197; -766.103; -806.814
665.643; -168.295; -863.103; -918.815
665.913;   -1.792; -534.103; -714.815
666.182;  174.410; -685.102; -719.816
666.452;  381.513;  -22.102;  -89.816
666.722;  -41.784; -724.102; -784.816
666.992; -245.682; -948.102; -921.817
667.261; -160.979; -824.102; -808.817
667.531;  353.124;  134.899;   45.183
667.801;  747.926; -440.101; -412.818
668.070;  472.529;  714.899;  697.182
668.340; -181.969; -883.101; -840.819
668.609;  184.434;  588.900;  301.181
668.879; -112.463; -490.100; -558.819
669.149; -103.361; -539.100; -516.820
669.418; -158.858; -698.100; -726.820
669.688;  -55.356; -482.100; -666.820
669.957;  102.947; -423.099; -546.821
670.226;   -3.250; -268.099; -331.821
670.496; -147.148; -431.099; -635.822
670.765;  -97.745; -418.099; -501.822
671.034; -236.342; -872.099; -828.822
671.304;   40.860;   55.902; -111.823
671.573; -265.337;-1085.098; -957.823
671.842;  123.965; -380.098; -294.823
672.112;   42.068; -692.098; -586.824
672.381;   12.871; -239.098; -214.824
672.650; -231.727;-1005.097;-1021.825
672.919; -141.224; -631.097; -507.825
673.188; -122.221; -681.097; -878.825
673.457; -278.419;-1101.097;-1143.826
673.726;  -92.516; -579.096; -646.826
673.995;  -55.214; -533.096; -479.826
674.265;  -12.011; -263.096; -333.827
674.534;   22.992; -183.096; -235.827
674.802;   27.494; -618.096; -703.828
675.071; 1630.697; -886.095; -801.828
675.340; 5607.000; -464.095; -339.828
675.609; 1963.002;  103.905;   82.171
675.878;  103.205; -949.095; -893.829
676.147;   88.507;  -26.095;   -8.829
676.416;  223.110; -210.094; -294.830
676.685; 1226.813; 1000.906; -622.830
676.953;  168.015; -603.094; -452.831
677.222;  -17.282; -193.094; -273.831
677.491;  -16.880;  -24.094; -127.831
677.759;   48.823;   11.907;  172.168
678.028;   -8.474; -279.093; -222.832
678.297;   57.528;   71.907;  197.168
678.565; -240.769; -898.093; -944.833
678.834;  -75.566; -311.093; -268.833
679.102; -112.164; -411.092; -391.834
679.371; -264.361; -898.092; -727.834
679.639; -228.959; -797.092; -786.834
679.908; -201.656; -794.092; -724.835
680.176; -251.653; -895.091; -941.835
680.445; -102.351; -346.091; -352.835
680.713;   21.852;  -58.091;  -23.836
680.982; -174.945; -523.091; -525.836
681.250; -164.243; -578.091; -507.837
681.518; -137.940; -534.090; -751.837
681.787;   -4.738; -204.090; -167.837
682.055; -121.935; -490.090; -422.838
682.323; -269.532; -993.090; -992.838
682.591;   71.170; -216.090; -538.838
682.859;  140.273;    9.911;  -35.839
683.128;  105.376;  232.911;  497.161
683.396; -288.122;-1102.089;-1122.840
683.664;  -60.419; -241.089;   21.160
683.932;   59.783;  144.911;  -76.840
684.200; -135.414; -576.088; -320.841
684.468;   -4.011;  -73.088; -124.841
684.736;   -6.309; -214.088; -175.841
685.004; -207.906;-1024.088; -982.842
685.272; -121.804; -880.088; -774.842
685.540;  -99.601; -499.087; -557.843
685.808; -151.098; -651.087; -682.843
686.076; -186.496; -894.087; -969.843
686.343; -120.593; -601.087; -815.844
686.611;   93.110; -195.087; -224.844
686.879;  781.112; -530.086; -553.844
687.147; 4795.715; -483.086; -480.845
687.414; 1314.617;  -12.086; -169.845
687.682;  -10.180; -658.086; -757.846
687.950;  493.323;  259.915;  263.154
688.217;    7.825; -792.085; -760.846
688.485;  -34.872; -632.085; -636.847
688.753;  791.431;  -11.085; -102.847
689.020;  224.933; -820.085; -851.847
689.288; -177.664; -853.084; -787.848
689.555;  -36.862; -195.084; -148.848
689.823;  -39.359; -241.084; -345.849
690.090; -124.856; -546.084; -651.849
690.358; -238.954; -877.084; -897.849
690.625;   59.749;  120.917;   45.150
690.892;  -91.448; -403.083; -369.850
691.160;   28.654;   72.917;  -35.850
691.427;   53.757;  141.917;  130.149
691.694; -234.541; -855.083; -929.851
691.962; -267.438;-1177.082;-1060.852
692.229;   51.065;  127.918;   56.148
692.496;  156.867;  130.918;  -49.852
692.763;   51.670; -164.082; -201.853
693.031; -119.027; -739.082; -716.853
693.298;  -80.625; -509.081; -368.853
693.565;  554.578; -155.081; -163.854
693.832; 1872.480;   -5.081;   -9.854
694.099;  216.483; -643.081; -642.855
694.366; -116.814; -882.081; -896.855
694.633;  -94.612; -920.080; -633.855
694.900; 1557.591; 4367.920; -114.856
695.167;  654.293; -214.080; -380.856
695.434;  158.596; -646.080; -623.856
695.701;  324.399;  121.921;  -61.857
695.968;  705.701; -365.079; -361.857
696.234; 1619.004; -415.079; -646.858
696.501;14964.807; -776.079; -614.858
696.768; 7297.709; -554.079; -617.858
697.035;  471.912; -632.078; -667.859
697.302;   68.714; -448.078; -552.859
697.568;   20.817; -458.078; -497.859
697.835;  -81.780; -683.078; -624.860
698.102;  -17.578; -498.078; -407.860
698.368;  170.525;  384.923;  396.139
698.635;  -30.972;  -47.077; -424.861
698.901;   -7.970; -240.077; -348.861
699.168;  127.033; -534.077; -456.862
699.435;  149.635;  -72.077;  -13.862
699.701; -205.562; -868.076; -764.862
699.968;  -61.759;  144.924; -441.863
700.234; -182.657; -783.076; -822.863
700.500;  -81.554; -448.076; -539.864
700.767;   27.649;   -1.075;   26.136
701.033; -238.549;-1015.075; -963.864
701.299;  -54.846; -450.075; -483.865
701.566;  258.356;  950.925;  763.135
701.832;   88.759;  -31.075;  -76.865
702.098; -192.238;-1054.074;-1034.866
702.365; -174.036;-1098.074;-1030.866
702.631;  -73.033;-1038.074;-1063.867
702.897; 2099.069; -765.074; -676.867
703.163; 3144.472;  348.926;  254.133
703.429;  226.075; -256.073; -273.868
703.695;  -67.523; -796.073; -792.868
703.961;   81.080; -214.073; -210.868
704.227;  -77.317; -630.073; -725.869
704.493;  305.385;  613.927;  510.131
704.759;    6.188; -565.072; -540.870
705.025;   49.690; -203.072; -194.870
705.291;  -10.407; -666.072; -562.870
705.557;  355.796;  719.928;   34.129
705.823;   29.198; -742.072; -694.871
706.089;  215.501; -307.071; -326.871
706.355;  613.404; -315.071; -244.872
706.620; 8327.606; -776.071; -729.872
706.886;10739.909; -309.071; -362.873
707.152; 1002.511; -818.070; -973.873
707.418;  -51.886;-1153.070;-1186.873
707.683;   24.317; -550.070; -530.874
707.949;  -50.381; -547.070; -578.874
708.215;   26.622; -129.070; -207.874
708.480;   12.425; -520.069; -420.875
708.746;  218.327;   68.931;   28.125
709.011;  -92.470; -578.069; -612.876
709.277;  -99.468; -538.069; -543.876
709.542;  -60.165; -428.069; -387.876
709.808;   43.438;  -59.068;   89.123
710.073; -118.360; -577.068; -695.877
710.339;   -6.857; -242.068; -228.877
710.604;   92.346; -780.068; -845.878
710.869;  467.648; -277.068; -366.878
711.135;  -82.549; -715.067; -628.879
711.400; -126.147; -507.067; -608.879
711.665; -109.444; -404.067; -479.879
711.931; -167.641; -661.067; -677.880
712.196; -203.139; -876.067; -954.880
712.461;  179.264; -402.066; -490.880
712.726;  145.066; -727.066; -771.881
712.991; -152.631; -647.066; -664.881
713.256;  -53.828; -350.066; -332.882
713.521;  -67.126; -417.065; -381.882
713.787;  -59.623; -454.065; -472.882
714.052;  -17.820; -214.065; -400.883
714.317; -165.618;-1045.065; -981.883
714.581; 1507.185; -374.065; -268.883
714.846; 1743.787; -822.064; -888.884
715.111;  213.790;  261.936;  257.116
715.376;   -8.007;  -86.064; -223.885
715.641;  -11.805; -365.064; -367.885
715.906;  477.798;   15.936; -551.885
716.171;  311.001;  221.937;  209.114
716.436;   85.003;  -78.063; -104.886
716.700; -161.094; -818.063; -692.886
716.965; -190.592; -794.063; -807.887
717.230;  -92.189; -339.063; -392.887
717.494;   -0.986;  -40.062; -134.888
717.759; -169.384; -784.062; -640.888
718.024;   65.119;  269.938;  250.112
718.288;  181.622;  685.938;  395.111
718.553; -235.776; -803.062; -977.889
718.817; -219.573; -883.061; -899.889
719.082;    2.429; -115.061; -125.890
719.346; -211.268;-1000.061; -947.890
719.611;  -53.265; -300.061; -255.891
719.875; -144.263; -568.060; -537.891
720.140;  -57.560; -453.060; -603.891
720.404;   73.142; -136.060; -249.892
720.668; 1248.545; -475.060; -411.892
720.933;  526.748;  146.940;  137.108
721.197; -161.650; -667.059; -600.893
721.461; -212.647; -851.059; -826.893
721.725;   37.556;  -21.059; -250.894
721.990;  -47.242; -284.059; -204.894
722.254;   15.161;  -26.059; -108.894
722.518; -109.337; -286.058; -442.895
722.782; -137.234; -743.058; -594.895
723.046;  250.769;  614.942;  570.105
723.310;   89.871;  374.942;  210.104
723.574; -135.226; -654.058; -614.896
723.838; -154.123; -576.057; -642.897
724.102;  -34.621; -226.057; -239.897
724.366; -248.418;-1032.057; -978.897
724.630; -145.916; -749.057; -571.898
724.894; -129.413; -722.057; -514.898
725.158;    3.890;   38.944; -295.898
725.422;  -62.508; -394.056; -327.899
725.685;  -83.905; -441.056; -349.899
725.949; -139.502; -566.056; -519.900
726.213; -126.200; -732.056; -811.900
726.477;  236.203;-1020.055; -933.900
726.740;  266.705; -274.055; -104.901
727.004;  565.008; -384.055; -510.901
727.268; 4621.211; -442.055; -400.901
727.531; 1129.813; -961.055; -775.902
727.795;  -77.984; -713.054; -673.902
728.059; -107.181; -552.054; -557.903
728.322; -105.679; -841.054; -669.903
728.586;   43.024; -692.054; -701.903
728.849; -134.774; -695.053; -756.904
729.112; -164.371; -812.053; -912.904
729.376; -188.168; -959.053; -905.904
729.639;  -75.266; -536.053; -536.905
729.903; -140.863; -733.053; -699.905
730.166;  -61.161; -437.052; -399.906
730.429;  -12.958; -317.052; -468.906
730.693;  -73.355; -355.052; -894.906
730.956;  452.147;  810.948;  651.093
731.219; 1019.450; -310.052; -103.907
731.482;  166.353;-1003.051; -894.907
731.745;   99.255; -794.051; -935.908
732.009;   85.758;  -30.051;   50.092
732.272; -131.240; -904.051; -771.909
732.535;  -44.537; -300.051; -310.909
732.798; -245.134;-1083.050;-1166.909
733.061;  -86.532; -430.050; -456.910
733.324;   59.171;   31.950; -180.910
733.587;  181.874;  290.950;  365.090
733.850;  -94.924; -973.049;-1050.911
734.113;  120.579;   33.951;   32.089
734.376;   16.281; -328.049; -447.912
734.639;  486.884; 1188.951; 1011.088
734.901;  165.987; -180.049; -402.912
735.164;  840.289; -883.048; -837.913
735.427; 1901.792; -166.048; -355.913
735.690;  244.795; -205.048; -234.913
735.952;  -88.303; -923.048; -925.914
736.215;  -45.200;-1113.048;-1009.914
736.478;   52.402; -771.047; -774.915
736.740;  389.805;   33.953;  129.085
737.003; 1255.308; -658.047; -672.915
737.266; 5993.010;  -94.047;   46.084
737.528;  674.813; -682.047; -660.916
737.791;  487.815; -316.046; -327.916
738.053; 1359.918;  465.954;  649.083
738.316;15939.921; -162.046; -136.917
738.578;10161.623; -770.046; -736.918
738.841;  653.426; -382.046; -446.918
739.103;  264.029; -875.045; -777.918
739.365;  768.331;   79.955;  -69.919
739.628;  -15.266; -884.045; -805.919
739.890;  -32.064; -758.045; -710.919
740.152;  -52.261; -692.044; -754.920
740.414;   25.342; -408.044; -359.920
740.677;  -57.456; -785.044; -634.921
740.939;  -66.653; -587.044; -487.921
741.201;  426.050; -432.044; -572.921
741.463;   39.952; -689.043; -745.922
741.725;  102.555;  -21.043; -199.922
741.987;  180.957;  220.957;  116.078
742.249;   15.360; -751.043; -859.923
742.511;  305.663; -703.043; -794.923
742.773;   36.265; -546.042; -546.924
743.035;  272.168;  796.958;  533.076
743.297;  -40.029; -963.042;-1013.924
743.559; 1101.473; -278.042; -262.925
743.821;   93.076; -735.042; -744.925
744.083;   45.078;  -44.041; -149.925
744.345; -149.019; -869.041; -892.926
744.607;  145.884;   75.959;  122.074
744.868;  -77.714; -490.041; -554.927
745.130; -198.111; -994.041;-1008.927
745.392;  124.691;   -1.040;  -44.927
745.653;   26.094; -411.040; -378.928
745.915;  373.997;  896.960;  631.072
746.177;  121.599;   35.960;  -43.928
746.438;   14.402; -428.040; -543.929
746.700;  -76.795; -947.039; -988.929
746.961;    8.907; -659.039; -740.930
747.223;  261.210; -190.039;  -74.930
747.484;  176.812; -391.039; -471.930
747.746;  259.715;  -23.038; -106.931
748.007;  151.418; -647.038; -689.931
748.269;  519.720; -468.038; -440.931
748.530;  689.323; -852.038; -638.932
748.791;  445.626; -354.038; -420.932
749.053;  748.528;  286.963;  163.067
749.314;  752.231; -236.037; -169.933
749.575;  716.933; -945.037; -905.933
749.836; 1346.336; -217.037;   86.066
750.098; 4284.939;  -60.037;  -21.934
750.359;52971.641;  414.964;  555.066
750.620;12583.644; -121.036; -220.935
750.881; 1562.347; -585.036; -513.935
751.142; 2122.049; -950.036; -938.936
751.403;25516.252; -789.036; -705.936
751.664; 9913.554;-1034.035; -999.936
751.925;  814.757; -175.035; -262.937
752.186;  494.160; -298.035; -278.937
752.447;  246.262; -590.035; -445.937
752.708;  111.365; -532.035; -648.938
752.969;   31.268; -566.034; -576.938
753.230;  -17.130; -777.034; -672.939
753.491;   52.073; -650.034; -631.939
753.751;  166.475;  109.966;   19.061
754.012;  230.778;  258.967;  181.060
754.273;  187.281; -174.033;  -71.940
754.534;    7.683; -487.033; -580.940
754.794; -159.114; -926.033; -911.941
755.055;  342.388; 1051.967;  881.059
755.316;  -64.009; -700.032; -566.942
755.576;   -8.306; -606.032; -576.942
755.837;  -39.804; -527.032; -695.942
756.097;  -28.201; -530.032; -564.943
756.358; -102.598; -725.032; -770.943
756.618;  -47.296; -705.031; -641.943
756.879;   23.907; -254.031; -349.944
757.139; -221.091;-1098.031;-1116.944
757.400;  -82.888; -538.031; -553.945
757.660;   -9.585; -365.031; -401.945
757.920;   68.017; -266.030; -228.945
758.181;   -8.180; -468.030; -351.946
758.441; -141.877; -870.030; -809.946
758.701;  -36.975; -308.030; -215.946
758.961;  -41.872; -220.030; -278.947
759.222;  -47.970; -574.029; -502.947
759.482;  -90.467; -683.029; -723.948
759.742; -123.564; -706.029; -547.948
760.002;   60.938;  -83.029; -143.948
760.262;  135.541;   50.972;  182.051
760.522;  -81.756; -498.028; -574.949
760.782;  -95.954; -738.028; -612.949
761.042;  -29.351; -618.028; -573.950
761.302;  117.951;   55.972;  -18.950
761.562;  129.554; -164.027; -154.951
761.822;  170.157; -710.027; -551.951
762.082;  -55.541;-1104.027;-1093.951
762.342;  149.862; -328.027; -403.952
762.601;  149.464; -567.027; -506.952
762.861;  554.867; -281.026; -207.952
763.121;  764.970; -406.026; -411.953
763.381;12840.272; -499.026; -485.953
763.640;12133.675; -139.026; -307.954
763.900;  621.478; -242.026; -203.954
764.160;  166.880; -458.025; -491.954
764.419;  -27.417; -726.025; -782.955
764.679;  -99.715; -795.025; -726.955
764.939;   32.088; -124.025; -210.955
765.198;  -84.509; -608.025; -563.956
765.458; -120.107; -710.024; -612.956
765.717; -130.504; -454.024; -590.957
765.976;  -57.401; -428.024; -411.957
766.236; -109.799; -475.024; -610.957
766.495;  118.304;  260.977;   73.042
766.755; -174.494;-1090.023; -987.958
767.014;    8.709; -594.023; -665.958
767.273;  -61.888; -373.023; -397.959
767.533;  -38.286; -228.023; -307.959
767.792;  -35.683; -151.022; -188.960
768.051;  -52.280; -228.022; -276.960
768.310; -122.278; -546.022; -650.960
768.569;   57.625; -161.022;    4.039
768.828;  -18.673; -285.022; -363.961
769.088; -215.170;-1050.021; -942.961
769.347; -140.967; -755.021; -599.962
769.606; -149.865; -876.021; -857.962
769.865; -224.562;-1016.021;-1033.963
770.124;   39.141; -411.021; -336.963
770.383;  -80.957; -778.020; -910.963
770.641;   14.446; -398.020; -400.964
770.900; -130.052; -953.020; -846.964
771.159;  -85.949; -851.020; -951.964
771.418;  -25.746; -917.020; -779.965
771.677;  200.556; -224.019; -293.965
771.936;  197.959; -794.019; -865.966
772.194; 3741.661; -465.019; -437.966
772.453;15443.364; -213.019; -391.966
772.712; 1199.567;  416.982;  329.033
772.970;  257.869;   32.982;   63.033
773.229;  203.672;  -22.018;  102.033
773.488; -116.925; -814.018; -770.968
773.746;  174.077;  296.982;  335.032
774.005;   48.480;  190.983;  -22.969
774.263;   81.982;  243.983;  177.031
774.522; -124.315; -422.017; -548.969
774.780; -122.612; -484.017; -417.970
775.039; -113.110; -551.017; -531.970
775.297;    1.093; -135.016; -351.970
775.555; -141.904; -489.016; -612.971
775.814; -177.402; -618.016; -570.971
776.072; -168.599; -749.016; -740.971
776.330; -130.897; -630.016; -520.972
776.589; -200.894; -703.015; -721.972
776.847; -157.291; -645.015; -624.973
777.105; -255.889;-1016.015;-1032.973
777.363; -121.486; -459.015; -454.973
777.621; -200.583; -660.015; -717.974
777.879;   35.919;  -42.014;   32.026
778.138; -125.678; -554.014; -717.974
778.396; -136.076; -585.014; -526.975
778.654; -296.673;-1015.014; -970.975
778.912;  -64.970; -269.014; -371.976
779.170; -226.768; -880.013; -803.976
779.427; -239.265; -922.013; -897.976
779.685; -207.263; -880.013; -832.977
779.943; -140.360; -654.013; -593.977
780.201; -255.857; -964.012; -883.978
780.459; -151.155; -651.012; -610.978
780.717; -107.752; -440.012; -390.978
780.974; -127.449; -449.012; -490.979
781.232;  -74.547; -358.012; -338.979
781.490; -100.744; -551.011; -472.979
781.747; -154.942; -555.011; -476.980
782.005;  116.561;  462.989;  254.020
782.263; -270.936; -542.011;-1004.981
782.520;  -99.734; -326.011; -501.981
782.778; -288.431;-1013.010;-1051.981
783.035; -274.828; -962.010; -938.982
783.293;  -41.326; -248.010; -206.982
783.550;  -38.023; -134.010; -198.982
783.808; -192.821; -764.010; -776.983
784.065; -253.518; -745.009; -874.983
784.322;   15.985;   25.991;  -86.984
784.580; -229.513; -915.009; -771.984
784.837; -108.910; -392.009; -466.984
785.094; -202.407; -783.009; -762.985
785.352;  -68.305; -304.008; -404.985
785.609; -160.002; -934.008; -839.985
785.866;  -86.600; -345.008; -401.986
786.123; -122.497; -639.008; -583.986
786.380; -140.394; -665.008; -604.987
786.637;   -9.592; -225.007; -380.987
786.895;   -4.389; -456.007; -543.987
787.152;  -43.586; -135.007; -267.988
787.409;    5.916; -123.007; -225.988
787.666;  -83.481; -299.006; -378.988
787.923; -168.579; -616.006; -695.989
788.179; -129.376; -551.006; -584.989
788.436; -138.173; -585.006; -585.990
788.693;   24.729;  -92.006;  -87.990
788.950;  317.432; -125.005; -112.990
789.207;  309.434; -381.005; -372.991
789.464;  -20.563; -161.005; -301.991
789.720;   53.840;  150.995;  110.009
789.977; -272.958;-1003.005; -671.992
790.234;   -0.055;   44.996;  -66.992
790.490; -263.552; -884.004;-1031.993
790.747;   30.850;  -85.004;   22.007
791.004;  -26.347; -426.004; -348.993
791.260;  -93.445; -430.004; -560.994
791.517; -136.342; -843.003; -788.994
791.773;  -65.539; -379.003; -342.994
792.030; -138.137; -596.003; -660.995
792.286; -136.734; -686.003; -636.995
792.543;   37.769;  -74.002; -159.995
792.799;  -87.329; -584.002; -382.996
793.055; -288.626;-1179.002;-1210.996
793.312; -143.624; -827.002; -816.997
793.568;  -89.721; -746.002; -599.997
793.824;   98.982; -226.001; -284.997
794.081;   99.584; -447.001; -508.998
794.337;  125.187; -664.001; -561.998
794.593; 2605.090; -319.001; -271.999
794.849;10154.892; -746.001; -772.999
795.105;  525.995; -270.000; -261.999
795.361;   58.497; -490.000; -457.000
795.617; -108.300; -875.000; -945.000
795.873;  -53.600; -360.000; -407.000
796.129;  -30.100; -368.000; -306.000
796.385;    2.900; -124.000; -156.000
796.641;  209.400;  412.000;  550.000
796.897; -126.600; -666.000; -635.000
797.153;  177.500;  453.000;  357.000
797.409; -173.700; -785.000; -868.000
797.665;  -99.800; -625.000; -732.000
797.921; -128.900; -775.000; -762.000
798.176;  -76.800; -744.000; -747.000
798.432; -118.500; -824.000; -596.000
798.688; -137.000;-1174.000;-1078.000
798.943;  144.100; -165.000; -147.000
799.199;  -14.700;-1005.000; -959.000
799.455;  440.500;  369.000;  316.000
799.710;  179.100; -813.000; -380.000
799.966;  457.400; -162.000; -160.000
800.221;  743.400; -638.000; -721.000
800.477;16140.400; -743.000; -710.000
800.732;11669.900; -773.000; -800.000
800.988;  943.100;  205.000;  -19.000
801.243; 3234.900; -454.000; -344.000
801.498;10997.700; -814.000; -739.000
801.754;  617.300; -289.000; -163.000
802.009;  136.100; -257.000; -335.000
802.264;  -95.100; -967.000;-1033.000
802.520;   93.800;  222.000;   -3.000
802.775;  -28.300; -524.000; -359.000
803.030;  150.200;  395.000;  356.000
803.285; -167.500; -840.000; -903.000
803.540;  -85.100; -686.000; -699.000
803.795;  -51.200; -648.000; -583.000
804.051;  -28.000; -279.000; -346.000
804.306;  126.600;  168.000;  128.000
804.561;  276.400;  451.000;  362.000
804.816;  308.900;  714.000;  861.000
805.071;   57.000; -185.000; -280.000
805.325;  356.500; -257.000; -427.000
805.580; -155.800; -841.000; -877.000
805.835;   48.600; -204.000; -297.000
806.090; -129.000; -760.000; -676.000
806.345;   11.200; -344.000; -264.000
806.600;  -59.200; -549.000; -632.000
806.854;   23.200; -408.000; -538.000
807.109;   17.900; -493.000; -577.000
807.364;   39.300; -407.000; -328.000
807.618;   24.900; -415.000; -381.000
807.873;  102.300; -470.000; -494.000
808.128;  198.000; -257.000; -518.000
808.382;  220.700; -224.000; -332.000
808.637;  166.600; -440.000; -511.000
808.891;  324.400; -257.000; -180.000
809.146;  168.500; -902.000; -794.000
809.400;  391.300; -848.000; -923.000
809.654;  533.000; -779.000; -551.000
809.909;  778.200; -841.000; -927.000
810.163;11985.700; -813.000; -651.000
810.418;24926.600; -940.000; -861.000
810.672; 1557.500; -685.000; -690.000
810.926; 1140.000; -993.000; -973.000
811.180; 2354.200; -439.000; -372.000
811.434;50820.900;  240.000;  135.000
811.689;16645.000; -231.000; -365.000
811.943;  904.300; -936.000; -953.000
812.197;  507.700; -893.000; -671.000
812.451;  214.500; -379.000; -514.000
812.705;  -55.600; -809.000; -619.000
812.959;   39.600; -263.000; -388.000
813.213;   39.400; -283.000; -209.000
813.467;  220.500;  470.000;  253.000
813.721; -157.400; -764.000; -792.000
813.975; -182.500; -826.000; -877.000
814.229;  160.800;  430.000;  353.000
814.482;  -89.500; -517.000; -566.000
814.736; -191.900; -766.000; -744.000
814.990; -173.800; -779.000; -872.000
815.244;  -41.700; -228.000; -285.000
815.497; -145.800; -636.000; -601.000
815.751;   73.100; -141.000;   82.000
816.005;  -84.500; -470.000; -586.000
816.258;  -64.000; -510.000; -363.000
816.512; -172.200; -693.000; -610.000
816.766;   80.500;  121.000;  157.000
817.019;  107.700;  148.000;  149.000
817.273; -197.700;-1000.000; -802.000
817.526;   -5.000; -206.000; -173.000
817.779;  -71.700;-1049.000; -960.000
818.033; -122.600; -693.000; -807.000
818.286; -175.400; -725.000; -792.000
818.540; -119.600; -403.000; -403.000
818.793; -102.400; -402.000; -489.000
819.046; -159.000; -582.000; -520.000
819.299;  -17.300; -157.000; -166.000
819.553; -143.200; -552.000; -592.000
819.806; -264.200;-1016.000; -838.000
820.059;  -50.800; -334.000; -354.000
820.312;  104.300;  152.000;  185.000
820.565;   31.900;  110.000;  -27.000
820.818;   10.900;  -59.000; -173.000
821.071; -279.000;-1041.000; -957.000
821.324; -152.200; -536.000; -540.000
821.577; -137.900; -457.000; -483.000
821.830;  -94.700; -270.000; -172.000
822.083; -191.600; -733.000; -288.000
822.336;  -62.500; -261.000; -167.000
822.589; -211.000; -805.000; -688.000
822.842; -220.600; -875.000; -770.000
823.094; -289.600;-1076.000;-1114.000
823.347; -232.300; -925.000; -729.000
823.600;   88.200;  402.000;  187.000
823.853;   -4.700; -311.000; -267.000
824.105;  -70.200; -331.000; -575.000
824.358; -202.900; -617.000; -716.000
824.611;  122.500;  234.000;   40.000
824.863;  -61.200; -612.000; -591.000
825.116;  138.900;  -33.000;   27.000
825.368;  153.900; -366.000; -372.000
825.621;  275.200; -186.000; -240.000
825.873;  118.800; -704.000; -737.000
826.126; 1040.400; -669.000; -641.000
826.378;17601.000; -389.000; -505.000
826.630; 3402.400; -890.000; -898.000
826.883;   69.200; -754.000; -693.000
827.135;  112.300; -279.000; -270.000
827.387; -182.800; -893.000; -839.000
827.639;   26.300;  -86.000;   32.000
827.892; -197.100; -742.000; -582.000
828.144; -213.400; -848.000; -804.000
828.396;  -15.100;  104.000;  -80.000
828.648; -116.400; -440.000; -333.000
828.900; -214.600; -702.000; -795.000
829.152; -160.300; -684.000; -683.000
829.404;  -44.400; -215.000; -267.000
829.656;   75.800;  321.000;  214.000
829.908;   40.000;  393.000;  229.000
830.160; -269.700;-1064.000;-1047.000
830.412; -111.900; -481.000; -430.000
830.664; -160.300; -557.000; -665.000
830.916;  -85.500; -268.000; -206.000
831.167; -286.700;-1073.000; -951.000
831.419; -150.600; -623.000; -566.000
831.671; -236.000; -764.000; -809.000
831.923;  -89.900; -311.000; -447.000
832.174;  -72.500; -273.000; -331.000
832.426; -156.100; -493.000; -582.000
832.678; -329.400;-1043.000;-1091.000
832.929; -250.900; -947.000; -935.000
833.181;  -95.200; -575.000; -677.000
833.432;  -30.700;  -59.000; -186.000
833.684;   26.300;  112.000;  -27.000
833.935; -180.100; -610.000; -566.000
834.187; -182.200; -829.000; -823.000
834.438;  -34.700;  -58.000;  -25.000
834.689;  -24.300; -255.000; -123.000
834.941;  -46.100; -343.000; -244.000
835.192; -121.900; -590.000; -533.000
835.443;  -97.000; -419.000; -506.000
835.695;   49.800;  138.000;  -16.000
835.946; -119.400; -608.000; -378.000
836.197; -139.800; -599.000; -622.000
836.448; -105.300; -528.000; -395.000
836.699;  -31.700; -253.000; -341.000
836.950;   56.400;   72.000;    7.000
837.201; -252.000;-1003.000; -987.000
837.452;  -33.500; -356.000; -170.000
837.703; -176.400; -791.000; -737.000
837.954;  -36.200; -205.000; -365.000
838.205; -146.200;-1029.000;-1008.000
838.456;  279.500; -196.000; -282.000
838.707;   42.600; -423.000; -519.000
838.958;    4.400; -634.000; -647.000
839.209;  496.900;   18.000;   40.000
839.460;  194.600; -439.000; -201.000
839.710;  325.600; -135.000; -297.000
839.961;  733.100;  730.000;  612.000
840.212;  541.100; -382.000; -497.000
840.462; 1942.600; -328.000; -277.000
840.713;28644.100; -571.000; -536.000
840.964; 9176.000;  -62.000; -143.000
841.214;  794.200; -384.000; -624.000
841.465;  904.200; -214.000; -141.000
841.715;  802.500; -417.000; -380.000
841.966; 1082.800; -746.000; -685.000
842.216;17414.000; -330.000; -431.000
842.466;52080.500; -169.000; -313.000
842.717; 2191.000; -964.000; -952.000
842.967;  555.500; -635.000; -641.000
843.217;  475.100;   20.000;   28.000
843.468;  167.100; -104.000; -132.000
843.718;  -34.800; -718.000; -726.000
843.968; -163.200; -837.000; -765.000
844.218;   83.500; -315.000; -262.000
844.469;  -64.900; -577.000; -561.000
844.719; -133.900; -537.000; -682.000
844.969;  -93.300; -550.000; -580.000
845.219; -221.700; -814.000; -862.000
845.469; -110.300; -392.000; -342.000
845.719; -203.200; -792.000; -884.000
845.969;   53.100;  119.000;  174.000
846.219; -147.300; -738.000; -720.000
846.469;   84.200;  464.000;  432.000
846.718;  -27.500; -115.000;   31.000
846.968; -213.800; -827.000; -827.000
847.218;  -11.000; -224.000; -371.000
847.468; -131.500; -586.000; -555.000
847.718; -244.100; -827.000; -798.000
847.967; -222.900; -826.000; -915.000
848.217; -100.900; -449.000; -569.000
848.467;  -47.200; -405.000; -376.000
848.716; -179.100; -708.000; -725.000
848.966;   14.600; -372.000; -358.000
849.215;  -68.200; -428.000; -419.000
849.465; -116.200; -785.000; -615.000
849.714; -238.100;-1132.000;-1150.000
849.964;  -84.600; -551.000; -613.000
850.213;    0.800; -393.000; -355.000
850.463;  220.500;  137.000;  340.000
850.712;    1.500; -542.000; -567.000
850.961;   20.100; -739.000; -678.000
851.211;  140.400; -513.000; -504.000
851.460;  248.100; -635.000; -650.000
851.709;  947.500;  -25.000;   18.000
851.958;16877.300; -912.000; -750.000
852.208;16574.100; -859.000; -879.000
852.457;  649.200; -181.000;  -13.000
852.706;   96.500; -791.000; -823.000
852.955;   67.700; -507.000; -528.000
853.204;  -71.600; -521.000; -461.000
853.453;  -99.800; -418.000; -458.000
853.702; -190.900; -660.000; -750.000
853.951; -173.000; -532.000; -520.000
854.200; -174.900; -613.000; -562.000
854.449; -194.600; -695.000; -661.000
854.698; -132.500; -340.000; -279.000
854.946;  -85.200; -181.000; -284.000
855.195; -245.200; -843.000; -868.000
855.444;  -91.900; -395.000; -420.000
855.693; -187.300; -345.000; -432.000
855.941; -116.700; -387.000; -516.000
856.190;  -66.400; -256.000; -382.000
856.439; -197.200; -652.000; -703.000
856.687;  -13.600;  -99.000;  -72.000
856.936; -159.900; -621.000; -323.000
857.184; -294.100;-1067.000;-1020.000
857.433; -144.400; -423.000; -512.000
857.681; -262.300; -989.000; -953.000
857.930;  -68.800; -282.000; -433.000
858.178; -271.700; -856.000; -929.000
858.427; -233.100; -802.000; -781.000
858.675; -169.700; -377.000; -544.000
858.923; -154.000; -527.000; -819.000
859.172; -311.900;-1094.000;-1070.000
859.420; -108.300; -339.000; -239.000
859.668; -208.800; -624.000; -628.000
859.916;   38.400;  109.000;  115.000
860.164; -198.800; -699.000; -603.000
860.413;  537.000; -878.000; -696.000
860.661;  266.300; -709.000; -577.000
860.909; -100.500; -339.000; -325.000
861.157;  -67.800; -277.000; -444.000
861.405; -183.200; -534.000; -670.000
861.653;  113.000;  310.000;  310.000
861.901;  324.000; -543.000; -613.000
862.149;  -33.600; -801.000; -824.000
862.396;  -77.600; -297.000; -187.000
862.644; -124.200; -368.000; -347.000
862.892;   41.100;   98.000;  138.000
863.140; -117.700; -549.000; -530.000
863.388; -272.200; -815.000; -759.000
863.635; -208.600; -642.000; -601.000
863.883;   42.300;  231.000;  190.000
864.131;  -92.200; -288.000; -357.000
864.378; -221.000; -675.000; -540.000
864.626; -143.300; -347.000; -415.000
864.873; -163.900; -556.000; -505.000
865.121; -221.500; -714.000; -799.000
865.368;  -35.400; -173.000;   75.000
865.616;  -14.800;  -33.000;  -40.000
865.863;  -91.700; -462.000; -506.000
866.111; -199.000; -795.000; -824.000
866.358;   85.400; -426.000; -420.000
866.605; 3672.700;  -64.000; -804.000
866.853; 2915.000; -621.000; -537.000
867.100;  -79.200; -728.000; -775.000
867.347; -145.900; -672.000; -611.000
867.594; -129.900; -740.000; -714.000
867.841;  200.700;   97.000;   17.000
868.089; -224.100; -746.000; -698.000
868.336; -153.600; -477.000; -420.000
868.583; -230.200; -637.000; -741.000
868.830;  -44.700; -131.000; -170.000
869.077; -269.800; -859.000; -787.000
869.324; -194.700; -502.000; -458.000
869.571; -160.700; -398.000; -430.000
869.818; -196.900; -485.000; -439.000
870.065; -126.700; -439.000; -513.000
870.311; -142.800; -456.000; -542.000
870.558; -118.000; -332.000; -311.000
870.805; -106.400; -320.000; -384.000
871.052; -152.200; -494.000; -369.000
871.298;  -32.100; -204.000; -131.000
871.545;  -70.300; -151.000; -185.000
871.792;  -92.100; -173.000; -222.000
872.038;  -15.100;   43.000; -126.000
872.285; -163.700; -496.000; -387.000
872.532; -122.100; -357.000; -387.000
872.778;   75.300;  556.000;  403.000
873.025; -105.000; -384.000; -359.000
873.271;  160.800;  501.000;  578.000
873.517;   46.500; -133.000; -209.000
873.764;  -16.400; -193.000;  -80.000
874.010;  -60.600; -143.000; -230.000
874.257;   15.500;  123.000;   90.000
874.503; -199.700; -579.000; -479.000
874.749;  -82.000;   31.000;  275.000
874.995;  -60.500;  -80.000;  -20.000
875.242; -148.600; -540.000; -478.000
875.488; -142.900; -414.000; -439.000
875.734;  -27.600; -106.000; -234.000
875.980;  364.000; -872.000;-1032.000
876.226;  526.000; -157.000; -255.000
876.472;   46.700;  343.000;  237.000
876.718;  -10.000;  184.000;  158.000
876.964;   -9.000;   56.000;   55.000
877.210; -248.200; -547.000; -677.000
877.456; -196.300; -630.000; -557.000
877.702; -291.900; -821.000; -832.000
877.948; -156.300; -377.000; -497.000
878.193;   85.900;  361.000;  255.000
878.439; -130.400; -487.000; -472.000
878.685; -130.800; -272.000; -343.000
878.931; -162.100; -618.000; -676.000
879.176;  -85.300; -201.000; -201.000
879.422; -283.300; -933.000; -820.000
879.668;  140.300;   10.000;   79.000
879.913;  278.400;   53.000;  137.000
880.159;  -63.500; -112.000;  -17.000
880.404;  -31.700; -152.000; -162.000
880.650;   -6.400;   91.000;  141.000
880.895; -223.400; -670.000; -710.000
881.141; -138.800; -454.000; -428.000
881.386; -225.300; -503.000; -658.000
881.631; -141.400; -311.000; -166.000
881.877;    6.000;  112.000;  -13.000
882.122; -210.100; -684.000; -600.000
882.367;  -88.100; -136.000; -186.000
882.612;  -61.600;  -80.000; -176.000
882.858; -262.000; -877.000; -823.000
883.103; -116.600; -297.000; -267.000
883.348; -220.000; -759.000; -852.000
883.593; -234.700; -677.000; -602.000
883.838;  -16.400; -311.000;  -24.000
884.083;  102.200;  353.000;  288.000
884.328; -160.100; -564.000; -545.000
884.573;  -62.800; -196.000; -143.000
884.818;  395.600; -694.000; -531.000
885.063;  250.300; -348.000; -315.000
885.308; -149.200; -475.000; -398.000
885.553;   57.900;  245.000;  325.000
885.797; -178.500; -545.000; -615.000
886.042;  -12.900;    8.000;   58.000
886.287;  -73.000; -253.000; -211.000
886.532;  -18.800;   26.000;  204.000
886.776; -147.800; -407.000; -525.000
887.021; -231.900; -621.000; -574.000
887.265; -244.300; -685.000; -689.000
887.510; -209.700; -557.000; -496.000
887.755; -113.800; -194.000; -164.000
887.999; -207.900; -552.000; -575.000
888.244;  -44.400;  -58.000;  161.000
888.488;   49.400;  371.000;  393.000
888.732; -190.900; -368.000; -520.000
888.977; -166.200; -622.000; -567.000
889.221; -228.700; -683.000; -659.000
889.465; -156.300; -422.000; -566.000
889.710; -105.900;  -56.000; -299.000
889.954;   87.900;  579.000;  467.000
890.198; -191.100; -584.000; -707.000
890.442; -226.900; -716.000; -712.000
890.687; -263.300; -800.000; -753.000
890.931; -118.000; -273.000; -210.000
891.175; -179.500; -502.000; -500.000
891.419;  -74.400; -105.000; -110.000
891.663; -118.800; -239.000; -112.000
891.907; -267.400; -801.000; -545.000
892.151; -280.800; -920.000; -815.000
892.395; -171.200; -274.000; -387.000
892.638;   24.200;  408.000;  291.000
892.882; -295.400; -780.000; -867.000
893.126;  106.200;  758.000;  558.000
893.370;  -90.100; -167.000; -168.000
893.614; -212.200; -714.000; -715.000
893.857; -116.500; -183.000; -197.000
894.101; -190.700; -527.000; -631.000
894.345;  -28.900;  300.000;  150.000
894.588;  158.400;  569.000;  380.000
894.832;  -80.500; -178.000;  -84.000
895.075;  -79.400;   15.000;  -92.000
895.319; -164.700; -552.000; -420.000
895.563; -158.100; -413.000; -353.000
895.806; -223.100; -628.000; -741.000
896.049;  -82.500; -576.000; -368.000
896.293;  216.800;  527.000;  405.000
896.536;  -89.700; -465.000; -468.000
896.779;  -53.200; -149.000;   -1.000
897.023; -195.300; -751.000; -714.000
897.266;   22.600;  325.000;  269.000
897.509; -274.100; -900.000; -901.000
897.752;  -18.500;  149.000;  171.000
897.996; -302.900; -972.000; -864.000
898.239;  -20.700;  168.000;  102.000
898.482; -176.900; -431.000; -453.000
898.725;   13.400;  101.000;   53.000
898.968; -259.900; -609.000; -744.000
899.211; -121.000; -513.000; -361.000
899.454; -174.900; -633.000; -539.000
899.697;  -45.400;   90.000;  -43.000
899.940; -264.200; -761.000; -757.000
900.182;  -99.500; -335.000; -405.000
900.425;  -92.200; -150.000; -298.000
900.668;   46.600;  491.000;  350.000
900.911;  -88.700; -292.000; -345.000
901.154;  -12.200;  141.000;   -3.000
901.396; -210.500; -407.000; -412.000
901.639; -206.600; -430.000; -496.000
901.882; -261.900; -790.000; -809.000
902.124;  -60.600;  -29.000; -143.000
902.367; -146.000; -315.000; -361.000
902.609; -190.600; -476.000; -453.000
902.852; -107.800; -108.000; -260.000
903.094; -155.700; -458.000; -337.000
903.337;  -10.400;  -26.000;   53.000
903.579; -109.300; -228.000; -441.000
903.821; -245.300; -597.000; -744.000
904.064;  -22.200;   85.000;  127.000
904.306;  -51.500; -126.000; -166.000
904.548; -135.600; -152.000; -366.000
904.790; -142.200; -195.000; -340.000
905.033; -182.400; -625.000; -577.000
905.275; -190.500; -513.000; -524.000
905.517;  175.700;  468.000;  256.000
905.759; -104.300; -667.000; -761.000
906.001; -124.500; -322.000; -369.000
906.243;  -52.700; -162.000; -224.000
906.485;  248.900; -265.000; -207.000
906.727;  161.400; -499.000; -542.000
906.969;  -21.600;  -30.000; -135.000
907.211;  252.800; -316.000; -382.000
907.453;  496.800; -188.000; -237.000
907.695;   44.700; -158.000; -385.000
907.936;  169.200;  818.000;  706.000
908.178;    9.300;   92.000; -135.000
908.420;  -75.600; -111.000; -162.000
908.662; -194.100; -633.000; -682.000
908.903;  -83.000; -208.000; -123.000
909.145;  -54.100; -240.000; -305.000
909.386;   83.900;  315.000;  280.000
909.628;  133.900;  363.000;  397.000
909.870;   81.600;   29.000;  264.000
910.111; -110.300; -809.000; -949.000
910.353;   64.400; -123.000; -161.000
910.594;   29.600; -574.000; -606.000
910.835;  189.000; -265.000; -326.000
911.077;  266.000; -503.000; -604.000
911.318;  522.900; -505.000; -471.000
911.559;  798.300; -577.000; -880.000
911.801; 2465.300; -284.000; -280.000
912.042;21076.200;  -50.000; -159.000
912.283;45585.200;  404.000;  371.000
912.524; 5746.400; -396.000; -457.000
912.765;  897.100; -193.000;   79.000
913.006;  495.200; -307.000; -338.000
913.247;  110.700; -270.000; -290.000
913.488;   16.000;  -43.000;   30.000
913.729; -123.800; -373.000; -373.000
913.970;  -42.600;  -96.000; -292.000
914.211;  -71.600; -160.000; -198.000
914.452;  -38.200; -118.000;  -11.000
914.693;  123.500;  510.000;  592.000
914.934;  123.400;  510.000;  440.000
915.175;  -48.400;   53.000;  -95.000
915.415;  -79.300; -137.000;   27.000
915.656;  -27.200;  -28.000;  192.000
915.897; -128.500; -252.000;  -82.000
916.137;  -44.800;   74.000;   -9.000
916.378; -160.300; -573.000; -517.000
916.619;  -97.200; -159.000;  -63.000
916.859;    2.800;  303.000;  330.000
917.100;  375.000; 1655.000; 1070.000
917.340;  203.000;  930.000;  728.000
917.581;  183.800;  965.000;  789.000
917.821;   17.800; -171.000;  143.000
918.061;   37.400; -199.000;  -72.000
918.302;  -39.900; -152.000; -211.000
918.542;    9.000;  -22.000;    3.000
918.782;  125.800;  369.000;  377.000
919.023;  306.700;  360.000;  427.000
919.263; 3577.800; 8131.000;  202.000
919.503; 1745.900; -137.000;  -54.000
919.743; 1125.900;  390.000;  266.000
919.983;  436.400; -134.000;  -26.000
920.223;  164.500;  135.000;   14.000
920.463;  278.700;  631.000;  554.000
920.703;  249.700;   84.000;   39.000
920.943;  251.100; -110.000;   90.000
921.183;  361.000; -414.000; -405.000
921.423;  843.400;  307.000;  546.000
921.663; 1147.400; -174.000; -257.000
921.903; 2616.400;  237.000;  173.000
922.143;15488.100;  372.000;  389.000
922.383;53490.000;  158.000;  115.000
922.622;14488.900; -120.000;  -15.000
922.862; 1834.900;  796.000;  785.000
923.102;  699.300;  -51.000;   33.000
923.341;  316.100;   59.000;   74.000
923.581;  210.200;  450.000;  360.000
923.821;  120.900;  301.000;  398.000
924.060;   51.500;  351.000;  193.000
924.300;  -57.100;  -16.000; -128.000
924.539;   17.100;  584.000;  473.000
924.779;  111.600;  812.000;  597.000
925.018;  -17.100;  247.000;  353.000
925.257;   80.500;  595.000;  666.000
925.497;   21.500;  447.000;  412.000
925.736;  -74.900;  -35.000;  102.000
925.975;   93.000;  687.000;  669.000
926.214;  161.500;  907.000;  850.000
926.454;  154.800;  706.000;  757.000
926.693;   15.800;  419.000;  543.000
926.932;  161.400; 1021.000;  825.000
927.171;  254.500; 1107.000; 1044.000
927.410;  216.000; 1144.000;  967.000
927.649;  121.900;  924.000;  742.000
927.888;   34.400;  590.000;  564.000
928.127;   72.300;  680.000;  678.000
928.366;  155.800;  842.000;  826.000
928.605;  169.500;  831.000;  737.000
928.844;  567.600; 1451.000; 1393.000
929.083; 1111.500;  770.000;  613.000
929.321;  540.100; 1335.000; 1359.000
929.560;  241.400; 1158.000; 1122.000
929.799;   23.100;  574.000;  475.000
930.038;  285.000; 1025.000; 1394.000
930.276;  -15.700;  334.000;  397.000
930.515;   88.100;  827.000;  681.000
930.753;   44.400;  614.000;  589.000
930.992;   74.700;  664.000;  717.000
931.230;   38.000;  847.000;  847.000
931.469;  421.100; 2162.000;  892.000
931.707;  242.200;  840.000;  751.000
931.946;  249.100; 1278.000; 1344.000
932.184;  217.600; 1437.000; 1175.000
932.423;  168.000; 1265.000;  963.000
932.661;  231.300; 1296.000; 1428.000
932.899;  148.400;  987.000;  821.000
933.137;   92.600;  754.000;  564.000
933.376;  404.800; 1664.000; 1335.000
933.614;  398.800; 1759.000; 1196.000
933.852;  185.400; 1357.000; 1171.000
934.090;  352.200; 1722.000; 1747.000
934.328;  295.600; 1252.000; 1457.000
934.566;  224.900; 1431.000; 1110.000
934.804;  303.100; 1263.000; 1309.000
935.042;  885.700; 1861.000; 1850.000
935.280; 3139.400; 2088.000; 2063.000
935.518; 2537.800; 2113.000; 2007.000
935.756;  671.500; 2481.000; 2316.000
935.994;  372.700; 1808.000; 1751.000
936.231;  772.500; 2890.000; 2950.000
936.469;  464.400; 2367.000; 2378.000
936.707;  426.400; 2220.000; 2167.000
936.945;  514.400; 2825.000; 2882.000
937.182;  495.600; 2679.000; 2741.000
937.420;  720.800; 3602.000; 3031.000
937.657;  826.900; 3365.000; 3478.000
937.895;  793.500; 3331.000; 3488.000
938.133;  698.700; 3540.000; 3528.000
938.370;  758.900; 3896.000; 4191.000
938.607;  918.800; 4488.000; 4205.000
938.845; 1225.300; 5587.000; 5549.000
939.082; 1074.900; 5387.000; 5177.000
939.320; 1219.500; 5799.000; 5728.000
939.557; 1384.100; 6549.000; 6491.000
939.794; 1599.400; 7285.000; 7097.000
940.031; 1956.600; 8421.000; 8368.000
940.269; 2315.200; 9552.000; 9107.000
940.506; 2383.600;10901.000;10507.000

