
Integration time [ms]: 100.000
Averaging Nr. [scans]: 40
Smoothing Nr. [pixels]: 0
Data measured with spectrometer [name]: 2101013U2
Wave   ;Sample   ;Dark     ;Reference
[nm]   ;[counts] ;[counts] ;[counts] 

394.013;   56.068; -450.257; -315.536
394.305;  216.616; -461.258; -419.536
394.596; 1133.513; -676.269; -527.514
394.887; 2769.905; -796.268; -654.518
395.178; 1070.660;  145.736;   11.476
395.470;   77.947; -210.263; -356.526
395.761;  205.520;  305.734;  394.479
396.052;  301.938; -545.284; -306.489
396.343;  321.358; -557.276; -454.503
396.634;  105.202; -200.279; -290.497
396.926;  109.902; -618.268; -565.517
397.217;  106.562;   11.725;  -17.504
397.508;   50.678; -366.273; -154.507
397.799;   34.752; -555.279; -571.497
398.090;    0.796; -973.280; -902.495
398.381;  114.538;   11.708;  -11.473
398.672;    6.189; -585.292; -742.473
398.963;   51.483; -348.279; -373.498
399.254;   87.223;   54.709; -209.475
399.545;  -26.034;-1017.266; -883.520
399.836;   63.397; -407.277; -343.501
400.127;   38.089; -205.295; -209.468
400.418;   58.773; -423.274; -392.506
400.709;   57.533; -359.281; -333.493
401.000;   64.302; -268.291; -309.476
401.290;   98.176;  225.698;  115.545
401.581;   80.171; -166.286; -228.485
401.872;   32.061; -542.298; -486.462
402.163;   60.532; -313.296; -252.467
402.454;   72.949; -123.291; -163.475
402.744;   82.298; -844.297; -813.465
403.035;  439.479; -226.293;  -86.471
403.326;  539.892; -366.292; -384.474
403.617;  375.930;  204.701;  165.539
403.907;  245.469; -593.283; -679.490
404.198; 2439.955; -545.307; -599.446
404.489; 6333.024; -618.283; -588.491
404.779; 2060.979; -618.302; -660.456
405.070;  248.608;  -67.304; -174.451
405.360;  329.206; -259.293; -238.472
405.651;  370.415;  125.699;   98.542
405.942;  165.991;  209.714;  127.516
406.232;  261.330; -432.285; -413.487
406.523;  458.574;  641.706;  758.530
406.813;   89.693; -579.286; -644.484
407.104;  317.112;  261.708;  144.527
407.394;  169.582; -604.299; -591.462
407.685;  152.055;  336.715;  222.513
407.975;   79.122; -400.283; -382.490
408.265;   98.038; -134.289; -190.478
408.556;   73.321; -472.291; -459.475
408.846;  156.950;  474.706;  429.530
409.137;   79.322;   -1.288; -216.480
409.427;   55.480; -193.285; -271.487
409.717;   41.531; -776.273; -692.508
410.007;  139.649;    4.715; -170.486
410.298;   98.642; -360.295; -342.469
410.588;   75.203; -495.285; -510.486
410.878;   28.858; -792.287; -873.482
411.168;  118.514; -481.298; -478.463
411.459;  125.867; -295.283; -242.489
411.749;   45.369; -609.292; -507.474
412.039;   54.120; -755.289; -386.480
412.329;  207.040;   40.722;  132.501
412.619;  208.968;  -62.286; -148.485
412.909;  362.066;  639.711;  594.521
413.199;  317.771; -130.280; -251.495
413.490;  407.306;  521.710;  352.523
413.780;  148.475;-1013.279; -913.496
414.070;  327.934;  -46.276;  235.497
414.360;  376.211; -729.278; -666.498
414.650;  404.254; -726.288; -688.482
414.940;  535.899; -538.280; -441.496
415.230;  918.501;   50.712;   74.519
415.520; 6113.387;  155.730;   66.486
415.809;24250.733; -305.281; -125.493
416.099;18597.299; -388.277; -229.501
416.389; 5270.345;  435.726;  236.494
416.679; 3087.725;   91.738;   85.473
416.969;  563.062; -527.287; -503.483
417.259;  475.902;  341.721;  171.503
417.549;  700.281;  522.718;  318.508
417.838; 1698.929; -205.268; -147.518
418.128; 5548.862;  650.710;  492.522
418.418; 4640.363; -491.272; -579.509
418.708; 3137.221;    9.726;  -48.506
418.997;11842.166; -474.275; -480.505
419.287;12233.902; -733.273; -790.507
419.577;11665.241; -160.283; -123.489
419.866;38473.947; -588.277; -498.501
420.156;39260.683; -242.270;  -55.513
420.446; 6999.918; -112.263;  -26.526
420.735;  873.552; -376.271; -446.512
421.025;  810.410; 1830.722;  315.502
421.314;  679.550; -203.271; -226.512
421.604; 1367.272;   89.732;  233.484
421.893;  822.072; -705.271; -602.511
422.183;  242.943; -487.263; -461.526
422.472;  379.348;  -36.271; -107.511
422.762;  441.622; -416.266; -379.521
423.051;  238.884; -916.276; -916.503
423.341;  305.654; -491.273; -439.507
423.630;  412.353; -121.265;   15.477
423.919;  387.316;   58.725;   49.495
424.209;  386.723;  -31.263;   56.473
424.498;  495.502;   68.732;  161.483
424.787; 1103.933; -535.267; -601.518
425.077; 3383.927;   34.735;   29.478
425.366; 4783.454; -734.262; -744.528
425.655;10074.055;  639.727;  259.493
425.945;22075.358; -313.247; -268.554
426.234;12248.127;  117.741;  300.467
426.523; 5105.307;  -86.259; -350.534
426.812; 6970.068;  107.734;  159.480
427.101;10360.118; -127.269; -323.515
427.390;13084.637;  -55.270;  -86.514
427.680; 2934.577; -624.257; -411.538
427.969;  470.262; -330.255; -301.540
428.258;  334.718; -385.257; -477.536
428.547;  543.092;  449.728;  397.490
428.836; 1264.254; -421.253; -398.543
429.125; 1793.384; -199.259;  -72.534
429.414;  803.226; -330.251; -294.548
429.703; 3139.526; -231.251; -213.548
429.992; 9448.655; -938.250; -828.549
430.281; 6202.811; -397.264; -331.524
430.570;  572.092;  -21.252;   32.454
430.859;  541.056;  279.741;  352.466
431.148;  447.504;  636.752;  631.446
431.437;  287.566;  391.748;  367.454
431.725;  146.320; -544.257; -481.536
432.014;  143.011; -845.253; -756.545
432.303;  396.605; -149.239; -105.569
432.592;  591.642; -460.263; -178.525
432.881; 1069.780; -601.248; -437.554
433.169; 6285.788; -343.255;  -61.540
433.458;12765.438;  445.765;  540.424
433.747; 5296.435; -397.261; -289.529
434.036;  854.380; -275.242; -280.564
434.324; 2108.542; -395.249; -379.551
434.613; 3675.174;   40.757;  159.437
434.902; 1197.645;  333.760;  439.433
435.190;  549.303;   75.761;  295.431
435.479;  292.931;  -52.245;   83.441
435.767;  105.589; -411.244; -427.561
436.056;  211.476; -340.242; -294.563
436.345;  382.222; -372.240; -223.568
436.633;  376.163;   60.750;  383.450
436.922;  262.549;  208.760;  414.432
437.210;  565.953; -194.236;    1.426
437.499; 1807.311; -583.235; -432.576
437.787; 2047.853; -339.236;  -10.574
438.075;  511.034;   56.761;  162.430
438.364;  688.312;  -44.238;  250.429
438.652;  419.266; -286.226; -138.592
438.941;  137.705;    3.770;  269.415
439.229;   13.139; -665.252; -466.545
439.517;   35.120; -160.234;  -85.577
439.806;   13.057; -501.225; -290.595
440.094;  174.378;  377.766;  650.421
440.382;  179.106; -653.233; -302.580
440.670;  194.061; -361.235; -285.576
440.959;   24.549; -347.223; -170.599
441.247;   67.542; -151.229; -109.587
441.535;  105.493; -266.235;   31.423
441.823;   27.425; -497.234; -305.578
442.111;  183.246;  173.771;  327.412
442.400;  512.805; -628.245; -335.559
442.688; 1344.677; -111.234; -620.579
442.976;  972.512; -786.213; -450.617
443.264;   94.014; -324.224; -364.597
443.552;   80.517; -258.226;   51.408
443.840;  172.642;  602.765;  876.423
444.128;   92.980;  265.767;  269.420
444.416;   12.524; -694.228; -312.588
444.704;   23.804; -465.219;  -92.605
444.992;   85.820;   -0.226;  240.407
445.280;   46.731; -517.230;  -94.585
445.568;   29.766; -694.212; -396.618
445.856;  326.938; -174.221;  357.398
446.143;  759.550;  -54.220;   -7.604
446.431;  602.777;  -25.228;  625.411
446.719;  246.098;  489.783;  675.391
447.007;  193.125;  481.769;  705.416
447.295;  173.146;  597.777;  871.402
447.583;   84.089; -464.229;  -34.587
447.870;  156.760; -434.221; -202.601
448.158;  401.655; -104.230;  129.415
448.446;  319.501; -800.219; -338.604
448.733;  172.590;   13.776;  269.403
449.021;  242.265;   60.788;  341.382
449.309;  189.730; -296.210;  208.379
449.596;  221.494;  128.783;   59.392
449.884;  163.128; -571.222; -325.600
450.172;  160.308; -756.227; -406.590
450.459;  444.620;  645.786;  780.387
450.747; 2418.393; -411.218; -147.608
451.034; 7776.928;  493.772;  889.411
451.322; 6443.973; -413.214; -170.614
451.609;  543.067;  292.777;  508.403
451.897;  597.943; -550.203; -183.634
452.184; 1810.372; -622.223; -400.598
452.472; 1731.427;   97.792;  269.375
452.759;  343.227;  512.781;  864.395
453.047;  111.988; -407.212; -125.617
453.334;   63.460; -732.219; -216.606
453.621;   85.376; -438.214; -161.615
453.909;  109.610;   13.796;  384.368
454.196;   97.980; -299.199; -123.641
454.483;  210.806;  317.798;  540.364
454.771;  137.530; -215.208;  196.374
455.058;   36.433; -316.207;  102.374
455.345;  131.936;   71.807;  344.347
455.632;   77.636; -128.207;  235.373
455.919;   40.953;  -82.196;  182.354
456.207;  -50.140; -774.198; -450.642
456.494;   -1.807; -475.200;  -66.639
456.781;   15.327; -399.202; -198.635
457.068;   60.893; -253.206;  -29.628
457.355;  -15.581; -698.206; -401.629
457.642;   -2.476; -552.205; -290.630
457.929;   -4.323; -778.194; -417.651
458.216;   61.413; -575.212; -354.617
458.503;  226.931; -173.193;  -19.652
458.790;  236.077; -864.208; -630.625
459.077;  266.957;  -77.202;  110.364
459.364;  807.395; -350.195; -210.649
459.651; 1724.766;  -46.206;  220.372
459.938;  790.843; -864.209; -665.623
460.225;  134.335;  132.799;  276.363
460.512;  -48.150; -836.197; -688.645
460.799;  109.567;  -32.218;  320.392
461.086;   79.223; -370.200; -251.640
461.372;   43.885; -509.198; -279.642
461.659;  105.454; -165.196;  108.354
461.946;   51.855; -445.193;  -54.651
462.233;  237.045;  842.800;  888.361
462.519;  352.867; -814.201; -464.639
462.806; 1007.351; -768.197; -497.645
463.093;  885.451; -445.191;  -66.656
463.380;  -22.558; -920.186; -824.664
463.666;   60.102; -259.197;  -18.646
463.953;   79.940; -406.195; -243.648
464.239;  190.564; -173.195;  -77.648
464.526;  400.075;  413.806;  743.350
464.813;  338.887; -565.190; -304.658
465.099;  352.806;  606.807;  607.348
465.386;  301.760;  903.807;  921.348
465.672;   18.476; -694.197; -522.645
465.959;   12.680; -598.188; -520.662
466.245;    8.035; -468.193; -359.652
466.532;   88.187; -109.195;   63.352
466.818;   68.142; -357.186; -216.664
467.104;   -1.843; -488.182; -415.672
467.391;  -14.211; -628.189; -459.658
467.677;   25.920; -289.186;    9.335
467.964;   12.221; -682.189; -471.660
468.250;   33.898; -331.186; -160.665
468.536;   74.440;   90.811;  180.341
468.822;  -44.265; -821.184; -574.668
469.109;  141.487;  351.827;  471.311
469.395;  178.645;  729.808;  787.346
469.681;  198.518;   46.811;  156.341
469.967; 1271.198; -699.188; -382.660
470.254; 2754.106; -494.188; -306.662
470.540; 1748.628; -601.196; -476.646
470.826;  250.593; -488.181; -397.675
471.112;  299.288;  288.816;  113.331
471.398;   94.243; -253.183;  -58.670
471.684;   30.021; -626.177; -447.680
471.970;   -6.303; -918.180; -981.675
472.256;   20.694; -521.192; -441.654
472.542;   19.798; -499.171; -434.691
472.828;    4.853; -743.182; -607.672
473.114;   30.867; -380.166; -283.700
473.400;   15.738; -504.175; -293.684
473.686;   35.973; -452.166; -400.701
473.972;   42.302; -230.174; -131.687
474.258;  -36.313; -925.173; -843.689
474.544;  217.413; -183.178;   -2.679
474.830;  326.539;  -65.175;   45.316
475.116;  493.114; -123.190; -196.658
475.401;  704.924; -558.180; -467.676
475.687;  205.748; -725.180; -718.676
475.973;   11.461; -673.181; -770.673
476.259;  245.016;  736.825;  764.315
476.544;  372.604; -539.176; -437.682
476.830;  833.069; -398.172; -322.690
477.116;  728.903; -430.177; -336.682
477.401;  121.173;  346.820;  358.324
477.687;   -3.312; -289.175; -405.684
477.973;   27.614;   21.819;   28.326
478.258;   -3.732; -448.163; -348.706
478.544;   49.203;   21.815;   61.334
478.829;  -44.646; -818.171; -738.692
479.115;  -48.231; -749.172; -651.690
479.401;  -14.102; -444.174; -449.686
479.686;   32.847; -253.180;  -74.676
479.972;  -25.507; -886.178; -776.680
480.257;   28.243; -258.166;  -65.700
480.542;   -1.042; -614.170; -469.693
480.828;  219.011; 1288.824; 1392.317
481.113;  -16.316; -464.176; -426.683
481.399;   -4.283; -236.161; -202.711
481.684;  -40.857; -620.166; -462.700
481.969;   26.206; -158.159;  -73.713
482.255;  -16.982; -439.169; -285.695
482.540;   -4.407; -569.178; -441.680
482.825;   13.712; -395.187; -404.663
483.110;  103.047;  -85.169; -105.696
483.396;  200.202; -840.157; -652.718
483.681;  497.427;  543.826;  730.313
483.966;  169.275; -696.160; -700.712
484.251;   -9.224; -404.174; -310.687
484.536;    7.328; -356.165; -378.703
484.822;    1.229; -205.173; -218.687
485.107;  -25.660; -599.152; -502.726
485.392;  127.784;  662.836;  541.296
485.677;   76.106;  354.832;  163.302
485.962;   97.500;  160.843;  270.283
486.247;   85.076;  -14.162;   -8.707
486.532;   42.919; -178.166; -325.701
486.817;  164.687;  381.839;  431.291
487.102;  113.998; -453.154; -514.722
487.387;  690.179; -637.156; -652.718
487.672; 1190.689; -154.164;  -38.705
487.957;  763.919; -394.160; -286.711
488.241;  213.257; -290.150; -314.729
488.526;  752.617; -280.152; -148.726
488.811; 1219.595; -881.177; -818.680
489.096;  906.876; -666.154; -702.723
489.381;  508.588;    3.847;  162.275
489.666;  402.792; -428.161; -510.710
489.950;  181.354;  558.846;  627.277
490.235;  -17.148; -480.151; -458.728
490.520;  -42.734; -756.161; -723.710
490.804;  -50.619; -827.156; -736.719
491.089;    8.923; -469.149; -299.732
491.374;   29.813; -132.164;  -75.704
491.658;   -7.891; -817.147; -717.735
491.943;  162.071; -657.152; -609.727
492.227;  246.944; -178.155;  -38.721
492.512;   62.224; -294.157; -341.717
492.797;  -64.458; -713.149; -716.731
493.081;  -51.588; -588.147; -598.735
493.366;  -44.007; -751.161; -635.711
493.650;  197.865;  831.859;  917.254
493.935;   20.134; -648.147; -447.734
494.219;  -37.798; -778.142; -687.743
494.503;  -49.288; -585.150; -487.730
494.788;   53.616;   46.842;   74.285
495.072;  102.858;  184.850;  434.271
495.356;  182.126; -463.148; -343.733
495.641;  467.943; -812.146; -736.736
495.925;  432.761; -976.156; -903.719
496.209;   35.522; -599.149; -451.732
496.494;  -44.922; -763.142; -544.744
496.778;  -12.377; -364.154; -360.722
497.062;  -57.289; -819.156; -627.719
497.346;  -25.754; -869.160; -640.711
497.631;  148.054;  580.852;  560.266
497.915;   64.079;  -64.145;  175.261
498.199;   50.327; -341.157; -277.718
498.483;   36.465; -562.152; -508.725
498.767;  187.459;  301.850;  300.271
499.051;  173.245; -126.149; -100.732
499.335;   41.418; -693.149; -739.731
499.619;  -36.684; -381.129; -423.767
499.903;   23.118; -272.155;  -65.721
500.187;   35.931; -588.153; -316.724
500.471;   29.545; -796.152; -595.727
500.755;  108.816;   62.839;  -96.710
501.039;   21.743; -270.155; -357.721
501.323;   88.542;  -21.141;  264.254
501.607;   36.844; -447.163; -503.706
501.891;  -10.296; -607.156; -512.718
502.174;  -17.285; -726.144; -585.741
502.458;   67.374;   89.849;  370.273
502.742;   42.016; -180.138; -191.751
503.026;  105.958; -412.147; -254.734
503.310;  178.580; -437.159; -375.713
503.593;  111.385; -464.147; -325.735
503.877;  118.981; -232.133; -156.760
504.161;  182.033;    2.847;  -50.724
504.444;  136.043; -841.158; -710.716
504.728;  470.312; -487.164; -522.704
505.012;  735.681; -257.150;  -76.729
505.295;  535.442; -417.161; -212.711
505.579;  555.435; -256.156; -496.719
505.862;  748.600; -555.145; -333.738
506.146;  756.457; -681.159; -758.714
506.429;  400.257;  568.841;  461.286
506.713;   66.528; -732.151; -667.728
506.996;  322.398;   90.846;  295.278
507.280;  339.257; -633.165; -474.703
507.563;  240.391; -469.155; -261.721
507.847;  106.981; -423.153; -112.724
508.130;   77.318; -665.161; -456.711
508.413;  121.714; -758.167; -577.700
508.697;  251.114; -151.167;   12.300
508.980;  156.433; -422.153; -312.724
509.263;   -8.337; -466.155; -450.720
509.547;   39.281; -124.150;   82.271
509.830;   51.695; -172.160;  140.289
510.113;   71.210;  128.844;  298.281
510.396;   40.763; -530.152; -300.725
510.680;  163.102; -818.145; -812.738
510.963;  607.352;  184.846;  180.277
511.246;  535.139; -493.150; -357.730
511.529;  255.307; -482.145;  -83.739
511.812;  387.602; -250.134;   10.241
512.095;  278.951; -740.151; -396.728
512.378;   79.639; -317.147; -245.736
512.661;   18.898; -703.137; -623.753
512.944;   42.704; -750.142; -637.744
513.227;   66.045; -170.137; -171.752
513.510;   33.415; -479.144; -671.741
513.793;   12.871; -485.140; -435.747
514.076;  139.337;  -43.127;  -39.771
514.359;  111.523; -294.149; -135.732
514.642;   83.307; -442.142; -567.744
514.925;  749.119;  581.860;  561.253
515.208; 1028.199; -498.134; -443.758
515.491;  639.088; -276.133; -182.761
515.773;  383.094; -410.143; -337.742
516.056; 2142.230;  249.864;  409.246
516.339; 2899.633; -754.136; -652.755
516.622; 1935.486; -518.150; -488.730
516.904; 1219.151;  882.857;  975.257
517.187;  576.469; -730.138; -523.752
517.470;  417.425; -568.143; -510.743
517.752;  432.161; -624.136; -470.756
518.035;  357.032; -708.139; -725.749
518.318;  376.934; -799.136; -744.755
518.600; 2492.866; -300.132; -325.762
518.883; 3400.182;  310.858;   88.256
519.165; 1642.487; -585.138; -426.751
519.448;  384.616;  -61.132;  -19.762
519.730;  197.944; -573.126; -415.773
520.013;  300.184;  588.867;  664.240
520.295;  822.454;  -94.134;  -15.759
520.578; 1832.604; -335.131; -305.764
520.860; 2062.716; -254.132;   56.238
521.143; 1086.813; -763.135; -584.756
521.425;  476.332; -251.125; -279.775
521.707;  697.437; -622.127; -380.771
521.990; 1836.813; -199.127;  167.229
522.272; 2062.423; -116.140;   -4.748
522.554;  922.345; -237.143; -157.742
522.836;  355.227;  -24.134;   99.241
523.119;  225.107; -496.148; -189.734
523.401;  167.161; -448.130; -314.766
523.683;   96.499; -865.137; -693.753
523.965;  279.092;  408.862;  260.248
524.247;  271.328;   54.878;  170.220
524.529;  209.279; -451.134; -367.759
524.812;  360.512;   -3.130;  191.234
525.094;  860.866; -773.138; -631.751
525.376; 1390.966; -143.124;   78.223
525.658;  832.656; -441.136; -339.754
525.940;   25.700; -805.131; -671.764
526.222;   37.909; -188.136;  -88.755
526.504;  125.123; -190.131;   32.237
526.786;  162.231; -960.133; -647.760
527.068;  304.622; -124.123;  -67.778
527.349;  130.277; -865.137; -774.754
527.631;  143.741; -137.132;   22.238
527.913;  143.661; -664.127; -450.771
528.195;  167.200; -761.125; -639.774
528.477;  248.999;  -93.134;  -30.758
528.759;  152.537; -648.130; -522.766
529.040;   62.745; -569.123; -293.778
529.322;   54.728; -235.125;  -10.774
529.604;  147.015;  -47.130;   93.233
529.886;  138.169; -546.126; -302.773
530.167;  122.356;  232.870;  192.235
530.449;   54.188;    1.853;   63.265
530.731;   30.577; -572.122; -459.779
531.012;   86.523; -513.120; -216.784
531.294;   65.912; -118.116;  -43.792
531.575;  146.232;  290.875;  538.225
531.857;   54.719; -548.135; -266.757
532.138;  103.965; -113.141;   40.254
532.420;  168.765;  294.865;  403.244
532.701;  216.184; -722.133; -751.760
532.983;  359.387;  232.867;  182.239
533.264;  124.367; -243.126;  175.228
533.546;  -40.341; -491.136; -508.755
533.827;   60.905;  173.867;   -1.759
534.109;   31.944; -352.135;  -80.757
534.390;  102.745; -725.132; -582.762
534.671;  250.140; -270.135;  -82.756
534.953;  144.598; -751.123; -611.779
535.234;   25.647; -426.117; -255.789
535.515;  -70.519; -891.119; -735.785
535.796;  -24.493; -431.128; -193.770
536.078; -110.959;-1050.124; -904.777
536.359;    3.749;  -22.123;    3.221
536.640;  -15.398; -480.125; -197.774
536.921;  159.695;  225.871;  143.232
537.202;  409.288;  -87.138;  -16.751
537.483;  465.253;  251.869;  377.236
537.764;  180.506;   17.870;   98.235
538.045;  -44.902; -543.134; -371.758
538.326;  -33.278; -596.129; -447.768
538.607;   18.363; -686.127; -476.771
538.888;  170.064;   98.879;    5.218
539.169;  194.584; -704.122; -535.781
539.450;  339.319;  236.871;   16.233
539.731;  214.943; -361.121; -182.783
540.012;  108.448;  199.880;  412.216
540.293;   94.260;   82.876;  158.224
540.574;   13.433; -895.113; -717.796
540.855;  459.892;  435.879;  377.218
541.136;  515.406;   47.878;  139.220
541.416;  293.188; -161.130; -220.766
541.697;  199.974; -274.131; -170.763
541.978; 1053.467; -270.135; -315.757
542.259; 1345.563; -211.127; -236.771
542.539;  641.231; -191.116; -186.790
542.820;  194.307;  461.875;  480.225
543.101;  120.578;  -52.145;  -77.738
543.381;   44.587; -638.127; -591.771
543.662;  263.935;  159.873; -254.771
543.942;  605.233; -751.127; -830.770
544.223; 1069.808;  193.878;  161.219
544.504;  695.441; -275.124; -182.777
544.784;  600.069; -592.126; -408.773
545.065; 1674.060;  104.884; -254.791
545.345; 1983.957;  227.881;   14.215
545.626; 1307.157;  -14.113; -108.796
545.906;  932.481;   77.869;   98.235
546.186;  375.573;   92.874;  -95.773
546.467;  188.918;   99.877;  -95.778
546.747;  327.731;  264.884;  327.210
547.027;  380.014;   91.876;  111.223
547.308;  324.683; -376.127; -530.770
547.588;  383.022;  299.871;  371.232
547.868;  199.607;  458.870;  588.235
548.149;  187.067;  609.885;  593.207
548.429;  144.461; -347.127; -299.771
548.709;  189.973; -645.120; -461.784
548.989;  494.691;   84.882;   88.213
549.269; 2143.064;   10.868;  139.239
549.550; 4950.747;  215.877;  117.222
549.830; 4428.525; -758.111; -556.799
550.110;  908.057; -468.110; -320.801
550.390;  855.453; -128.122;  -56.779
550.670; 1183.203; -868.114; -783.795
550.950;  826.216; -509.121; -471.782
551.230;  201.912;  549.879;  460.218
551.510;   -1.535; -381.121; -326.782
551.790;   33.090; -173.109; -127.803
552.070;  275.368;  940.877; 1181.223
552.350;  414.211; -492.119; -377.786
552.630;  604.635;   -2.121;   77.219
552.909;  370.835;  181.884;   73.209
553.189;  238.021;  -49.132;   33.237
553.469;  191.185; -703.119; -514.786
553.749;  196.389; -469.127; -357.772
554.029;  166.151;   33.883;  -24.790
554.308;  132.821; -154.115;  -37.794
554.588;   73.481; -196.128; -204.770
554.868;   76.167; -366.121;  -47.782
555.147;  154.318; -114.115;  -46.793
555.427;  598.188; -260.116; -250.792
555.707; 3991.016; -284.115; -200.793
555.986; 4822.853; -719.111; -538.800
556.266; 2532.655;   23.884;   72.210
556.546;  122.240; -888.121; -675.782
556.825;  269.776; -657.114; -556.794
557.105; 1843.029; -125.128;   17.230
557.384; 2144.009;  122.884;  187.209
557.664;  825.712; -717.116; -508.792
557.943;  125.141; -557.121; -411.782
558.222;  168.594; -345.118; -344.788
558.502;  289.645; -116.115;  -76.793
558.781;  505.290;  194.885;  499.208
559.061;  423.794; -232.118; -227.788
559.340;  296.999;  302.883;  353.211
559.619;  701.679;   93.884;  148.210
559.899; 1059.876; -239.117; -266.789
560.178;  963.119; -778.115; -593.793
560.457; 3212.227; -623.117; -562.790
560.736; 4537.554; -472.111; -482.800
561.015; 2968.077; -500.128; -502.769
561.295;  396.935;  180.893;  215.193
561.574;  346.642;  119.885;  116.207
561.853;  503.919;  274.891;  303.197
562.132;  510.797;  -45.114;  182.206
562.411;  447.036;  396.879;  553.219
562.690;  148.115; -592.115; -458.792
562.969;  145.539;  472.888;  630.203
563.248;  508.908; 2966.878; 2487.219
563.527;  279.529; -290.111; -408.800
563.806;  385.786; -650.127; -521.771
564.085;  440.500; -297.105; -206.810
564.364;  248.879; -594.117; -405.790
564.643;  502.936; -276.121; -223.781
564.922; 1949.538;  221.890;  397.198
565.201; 1953.317; -640.109; -700.803
565.479;  820.114; -297.115; -219.792
565.758;  332.854; -810.128; -712.770
566.037;  479.568; -155.109; -100.803
566.316;  240.059; -286.116;  -28.791
566.595;   41.392;  -17.115;  -12.793
566.873;  105.881; -166.111;  -79.801
567.152;  -60.411; -490.113; -590.797
567.431;   23.430; -113.116;    6.210
567.709;   11.035; -344.107; -212.807
567.988;  259.750; -810.114; -769.794
568.266;  528.366; -160.115;  -68.793
568.545;  404.247; -644.100; -514.819
568.824;  605.238;  160.885;  356.208
569.102;  589.500; -351.114; -235.794
569.381;  249.412; -492.116; -407.792
569.659;  -44.490; -553.113; -553.796
569.938;   30.507; -743.122; -465.780
570.216;  105.171; -225.109; -225.804
570.494;  -24.497; -632.114; -572.795
570.773;   42.665;  202.879;  114.218
571.051;   17.496; -373.123; -357.778
571.330;   59.108; -221.113; -174.796
571.608;   31.115; -181.098; -173.823
571.886;  -48.127; -671.111; -581.799
572.164;  -64.558; -739.121; -621.782
572.443;  -32.996; -562.105; -512.811
572.721;  -33.247; -399.117; -289.790
572.999;   -7.829; -280.117; -168.788
573.277;   76.272;  379.894;  620.191
573.555;  294.999;   94.894;   37.190
573.834; 1386.546;  -86.117; -114.788
574.112; 1590.463;  880.893;  811.193
574.390;  503.255; -143.111;  -96.801
574.668;    3.340;  -91.112;  -61.797
574.946;   -5.475; -165.106; -187.810
575.224;    6.792;   71.891;  -16.803
575.502;  -18.218; -200.116; -204.791
575.780;  -84.409; -767.112; -829.798
576.058;  136.704; 1589.889; 1004.200
576.336;  -18.640; -210.110; -129.801
576.614;  -70.284; -511.112; -340.798
576.891;   52.921; -711.115; -823.794
577.169;  483.504; -158.108; -285.805
577.447;  596.137;  169.893;  202.193
577.725;  279.820;  629.888;  854.201
578.003;   14.968;  -71.112; -371.798
578.280;  102.588; -208.104; -242.812
578.558;   85.320; -450.115; -422.793
578.836;  129.778; -210.114; -145.795
579.114;   64.639; -630.112; -670.797
579.391;   55.648;   -6.117;  -18.789
579.669;  -79.328; -595.114; -704.794
579.947;  173.784; -326.107; -127.806
580.224;  332.584; -692.107; -524.806
580.502;  326.063;  127.893;   76.193
580.779;   34.203;  -42.117;   75.210
581.057;  -81.704; -584.109; -470.804
581.334;  -90.947; -726.102; -695.815
581.612;   38.200;   54.895;  511.190
581.889;  -21.884;  -83.101; -129.818
582.167;  -36.395; -298.099; -190.821
582.444;  -86.840; -845.102; -814.817
582.721;   94.586;  657.899;  715.183
582.999;   74.302; -326.100; -167.821
583.276;  547.150; -812.123; -713.779
583.553;  748.956; -364.102; -294.816
583.831;  228.509; -607.104; -631.812
584.108;   64.027;  349.892;  174.195
584.385;    3.077; -122.102;  -98.815
584.662;  -53.769; -651.111; -828.801
584.940;   15.005;  204.889;  204.199
585.217;  -11.490;  -73.113; -303.796
585.494;   28.639;   71.890;  118.198
585.771;  229.822; -250.109; -354.804
586.048;  514.209; -196.113;  -76.796
586.325;  331.209; -721.110; -773.801
586.602;   90.113;  230.896;  213.188
586.879;  -12.901; -499.100; -580.820
587.156;   51.601; -156.105; -331.810
587.433;  -33.667; -701.102; -667.817
587.710;   47.917;  152.888;  234.202
587.987;  290.956; -264.105; -236.811
588.264;  804.793;  315.888;  387.202
588.541; 1381.991;  -61.104;   26.187
588.818; 2738.924;   72.892;  171.196
589.095; 2344.061; -163.104; -174.812
589.371;  370.870; -459.109; -414.804
589.648;   22.613; -581.107; -437.807
589.925;   29.904; -517.114; -621.795
590.202;   17.941; -741.112; -607.798
590.478;   87.708; -166.105;  -73.811
590.755;  276.005; -241.108; -132.806
591.032; 2525.136; -741.110; -699.802
591.308; 3477.280; -732.094; -790.831
591.585; 1807.885; -573.110; -560.802
591.862;  145.185;-1056.102; -950.817
592.138;   61.853; -475.108; -474.805
592.415;  150.639; -486.104; -495.813
592.691; 1484.337;  460.896;  518.188
592.968; 1930.192; -208.098; -123.824
593.244;  898.381; -695.116; -595.790
593.521;   63.735; -105.102;  -42.817
593.797;  -19.846; -810.122; -720.780
594.074;  334.979; -611.096; -588.826
594.350;  652.615;  828.905;  729.172
594.626;  313.706; -303.111; -283.801
594.903;  105.311; -643.101; -645.817
595.179;  199.718;  243.896;  418.187
595.455;    6.689; -136.107; -150.807
595.731;    6.144;  -19.103;  -38.814
596.008;  -38.549; -464.111; -434.800
596.284;   39.201; -187.100; -242.820
596.560;   56.711; -501.093; -493.833
596.836;  196.553; -173.105;  -70.810
597.112;  338.378; -582.108; -437.805
597.388;  290.702;  -49.097;  -48.826
597.665;  107.162;  437.887;  530.203
597.941;  -45.985; -572.089; -658.839
598.217;   14.089; -323.110; -293.802
598.493;  271.223;   61.891; -204.804
598.769;  504.846; -175.100;  -50.819
599.045;  306.081; -490.108; -562.806
599.321;   40.075; -193.100; -261.820
599.597;  139.998; -355.109; -476.804
599.872;  478.116;  409.896;  429.187
600.148;  382.654;  -61.097; -172.826
600.424;  293.236;   91.893;  202.193
600.700;  227.288; -170.107; -280.807
600.976;  125.323; -442.097; -464.825
601.252;  276.394; -226.109; -272.803
601.527;  210.991; -833.104; -840.813
601.803;  150.409; -453.105; -404.812
602.079;  186.871; -124.100; -118.819
602.354;  581.371; -620.092; -531.835
602.630;  788.285; -140.113; -482.796
602.906; 2332.341; -910.101; -863.818
603.181; 6788.860; -627.119; -534.786
603.457; 5763.501;   98.903; -278.826
603.733;  844.169; -605.120; -626.783
604.008;  969.325; -245.106; -164.810
604.284; 3067.162; -636.101; -580.817
604.559; 2734.320;   -3.112;  -42.799
604.835;  480.503; -163.105; -225.810
605.110;  406.130; -732.099; -892.821
605.385;  690.264;  224.907;  267.167
605.661;  690.518; -625.095; -729.829
605.936; 1199.207; -664.108; -737.806
606.211; 1018.826;  -17.103; -170.815
606.487;  207.474; -329.114; -376.794
606.762;   29.636; -791.119; -745.786
607.037;  -18.947; -501.105; -433.810
607.313;  -33.739; -589.096; -574.828
607.588;  -21.550; -375.106; -137.810
607.863;   42.640;  -28.101; -143.818
608.138;  183.288;  513.890;  516.198
608.413;   36.334; -576.099; -592.822
608.688;   46.553; -203.108; -267.805
608.964;  226.219; -509.106; -218.809
609.239;  246.051; -107.105; -212.810
609.514;  264.333;  281.895;  240.188
609.789;  684.738; -187.104; -716.812
610.064;  873.685; -435.096; -609.827
610.339;  890.545; -855.109; -799.804
610.614; 1173.376; -131.100; -315.820
610.889;  656.209;  215.895;  107.188
611.163;   43.359; -407.104; -591.812
611.438;   72.025;   81.886; -167.794
611.713;    5.062; -467.101; -499.817
611.988;   63.514; -144.101; -328.818
612.263;  -26.172; -771.102; -717.815
612.538;  208.584;  385.887;  251.204
612.812;  189.577; -832.100; -911.820
613.087;  139.640; -358.098; -338.823
613.362;  -45.236; -497.107; -557.807
613.637;   39.397;  261.897;  138.186
613.911;    5.122; -256.092; -345.835
614.186;  126.812; -249.107; -292.807
614.460;  692.890; -842.081; -758.854
614.735;  803.814;  -55.087;  -17.843
615.010;  160.654;   43.912;  -82.841
615.284;  249.427;  360.892;  246.195
615.559;  378.670; -792.092; -955.835
615.833;  284.482;  -76.099;  -87.822
616.108;   13.532; -225.090; -390.837
616.382;  139.740;  274.913;  402.156
616.656;  157.633; -241.090; -232.837
616.931;  506.833; -785.099; -700.822
617.205; 1085.692; -973.104; -979.813
617.480;  967.080;  -91.125;    6.225
617.754;  169.952; -396.125; -128.774
618.028;    7.198; -369.129; -382.768
618.302;   68.026;   73.892;  -25.805
618.577;  -56.177; -371.103; -518.815
618.851;  -62.484; -399.109; -600.803
619.125;  -51.196; -335.134; -378.759
619.399;  -30.008; -244.104; -374.813
619.673;  -67.112; -330.115; -515.792
619.947;  -34.597; -333.114; -448.795
620.222;  -18.118; -198.110; -204.801
620.496;    0.117;  -47.121;  -96.782
620.770;   11.133; -187.122;  -93.781
621.044;  210.026;  323.895;  346.190
621.318;  754.520; -653.120; -614.783
621.592;  693.217; -430.121; -409.783
621.866;  368.696; -476.112; -572.799
622.140;   24.007; -207.116; -356.791
622.413;   46.900;  138.889;  112.200
622.687;  -32.738; -746.101; -492.817
622.961;   12.726; -130.108; -143.805
623.235;  -37.299; -633.111; -661.800
623.509; -106.517; -816.105; -848.811
623.783;   17.585;  -12.107;   48.193
624.056;  -21.729; -254.120; -280.783
624.330;   53.440;   63.888;   -3.797
624.604;   41.004; -271.116; -355.790
624.877;   73.562;  180.890;   26.198
625.151;   43.248; -249.114; -238.794
625.425;  -28.406; -150.103; -283.814
625.698;  -66.270; -367.119; -374.785
625.972;  -93.561; -799.110; -765.802
626.245;   82.181;  685.884;  484.210
626.519;  -51.000; -426.120; -340.784
626.792;  -41.037; -192.107; -380.807
627.066;  -70.349; -485.122; -662.779
627.339; -104.615; -736.110; -663.802
627.613;   42.848;  351.880;  148.216
627.886;   43.716;  187.891; -612.803
628.160;  -17.731;  312.880; -161.783
628.433; -106.942; -695.125; -703.775
628.706;  -86.250; -517.120; -615.784
628.979;   10.114;  296.876;  117.223
629.253;  -74.815; -785.119; -833.786
629.526;  371.792; -334.126; -253.772
629.799;  355.996; -641.123; -479.778
630.072;  159.375; -497.128; -516.769
630.346;  -64.169;-1115.116;-1080.790
630.619;  456.314; -467.107; -545.808
630.892;  625.502;  709.889;  593.200
631.165;  326.817;  790.896;  679.187
631.438;  -74.282;-1092.112;-1055.798
631.711;   58.474;  453.877;  257.221
631.984;  -60.999; -523.117; -624.789
632.257;  -67.727; -636.117; -681.789
632.530;  -46.345; -412.119; -433.785
632.803;   12.746; -109.115;    7.207
633.076;  -63.082; -360.123; -422.777
633.349;   -4.471;  173.872;  121.231
633.622;  -33.571; -187.119; -240.785
633.895; -126.705; -903.120; -823.783
634.167;  -60.406; -496.126; -525.773
634.440;  -26.963;  -19.116; -137.792
634.713;    0.009;  -22.119; -120.786
634.986;   79.343;  593.871;  453.233
635.258;  -69.606; -507.115; -597.793
635.531;   83.069;  742.882; -343.788
635.804;  -31.325; -303.117; -318.789
636.077;  -97.342; -830.116; -852.791
636.349;    0.667; -586.115; -474.793
636.622;  382.217; 1695.874; 1392.228
636.894;  254.650; -474.120; -909.784
637.167;  149.061; -836.127; -789.771
637.439;   22.907; -278.128; -213.770
637.712;  -60.082; -312.126; -293.772
637.984;  -80.941; -635.116; -707.791
638.257;  386.818;  515.877;  488.222
638.529;  553.834; -881.125; -924.776
638.802;  239.849; -508.128; -449.769
639.074; -117.742; -927.122; -952.781
639.346; -113.880; -942.135; -930.757
639.619;    6.406;  -79.142; -319.744
639.891;    2.276;  -83.122; -168.779
640.163;  -73.497; -689.122; -756.780
640.435;   29.855;  273.878;  103.220
640.708;    8.257;  -72.122; -132.780
640.980;  -27.491; -366.122; -362.781
641.252;  202.061;  -25.121;  -71.781
641.524; 1784.637;  580.879;  573.219
641.796; 1798.589;-1094.121; -907.782
642.068;  326.766; -191.121; -300.782
642.340;  -46.507; -486.121; -566.783
642.613;   28.020;  294.880;  323.217
642.885;  -93.154; -787.120; -878.783
643.157;  -34.302; -810.120; -658.784
643.428;   68.725;  170.880;  218.216
643.700;  -76.073; -498.120; -425.784
643.972;  -32.321;  -16.119; -133.785
644.244;  -91.719; -474.119; -559.785
644.516;  -51.418; -250.119; -114.786
644.788;   57.509;  662.881;  548.214
645.060;  -17.539;  -12.119; -124.786
645.332;  -99.212; -525.118; -535.787
645.603;   32.715;  479.882;  342.213
645.875;  -98.858; -334.118; -369.787
646.147;  167.268; 1487.882; 1242.212
646.418;  -72.655; -931.117; -918.788
646.690;  137.522; -714.117; -715.789
646.962;   31.974; -413.117; -451.789
647.233;   -6.749;   15.883;   11.211
647.505;  -99.698; -595.117; -475.790
647.776;   17.079;  328.884;  229.210
648.048;  -18.669; -248.116; -418.790
648.320;  -79.342; -752.116; -679.791
648.591; -145.540;-1055.116; -958.791
648.862;  -68.013; -505.116; -577.792
649.134;   -5.712;  115.885;  198.208
649.405;  -47.435; -661.115; -618.792
649.677;  -56.333; -475.115; -598.793
649.948;   -2.356; -181.115; -296.793
650.219;    1.996;  -37.115; -147.793
650.491;  -77.628; -431.114; -520.794
650.762; -134.926; -705.114; -731.794
651.033;  -68.849; -437.114; -424.795
651.304;  -91.347; -743.114; -728.795
651.576;  -66.170; -680.114; -645.795
651.847;  -41.818; -250.113; -140.796
652.118;  -28.692;  -32.113; -189.796
652.389; -116.515; -639.113; -722.796
652.660;  -27.288; -147.113;  -89.797
652.931; -139.736; -897.112; -871.797
653.202;  -81.659; -382.112; -541.798
653.473;  -73.807; -633.112; -533.798
653.744;  165.694; -595.112; -590.798
654.015;  137.746; -356.112; -303.799
654.286;  -58.452; -642.111; -663.799
654.557;  -58.850; -586.111; -521.799
654.828; -155.498;-1114.111;-1088.800
655.099;  -91.847; -404.111; -291.800
655.370;  -88.445; -427.111; -543.801
655.641; -123.593; -656.110; -714.801
655.911;  -97.241; -618.110; -638.801
656.182;   43.511;  437.890;  387.198
656.453;   91.663;  830.890;  746.198
656.724;  -76.736; -466.110; -426.802
656.994;  -74.084; -553.109; -568.803
657.265; -108.432; -862.109; -873.803
657.536;  -89.380; -500.109; -377.804
657.806; -109.978; -561.109; -593.804
658.077; -131.876; -866.109; -950.804
658.347;  -99.900; -523.108; -598.805
658.618; -107.148; -646.108; -694.805
658.888;  -28.496;  -41.108;  112.195
659.159;  -74.919; -432.108; -548.806
659.429;  -22.617; -292.108; -349.806
659.700;    9.259; -435.107; -390.807
659.970;  -11.889; -370.107; -359.807
660.241;   12.938; -754.107; -921.807
660.511;  491.115; -147.107; -174.808
660.781;  115.692; -793.106; -748.808
661.052;  -61.331; -222.106; -381.808
661.322;  -15.605;   21.894;   -9.809
661.592;   14.022;  257.894;  148.191
661.862;  -62.801; -369.106; -382.810
662.133; -104.924; -551.105; -502.810
662.403; -122.097; -770.105; -676.810
662.673;  -60.570; -256.105; -213.811
662.943; -101.944; -612.105; -551.811
663.213;  -24.717;  -85.105;  -81.811
663.483;  -69.640; -593.104; -568.812
663.753;  -53.963; -194.104; -152.812
664.023;  -22.236;   68.896;  -32.813
664.293;  -59.685; -319.104; -126.813
664.563; -108.808; -694.104; -648.813
664.833; -126.631; -743.103; -608.814
665.103; -124.504; -730.103; -793.814
665.373; -115.427; -766.103; -806.814
665.643;  -75.225; -863.103; -918.815
665.913;   26.676; -534.103; -714.815
666.182;  152.878; -685.102; -719.816
666.452;  260.755;  -22.102;  -89.816
666.722;  -20.293; -724.102; -784.816
666.992; -134.016; -948.102; -921.817
667.261;  -87.239; -824.102; -808.817
667.531;  192.637;  134.899;   45.183
667.801;  536.964; -440.101; -412.818
668.070;  228.141;  714.899;  697.182
668.340;  -91.482; -883.101; -840.819
668.609;   86.645;  588.900;  301.181
668.879;  -74.629; -490.100; -558.819
669.149;  -77.602; -539.100; -516.820
669.418; -103.725; -698.100; -726.820
669.688;  -39.898; -482.100; -666.820
669.957;   93.429; -423.099; -546.821
670.226;  -31.319; -268.099; -331.821
670.496;  -84.343; -431.099; -635.822
670.765;  -84.766; -418.099; -501.822
671.034; -129.064; -872.099; -828.822
671.304;  -24.987;   55.902; -111.823
671.573; -146.785;-1085.098; -957.823
671.842;   79.666; -380.098; -294.823
672.112;   44.168; -692.098; -586.824
672.381;  -11.480; -239.098; -214.824
672.650; -123.103;-1005.097;-1021.825
672.919; -108.451; -631.097; -507.825
673.188; -103.724; -681.097; -878.825
673.457; -153.223;-1101.097;-1143.826
673.726;  -70.946; -579.096; -646.826
673.995;  -42.619; -533.096; -479.826
674.265;    2.858; -263.096; -333.827
674.534;    0.885; -183.096; -235.827
674.802;   14.412; -618.096; -703.828
675.071; 1007.388; -886.095; -801.828
675.340; 3985.715; -464.095; -339.828
675.609; 1288.292;  103.905;   82.171
675.878;   77.669; -949.095; -893.829
676.147;   17.221;  -26.095;   -8.829
676.416;  104.197; -210.094; -294.830
676.685;  735.224; 1000.906; -622.830
676.953;  109.701; -603.094; -452.831
677.222;  -26.572; -193.094; -273.831
677.491;  -33.020;  -24.094; -127.831
677.759;  -18.893;   11.907;  172.168
678.028;  -16.692; -279.093; -222.832
678.297;   -8.615;   71.907;  197.168
678.565; -134.013; -898.093; -944.833
678.834;  -78.386; -311.093; -268.833
679.102;  -67.584; -411.092; -391.834
679.371; -156.332; -898.092; -727.834
679.639; -115.881; -797.092; -786.834
679.908; -123.104; -794.092; -724.835
680.176; -157.052; -895.091; -941.835
680.445;  -84.675; -346.091; -352.835
680.713;   -9.848;  -58.091;  -23.836
680.982; -102.922; -523.091; -525.836
681.250;  -93.745; -578.091; -507.837
681.518; -107.668; -534.090; -751.837
681.787;  -15.691; -204.090; -167.837
682.055;  -65.139; -490.090; -422.838
682.323; -137.162; -993.090; -992.838
682.591;   24.764; -216.090; -538.838
682.859;   95.716;    9.911;  -35.839
683.128;   14.043;  232.911;  497.161
683.396; -157.705;-1102.089;-1122.840
683.664;  -42.678; -241.089;   21.160
683.932;    4.024;  144.911;  -76.840
684.200;  -79.875; -576.088; -320.841
684.468;  -38.473;  -73.088; -124.841
684.736;  -29.021; -214.088; -175.841
685.004; -114.769;-1024.088; -982.842
685.272;  -33.792; -880.088; -774.842
685.540;  -60.841; -499.087; -557.843
685.808;  -90.739; -651.087; -682.843
686.076;  -84.612; -894.087; -969.843
686.343;  -62.010; -601.087; -815.844
686.611;   38.517; -195.087; -224.844
686.879;  441.319; -530.086; -553.844
687.147; 3330.345; -483.086; -480.845
687.414;  922.322;  -12.086; -169.845
687.682;    0.449; -658.086; -757.846
687.950;  323.351;  259.915;  263.154
688.217;   21.878; -792.085; -760.846
688.485;   -6.045; -632.085; -636.847
688.753;  542.681;  -11.085; -102.847
689.020;  163.058; -820.085; -851.847
689.288; -100.640; -853.084; -787.848
689.555;  -27.238; -195.084; -148.848
689.823;  -31.886; -241.084; -345.849
690.090;  -76.660; -546.084; -651.849
690.358; -151.708; -877.084; -897.849
690.625;    6.069;  120.917;   45.150
690.892;  -76.254; -403.083; -369.850
691.160;  -11.952;   72.917;  -35.850
691.427;    3.025;  141.917;  130.149
691.694; -145.199; -855.083; -929.851
691.962; -146.522;-1177.082;-1060.852
692.229;   14.205;  127.918;   56.148
692.496;   81.757;  130.918;  -49.852
692.763;   14.459; -164.082; -201.853
693.031;  -56.090; -739.082; -716.853
693.298;  -43.463; -509.081; -368.853
693.565;  315.539; -155.081; -163.854
693.832; 1280.491;   -5.081;   -9.854
694.099;  148.518; -643.081; -642.855
694.366;  -73.005; -882.081; -896.855
694.633;  -37.554; -920.080; -633.855
694.900;  740.123; 4367.920; -114.856
695.167;  441.375; -214.080; -380.856
695.434;   98.977; -646.080; -623.856
695.701;  198.129;  121.921;  -61.857
695.968;  460.281; -365.079; -361.857
696.234;  984.657; -415.079; -646.858
696.501;10149.959; -776.079; -614.858
696.768; 5238.286; -554.079; -617.858
697.035;  298.963; -632.078; -667.859
697.302;   28.590; -448.078; -552.859
697.568;    0.016; -458.078; -497.859
697.835;  -31.232; -683.078; -624.860
698.102;  -33.805; -498.078; -407.860
698.368;   68.047;  384.923;  396.139
698.635;  -38.401;  -47.077; -424.861
698.901;  -17.599; -240.077; -348.861
699.168;   69.402; -534.077; -456.862
699.435;   81.229;  -72.077;  -13.862
699.701; -119.544; -868.076; -764.862
699.968;   17.583;  144.924; -441.863
700.234; -102.365; -783.076; -822.863
700.500;  -47.338; -448.076; -539.864
700.767;   -0.762;   -1.075;   26.136
701.033; -123.760;-1015.075; -963.864
701.299;  -55.983; -450.075; -483.865
701.566;  106.969;  950.925;  763.135
701.832;   15.096;  -31.075;  -76.865
702.098;  -89.803;-1054.074;-1034.866
702.365; -104.676;-1098.074;-1030.866
702.631;  -22.274;-1038.074;-1063.867
702.897; 1341.353; -765.074; -676.867
703.163; 2239.155;  348.926;  254.133
703.429;  152.632; -256.073; -273.868
703.695;  -25.417; -796.073; -792.868
703.961;   17.110; -214.073; -210.868
704.227;  -55.488; -630.073; -725.869
704.493;  134.139;  613.927;  510.131
704.759;  -20.809; -565.072; -540.870
705.025;   24.618; -203.072; -194.870
705.291;   -0.731; -666.072; -562.870
705.557;  177.721;  719.928;   34.129
705.823;   23.173; -742.072; -694.871
706.089;  141.475; -307.071; -326.871
706.355;  345.752; -315.071; -244.872
706.620; 5375.578; -776.071; -729.872
706.886; 7686.655; -309.071; -362.873
707.152;  715.132; -818.070; -973.873
707.418;  -11.916;-1153.070;-1186.873
707.683;    4.186; -550.070; -530.874
707.949;  -40.412; -547.070; -578.874
708.215;  -11.211; -129.070; -207.874
708.480;  -27.209; -520.069; -420.875
708.746;   93.293;   68.931;   28.125
709.011;  -59.155; -578.069; -612.876
709.277;  -86.453; -538.069; -543.876
709.542;  -45.552; -428.069; -387.876
709.808;  -20.750;  -59.068;   89.123
710.073;  -72.398; -577.068; -695.877
710.339;  -25.546; -242.068; -228.877
710.604;   83.906; -780.068; -845.878
710.869;  315.808; -277.068; -366.878
711.135;  -67.991; -715.067; -628.879
711.400;  -85.764; -507.067; -608.879
711.665;  -65.412; -404.067; -479.879
711.931; -105.885; -661.067; -677.880
712.196; -125.283; -876.067; -954.880
712.461;  118.469; -402.066; -490.880
712.726;  140.520; -727.066; -771.881
712.991;  -95.403; -647.066; -664.881
713.256;  -44.851; -350.066; -332.882
713.521;  -63.049; -417.065; -381.882
713.787;  -51.597; -454.065; -472.882
714.052;  -38.721; -214.065; -400.883
714.317;  -89.544;-1045.065; -981.883
714.581;  979.633; -374.065; -268.883
714.846; 1399.010; -822.064; -888.884
715.111;  129.837;  261.936;  257.116
715.376;  -22.386;  -86.064; -223.885
715.641;  -15.010; -365.064; -367.885
715.906;  319.917;   15.936; -551.885
716.171;  126.894;  221.937;  209.114
716.436;   44.021;  -78.063; -104.886
716.700; -110.102; -818.063; -692.886
716.965; -129.425; -794.063; -807.887
717.230;  -74.424; -339.063; -392.887
717.494;  -21.197;  -40.062; -134.888
717.759; -106.895; -784.062; -640.888
718.024;    5.007;  269.938;  250.112
718.288;   67.184;  685.938;  395.111
718.553; -145.065; -803.062; -977.889
718.817; -148.563; -883.061; -899.889
719.082;  -31.386; -115.061; -125.890
719.346; -154.559;-1000.061; -947.890
719.611;  -46.857; -300.061; -255.891
719.875; -102.955; -568.060; -537.891
720.140;  -59.904; -453.060; -603.891
720.404;   20.148; -136.060; -249.892
720.668;  862.275; -475.060; -411.892
720.933;  329.152;  146.940;  137.108
721.197;  -77.071; -667.059; -600.893
721.461; -148.794; -851.059; -826.893
721.725;   -4.868;  -21.059; -250.894
721.990;  -65.791; -284.059; -204.894
722.254;  -27.214;  -26.059; -108.894
722.518;  -89.287; -286.058; -442.895
722.782;  -85.810; -743.058; -594.895
723.046;  118.441;  614.942;  570.105
723.310;   21.918;  374.942;  210.104
723.574;  -98.780; -654.058; -614.896
723.838; -105.253; -576.057; -642.897
724.102;  -59.176; -226.057; -239.897
724.366; -141.499;-1032.057; -978.897
724.630; -107.673; -749.057; -571.898
724.894;  -72.796; -722.057; -514.898
725.158;    9.156;   38.944; -295.898
725.422;  -39.417; -394.056; -327.899
725.685;  -85.365; -441.056; -349.899
725.949;  -95.113; -566.056; -519.900
726.213;  -79.237; -732.056; -811.900
726.477;  174.565;-1020.055; -933.900
726.740;  152.017; -274.055; -104.901
727.004;  333.619; -384.055; -510.901
727.268; 3264.696; -442.055; -400.901
727.531;  911.822; -961.055; -775.902
727.795;  -60.901; -713.054; -673.902
728.059;  -53.074; -552.054; -557.903
728.322;  -93.297; -841.054; -669.903
728.586;   40.730; -692.054; -701.903
728.849;  -73.218; -695.053; -756.904
729.112; -118.992; -812.053; -912.904
729.376; -122.340; -959.053; -905.904
729.639;  -58.438; -536.053; -536.905
729.903; -113.361; -733.053; -699.905
730.166;  -54.559; -437.052; -399.906
730.429;  -32.233; -317.052; -468.906
730.693;  -60.556; -355.052; -894.906
730.956;  200.946;  810.948;  651.093
731.219;  695.923; -310.052; -103.907
731.482;  119.875;-1003.051; -894.907
731.745;  104.252; -794.051; -935.908
732.009;   21.478;  -30.051;   50.092
732.272;  -87.595; -904.051; -771.909
732.535;  -45.518; -300.051; -310.909
732.798; -149.466;-1083.050;-1166.909
733.061;  -67.364; -430.050; -456.910
733.324;    5.138;   31.950; -180.910
733.587;   61.939;  290.950;  365.090
733.850;  -68.134; -973.049;-1050.911
734.113;   36.243;   33.951;   32.089
734.376;   17.870; -328.049; -447.912
734.639;  212.722; 1188.951; 1011.088
734.901;   69.698; -180.049; -402.912
735.164;  526.350; -883.048; -837.913
735.427; 1328.477; -166.048; -355.913
735.690;  115.504; -205.048; -234.913
735.952;  -23.319; -923.048; -925.914
736.215;  -23.067;-1113.048;-1009.914
736.478;   38.159; -771.047; -774.915
736.740;  215.086;   33.953;  129.085
737.003;  670.913; -658.047; -672.915
737.266; 4084.515;  -94.047;   46.084
737.528;  449.617; -682.047; -660.916
737.791;  305.594; -316.046; -327.916
738.053;  801.895;  465.954;  649.083
738.316;10657.072; -162.046; -136.917
738.578; 7591.324; -770.046; -736.918
738.841;  425.076; -382.046; -446.918
739.103;  179.828; -875.045; -777.918
739.365;  520.654;   79.955;  -69.919
739.628;   13.406; -884.045; -805.919
739.890;  -48.492; -758.045; -710.919
740.152;  -34.290; -692.044; -754.920
740.414;  -11.988; -408.044; -359.920
740.677;  -37.711; -785.044; -634.921
740.939;  -45.410; -587.044; -487.921
741.201;  284.142; -432.044; -572.921
741.463;   44.069; -689.043; -745.922
741.725;   16.021;  -21.043; -199.922
741.987;   40.623;  220.957;  116.078
742.249;    1.900; -751.043; -859.923
742.511;  216.326; -703.043; -794.923
742.773;   18.328; -546.042; -546.924
743.035;  130.930;  796.958;  533.076
743.297;  -36.818; -963.042;-1013.924
743.559;  744.359; -278.042; -262.925
743.821;   73.135; -735.042; -744.925
744.083;    6.087;  -44.041; -149.925
744.345;  -77.411; -869.041; -892.926
744.607;   32.766;   75.959;  122.074
744.868;  -46.182; -490.041; -554.927
745.130; -118.680; -994.041;-1008.927
745.392;   40.646;   -1.040;  -44.927
745.653;   -9.577; -411.040; -378.928
745.915;  154.475;  896.960;  631.072
746.177;   54.002;   35.960;  -43.928
746.438;   -4.246; -428.040; -543.929
746.700;  -43.919; -947.039; -988.929
746.961;   18.007; -659.039; -740.930
747.223;  128.784; -190.039;  -74.930
747.484;   89.861; -391.039; -471.930
747.746;  144.638;  -23.038; -106.931
748.007;  108.065; -647.038; -689.931
748.269;  293.766; -468.038; -440.931
748.530;  501.743; -852.038; -638.932
748.791;  258.795; -354.038; -420.932
749.053;  468.147;  286.963;  163.067
749.314;  449.449; -236.037; -169.933
749.575;  530.901; -945.037; -905.933
749.836;  849.727; -217.037;   86.066
750.098; 2448.929;  -60.037;  -21.934
750.359;36561.006;  414.964;  555.066
750.620; 9476.033; -121.036; -220.935
750.881;  996.110; -585.036; -513.935
751.142; 1364.536; -950.036; -938.936
751.403;16634.738; -789.036; -705.936
751.664; 7466.265;-1034.035; -999.936
751.925;  478.892; -175.035; -262.937
752.186;  282.794; -298.035; -278.937
752.447;  125.596; -590.035; -445.937
752.708;   46.772; -532.035; -648.938
752.969;   -0.526; -566.034; -576.938
753.230;   10.601; -777.034; -672.939
753.491;  -22.072; -650.034; -631.939
753.751;   59.405;  109.966;   19.061
754.012;   87.607;  258.967;  181.060
754.273;   58.383; -174.033;  -71.940
754.534;   -6.915; -487.033; -580.940
754.794;  -81.088; -926.033; -911.941
755.055;  142.964; 1051.967;  881.059
755.316;  -34.909; -700.032; -566.942
755.576;  -22.208; -606.032; -576.942
755.837;  -29.731; -527.032; -695.942
756.097;  -39.829; -530.032; -564.943
756.358;  -57.852; -725.032; -770.943
756.618;  -53.800; -705.031; -641.943
756.879;   18.727; -254.031; -349.944
757.139; -126.572;-1098.031;-1116.944
757.400;  -56.345; -538.031; -553.945
757.660;  -19.718; -365.031; -401.945
757.920;   18.409; -266.030; -228.945
758.181;  -18.039; -468.030; -351.946
758.441;  -84.712; -870.030; -809.946
758.701;  -26.686; -308.030; -215.946
758.961;  -31.684; -220.030; -278.947
759.222;  -43.707; -574.029; -502.947
759.482;  -75.305; -683.029; -723.948
759.742;  -81.003; -706.029; -547.948
760.002;    5.973;  -83.029; -143.948
760.262;   13.875;   50.972;  182.051
760.522;  -35.923; -498.028; -574.949
760.782;  -58.821; -738.028; -612.949
761.042;  -42.319; -618.028; -573.950
761.302;   56.783;   55.972;  -18.950
761.562;   62.384; -164.027; -154.951
761.822;   86.136; -710.027; -551.951
762.082;  -25.012;-1104.027;-1093.951
762.342;   65.990; -328.027; -403.952
762.601;   75.392; -567.027; -506.952
762.861;  370.394; -281.026; -207.952
763.121;  417.445; -406.026; -411.953
763.381; 7255.572; -499.026; -485.953
763.640; 8222.574; -139.026; -307.954
763.900;  368.626; -242.026; -203.954
764.160;   88.303; -458.025; -491.954
764.419;  -21.671; -726.025; -782.955
764.679;  -77.494; -795.025; -726.955
764.939;   -5.067; -124.025; -210.955
765.198;  -68.715; -608.025; -563.956
765.458;  -86.438; -710.024; -612.956
765.717;  -85.411; -454.024; -590.957
765.976;  -60.935; -428.024; -411.957
766.236;  -81.908; -475.024; -610.957
766.495;   27.194;  260.977;   73.042
766.755;  -84.129;-1090.023; -987.958
767.014;   -5.902; -594.023; -665.958
767.273;  -53.626; -373.023; -397.959
767.533;  -42.649; -228.023; -307.959
767.792;  -16.622; -151.022; -188.960
768.051;  -61.745; -228.022; -276.960
768.310;  -76.318; -546.022; -650.960
768.569;   -6.691; -161.022;    4.039
768.828;  -20.415; -285.022; -363.961
769.088; -125.863;-1050.021; -942.961
769.347;  -66.686; -755.021; -599.962
769.606;  -95.759; -876.021; -857.962
769.865; -115.682;-1016.021;-1033.963
770.124;  -15.230; -411.021; -336.963
770.383;  -49.979; -778.020; -910.963
770.641;   -1.952; -398.020; -400.964
770.900;  -51.700; -953.020; -846.964
771.159;  -62.523; -851.020; -951.964
771.418;  -10.646; -917.020; -779.965
771.677;  126.855; -224.019; -293.965
771.936;  136.582; -794.019; -865.966
772.194; 2090.634; -465.019; -437.966
772.453;10928.411; -213.019; -391.966
772.712;  769.888;  416.982;  329.033
772.970;  107.440;   32.982;   63.033
773.229;   77.066;  -22.018;  102.033
773.488;  -86.607; -814.018; -770.968
773.746;   52.420;  296.982;  335.032
774.005;   -5.003;  190.983;  -22.969
774.263;    8.674;  243.983;  177.031
774.522;  -39.999; -422.017; -548.969
774.780;  -69.898; -484.017; -417.970
775.039;  -89.621; -551.017; -531.970
775.297;  -29.094; -135.016; -351.970
775.555; -116.092; -489.016; -612.971
775.814; -120.240; -618.016; -570.971
776.072; -112.039; -749.016; -740.971
776.330; -103.412; -630.016; -520.972
776.589; -109.085; -703.015; -721.972
776.847; -118.183; -645.015; -624.973
777.105; -171.356;-1016.015;-1032.973
777.363;  -94.979; -459.015; -454.973
777.621; -133.153; -660.015; -717.974
777.879;  -27.151;  -42.014;   32.026
778.138;  -91.849; -554.014; -717.974
778.396;  -99.272; -585.014; -526.975
778.654; -160.645;-1015.014; -970.975
778.912;  -68.418; -269.014; -371.976
779.170; -133.892; -880.013; -803.976
779.427; -155.990; -922.013; -897.976
779.685; -125.313; -880.013; -832.977
779.943;  -91.686; -654.013; -593.977
780.201; -159.859; -964.012; -883.978
780.459; -109.558; -651.012; -610.978
780.717;  -91.681; -440.012; -390.978
780.974; -111.804; -449.012; -490.979
781.232;  -75.327; -358.012; -338.979
781.490;  -72.075; -551.011; -472.979
781.747; -106.323; -555.011; -476.980
782.005;   10.328;  462.989;  254.020
782.263; -151.120; -542.011;-1004.981
782.520;  -87.793; -326.011; -501.981
782.778; -166.316;-1013.010;-1051.981
783.035; -166.439; -962.010; -938.982
783.293;  -59.687; -248.010; -206.982
783.550;  -56.586; -134.010; -198.982
783.808; -134.934; -764.010; -776.983
784.065; -160.407; -745.009; -874.983
784.322;  -52.005;   25.991;  -86.984
784.580; -148.803; -915.009; -771.984
784.837;  -86.377; -392.009; -466.984
785.094; -134.125; -783.009; -762.985
785.352;  -71.098; -304.008; -404.985
785.609; -106.971; -934.008; -839.985
785.866;  -75.119; -345.008; -401.986
786.123;  -73.117; -639.008; -583.986
786.380; -106.241; -665.008; -604.987
786.637;  -48.214; -225.007; -380.987
786.895;   -9.012; -456.007; -543.987
787.152;  -51.810; -135.007; -267.988
787.409;  -44.158; -123.007; -225.988
787.666;  -90.157; -299.006; -378.988
787.923; -124.680; -616.006; -695.989
788.179; -101.128; -551.006; -584.989
788.436;  -96.626; -585.006; -585.990
788.693;  -32.574;  -92.006;  -87.990
788.950;  141.478; -125.005; -112.990
789.207;  217.529; -381.005; -372.991
789.464;  -53.869; -161.005; -301.991
789.720;  -15.467;  150.995;  110.009
789.977; -163.140;-1003.005; -671.992
790.234;  -33.513;   44.996;  -66.992
790.490; -153.586; -884.004;-1031.993
790.747;  -34.560;  -85.004;   22.007
791.004;  -25.908; -426.004; -348.993
791.260;  -87.131; -430.004; -560.994
791.517; -106.254; -843.003; -788.994
791.773;  -46.002; -379.003; -342.994
792.030;  -91.926; -596.003; -660.995
792.286; -100.124; -686.003; -636.995
792.543;  -24.347;  -74.002; -159.995
792.799;  -59.395; -584.002; -382.996
793.055; -156.893;-1179.002;-1210.996
793.312; -109.366; -827.002; -816.997
793.568;  -65.415; -746.002; -599.997
793.824;   10.112; -226.001; -284.997
794.081;   18.589; -447.001; -508.998
794.337;   61.191; -664.001; -561.998
794.593; 1259.068; -319.001; -271.999
794.849; 6603.495; -746.001; -772.999
795.105;  336.421; -270.000; -261.999
795.361;    1.648; -490.000; -457.000
795.617;  -63.050; -875.000; -945.000
795.873;  -58.200; -360.000; -407.000
796.129;  -38.700; -368.000; -306.000
796.385;  -20.425; -124.000; -156.000
796.641;   73.475;  412.000;  550.000
796.897;  -95.400; -666.000; -635.000
797.153;   64.075;  453.000;  357.000
797.409;  -96.000; -785.000; -868.000
797.665;  -71.125; -625.000; -732.000
797.921;  -92.625; -775.000; -762.000
798.176;  -48.575; -744.000; -747.000
798.432;  -60.925; -824.000; -596.000
798.688;  -73.000;-1174.000;-1078.000
798.943;   68.725; -165.000; -147.000
799.199;   -6.400;-1005.000; -959.000
799.455;  210.000;  369.000;  316.000
799.710;  124.775; -813.000; -380.000
799.966;  277.850; -162.000; -160.000
800.221;  459.975; -638.000; -721.000
800.477;10143.750; -743.000; -710.000
800.732; 9356.450; -773.000; -800.000
800.988;  609.825;  205.000;  -19.000
801.243; 1714.725; -454.000; -344.000
801.498; 7556.975; -814.000; -739.000
801.754;  459.725; -289.000; -163.000
802.009;   70.625; -257.000; -335.000
802.264;  -46.650; -967.000;-1033.000
802.520;   12.250;  222.000;   -3.000
802.775;  -52.275; -524.000; -359.000
803.030;   52.375;  395.000;  356.000
803.285; -114.050; -840.000; -903.000
803.540;  -62.150; -686.000; -699.000
803.795;  -46.450; -648.000; -583.000
804.051;  -42.500; -279.000; -346.000
804.306;   26.250;  168.000;  128.000
804.561;  130.000;  451.000;  362.000
804.816;  111.300;  714.000;  861.000
805.071;    3.250; -185.000; -280.000
805.325;  229.375; -257.000; -427.000
805.580; -102.550; -841.000; -877.000
805.835;  -16.550; -204.000; -297.000
806.090;  -72.625; -760.000; -676.000
806.345;  -13.775; -344.000; -264.000
806.600;  -18.500; -549.000; -632.000
806.854;  -28.350; -408.000; -538.000
807.109;  -25.625; -493.000; -577.000
807.364;    8.825; -407.000; -328.000
807.618;   -3.250; -415.000; -381.000
807.873;   62.100; -470.000; -494.000
808.128;   98.025; -257.000; -518.000
808.382;  106.575; -224.000; -332.000
808.637;   64.025; -440.000; -511.000
808.891;  183.525; -257.000; -180.000
809.146;  112.375; -902.000; -794.000
809.400;  258.250; -848.000; -923.000
809.654;  329.800; -779.000; -551.000
809.909;  490.875; -841.000; -927.000
810.163; 6435.600; -813.000; -651.000
810.418;17412.275; -940.000; -861.000
810.672; 1054.900; -685.000; -690.000
810.926;  726.850; -993.000; -973.000
811.180; 1368.850; -439.000; -372.000
811.434;31046.875;  240.000;  135.000
811.689;13039.450; -231.000; -365.000
811.943;  647.400; -936.000; -953.000
812.197;  298.400; -893.000; -671.000
812.451;  126.450; -379.000; -514.000
812.705;  -19.350; -809.000; -619.000
812.959;   19.700; -263.000; -388.000
813.213;   -8.550; -283.000; -209.000
813.467;   68.950;  470.000;  253.000
813.721; -108.100; -764.000; -792.000
813.975; -114.400; -826.000; -877.000
814.229;   42.375;  430.000;  353.000
814.482;  -80.725; -517.000; -566.000
814.736; -115.600; -766.000; -744.000
814.990; -109.400; -779.000; -872.000
815.244;  -41.225; -228.000; -285.000
815.497; -101.875; -636.000; -601.000
815.751;  -13.800; -141.000;   82.000
816.005;  -71.900; -470.000; -586.000
816.258;  -73.625; -510.000; -363.000
816.512;  -96.925; -693.000; -610.000
816.766;  -17.425;  121.000;  157.000
817.019;   28.150;  148.000;  149.000
817.273; -117.650;-1000.000; -802.000
817.526;  -29.525; -206.000; -173.000
817.779;  -44.725;-1049.000; -960.000
818.033;  -69.625; -693.000; -807.000
818.286; -130.050; -725.000; -792.000
818.540;  -88.375; -403.000; -403.000
818.793;  -86.450; -402.000; -489.000
819.046; -106.875; -582.000; -520.000
819.299;  -42.750; -157.000; -166.000
819.553; -102.325; -552.000; -592.000
819.806; -170.975;-1016.000; -838.000
820.059;  -59.450; -334.000; -354.000
820.312;   26.350;  152.000;  185.000
820.565;  -24.950;  110.000;  -27.000
820.818;  -45.450;  -59.000; -173.000
821.071; -155.500;-1041.000; -957.000
821.324; -114.750; -536.000; -540.000
821.577; -102.800; -457.000; -483.000
821.830;  -67.950; -270.000; -172.000
822.083; -126.600; -733.000; -288.000
822.336;  -53.525; -261.000; -167.000
822.589; -139.500; -805.000; -688.000
822.842; -142.275; -875.000; -770.000
823.094; -168.675;-1076.000;-1114.000
823.347; -129.225; -925.000; -729.000
823.600;   11.850;  402.000;  187.000
823.853;  -46.475; -311.000; -267.000
824.105;  -68.725; -331.000; -575.000
824.358; -116.125; -617.000; -716.000
824.611;   27.100;  234.000;   40.000
824.863;  -54.525; -612.000; -591.000
825.116;   53.950;  -33.000;   27.000
825.368;   75.450; -366.000; -372.000
825.621;  155.125; -186.000; -240.000
825.873;   74.475; -704.000; -737.000
826.126;  548.400; -669.000; -641.000
826.378;11418.850; -389.000; -505.000
826.630; 2922.775; -890.000; -898.000
826.883;   45.550; -754.000; -693.000
827.135;   47.875; -279.000; -270.000
827.387; -112.900; -893.000; -839.000
827.639;  -33.475;  -86.000;   32.000
827.892; -136.475; -742.000; -582.000
828.144; -132.225; -848.000; -804.000
828.396;  -42.775;  104.000;  -80.000
828.648; -102.225; -440.000; -333.000
828.900; -138.875; -702.000; -795.000
829.152; -119.550; -684.000; -683.000
829.404;  -64.200; -215.000; -267.000
829.656;  -44.025;  321.000;  214.000
829.908;  -21.425;  393.000;  229.000
830.160; -164.650;-1064.000;-1047.000
830.412; -105.400; -481.000; -430.000
830.664; -126.050; -557.000; -665.000
830.916;  -83.550; -268.000; -206.000
831.167; -182.175;-1073.000; -951.000
831.419; -116.775; -623.000; -566.000
831.671; -130.675; -764.000; -809.000
831.923;  -83.425; -311.000; -447.000
832.174;  -79.575; -273.000; -331.000
832.426; -120.050; -493.000; -582.000
832.678; -182.450;-1043.000;-1091.000
832.929; -159.925; -947.000; -935.000
833.181;  -63.850; -575.000; -677.000
833.432;  -58.150;  -59.000; -186.000
833.684;  -28.400;  112.000;  -27.000
833.935; -125.450; -610.000; -566.000
834.187; -125.025; -829.000; -823.000
834.438;  -44.900;  -58.000;  -25.000
834.689;  -49.350; -255.000; -123.000
834.941;  -47.975; -343.000; -244.000
835.192;  -98.425; -590.000; -533.000
835.443; -107.325; -419.000; -506.000
835.695;  -18.775;  138.000;  -16.000
835.946;  -92.825; -608.000; -378.000
836.197; -108.850; -599.000; -622.000
836.448;  -92.050; -528.000; -395.000
836.699;  -65.400; -253.000; -341.000
836.950;  -23.975;   72.000;    7.000
837.201; -137.300;-1003.000; -987.000
837.452;  -58.800; -356.000; -170.000
837.703; -103.575; -791.000; -737.000
837.954;  -46.175; -205.000; -365.000
838.205;  -82.100;-1029.000;-1008.000
838.456;  176.650; -196.000; -282.000
838.707;   17.225; -423.000; -519.000
838.958;   10.550; -634.000; -647.000
839.209;  262.600;   18.000;   40.000
839.460;  106.200; -439.000; -201.000
839.710;  169.850; -135.000; -297.000
839.961;  417.400;  730.000;  612.000
840.212;  329.975; -382.000; -497.000
840.462; 1092.500; -328.000; -277.000
840.713;17613.950; -571.000; -536.000
840.964; 7389.325;  -62.000; -143.000
841.214;  513.675; -384.000; -624.000
841.465;  561.800; -214.000; -141.000
841.715;  517.700; -417.000; -380.000
841.966;  651.625; -746.000; -685.000
842.216; 8851.400; -330.000; -431.000
842.466;35304.525; -169.000; -313.000
842.717; 2052.175; -964.000; -952.000
842.967;  329.300; -635.000; -641.000
843.217;  271.775;   20.000;   28.000
843.468;   74.325; -104.000; -132.000
843.718;  -37.675; -718.000; -726.000
843.968;  -98.675; -837.000; -765.000
844.218;   20.125; -315.000; -262.000
844.469;  -51.650; -577.000; -561.000
844.719; -107.875; -537.000; -682.000
844.969;  -94.675; -550.000; -580.000
845.219; -146.425; -814.000; -862.000
845.469;  -79.600; -392.000; -342.000
845.719; -134.650; -792.000; -884.000
845.969;  -12.500;  119.000;  174.000
846.219; -122.175; -738.000; -720.000
846.469;   11.950;  464.000;  432.000
846.718;  -53.950; -115.000;   31.000
846.968; -138.100; -827.000; -827.000
847.218;  -51.350; -224.000; -371.000
847.468; -111.350; -586.000; -555.000
847.718; -127.525; -827.000; -798.000
847.967; -136.525; -826.000; -915.000
848.217;  -81.075; -449.000; -569.000
848.467;  -61.400; -405.000; -376.000
848.716; -110.125; -708.000; -725.000
848.966;   -7.500; -372.000; -358.000
849.215;  -51.650; -428.000; -419.000
849.465;  -93.950; -785.000; -615.000
849.714; -137.225;-1132.000;-1150.000
849.964;  -72.975; -551.000; -613.000
850.213;  -19.725; -393.000; -355.000
850.463;   77.050;  137.000;  340.000
850.712;  -11.050; -542.000; -567.000
850.961;   19.475; -739.000; -678.000
851.211;   96.050; -513.000; -504.000
851.460;  165.125; -635.000; -650.000
851.709;  568.250;  -25.000;   18.000
851.958;10071.050; -912.000; -750.000
852.208;12996.275; -859.000; -879.000
852.457;  473.675; -181.000;  -13.000
852.706;   70.675; -791.000; -823.000
852.955;    7.300; -507.000; -528.000
853.204;  -83.200; -521.000; -461.000
853.453;  -88.525; -418.000; -458.000
853.702; -128.450; -660.000; -750.000
853.951; -109.825; -532.000; -520.000
854.200; -121.675; -613.000; -562.000
854.449; -137.175; -695.000; -661.000
854.698;  -92.825; -340.000; -279.000
854.946;  -79.775; -181.000; -284.000
855.195; -151.300; -843.000; -868.000
855.444;  -93.775; -395.000; -420.000
855.693; -119.950; -345.000; -432.000
855.941;  -98.525; -387.000; -516.000
856.190;  -52.900; -256.000; -382.000
856.439; -128.650; -652.000; -703.000
856.687;  -60.375;  -99.000;  -72.000
856.936; -125.975; -621.000; -323.000
857.184; -180.300;-1067.000;-1020.000
857.433;  -99.950; -423.000; -512.000
857.681; -165.325; -989.000; -953.000
857.930;  -80.425; -282.000; -433.000
858.178; -162.250; -856.000; -929.000
858.427; -170.825; -802.000; -781.000
858.675; -123.950; -377.000; -544.000
858.923; -116.300; -527.000; -819.000
859.172; -177.675;-1094.000;-1070.000
859.420; -105.925; -339.000; -239.000
859.668; -121.975; -624.000; -628.000
859.916;  -38.525;  109.000;  115.000
860.164; -112.025; -699.000; -603.000
860.413;  282.150; -878.000; -696.000
860.661;  255.250; -709.000; -577.000
860.909;  -99.550; -339.000; -325.000
861.157;  -82.600; -277.000; -444.000
861.405; -119.975; -534.000; -670.000
861.653;   21.000;  310.000;  310.000
861.901;  172.950; -543.000; -613.000
862.149;   22.225; -801.000; -824.000
862.396;  -96.975; -297.000; -187.000
862.644;  -96.625; -368.000; -347.000
862.892;  -53.275;   98.000;  138.000
863.140; -118.825; -549.000; -530.000
863.388; -161.475; -815.000; -759.000
863.635; -126.325; -642.000; -601.000
863.883;  -23.800;  231.000;  190.000
864.131;  -86.850; -288.000; -357.000
864.378; -146.450; -675.000; -540.000
864.626; -108.625; -347.000; -415.000
864.873; -126.225; -556.000; -505.000
865.121; -141.600; -714.000; -799.000
865.368;  -52.150; -173.000;   75.000
865.616;  -31.375;  -33.000;  -40.000
865.863;  -81.875; -462.000; -506.000
866.111; -106.250; -795.000; -824.000
866.358;   24.775; -426.000; -420.000
866.605; 2145.775;  -64.000; -804.000
866.853; 2298.825; -621.000; -537.000
867.100;  -39.725; -728.000; -775.000
867.347; -102.400; -672.000; -611.000
867.594;  -77.625; -740.000; -714.000
867.841;   82.925;   97.000;   17.000
868.089; -146.500; -746.000; -698.000
868.336; -116.500; -477.000; -420.000
868.583; -152.875; -637.000; -741.000
868.830;  -55.650; -131.000; -170.000
869.077; -160.625; -859.000; -787.000
869.324; -140.025; -502.000; -458.000
869.571; -127.500; -398.000; -430.000
869.818; -133.075; -485.000; -439.000
870.065;  -96.850; -439.000; -513.000
870.311; -117.975; -456.000; -542.000
870.558; -114.775; -332.000; -311.000
870.805; -101.275; -320.000; -384.000
871.052; -112.525; -494.000; -369.000
871.298;  -74.425; -204.000; -131.000
871.545;  -71.825; -151.000; -185.000
871.792;  -94.350; -173.000; -222.000
872.038;  -66.525;   43.000; -126.000
872.285; -121.875; -496.000; -387.000
872.532; -108.075; -357.000; -387.000
872.778;    3.575;  556.000;  403.000
873.025;  -96.475; -384.000; -359.000
873.271;    1.000;  501.000;  578.000
873.517;  -33.725; -133.000; -209.000
873.764;  -45.575; -193.000;  -80.000
874.010;  -58.925; -143.000; -230.000
874.257;  -49.450;  123.000;   90.000
874.503; -140.600; -579.000; -479.000
874.749;  -78.000;   31.000;  275.000
874.995;  -57.225;  -80.000;  -20.000
875.242; -112.200; -540.000; -478.000
875.488; -107.700; -414.000; -439.000
875.734;  -75.325; -106.000; -234.000
875.980;  179.925; -872.000;-1032.000
876.226;  379.625; -157.000; -255.000
876.472;   -9.375;  343.000;  237.000
876.718;  -41.100;  184.000;  158.000
876.964;  -41.025;   56.000;   55.000
877.210; -153.475; -547.000; -677.000
877.456; -144.875; -630.000; -557.000
877.702; -184.750; -821.000; -832.000
877.948; -112.700; -377.000; -497.000
878.193;    5.350;  361.000;  255.000
878.439;  -89.725; -487.000; -472.000
878.685; -105.225; -272.000; -343.000
878.931; -135.675; -618.000; -676.000
879.176; -108.300; -201.000; -201.000
879.422; -181.000; -933.000; -820.000
879.668;   10.325;   10.000;   79.000
879.913;  151.200;   53.000;  137.000
880.159;  -64.175; -112.000;  -17.000
880.404;  -61.850; -152.000; -162.000
880.650;  -53.350;   91.000;  141.000
880.895; -155.925; -670.000; -710.000
881.141; -128.000; -454.000; -428.000
881.386; -148.300; -503.000; -658.000
881.631;  -90.225; -311.000; -166.000
881.877;  -35.725;  112.000;  -13.000
882.122; -148.275; -684.000; -600.000
882.367;  -89.375; -136.000; -186.000
882.612;  -79.650;  -80.000; -176.000
882.858; -175.100; -877.000; -823.000
883.103; -102.025; -297.000; -267.000
883.348; -137.100; -759.000; -852.000
883.593; -141.175; -677.000; -602.000
883.838;  -58.750; -311.000;  -24.000
884.083;   11.125;  353.000;  288.000
884.328;  -94.950; -564.000; -545.000
884.573;  -51.175; -196.000; -143.000
884.818;  197.950; -694.000; -531.000
885.063;  202.350; -348.000; -315.000
885.308;  -90.975; -475.000; -398.000
885.553;  -19.925;  245.000;  325.000
885.797; -128.750; -545.000; -615.000
886.042;  -56.750;    8.000;   58.000
886.287;  -97.325; -253.000; -211.000
886.532;  -68.950;   26.000;  204.000
886.776;  -92.375; -407.000; -525.000
887.021; -149.450; -621.000; -574.000
887.265; -153.750; -685.000; -689.000
887.510; -129.675; -557.000; -496.000
887.755;  -95.125; -194.000; -164.000
887.999; -148.725; -552.000; -575.000
888.244;  -52.250;  -58.000;  161.000
888.488;  -13.100;  371.000;  393.000
888.732; -115.425; -368.000; -520.000
888.977; -142.025; -622.000; -567.000
889.221; -158.100; -683.000; -659.000
889.465; -136.375; -422.000; -566.000
889.710;  -79.500;  -56.000; -299.000
889.954;  -14.075;  579.000;  467.000
890.198; -141.000; -584.000; -707.000
890.442; -159.150; -716.000; -712.000
890.687; -169.025; -800.000; -753.000
890.931; -110.325; -273.000; -210.000
891.175; -128.475; -502.000; -500.000
891.419;  -77.825; -105.000; -110.000
891.663;  -86.475; -239.000; -112.000
891.907; -172.950; -801.000; -545.000
892.151; -169.000; -920.000; -815.000
892.395; -125.275; -274.000; -387.000
892.638;  -21.225;  408.000;  291.000
892.882; -184.400; -780.000; -867.000
893.126;    1.900;  758.000;  558.000
893.370; -106.475; -167.000; -168.000
893.614; -148.100; -714.000; -715.000
893.857; -102.775; -183.000; -197.000
894.101; -127.925; -527.000; -631.000
894.345;  -65.675;  300.000;  150.000
894.588;    8.775;  569.000;  380.000
894.832;  -95.550; -178.000;  -84.000
895.075;  -84.200;   15.000;  -92.000
895.319; -129.975; -552.000; -420.000
895.563; -111.000; -413.000; -353.000
895.806; -155.250; -628.000; -741.000
896.049;  -56.375; -576.000; -368.000
896.293;   97.725;  527.000;  405.000
896.536;  -61.500; -465.000; -468.000
896.779;  -64.800; -149.000;   -1.000
897.023; -140.275; -751.000; -714.000
897.266;  -47.425;  325.000;  269.000
897.509; -165.900; -900.000; -901.000
897.752;  -48.500;  149.000;  171.000
897.996; -181.000; -972.000; -864.000
898.239;  -56.850;  168.000;  102.000
898.482; -132.600; -431.000; -453.000
898.725;  -44.500;  101.000;   53.000
898.968; -148.775; -609.000; -744.000
899.211; -112.975; -513.000; -361.000
899.454; -112.175; -633.000; -539.000
899.697;  -65.875;   90.000;  -43.000
899.940; -163.125; -761.000; -757.000
900.182; -117.575; -335.000; -405.000
900.425;  -99.100; -150.000; -298.000
900.668;  -26.400;  491.000;  350.000
900.911; -112.825; -292.000; -345.000
901.154;  -65.450;  141.000;   -3.000
901.396; -143.625; -407.000; -412.000
901.639; -146.025; -430.000; -496.000
901.882; -186.125; -790.000; -809.000
902.124; -100.975;  -29.000; -143.000
902.367; -114.625; -315.000; -361.000
902.609; -137.675; -476.000; -453.000
902.852;  -89.825; -108.000; -260.000
903.094; -133.375; -458.000; -337.000
903.337;  -67.300;  -26.000;   53.000
903.579; -106.650; -228.000; -441.000
903.821; -159.525; -597.000; -744.000
904.064;  -61.650;   85.000;  127.000
904.306;  -81.050; -126.000; -166.000
904.548; -100.225; -152.000; -366.000
904.790; -103.950; -195.000; -340.000
905.033; -134.700; -625.000; -577.000
905.275; -137.625; -513.000; -524.000
905.517;   39.450;  468.000;  256.000
905.759;  -83.850; -667.000; -761.000
906.001; -100.175; -322.000; -369.000
906.243;  -63.925; -162.000; -224.000
906.485;   99.050; -265.000; -207.000
906.727;  115.100; -499.000; -542.000
906.969;  -48.550;  -30.000; -135.000
907.211;  114.850; -316.000; -382.000
907.453;  269.600; -188.000; -237.000
907.695;   10.275; -158.000; -385.000
907.936;   27.700;  818.000;  706.000
908.178;  -42.675;   92.000; -135.000
908.420;  -81.150; -111.000; -162.000
908.662; -138.350; -633.000; -682.000
908.903;  -97.325; -208.000; -123.000
909.145;  -72.225; -240.000; -305.000
909.386;   -2.600;  315.000;  280.000
909.628;   31.725;  363.000;  397.000
909.870;    1.150;   29.000;  264.000
910.111; -108.775; -809.000; -949.000
910.353;    5.100; -123.000; -161.000
910.594;    0.175; -574.000; -606.000
910.835;   60.400; -265.000; -326.000
911.077;  159.875; -503.000; -604.000
911.318;  283.700; -505.000; -471.000
911.559;  464.200; -577.000; -880.000
911.801; 1313.950; -284.000; -280.000
912.042;10144.600;  -50.000; -159.000
912.283;26943.325;  404.000;  371.000
912.524; 4265.525; -396.000; -457.000
912.765;  468.400; -193.000;   79.000
913.006;  224.950; -307.000; -338.000
913.247;   62.750; -270.000; -290.000
913.488;   12.150;  -43.000;   30.000
913.729;  -93.525; -373.000; -373.000
913.970;  -74.525;  -96.000; -292.000
914.211;  -76.800; -160.000; -198.000
914.452;  -71.450; -118.000;  -11.000
914.693;   10.850;  510.000;  592.000
914.934;    4.725;  510.000;  440.000
915.175;  -66.625;   53.000;  -95.000
915.415;  -83.450; -137.000;   27.000
915.656;  -81.375;  -28.000;  192.000
915.897;  -84.450; -252.000;  -82.000
916.137;  -60.025;   74.000;   -9.000
916.378; -125.900; -573.000; -517.000
916.619;  -83.225; -159.000;  -63.000
916.859;  -12.125;  303.000;  330.000
917.100;  127.525; 1655.000; 1070.000
917.340;   43.275;  930.000;  728.000
917.581;   30.125;  965.000;  789.000
917.821;  -26.950; -171.000;  143.000
918.061;   -4.050; -199.000;  -72.000
918.302;  -45.850; -152.000; -211.000
918.542;  -21.325;  -22.000;    3.000
918.782;   32.075;  369.000;  377.000
919.023;  117.825;  360.000;  427.000
919.263; 1740.250; 8131.000;  202.000
919.503; 1125.400; -137.000;  -54.000
919.743;  636.350;  390.000;  266.000
919.983;  268.575; -134.000;  -26.000
920.223;   77.750;  135.000;   14.000
920.463;  130.375;  631.000;  554.000
920.703;  111.525;   84.000;   39.000
920.943;  160.500; -110.000;   90.000
921.183;  224.300; -414.000; -405.000
921.423;  491.675;  307.000;  546.000
921.663;  703.200; -174.000; -257.000
921.903; 1548.725;  237.000;  173.000
922.143; 8469.825;  372.000;  389.000
922.383;33012.475;  158.000;  115.000
922.622;11565.275; -120.000;  -15.000
922.862; 1216.350;  796.000;  785.000
923.102;  475.250;  -51.000;   33.000
923.341;  183.025;   59.000;   74.000
923.581;   88.250;  450.000;  360.000
923.821;   29.825;  301.000;  398.000
924.060;    1.300;  351.000;  193.000
924.300;  -63.125;  -16.000; -128.000
924.539;  -17.750;  584.000;  473.000
924.779;   12.125;  812.000;  597.000
925.018;  -56.850;  247.000;  353.000
925.257;   -9.225;  595.000;  666.000
925.497;  -35.275;  447.000;  412.000
925.736;  -98.275;  -35.000;  102.000
925.975;   -1.275;  687.000;  669.000
926.214;   17.100;  907.000;  850.000
926.454;    5.800;  706.000;  757.000
926.693;  -44.150;  419.000;  543.000
926.932;   32.525; 1021.000;  825.000
927.171;   67.325; 1107.000; 1044.000
927.410;   51.375; 1144.000;  967.000
927.649;   18.775;  924.000;  742.000
927.888;   -8.825;  590.000;  564.000
928.127;  -13.275;  680.000;  678.000
928.366;   43.200;  842.000;  826.000
928.605;   37.050;  831.000;  737.000
928.844;  240.775; 1451.000; 1393.000
929.083;  596.525;  770.000;  613.000
929.321;  337.000; 1335.000; 1359.000
929.560;   68.575; 1158.000; 1122.000
929.799;  -17.850;  574.000;  475.000
930.038;   72.475; 1025.000; 1394.000
930.276;  -51.450;  334.000;  397.000
930.515;  -10.425;  827.000;  681.000
930.753;  -19.725;  614.000;  589.000
930.992;  -22.575;  664.000;  717.000
931.230;   -4.275;  847.000;  847.000
931.469;  160.975; 2162.000;  892.000
931.707;   72.950;  840.000;  751.000
931.946;   60.025; 1278.000; 1344.000
932.184;   55.550; 1437.000; 1175.000
932.423;   37.875; 1265.000;  963.000
932.661;   89.600; 1296.000; 1428.000
932.899;   12.450;  987.000;  821.000
933.137;   22.225;  754.000;  564.000
933.376;  156.750; 1664.000; 1335.000
933.614;  145.000; 1759.000; 1196.000
933.852;   59.225; 1357.000; 1171.000
934.090;  139.825; 1722.000; 1747.000
934.328;   87.075; 1252.000; 1457.000
934.566;   97.175; 1431.000; 1110.000
934.804;  124.550; 1263.000; 1309.000
935.042;  441.800; 1861.000; 1850.000
935.280; 1712.925; 2088.000; 2063.000
935.518; 1660.550; 2113.000; 2007.000
935.756;  356.975; 2481.000; 2316.000
935.994;  179.375; 1808.000; 1751.000
936.231;  342.675; 2890.000; 2950.000
936.469;  186.025; 2367.000; 2378.000
936.707;  168.950; 2220.000; 2167.000
936.945;  240.550; 2825.000; 2882.000
937.182;  189.500; 2679.000; 2741.000
937.420;  309.850; 3602.000; 3031.000
937.657;  396.625; 3365.000; 3478.000
937.895;  354.300; 3331.000; 3488.000
938.133;  297.700; 3540.000; 3528.000
938.370;  349.525; 3896.000; 4191.000
938.607;  397.700; 4488.000; 4205.000
938.845;  549.825; 5587.000; 5549.000
939.082;  490.650; 5387.000; 5177.000
939.320;  542.500; 5799.000; 5728.000
939.557;  625.125; 6549.000; 6491.000
939.794;  706.875; 7285.000; 7097.000
940.031;  894.275; 8421.000; 8368.000
940.269; 1108.800; 9552.000; 9107.000
940.506; 1129.550;10901.000;10507.000

