
Integration time [ms]: 100.000
Averaging Nr. [scans]: 40
Smoothing Nr. [pixels]: 0
Data measured with spectrometer [name]: 2101013U2
Wave   ;Sample   ;Dark     ;Reference
[nm]   ;[counts] ;[counts] ;[counts] 

394.013;   53.229; -450.257; -315.536
394.305;  235.327; -461.258; -419.536
394.596; 1506.653; -676.269; -527.514
394.887; 3948.123; -796.268; -654.518
395.178; 1428.235;  145.736;   11.476
395.470;   91.248; -210.263; -356.526
395.761;  167.966;  305.734;  394.479
396.052;  210.527; -545.284; -306.489
396.343;  174.586; -557.276; -454.503
396.634;   74.023; -200.279; -290.497
396.926;   41.219; -618.268; -565.517
397.217;   86.941;   11.725;  -17.504
397.508;   37.685; -366.273; -154.507
397.799;   57.598; -555.279; -571.497
398.090;    2.266; -973.280; -902.495
398.381;   80.086;   11.708;  -11.473
398.672;   -7.938; -585.292; -742.473
398.963;   50.980; -348.279; -373.498
399.254;  102.123;   54.709; -209.475
399.545;    3.487;-1017.266; -883.520
399.836;   54.048; -407.277; -343.501
400.127;   59.182; -205.295; -209.468
400.418;   41.429; -423.274; -392.506
400.709;   49.951; -359.281; -333.493
401.000;   51.303; -268.291; -309.476
401.290;  113.631;  225.698;  115.545
401.581;   72.781; -166.286; -228.485
401.872;   30.149; -542.298; -486.462
402.163;   61.523; -313.296; -252.467
402.454;  114.249; -123.291; -163.475
402.744;   64.913; -844.297; -813.465
403.035;  342.225; -226.293;  -86.471
403.326;  409.666; -366.292; -384.474
403.617;  372.767;  204.701;  165.539
403.907;  332.033; -593.283; -679.490
404.198; 3369.125; -545.307; -599.446
404.489; 8517.914; -618.283; -588.491
404.779; 2482.485; -618.302; -660.456
405.070;  274.909;  -67.304; -174.451
405.360;  471.028; -259.293; -238.472
405.651;  458.323;  125.699;   98.542
405.942;  199.700;  209.714;  127.516
406.232;  128.667; -432.285; -413.487
406.523;  302.819;  641.706;  758.530
406.813;   63.128; -579.286; -644.484
407.104;  250.335;  261.708;  144.527
407.394;  113.443; -604.299; -591.462
407.685;  149.716;  336.715;  222.513
407.975;   63.963; -400.283; -382.490
408.265;  117.941; -134.289; -190.478
408.556;   67.320; -472.291; -459.475
408.846;  176.795;  474.706;  429.530
409.137;  110.827;   -1.288; -216.480
409.427;   86.792; -193.285; -271.487
409.717;   57.464; -776.273; -692.508
410.007;  159.084;    4.715; -170.486
410.298;  118.960; -360.295; -342.469
410.588;  118.789; -495.285; -510.486
410.878;   49.765; -792.287; -873.482
411.168;  134.977; -481.298; -478.463
411.459;  120.031; -295.283; -242.489
411.749;   91.569; -609.292; -507.474
412.039;   72.800; -755.289; -386.480
412.329;  238.739;   40.722;  132.501
412.619;  222.353;  -62.286; -148.485
412.909;  396.995;  639.711;  594.521
413.199;  361.041; -130.280; -251.495
413.490;  438.508;  521.710;  352.523
413.780;  213.546;-1013.279; -913.496
414.070;  394.687;  -46.276;  235.497
414.360;  422.359; -729.278; -666.498
414.650;  552.585; -726.288; -688.482
414.940;  721.046; -538.280; -441.496
415.230; 1216.582;   50.712;   74.519
415.520; 8439.002;  155.730;   66.486
415.809;33957.050; -305.281; -125.493
416.099;25524.250; -388.277; -229.501
416.389; 7251.601;  435.726;  236.494
416.679; 4208.977;   91.738;   85.473
416.969;  730.545; -527.287; -503.483
417.259;  639.873;  341.721;  171.503
417.549;  874.849;  522.718;  318.508
417.838; 2266.872; -205.268; -147.518
418.128; 7800.465;  650.710;  492.522
418.418; 6385.922; -491.272; -579.509
418.708; 4266.876;    9.726;  -48.506
418.997;16484.946; -474.275; -480.505
419.287;16886.084; -733.273; -790.507
419.577;16171.155; -160.283; -123.489
419.866;52460.198; -588.277; -498.501
420.156;51998.372; -242.270;  -55.513
420.446; 8832.043; -112.263;  -26.526
420.735;  926.089; -376.271; -446.512
421.025;  918.458; 1830.722;  315.502
421.314;  628.162; -203.271; -226.512
421.604; 1048.813;   89.732;  233.484
421.893;  601.583; -705.271; -602.511
422.183;  286.069; -487.263; -461.526
422.472;  415.710;  -36.271; -107.511
422.762;  451.519; -416.266; -379.521
423.051;  277.338; -916.276; -916.503
423.341;  323.687; -491.273; -439.507
423.630;  407.751; -121.265;   15.477
423.919;  432.745;   58.725;   49.495
424.209;  448.575;  -31.263;   56.473
424.498;  622.994;   68.732;  161.483
424.787; 1389.327; -535.267; -601.518
425.077; 4187.699;   34.735;   29.478
425.366; 4926.982; -734.262; -744.528
425.655;12259.762;  639.727;  259.493
425.945;30117.088; -313.247; -268.554
426.234;16254.409;  117.741;  300.467
426.523; 7218.940;  -86.259; -350.534
426.812; 9762.539;  107.734;  159.480
427.101;14019.609; -127.269; -323.515
427.390;16729.551;  -55.270;  -86.514
427.680; 2821.264; -624.257; -411.538
427.969;  566.877; -330.255; -301.540
428.258;  372.354; -385.257; -477.536
428.547;  561.477;  449.728;  397.490
428.836;  993.572; -421.253; -398.543
429.125; 1374.618; -199.259;  -72.534
429.414;  852.374; -330.251; -294.548
429.703; 4319.674; -231.251; -213.548
429.992;13302.503; -938.250; -828.549
430.281; 8475.935; -397.264; -331.524
430.570;  633.838;  -21.252;   32.454
430.859;  479.715;  279.741;  352.466
431.148;  435.157;  636.752;  631.446
431.437;  336.112;  391.748;  367.454
431.725;  191.931; -544.257; -481.536
432.014;  207.006; -845.253; -756.545
432.303;  424.099; -149.239; -105.569
432.592;  613.043; -460.263; -178.525
432.881; 1352.234; -601.248; -437.554
433.169; 8872.128; -343.255;  -61.540
433.458;18065.240;  445.765;  540.424
433.747; 7147.389; -397.261; -289.529
434.036;  932.345; -275.242; -280.564
434.324; 2752.968; -395.249; -379.551
434.613; 4916.787;   40.757;  159.437
434.902; 1470.012;  333.760;  439.433
435.190;  400.522;   75.761;  295.431
435.479;  241.965;  -52.245;   83.441
435.767;  106.725; -411.244; -427.561
436.056;  245.490; -340.242; -294.563
436.345;  464.290; -372.240; -223.568
436.633;  437.988;   60.750;  383.450
436.922;  236.867;  208.760;  414.432
437.210;  392.727; -194.236;    1.426
437.499; 1115.137; -583.235; -432.576
437.787; 1225.702; -339.236;  -10.574
438.075;  310.354;   56.761;  162.430
438.364;  348.707;  -44.238;  250.429
438.652;  204.683; -286.226; -138.592
438.941;  113.515;    3.770;  269.415
439.229;   -5.816; -665.252; -466.545
439.517;   41.097; -160.234;  -85.577
439.806;    1.752; -501.225; -290.595
440.094;  162.657;  377.766;  650.421
440.382;   90.986; -653.233; -302.580
440.670;   94.662; -361.235; -285.576
440.959;   25.873; -347.223; -170.599
441.247;   52.004; -151.229; -109.587
441.535;   56.095; -266.235;   31.423
441.823;   22.303; -497.234; -305.578
442.111;  176.459;  173.771;  327.412
442.400;  420.789; -628.245; -335.559
442.688;  913.231; -111.234; -620.579
442.976;  565.604; -786.213; -450.617
443.264;   69.560; -324.224; -364.597
443.552;   95.735; -258.226;   51.408
443.840;  142.194;  602.765;  876.423
444.128;  113.860;  265.767;  269.420
444.416;   14.062; -694.228; -312.588
444.704;   27.209; -465.219;  -92.605
444.992;   84.263;   -0.226;  240.407
445.280;   41.566; -517.230;  -94.585
445.568;   13.108; -694.212; -396.618
445.856;  217.190; -174.221;  357.398
446.143;  421.779;  -54.220;   -7.604
446.431;  358.791;  -25.228;  625.411
446.719;  184.907;  489.783;  675.391
447.007;  159.859;  481.769;  705.416
447.295;  186.120;  597.777;  871.402
447.583;   98.426; -464.229;  -34.587
447.870;  135.011; -434.221; -202.601
448.158;  301.539; -104.230;  129.415
448.446;  207.256; -800.219; -338.604
448.733;  161.962;   13.776;  269.403
449.021;  212.958;   60.788;  341.382
449.309;  175.226; -296.210;  208.379
449.596;  215.078;  128.783;   59.392
449.884;  189.203; -571.222; -325.600
450.172;  231.598; -756.227; -406.590
450.459;  588.259;  645.786;  780.387
450.747; 3406.826; -411.218; -147.608
451.034;11076.068;  493.772;  889.411
451.322; 8867.987; -413.214; -170.614
451.609;  690.339;  292.777;  508.403
451.897;  842.752; -550.203; -183.634
452.184; 2564.945; -622.223; -400.598
452.472; 2276.227;   97.792;  269.375
452.759;  349.606;  512.781;  864.395
453.047;   97.755; -407.212; -125.617
453.334;   62.916; -732.219; -216.606
453.621;   29.790; -438.214; -161.615
453.909;  100.467;   13.796;  384.368
454.196;  106.222; -299.199; -123.641
454.483;  241.142;  317.798;  540.364
454.771;  153.105; -215.208;  196.374
455.058;   62.659; -316.207;  102.374
455.345;  137.263;   71.807;  344.347
455.632;  126.413; -128.207;  235.373
455.919;   58.249;  -82.196;  182.354
456.207;  -26.273; -774.198; -450.642
456.494;   11.157; -475.200;  -66.639
456.781;   12.287; -399.202; -198.635
457.068;   65.521; -253.206;  -29.628
457.355;   -4.578; -698.206; -401.629
457.642;   19.079; -552.205; -290.630
457.929;   47.802; -778.194; -417.651
458.216;  103.805; -575.212; -354.617
458.503;  306.583; -173.193;  -19.652
458.790;  360.303; -864.208; -630.625
459.077;  378.468;  -77.202;  110.364
459.364; 1112.469; -350.195; -210.649
459.651; 2376.744;  -46.206;  220.372
459.938; 1069.791; -864.209; -665.623
460.225;  138.872;  132.799;  276.363
460.512;  -34.204; -836.197; -688.645
460.799;  157.049;  -32.218;  320.392
461.086;  127.087; -370.200; -251.640
461.372;   44.803; -509.198; -279.642
461.659;   89.975; -165.196;  108.354
461.946;   44.881; -445.193;  -54.651
462.233;  224.985;  842.800;  888.361
462.519;  485.731; -814.201; -464.639
462.806; 1428.521; -768.197; -497.645
463.093; 1250.706; -445.191;  -66.656
463.380;    8.031; -920.186; -824.664
463.666;   58.373; -259.197;  -18.646
463.953;  107.888; -406.195; -243.648
464.239;  248.613; -173.195;  -77.648
464.526;  365.326;  413.806;  743.350
464.813;  305.345; -565.190; -304.658
465.099;  334.133;  606.807;  607.348
465.386;  286.887;  903.807;  921.348
465.672;   46.596; -694.197; -522.645
465.959;   73.667; -598.188; -520.662
466.245;   12.037; -468.193; -359.652
466.532;   82.735; -109.195;   63.352
466.818;   37.206; -357.186; -216.664
467.104;   -0.696; -488.182; -415.672
467.391;  -18.527; -628.189; -459.658
467.677;   54.685; -289.186;    9.335
467.964;  -11.220; -682.189; -471.660
468.250;   48.288; -331.186; -160.665
468.536;   73.624;   90.811;  180.341
468.822;   -4.922; -821.184; -574.668
469.109;  142.376;  351.827;  471.311
469.395;  200.924;  729.808;  787.346
469.681;  228.428;   46.811;  156.341
469.967; 1720.183; -699.188; -382.660
470.254; 3779.768; -494.188; -306.662
470.540; 2345.074; -601.196; -476.646
470.826;  333.942; -488.181; -397.675
471.112;  374.532;  288.816;  113.331
471.398;   81.087; -253.183;  -58.670
471.684;   59.501; -626.177; -447.680
471.970;   33.097; -918.180; -981.675
472.256;   54.973; -521.192; -441.654
472.542;   26.864; -499.171; -434.691
472.828;   46.474; -743.182; -607.672
473.114;   36.942; -380.166; -283.700
473.400;   35.871; -504.175; -293.684
473.686;   46.100; -452.166; -400.701
473.972;   56.514; -230.174; -131.687
474.258;  -29.099; -925.173; -843.689
474.544;  277.517; -183.178;   -2.679
474.830;  407.548;  -65.175;   45.316
475.116;  657.122; -123.190; -196.658
475.401;  885.525; -558.180; -467.676
475.687;  238.099; -725.180; -718.676
475.973;   -5.991; -673.181; -770.673
476.259;  250.901;  736.825;  764.315
476.544;  498.861; -539.176; -437.682
476.830; 1112.385; -398.172; -322.690
477.116;  968.235; -430.177; -336.682
477.401;  159.949;  346.820;  358.324
477.687;  -12.403; -289.175; -405.684
477.973;   49.438;   21.819;   28.326
478.258;   -7.126; -448.163; -348.706
478.544;   34.245;   21.815;   61.334
478.829;  -59.279; -818.171; -738.692
479.115;  -38.991; -749.172; -651.690
479.401;   -4.116; -444.174; -449.686
479.686;   58.823; -253.180;  -74.676
479.972;  -12.202; -886.178; -776.680
480.257;   37.019; -258.166;  -65.700
480.542;   30.026; -614.170; -469.693
480.828;  248.569; 1288.824; 1392.317
481.113;  -32.683; -464.176; -426.683
481.399;   -4.622; -236.161; -202.711
481.684;  -45.907; -620.166; -462.700
481.969;   28.444; -158.159;  -73.713
482.255;   -9.411; -439.169; -285.695
482.540;    2.973; -569.178; -441.680
482.825;   11.725; -395.187; -404.663
483.110;  116.868;  -85.169; -105.696
483.396;  274.020; -840.157; -652.718
483.681;  647.964;  543.826;  730.313
483.966;  228.437; -696.160; -700.712
484.251;    9.838; -404.174; -310.687
484.536;    5.381; -356.165; -378.703
484.822;   30.442; -205.173; -218.687
485.107;  -16.609; -599.152; -502.726
485.392;  121.013;  662.836;  541.296
485.677;   69.729;  354.832;  163.302
485.962;   98.967;  160.843;  270.283
486.247;  113.309;  -14.162;   -8.707
486.532;   64.770; -178.166; -325.701
486.817;  184.821;  381.839;  431.291
487.102;  127.995; -453.154; -514.722
487.387;  888.372; -637.156; -652.718
487.672; 1606.994; -154.164;  -38.705
487.957; 1012.055; -394.160; -286.711
488.241;  297.936; -290.150; -314.729
488.526;  984.468; -280.152; -148.726
488.811; 1632.550; -881.177; -818.680
489.096; 1146.874; -666.154; -702.723
489.381;  621.538;    3.847;  162.275
489.666;  530.602; -428.161; -510.710
489.950;  210.752;  558.846;  627.277
490.235;  -29.995; -480.151; -458.728
490.520;  -30.074; -756.161; -723.710
490.804;  -45.700; -827.156; -736.719
491.089;   14.055; -469.149; -299.732
491.374;   36.667; -132.164;  -75.704
491.658;  -14.256; -817.147; -717.735
491.943;  135.648; -657.152; -609.727
492.227;  225.615; -178.155;  -38.721
492.512;   50.341; -294.157; -341.717
492.797;  -51.277; -713.149; -716.731
493.081;  -44.578; -588.147; -598.735
493.366;  -35.122; -751.161; -635.711
493.650;  214.036;  831.859;  917.254
493.935;   49.168; -648.147; -447.734
494.219;  -31.754; -778.142; -687.743
494.503;  -24.708; -585.150; -487.730
494.788;   46.906;   46.842;   74.285
495.072;  124.012;  184.850;  434.271
495.356;  199.284; -463.148; -343.733
495.641;  487.805; -812.146; -736.736
495.925;  432.505; -976.156; -903.719
496.209;   33.329; -599.149; -451.732
496.494;  -44.579; -763.142; -544.744
496.778;   31.770; -364.154; -360.722
497.062;  -51.495; -819.156; -627.719
497.346;   -8.393; -869.160; -640.711
497.631;  146.088;  580.852;  560.266
497.915;   95.493;  -64.145;  175.261
498.199;   38.745; -341.157; -277.718
498.483;   40.265; -562.152; -508.725
498.767;  216.389;  301.850;  300.271
499.051;  233.751; -126.149; -100.732
499.335;   48.224; -693.149; -739.731
499.619;  -28.267; -381.129; -423.767
499.903;   17.764; -272.155;  -65.721
500.187;   30.404; -588.153; -316.724
500.471;   19.497; -796.152; -595.727
500.755;   98.027;   62.839;  -96.710
501.039;   11.539; -270.155; -357.721
501.323;   79.288;  -21.141;  264.254
501.607;    8.775; -447.163; -503.706
501.891;   10.597; -607.156; -512.718
502.174;  -33.594; -726.144; -585.741
502.458;   59.777;   89.849;  370.273
502.742;   56.042; -180.138; -191.751
503.026;  148.367; -412.147; -254.734
503.310;  251.093; -437.159; -375.713
503.593;  177.045; -464.147; -325.735
503.877;  123.565; -232.133; -156.760
504.161;  186.282;    2.847;  -50.724
504.444;  161.009; -841.158; -710.716
504.728;  652.116; -487.164; -522.704
505.012;  941.985; -257.150;  -76.729
505.295;  702.353; -417.161; -212.711
505.579;  707.605; -256.156; -496.719
505.862; 1035.363; -555.145; -333.738
506.146; 1035.221; -681.159; -758.714
506.429;  493.071;  568.841;  461.286
506.713;  103.882; -732.151; -667.728
506.996;  411.770;   90.846;  295.278
507.280;  465.435; -633.165; -474.703
507.563;  314.812; -469.155; -261.721
507.847;  119.930; -423.153; -112.724
508.130;  134.554; -665.161; -456.711
508.413;  168.913; -758.167; -577.700
508.697;  344.439; -151.167;   12.300
508.980;  215.157; -422.153; -312.724
509.263;   20.633; -466.155; -450.720
509.547;   38.335; -124.150;   82.271
509.830;   52.481; -172.160;  140.289
510.113;   96.979;  128.844;  298.281
510.396;   46.239; -530.152; -300.725
510.680;   98.415; -818.145; -812.738
510.963;  388.825;  184.846;  180.277
511.246;  301.819; -493.150; -357.730
511.529;  273.221; -482.145;  -83.739
511.812;  499.811; -250.134;   10.241
512.095;  402.353; -740.151; -396.728
512.378;   69.074; -317.147; -245.736
512.661;   57.826; -703.137; -623.753
512.944;   61.248; -750.142; -637.744
513.227;  103.723; -170.137; -171.752
513.510;   42.731; -479.144; -671.741
513.793;   33.568; -485.140; -435.747
514.076;  128.883;  -43.127;  -39.771
514.359;  138.430; -294.149; -135.732
514.642;  115.652; -442.142; -567.744
514.925;  952.541;  581.860;  561.253
515.208; 1384.082; -498.134; -443.758
515.491;  877.073; -276.133; -182.761
515.773;  489.485; -410.143; -337.742
516.056; 2767.584;  249.864;  409.246
516.339; 3611.888; -754.136; -652.755
516.622; 1914.016; -518.150; -488.730
516.904;  781.044;  882.857;  975.257
517.187;  350.346; -730.138; -523.752
517.470;  398.568; -568.143; -510.743
517.752;  593.792; -624.136; -470.756
518.035;  477.531; -708.139; -725.749
518.318;  501.589; -799.136; -744.755
518.600; 3256.303; -300.132; -325.762
518.883; 4507.426;  310.858;   88.256
519.165; 2059.912; -585.138; -426.751
519.448;  403.427;  -61.132;  -19.762
519.730;  169.467; -573.126; -415.773
520.013;  260.119;  588.867;  664.240
520.295;  470.763;  -94.134;  -15.759
520.578; 1064.543; -335.131; -305.764
520.860; 1293.678; -254.132;   56.238
521.143;  779.594; -763.135; -584.756
521.425;  508.357; -251.125; -279.775
521.707;  828.708; -622.127; -380.771
521.990; 2354.209; -199.127;  167.229
522.272; 2704.820; -116.140;   -4.748
522.554; 1061.161; -237.143; -157.742
522.836;  298.111;  -24.134;   99.241
523.119;  195.791; -496.148; -189.734
523.401;  177.326; -448.130; -314.766
523.683;  124.902; -865.137; -693.753
523.965;  349.294;  408.862;  260.248
524.247;  353.233;   54.878;  170.220
524.529;  260.563; -451.134; -367.759
524.812;  426.279;   -3.130;  191.234
525.094; 1181.243; -773.138; -631.751
525.376; 1814.318; -143.124;   78.223
525.658; 1107.760; -441.136; -339.754
525.940;   44.914; -805.131; -671.764
526.222;   36.189; -188.136;  -88.755
526.504;   80.286; -190.131;   32.237
526.786;   80.741; -960.133; -647.760
527.068;  168.425; -124.123;  -67.778
527.349;   49.081; -865.137; -774.754
527.631;  126.677; -137.132;   22.238
527.913;  188.607; -664.127; -450.771
528.195;  255.524; -761.125; -639.774
528.477;  322.282;  -93.134;  -30.758
528.759;  216.228; -648.130; -522.766
529.040;  114.698; -569.123; -293.778
529.322;   80.852; -235.125;  -10.774
529.604;  112.731;  -47.130;   93.233
529.886;   80.566; -546.126; -302.773
530.167;  103.296;  232.870;  192.235
530.449;   52.399;    1.853;   63.265
530.731;   61.657; -572.122; -459.779
531.012;  100.107; -513.120; -216.784
531.294;  103.779; -118.116;  -43.792
531.575;  171.007;  290.875;  538.225
531.857;   91.001; -548.135; -266.757
532.138;   97.786; -113.141;   40.254
532.420;  136.646;  294.865;  403.244
532.701;  113.194; -722.133; -751.760
532.983;  247.923;  232.867;  182.239
533.264;   86.039; -243.126;  175.228
533.546;  -27.411; -491.136; -508.755
533.827;   27.390;  173.867;   -1.759
534.109;   31.576; -352.135;  -80.757
534.390;  101.007; -725.132; -582.762
534.671;  276.971; -270.135;  -82.756
534.953;  178.527; -751.123; -611.779
535.234;   43.886; -426.117; -255.789
535.515;  -78.708; -891.119; -735.785
535.796;    2.128; -431.128; -193.770
536.078; -101.932;-1050.124; -904.777
536.359;   16.478;  -22.123;    3.221
536.640;  -17.349; -480.125; -197.774
536.921;  150.262;  225.871;  143.232
537.202;  465.564;  -87.138;  -16.751
537.483;  572.842;  251.869;  377.236
537.764;  216.221;   17.870;   98.235
538.045;  -26.644; -543.134; -371.758
538.326;  -25.510; -596.129; -447.768
538.607;   51.734; -686.127; -476.771
538.888;  226.571;   98.879;    5.218
539.169;  244.440; -704.122; -535.781
539.450;  369.661;  236.871;   16.233
539.731;  244.426; -361.121; -182.783
540.012;  143.232;  199.880;  412.216
540.293;   95.686;   82.876;  158.224
540.574;    2.504; -895.113; -717.796
540.855;  504.699;  435.879;  377.218
541.136;  604.961;   47.878;  139.220
541.416;  356.929; -161.130; -220.766
541.697;  274.287; -274.131; -170.763
541.978; 1421.899; -270.135; -315.757
542.259; 1815.534; -211.127; -236.771
542.539;  855.721; -191.116; -186.790
542.820;  194.057;  461.875;  480.225
543.101;  138.442;  -52.145;  -77.738
543.381;   38.084; -638.127; -591.771
543.662;  334.531;  159.873; -254.771
543.942;  869.504; -751.127; -830.770
544.223; 1449.188;  193.878;  161.219
544.504;  912.793; -275.124; -182.777
544.784;  773.366; -592.126; -408.773
545.065; 2257.876;  104.884; -254.791
545.345; 2677.292;  227.881;   14.215
545.626; 1706.528;  -14.113; -108.796
545.906; 1209.795;   77.869;   98.235
546.186;  500.122;   92.874;  -95.773
546.467;  269.746;   99.877;  -95.778
546.747;  438.796;  264.884;  327.210
547.027;  516.791;   91.876;  111.223
547.308;  488.428; -376.127; -530.770
547.588;  527.615;  299.871;  371.232
547.868;  225.897;  458.870;  588.235
548.149;  251.335;  609.885;  593.207
548.429;  183.007; -347.127; -299.771
548.709;  300.181; -645.120; -461.784
548.989;  663.929;   84.882;   88.213
549.269; 2827.026;   10.868;  139.239
549.550; 6577.101;  215.877;  117.222
549.830; 5835.449; -758.111; -556.799
550.110; 1144.283; -468.110; -320.801
550.390; 1158.882; -128.122;  -56.779
550.670; 1668.548; -868.114; -783.795
550.950; 1141.749; -509.121; -471.782
551.230;  225.219;  549.879;  460.218
551.510;   35.297; -381.121; -326.782
551.790;   60.293; -173.109; -127.803
552.070;  312.446;  940.877; 1181.223
552.350;  581.122; -492.119; -377.786
552.630;  785.566;   -2.121;   77.219
552.909;  452.202;  181.884;   73.209
553.189;  335.433;  -49.132;   33.237
553.469;  300.196; -703.119; -514.786
553.749;  298.586; -469.127; -357.772
554.029;  233.916;   33.883;  -24.790
554.308;  226.290; -154.115;  -37.794
554.588;  114.901; -196.128; -204.770
554.868;  113.174; -366.121;  -47.782
555.147;  211.936; -114.115;  -46.793
555.427;  788.329; -260.116; -250.792
555.707; 5253.259; -284.115; -200.793
555.986; 6485.853; -719.111; -538.800
556.266; 3279.970;   23.884;   72.210
556.546;  196.272; -888.121; -675.782
556.825;  355.395; -657.114; -556.794
557.105; 2385.899; -125.128;   17.230
557.384; 2840.775;  122.884;  187.209
557.664; 1088.929; -717.116; -508.792
557.943;  167.124; -557.121; -411.782
558.222;  260.182; -345.118; -344.788
558.502;  331.963; -116.115;  -76.793
558.781;  616.658;  194.885;  499.208
559.061;  551.357; -232.118; -227.788
559.340;  389.588;  302.883;  353.211
559.619;  960.395;   93.884;  148.210
559.899; 1431.740; -239.117; -266.789
560.178; 1272.638; -778.115; -593.793
560.457; 4135.992; -623.117; -562.790
560.736; 5893.880; -472.111; -482.800
561.015; 3822.021; -500.128; -502.769
561.295;  477.992;  180.893;  215.193
561.574;  405.960;  119.885;  116.207
561.853;  600.298;  274.891;  303.197
562.132;  675.641;  -45.114;  182.206
562.411;  558.242;  396.879;  553.219
562.690;  212.582; -592.115; -458.792
562.969;  166.411;  472.888;  630.203
563.248;  506.239; 2966.878; 2487.219
563.527;  385.354; -290.111; -408.800
563.806;  548.782; -650.127; -521.771
564.085;  582.310; -297.105; -206.810
564.364;  373.069; -594.117; -405.790
564.643;  701.467; -276.121; -223.781
564.922; 2490.791;  221.890;  397.198
565.201; 2546.545; -640.109; -700.803
565.479; 1099.706; -297.115; -219.792
565.758;  471.024; -810.128; -712.770
566.037;  679.846; -155.109; -100.803
566.316;  327.926; -286.116;  -28.791
566.595;   74.209;  -17.115;  -12.793
566.873;  105.931; -166.111;  -79.801
567.152;  -21.489; -490.113; -590.797
567.431;   34.496; -113.116;    6.210
567.709;   25.517; -344.107; -212.807
567.988;  404.895; -810.114; -769.794
568.266;  790.684; -160.115;  -68.793
568.545;  563.166; -644.100; -514.819
568.824;  786.455;  160.885;  356.208
569.102;  773.219; -351.114; -235.794
569.381;  334.754; -492.116; -407.792
569.659;  -26.944; -553.113; -553.796
569.938;   92.962; -743.122; -465.780
570.216;  177.675; -225.109; -225.804
570.494;    5.948; -632.114; -572.795
570.773;   39.672;  202.879;  114.218
571.051;   23.899; -373.123; -357.778
571.330;   80.929; -221.113; -174.796
571.608;   66.113; -181.098; -173.823
571.886;  -51.128; -671.111; -581.799
572.164;  -23.751; -739.121; -621.782
572.443;  -29.461; -562.105; -512.811
572.721;  -24.208; -399.117; -289.790
572.999;    0.735; -280.117; -168.788
573.277;   99.407;  379.894;  620.191
573.555;  384.809;   94.894;   37.190
573.834; 1824.284;  -86.117; -114.788
574.112; 2069.595;  880.893;  811.193
574.390;  635.980; -143.111;  -96.801
574.668;   23.162;  -91.112;  -61.797
574.946;   21.834; -165.106; -187.810
575.224;   28.245;   71.891;  -16.803
575.502;    6.748; -200.116; -204.791
575.780;  -72.187; -767.112; -829.798
576.058;  259.679; 1589.889; 1004.200
576.336;   -3.589; -210.110; -129.801
576.614;  -44.311; -511.112; -340.798
576.891;   91.264; -711.115; -823.794
577.169;  663.859; -158.108; -285.805
577.447;  750.719;  169.893;  202.193
577.725;  343.994;  629.888;  854.201
578.003;   19.242;  -71.112; -371.798
578.280;  115.425; -208.104; -242.812
578.558;   92.713; -450.115; -422.793
578.836;  154.748; -210.114; -145.795
579.114;   61.937; -630.112; -670.797
579.391;   72.811;   -6.117;  -18.789
579.669;  -41.685; -595.114; -704.794
579.947;  221.140; -326.107; -127.806
580.224;  462.040; -692.107; -524.806
580.502;  421.420;  127.893;   76.193
580.779;   37.668;  -42.117;   75.210
581.057;  -49.150; -584.109; -470.804
581.334;  -75.407; -726.102; -695.815
581.612;   46.785;   54.895;  511.190
581.889;  -10.591;  -83.101; -129.818
582.167;   -6.424; -298.099; -190.821
582.444;  -77.148; -845.102; -814.817
582.721;  110.028;  657.899;  715.183
582.999;   76.748; -326.100; -167.821
583.276;  748.754; -812.123; -713.779
583.553; 1003.772; -364.102; -294.816
583.831;  355.721; -607.104; -631.812
584.108;   62.757;  349.892;  174.195
584.385;   38.667; -122.102;  -98.815
584.662;  -52.043; -651.111; -828.801
584.940;   43.731;  204.889;  204.199
585.217;  -10.769;  -73.113; -303.796
585.494;   59.792;   71.890;  118.198
585.771;  304.801; -250.109; -354.804
586.048;  715.831; -196.113;  -76.796
586.325;  476.435; -721.110; -773.801
586.602;  132.201;  230.896;  213.188
586.879;   12.994; -499.100; -580.820
587.156;   95.086; -156.105; -331.810
587.433;   -5.075; -701.102; -667.817
587.710;  106.789;  152.888;  234.202
587.987;  434.643; -264.105; -236.811
588.264; 1106.591;  315.888;  387.202
588.541; 1786.604;  -61.104;   26.187
588.818; 3683.354;   72.892;  171.196
589.095; 3127.798; -163.104; -174.812
589.371;  529.148; -459.109; -414.804
589.648;   49.345; -581.107; -437.807
589.925;   79.499; -517.114; -621.795
590.202;   57.789; -741.112; -607.798
590.478;  134.720; -166.105;  -73.811
590.755;  360.836; -241.108; -132.806
591.032; 3363.513; -741.110; -699.802
591.308; 4736.111; -732.094; -790.831
591.585; 2394.137; -573.110; -560.802
591.862;  229.502;-1056.102; -950.817
592.138;  136.983; -475.108; -474.805
592.415;  233.577; -486.104; -495.813
592.691; 1982.274;  460.896;  518.188
592.968; 2663.815; -208.098; -123.824
593.244; 1296.346; -695.116; -595.790
593.521;  109.802; -105.102;  -42.817
593.797;   38.559; -810.122; -720.780
594.074;  491.155; -611.096; -588.826
594.350;  887.594;  828.905;  729.172
594.626;  433.082; -303.111; -283.801
594.903;  208.453; -643.101; -645.817
595.179;  254.056;  243.896;  418.187
595.455;   26.496; -136.107; -150.807
595.731;   18.008;  -19.103;  -38.814
596.008;  -17.500; -464.111; -434.800
596.284;   75.497; -187.100; -242.820
596.560;  127.494; -501.093; -493.833
596.836;  290.489; -173.105;  -70.810
597.112;  521.534; -582.108; -437.805
597.388;  420.078;  -49.097;  -48.826
597.665;  145.009;  437.887;  530.203
597.941;  -37.071; -572.089; -658.839
598.217;   52.341; -323.110; -293.802
598.493;  358.003;   61.891; -204.804
598.769;  708.065; -175.100;  -50.819
599.045;  430.312; -490.108; -562.806
599.321;   93.770; -193.100; -261.820
599.597;  212.027; -355.109; -476.804
599.872;  653.978;  409.896;  429.187
600.148;  503.005;  -61.097; -172.826
600.424;  404.168;   91.893;  202.193
600.700;  341.846; -170.107; -280.807
600.976;  206.498; -442.097; -464.825
601.252;  368.973; -226.109; -272.803
601.527;  350.305; -833.104; -840.813
601.803;  233.395; -453.105; -404.812
602.079;  256.290; -124.100; -118.819
602.354;  778.731; -620.092; -531.835
602.630; 1144.356; -140.113; -482.796
602.906; 3003.684; -910.101; -863.818
603.181; 8965.447; -627.119; -534.786
603.457; 7540.527;   98.903; -278.826
603.733; 1131.352; -605.120; -626.783
604.008; 1267.160; -245.106; -164.810
604.284; 4186.955; -636.101; -580.817
604.559; 3613.894;   -3.112;  -42.799
604.835;  666.463; -163.105; -225.810
605.110;  595.827; -732.099; -892.821
605.385;  928.072;  224.907;  267.167
605.661;  882.672; -625.095; -729.829
605.936; 1644.113; -664.108; -737.806
606.211; 1352.691;  -17.103; -170.815
606.487;  303.543; -329.114; -376.794
606.762;   78.172; -791.119; -745.786
607.037;   21.614; -501.105; -433.810
607.313;  -20.261; -589.096; -574.828
607.588;    5.684; -375.106; -137.810
607.863;   65.733;  -28.101; -143.818
608.138;  240.790;  513.890;  516.198
608.413;  102.481; -576.099; -592.822
608.688;   90.133; -203.108; -267.805
608.964;  278.303; -509.106; -218.809
609.239;  360.260; -107.105; -212.810
609.514;  348.920;  281.895;  240.188
609.789;  952.600; -187.104; -716.812
610.064; 1241.238; -435.096; -609.827
610.339; 1190.898; -855.109; -799.804
610.614; 1610.771; -131.100; -315.820
610.889;  867.520;  215.895;  107.188
611.163;   84.121; -407.104; -591.812
611.438;  151.744;   81.886; -167.794
611.713;   51.255; -467.101; -499.817
611.988;  116.282; -144.101; -328.818
612.263;   14.268; -771.102; -717.815
612.538;  263.055;  385.887;  251.204
612.812;  287.197; -832.100; -911.820
613.087;  215.638; -358.098; -338.823
613.362;  -17.904; -497.107; -557.807
613.637;   53.861;  261.897;  138.186
613.911;    0.281; -256.092; -345.835
614.186;  179.694; -249.107; -292.807
614.460;  957.244; -842.081; -758.854
614.735; 1068.582;  -55.087;  -17.843
615.010;  220.820;   43.912;  -82.841
615.284;  333.983;  360.892;  246.195
615.559;  573.355; -792.092; -955.835
615.833;  446.954;  -76.099;  -87.822
616.108;   18.744; -225.090; -390.837
616.382;  187.484;  274.913;  402.156
616.656;  221.845; -241.090; -232.837
616.931;  707.655; -785.099; -700.822
617.205; 1510.205; -973.104; -979.813
617.480; 1327.880;  -91.125;    6.225
617.754;  260.202; -396.125; -128.774
618.028;   54.791; -369.129; -382.768
618.302;   98.981;   73.892;  -25.805
618.577;  -13.137; -371.103; -518.815
618.851;  -48.831; -399.109; -600.803
619.125;  -21.512; -335.134; -378.759
619.399;  -17.194; -244.104; -374.813
619.673;  -33.345; -330.115; -515.792
619.947;  -23.402; -333.114; -448.795
620.222;   13.158; -198.110; -204.801
620.496;   15.199;  -47.121;  -96.782
620.770;   53.989; -187.122;  -93.781
621.044;  271.336;  323.895;  346.190
621.318; 1047.828; -653.120; -614.783
621.592;  927.675; -430.121; -409.783
621.866;  522.495; -476.112; -572.799
622.140;   50.473; -207.116; -356.791
622.413;   90.725;  138.889;  112.200
622.687;  -20.745; -746.101; -492.817
622.961;   34.631; -130.108; -143.805
623.235;  -31.999; -633.111; -661.800
623.509;  -79.180; -816.105; -848.811
623.783;    9.516;  -12.107;   48.193
624.056;    3.604; -254.120; -280.783
624.330;   67.612;   63.888;   -3.797
624.604;   89.269; -271.116; -355.790
624.877;   94.738;  180.890;   26.198
625.151;   79.292; -249.114; -238.794
625.425;  -40.617; -150.103; -283.814
625.698;  -35.185; -367.119; -374.785
625.972;  -75.734; -799.110; -765.802
626.245;   75.321;  685.884;  484.210
626.519;  -37.941; -426.120; -340.784
626.792;  -17.329; -192.107; -380.807
627.066;  -63.794; -485.122; -662.779
627.339;  -77.713; -736.110; -663.802
627.613;   51.632;  351.880;  148.216
627.886;   70.444;  187.891; -612.803
628.160;   12.252;  312.880; -161.783
628.433;  -76.142; -695.125; -703.775
628.706;  -68.291; -517.120; -615.784
628.979;   37.141;  296.876;  117.223
629.253;  -61.004; -785.119; -833.786
629.526;  497.889; -334.126; -253.772
629.799;  498.199; -641.123; -479.778
630.072;  237.818; -497.128; -516.769
630.346;  -30.779;-1115.116;-1080.790
630.619;  635.747; -467.107; -545.808
630.892;  821.777;  709.889;  593.200
631.165;  417.330;  790.896;  679.187
631.438;  -52.884;-1092.112;-1055.798
631.711;   79.603;  453.877;  257.221
631.984;  -47.285; -523.117; -624.789
632.257;  -43.039; -636.117; -681.789
632.530;  -43.135; -412.119; -433.785
632.803;   32.289; -109.115;    7.207
633.076;  -58.980; -360.123; -422.777
633.349;   16.948;  173.872;  121.231
633.622;  -41.286; -187.119; -240.785
633.895; -115.246; -903.120; -823.783
634.167;  -64.133; -496.126; -525.773
634.440;    6.729;  -19.116; -137.792
634.713;    1.494;  -22.119; -120.786
634.986;   87.986;  593.871;  453.233
635.258;  -60.813; -507.115; -597.793
635.531;   99.131;  742.882; -343.788
635.804;  -27.461; -303.117; -318.789
636.077;  -74.626; -830.116; -852.791
636.349;   11.885; -586.115; -474.793
636.622;  407.314; 1695.874; 1392.228
636.894;  346.684; -474.120; -909.784
637.167;  250.256; -836.127; -789.771
637.439;   56.952; -278.128; -213.770
637.712;  -37.709; -312.126; -293.772
637.984;  -69.125; -635.116; -707.791
638.257;  491.871;  515.877;  488.222
638.529;  867.934; -881.125; -924.776
638.802;  386.118; -508.128; -449.769
639.074;  -86.837; -927.122; -952.781
639.346;  -95.772; -942.135; -930.757
639.619;   15.850;  -79.142; -319.744
639.891;   12.731;  -83.122; -168.779
640.163;  -74.617; -689.122; -756.780
640.435;   42.560;  273.878;  103.220
640.708;   11.812;  -72.122; -132.780
640.980;  -17.311; -366.122; -362.781
641.252;  247.792;  -25.121;  -71.781
641.524; 2409.469;  580.879;  573.219
641.796; 2562.271;-1094.121; -907.782
642.068;  479.448; -191.121; -300.782
642.340;  -34.975; -486.121; -566.783
642.613;   51.028;  294.880;  323.217
642.885;  -84.495; -787.120; -878.783
643.157;   11.957; -810.120; -658.784
643.428;   85.959;  170.880;  218.216
643.700;  -43.414; -498.120; -425.784
643.972;  -34.686;  -16.119; -133.785
644.244;  -80.059; -474.119; -559.785
644.516;  -40.607; -250.119; -114.786
644.788;   69.145;  662.881;  548.214
645.060;  -23.353;  -12.119; -124.786
645.332;  -83.525; -525.118; -535.787
645.603;   39.252;  479.882;  342.213
645.875;  -56.646; -334.118; -369.787
646.147;  160.406; 1487.882; 1242.212
646.418;  -21.317; -931.117; -918.788
646.690;  234.611; -714.117; -715.789
646.962;   75.588; -413.117; -451.789
647.233;   -9.985;   15.883;   11.211
647.505;  -94.808; -595.117; -475.790
647.776;   29.319;  328.884;  229.210
648.048;   28.747; -248.116; -418.790
648.320;  -53.201; -752.116; -679.791
648.591; -137.649;-1055.116; -958.791
648.862;  -77.547; -505.116; -577.792
649.134;   21.980;  115.885;  198.208
649.405;  -11.717; -661.115; -618.792
649.677;  -32.515; -475.115; -598.793
649.948;   14.812; -181.115; -296.793
650.219;   14.789;  -37.115; -147.793
650.491;  -72.784; -431.114; -520.794
650.762; -109.006; -705.114; -731.794
651.033;  -66.779; -437.114; -424.795
651.304;  -57.752; -743.114; -728.795
651.576;  -41.225; -680.114; -645.795
651.847;  -34.873; -250.113; -140.796
652.118;  -18.395;  -32.113; -189.796
652.389;  -89.243; -639.113; -722.796
652.660;  -41.866; -147.113;  -89.797
652.931; -127.389; -897.112; -871.797
653.202;  -83.687; -382.112; -541.798
653.473;  -54.884; -633.112; -533.798
653.744;  243.018; -595.112; -590.798
654.015;  239.220; -356.112; -303.799
654.286;  -59.703; -642.111; -663.799
654.557;  -35.676; -586.111; -521.799
654.828; -143.298;-1114.111;-1088.800
655.099;  -65.171; -404.111; -291.800
655.370;  -87.419; -427.111; -543.801
655.641; -101.417; -656.110; -714.801
655.911; -108.865; -618.110; -638.801
656.182;   62.912;  437.890;  387.198
656.453;   90.740;  830.890;  746.198
656.724;  -59.558; -466.110; -426.802
656.994;  -75.406; -553.109; -568.803
657.265;  -91.204; -862.109; -873.803
657.536;  -68.052; -500.109; -377.804
657.806;  -82.424; -561.109; -593.804
658.077; -126.422; -866.109; -950.804
658.347;  -80.895; -523.108; -598.805
658.618;  -98.668; -646.108; -694.805
658.888;  -19.916;  -41.108;  112.195
659.159;  -67.663; -432.108; -548.806
659.429;    4.864; -292.108; -349.806
659.700;   35.191; -435.107; -390.807
659.970;   22.643; -370.107; -359.807
660.241;   75.820; -754.107; -921.807
660.511;  697.898; -147.107; -174.808
660.781;  197.525; -793.106; -748.808
661.052;  -21.973; -222.106; -381.808
661.322;  -21.396;   21.894;   -9.809
661.592;   24.231;  257.894;  148.191
661.862;  -61.191; -369.106; -382.810
662.133;  -79.614; -551.105; -502.810
662.403; -109.187; -770.105; -676.810
662.673;  -37.285; -256.105; -213.811
662.943;  -86.008; -612.105; -551.811
663.213;   20.320;  -85.105;  -81.811
663.483;  -90.178; -593.104; -568.812
663.753;  -42.701; -194.104; -152.812
664.023;  -13.499;   68.896;  -32.813
664.293;  -53.222; -319.104; -126.813
664.563; -107.619; -694.104; -648.813
664.833; -100.267; -743.103; -608.814
665.103; -116.390; -730.103; -793.814
665.373;  -90.588; -766.103; -806.814
665.643;  -50.011; -863.103; -918.815
665.913;   89.242; -534.103; -714.815
666.182;  240.894; -685.102; -719.816
666.452;  395.896;  -22.102;  -89.816
666.722;   24.173; -724.102; -784.816
666.992;  -96.450; -948.102; -921.817
667.261;  -71.497; -824.102; -808.817
667.531;  306.055;  134.899;   45.183
667.801;  914.732; -440.101; -412.818
668.070;  346.284;  714.899;  697.182
668.340;  -81.664; -883.101; -840.819
668.609;  113.664;  588.900;  301.181
668.879;  -59.234; -490.100; -558.819
669.149;  -59.332; -539.100; -516.820
669.418;  -97.630; -698.100; -726.820
669.688;    3.572; -482.100; -666.820
669.957;  132.400; -423.099; -546.821
670.226;    8.527; -268.099; -331.821
670.496;  -82.146; -431.099; -635.822
670.765;  -73.794; -418.099; -501.822
671.034; -127.442; -872.099; -828.822
671.304;    1.011;   55.902; -111.823
671.573; -141.262;-1085.098; -957.823
671.842;  147.865; -380.098; -294.823
672.112;   86.867; -692.098; -586.824
672.381;   41.694; -239.098; -214.824
672.650; -118.228;-1005.097;-1021.825
672.919;  -70.401; -631.097; -507.825
673.188;  -85.449; -681.097; -878.825
673.457; -117.822;-1101.097;-1143.826
673.726;  -78.770; -579.096; -646.826
673.995;  -21.467; -533.096; -479.826
674.265;   10.035; -263.096; -333.827
674.534;   41.437; -183.096; -235.827
674.802;   42.589; -618.096; -703.828
675.071; 1282.141; -886.095; -801.828
675.340; 5408.219; -464.095; -339.828
675.609; 1773.221;  103.905;   82.171
675.878;  150.148; -949.095; -893.829
676.147;   71.225;  -26.095;   -8.829
676.416;  121.202; -210.094; -294.830
676.685;  947.630; 1000.906; -622.830
676.953;  190.307; -603.094; -452.831
677.222;    2.134; -193.094; -273.831
677.491;  -24.989;  -24.094; -127.831
677.759;    3.088;   11.907;  172.168
678.028;   -5.110; -279.093; -222.832
678.297;    8.093;   71.907;  197.168
678.565; -120.905; -898.093; -944.833
678.834;  -27.078; -311.093; -268.833
679.102;  -71.401; -411.092; -391.834
679.371; -138.199; -898.092; -727.834
679.639; -122.871; -797.092; -786.834
679.908; -111.519; -794.092; -724.835
680.176; -139.292; -895.091; -941.835
680.445;  -66.690; -346.091; -352.835
680.713;  -31.088;  -58.091;  -23.836
680.982;  -86.235; -523.091; -525.836
681.250;  -88.558; -578.091; -507.837
681.518;  -89.756; -534.090; -751.837
681.787;   -9.879; -204.090; -167.837
682.055;  -38.327; -490.090; -422.838
682.323; -130.149; -993.090; -992.838
682.591;   65.053; -216.090; -538.838
682.859;  136.505;    9.911;  -35.839
683.128;   34.857;  232.911;  497.161
683.396; -148.591;-1102.089;-1122.840
683.664;  -30.038; -241.089;   21.160
683.932;   -4.161;  144.911;  -76.840
684.200;  -75.084; -576.088; -320.841
684.468;  -21.207;  -73.088; -124.841
684.736;  -30.680; -214.088; -175.841
685.004; -105.402;-1024.088; -982.842
685.272;   -2.750; -880.088; -774.842
685.540;  -42.348; -499.087; -557.843
685.808;  -56.921; -651.087; -682.843
686.076;  -72.994; -894.087; -969.843
686.343;  -30.066; -601.087; -815.844
686.611;   72.986; -195.087; -224.844
686.879;  561.563; -530.086; -553.844
687.147; 4393.290; -483.086; -480.845
687.414; 1274.342;  -12.086; -169.845
687.682;   45.470; -658.086; -757.846
687.950;  392.697;  259.915;  263.154
688.217;   68.474; -792.085; -760.846
688.485;   33.301; -632.085; -636.847
688.753;  720.653;  -11.085; -102.847
689.020;  302.281; -820.085; -851.847
689.288;  -79.617; -853.084; -787.848
689.555;   -8.515; -195.084; -148.848
689.823;  -33.838; -241.084; -345.849
690.090;  -67.211; -546.084; -651.849
690.358; -136.233; -877.084; -897.849
690.625;    7.319;  120.917;   45.150
690.892;  -61.279; -403.083; -369.850
691.160;   -3.652;   72.917;  -35.850
691.427;   -0.125;  141.917;  130.149
691.694; -111.972; -855.083; -929.851
691.962; -127.345;-1177.082;-1060.852
692.229;   34.282;  127.918;   56.148
692.496;  101.559;  130.918;  -49.852
692.763;   35.961; -164.082; -201.853
693.031;  -61.786; -739.082; -716.853
693.298;   -3.634; -509.081; -368.853
693.565;  386.818; -155.081; -163.854
693.832; 1747.220;   -5.081;   -9.854
694.099;  224.397; -643.081; -642.855
694.366;  -11.500; -882.081; -896.855
694.633;  -11.773; -920.080; -633.855
694.900;  757.579; 4367.920; -114.856
695.167;  550.756; -214.080; -380.856
695.434;  176.458; -646.080; -623.856
695.701;  247.861;  121.921;  -61.857
695.968;  616.588; -365.079; -361.857
696.234; 1170.415; -415.079; -646.858
696.501;12496.742; -776.079; -614.858
696.768; 6807.619; -554.079; -617.858
697.035;  422.772; -632.078; -667.859
697.302;   87.849; -448.078; -552.859
697.568;   40.401; -458.078; -497.859
697.835;  -18.647; -683.078; -624.860
698.102;   -3.095; -498.078; -407.860
698.368;   84.833;  384.923;  396.139
698.635;   -6.040;  -47.077; -424.861
698.901;    1.637; -240.077; -348.861
699.168;  125.514; -534.077; -456.862
699.435;  105.616;  -72.077;  -13.862
699.701;  -77.382; -868.076; -764.862
699.968;   28.696;  144.924; -441.863
700.234;  -68.202; -783.076; -822.863
700.500;  -41.475; -448.076; -539.864
700.767;   27.352;   -1.075;   26.136
701.033; -117.071;-1015.075; -963.864
701.299;  -20.593; -450.075; -483.865
701.566;  123.609;  950.925;  763.135
701.832;   66.211;  -31.075;  -76.865
702.098;  -74.062;-1054.074;-1034.866
702.365;  -37.585;-1098.074;-1030.866
702.631;   27.568;-1038.074;-1063.867
702.897; 1751.145; -765.074; -676.867
703.163; 3159.347;  348.926;  254.133
703.429;  263.574; -256.073; -273.868
703.695;   -3.374; -796.073; -792.868
703.961;   51.554; -214.073; -210.868
704.227;  -39.519; -630.073; -725.869
704.493;  159.958;  613.927;  510.131
704.759;    0.885; -565.072; -540.870
705.025;   58.937; -203.072; -194.870
705.291;   45.365; -666.072; -562.870
705.557;  236.142;  719.928;   34.129
705.823;   84.194; -742.072; -694.871
706.089;  231.646; -307.071; -326.871
706.355;  463.723; -315.071; -244.872
706.620; 6884.126; -776.071; -729.872
706.886;10713.003; -309.071; -362.873
707.152; 1127.655; -818.070; -973.873
707.418;   58.982;-1153.070;-1186.873
707.683;   39.309; -550.070; -530.874
707.949;  -18.838; -547.070; -578.874
708.215;   31.239; -129.070; -207.874
708.480;   -2.159; -520.069; -420.875
708.746;  146.793;   68.931;   28.125
709.011;  -47.530; -578.069; -612.876
709.277;  -50.152; -538.069; -543.876
709.542;  -28.625; -428.069; -387.876
709.808;   27.202;  -59.068;   89.123
710.073;  -70.946; -577.068; -695.877
710.339;   -2.769; -242.068; -228.877
710.604;  138.384; -780.068; -845.878
710.869;  490.561; -277.068; -366.878
711.135;  -39.787; -715.067; -628.879
711.400;  -71.385; -507.067; -608.879
711.665;  -54.783; -404.067; -479.879
711.931;  -72.755; -661.067; -677.880
712.196;  -95.153; -876.067; -954.880
712.461;  185.199; -402.066; -490.880
712.726;  273.476; -727.066; -771.881
712.991;  -55.097; -647.066; -664.881
713.256;  -25.169; -350.066; -332.882
713.521;  -31.867; -417.065; -381.882
713.787;  -33.915; -454.065; -472.882
714.052;   10.037; -214.065; -400.883
714.317;  -62.686;-1045.065; -981.883
714.581; 1486.517; -374.065; -268.883
714.846; 2340.069; -822.064; -888.884
715.111;  214.296;  261.936;  257.116
715.376;    2.573;  -86.064; -223.885
715.641;   25.925; -365.064; -367.885
715.906;  433.503;   15.936; -551.885
716.171;  180.005;  221.937;  209.114
716.436;   72.282;  -78.063; -104.886
716.700;  -85.391; -818.063; -692.886
716.965; -111.264; -794.063; -807.887
717.230;  -54.561; -339.063; -392.887
717.494;  -13.484;  -40.062; -134.888
717.759;  -73.507; -784.062; -640.888
718.024;   19.045;  269.938;  250.112
718.288;   99.447;  685.938;  395.111
718.553; -130.250; -803.062; -977.889
718.817; -128.773; -883.061; -899.889
719.082;  -36.946; -115.061; -125.890
719.346; -127.919;-1000.061; -947.890
719.611;  -56.992; -300.061; -255.891
719.875;  -67.864; -568.060; -537.891
720.140;  -46.487; -453.060; -603.891
720.404;   64.365; -136.060; -249.892
720.668; 1148.467; -475.060; -411.892
720.933;  481.819;  146.940;  137.108
721.197;  -88.203; -667.059; -600.893
721.461; -104.451; -851.059; -826.893
721.725;   -5.249;  -21.059; -250.894
721.990;  -45.172; -284.059; -204.894
722.254;  -28.745;  -26.059; -108.894
722.518;  -58.093; -286.058; -442.895
722.782;  -69.015; -743.058; -594.895
723.046;  154.412;  614.942;  570.105
723.310;   30.564;  374.942;  210.104
723.574;  -82.684; -654.058; -614.896
723.838;  -97.682; -576.057; -642.897
724.102;  -26.104; -226.057; -239.897
724.366; -127.677;-1032.057; -978.897
724.630;  -72.550; -749.057; -571.898
724.894;  -66.373; -722.057; -514.898
725.158;   19.954;   38.944; -295.898
725.422;  -40.593; -394.056; -327.899
725.685;  -33.691; -441.056; -349.899
725.949;  -54.489; -566.056; -519.900
726.213;  -37.262; -732.056; -811.900
726.477;  283.315;-1020.055; -933.900
726.740;  238.293; -274.055; -104.901
727.004;  469.770; -384.055; -510.901
727.268; 4846.672; -442.055; -400.901
727.531; 1582.624; -961.055; -775.902
727.795;   16.676; -713.054; -673.902
728.059;  -27.296; -552.054; -557.903
728.322;  -39.044; -841.054; -669.903
728.586;   91.358; -692.054; -701.903
728.849;  -49.090; -695.053; -756.904
729.112;  -99.238; -812.053; -912.904
729.376;  -95.460; -959.053; -905.904
729.639;  -65.333; -536.053; -536.905
729.903;  -85.806; -733.053; -699.905
730.166;  -34.629; -437.052; -399.906
730.429;  -12.902; -317.052; -468.906
730.693;  -50.549; -355.052; -894.906
730.956;  232.653;  810.948;  651.093
731.219; 1016.030; -310.052; -103.907
731.482;  223.557;-1003.051; -894.907
731.745;  210.884; -794.051; -935.908
732.009;   46.212;  -30.051;   50.092
732.272;  -75.811; -904.051; -771.909
732.535;  -17.184; -300.051; -310.909
732.798; -122.732;-1083.050;-1166.909
733.061;  -36.755; -430.050; -456.910
733.324;   20.723;   31.950; -180.910
733.587;  106.950;  290.950;  365.090
733.850;  -46.923; -973.049;-1050.911
734.113;   67.279;   33.951;   32.089
734.376;   29.931; -328.049; -447.912
734.639;  260.909; 1188.951; 1011.088
734.901;  101.711; -180.049; -402.912
735.164;  696.838; -883.048; -837.913
735.427; 1883.215; -166.048; -355.913
735.690;  192.492; -205.048; -234.913
735.952;   18.095; -923.048; -925.914
736.215;   39.497;-1113.048;-1009.914
736.478;  101.974; -771.047; -774.915
736.740;  294.801;   33.953;  129.085
737.003;  796.553; -658.047; -672.915
737.266; 5448.731;  -94.047;   46.084
737.528;  659.808; -682.047; -660.916
737.791;  449.010; -316.046; -327.916
738.053;  983.462;  465.954;  649.083
738.316;13154.364; -162.046; -136.917
738.578;10888.692; -770.046; -736.918
738.841;  660.344; -382.046; -446.918
739.103;  289.046; -875.045; -777.918
739.365;  745.123;   79.955;  -69.919
739.628;   57.725; -884.045; -805.919
739.890;    5.003; -758.045; -710.919
740.152;   -2.220; -692.044; -754.920
740.414;   29.532; -408.044; -359.920
740.677;  -25.866; -785.044; -634.921
740.939;    4.761; -587.044; -487.921
741.201;  374.914; -432.044; -572.921
741.463;  111.441; -689.043; -745.922
741.725;   39.718;  -21.043; -199.922
741.987;   78.645;  220.957;  116.078
742.249;   63.947; -751.043; -859.923
742.511;  356.525; -703.043; -794.923
742.773;   75.477; -546.042; -546.924
743.035;  155.679;  796.958;  533.076
743.297;   -7.169; -963.042;-1013.924
743.559; 1036.683; -278.042; -262.925
743.821;  156.610; -735.042; -744.925
744.083;   37.588;  -44.041; -149.925
744.345;  -63.935; -869.041; -892.926
744.607;   67.417;   75.959;  122.074
744.868;  -23.531; -490.041; -554.927
745.130;  -65.879; -994.041;-1008.927
745.392;   74.424;   -1.040;  -44.927
745.653;   39.201; -411.040; -378.928
745.915;  175.053;  896.960;  631.072
746.177;   95.705;   35.960;  -43.928
746.438;   36.182; -428.040; -543.929
746.700;   11.585; -947.039; -988.929
746.961;   62.887; -659.039; -740.930
747.223;  225.614; -190.039;  -74.930
747.484;  167.766; -391.039; -471.930
747.746;  228.843;  -23.038; -106.931
748.007;  218.571; -647.038; -689.931
748.269;  436.723; -468.038; -440.931
748.530;  732.250; -852.038; -638.932
748.791;  420.252; -354.038; -420.932
749.053;  610.929;  286.963;  163.067
749.314;  680.832; -236.037; -169.933
749.575;  796.259; -945.037; -905.933
749.836; 1214.336; -217.037;   86.066
750.098; 3067.563;  -60.037;  -21.934
750.359;48777.240;  414.964;  555.066
750.620;14712.118; -121.036; -220.935
750.881; 1457.045; -585.036; -513.935
751.142; 1830.947; -950.036; -938.936
751.403;20799.374; -789.036; -705.936
751.664;11085.976;-1034.035; -999.936
751.925;  733.579; -175.035; -262.937
752.186;  412.381; -298.035; -278.937
752.447;  236.133; -590.035; -445.937
752.708;  108.135; -532.035; -648.938
752.969;   62.237; -566.034; -576.938
753.230;   39.840; -777.034; -672.939
753.491;   59.367; -650.034; -631.939
753.751;   99.369;  109.966;   19.061
754.012;  121.821;  258.967;  181.060
754.273;  104.323; -174.033;  -71.940
754.534;   70.001; -487.033; -580.940
754.794;  -54.072; -926.033; -911.941
755.055;  175.755; 1051.967;  881.059
755.316;  -10.518; -700.032; -566.942
755.576;    6.634; -606.032; -576.942
755.837;   -7.638; -527.032; -695.942
756.097;    5.164; -530.032; -564.943
756.358;  -42.784; -725.032; -770.943
756.618;    3.568; -705.031; -641.943
756.879;   43.945; -254.031; -349.944
757.139;  -78.402;-1098.031;-1116.944
757.400;  -28.575; -538.031; -553.945
757.660;   16.777; -365.031; -401.945
757.920;   45.104; -266.030; -228.945
758.181;   21.906; -468.030; -351.946
758.441;  -82.041; -870.030; -809.946
758.701;    4.361; -308.030; -215.946
758.961;   -5.937; -220.030; -278.947
759.222;  -21.060; -574.029; -502.947
759.482;  -70.908; -683.029; -723.948
759.742;  -58.355; -706.029; -547.948
760.002;   24.772;  -83.029; -143.948
760.262;   31.099;   50.972;  182.051
760.522;  -25.374; -498.028; -574.949
760.782;  -33.397; -738.028; -612.949
761.042;  -24.794; -618.028; -573.950
761.302;   77.033;   55.972;  -18.950
761.562;   54.685; -164.027; -154.951
761.822;  130.762; -710.027; -551.951
762.082;  -13.386;-1104.027;-1093.951
762.342;   89.142; -328.027; -403.952
762.601;   76.569; -567.027; -506.952
762.861;  429.321; -281.026; -207.952
763.121;  408.298; -406.026; -411.953
763.381; 6509.125; -499.026; -485.953
763.640; 8725.253; -139.026; -307.954
763.900;  392.180; -242.026; -203.954
764.160;   89.032; -458.025; -491.954
764.419;    3.109; -726.025; -782.955
764.679;  -64.639; -795.025; -726.955
764.939;  -17.962; -124.025; -210.955
765.198;  -66.009; -608.025; -563.956
765.458;  -71.907; -710.024; -612.956
765.717;  -64.305; -454.024; -590.957
765.976;  -53.128; -428.024; -411.957
766.236;  -59.601; -475.024; -610.957
766.495;   28.152;  260.977;   73.042
766.755;  -61.471;-1090.023; -987.958
767.014;   49.031; -594.023; -665.958
767.273;  -51.292; -373.023; -397.959
767.533;  -21.265; -228.023; -307.959
767.792;  -32.937; -151.022; -188.960
768.051;  -34.710; -228.022; -276.960
768.310;  -81.208; -546.022; -650.960
768.569;    1.844; -161.022;    4.039
768.828;  -18.654; -285.022; -363.961
769.088;  -85.101;-1050.021; -942.961
769.347;  -64.624; -755.021; -599.962
769.606;  -67.272; -876.021; -857.962
769.865;  -94.895;-1016.021;-1033.963
770.124;   14.257; -411.021; -336.963
770.383;  -34.515; -778.020; -910.963
770.641;   50.662; -398.020; -400.964
770.900;  -43.911; -953.020; -846.964
771.159;   -1.959; -851.020; -951.964
771.418;   11.718; -917.020; -779.965
771.677;  168.746; -224.019; -293.965
771.936;  206.273; -794.019; -865.966
772.194; 2304.325; -465.019; -437.966
772.453;13843.227; -213.019; -391.966
772.712; 1046.054;  416.982;  329.033
772.970;  147.832;   32.982;   63.033
773.229;  114.984;  -22.018;  102.033
773.488;  -63.539; -814.018; -770.968
773.746;   67.963;  296.982;  335.032
774.005;   16.840;  190.983;  -22.969
774.263;   22.868;  243.983;  177.031
774.522;  -44.305; -422.017; -548.969
774.780;  -65.203; -484.017; -417.970
775.039;  -71.076; -551.017; -531.970
775.297;   -4.324; -135.016; -351.970
775.555;  -93.146; -489.016; -612.971
775.814; -106.269; -618.016; -570.971
776.072; -117.042; -749.016; -740.971
776.330;  -82.640; -630.016; -520.972
776.589; -117.913; -703.015; -721.972
776.847; -108.135; -645.015; -624.973
777.105; -151.683;-1016.015;-1032.973
777.363;  -73.831; -459.015; -454.973
777.621; -140.154; -660.015; -717.974
777.879;  -16.777;  -42.014;   32.026
778.138;  -96.149; -554.014; -717.974
778.396;  -82.397; -585.014; -526.975
778.654; -141.970;-1015.014; -970.975
778.912;  -62.168; -269.014; -371.976
779.170; -131.616; -880.013; -803.976
779.427; -125.488; -922.013; -897.976
779.685; -126.361; -880.013; -832.977
779.943;  -58.659; -654.013; -593.977
780.201; -144.782; -964.012; -883.978
780.459; -106.255; -651.012; -610.978
780.717;  -79.552; -440.012; -390.978
780.974;  -75.225; -449.012; -490.979
781.232;  -62.648; -358.012; -338.979
781.490;  -54.896; -551.011; -472.979
781.747;  -82.819; -555.011; -476.980
782.005;   25.909;  462.989;  254.020
782.263; -162.389; -542.011;-1004.981
782.520;  -68.787; -326.011; -501.981
782.778; -154.535;-1013.010;-1051.981
783.035; -156.808; -962.010; -938.982
783.293;  -68.905; -248.010; -206.982
783.550;  -42.678; -134.010; -198.982
783.808; -136.401; -764.010; -776.983
784.065; -146.624; -745.009; -874.983
784.322;  -53.922;   25.991;  -86.984
784.580; -133.494; -915.009; -771.984
784.837;  -89.042; -392.009; -466.984
785.094; -112.590; -783.009; -762.985
785.352;  -69.963; -304.008; -404.985
785.609;  -70.661; -934.008; -839.985
785.866;  -79.359; -345.008; -401.986
786.123;  -36.756; -639.008; -583.986
786.380;  -86.004; -665.008; -604.987
786.637;  -24.452; -225.007; -380.987
786.895;   33.800; -456.007; -543.987
787.152;  -44.598; -135.007; -267.988
787.409;  -46.645; -123.007; -225.988
787.666;  -75.543; -299.006; -378.988
787.923;  -97.541; -616.006; -695.989
788.179;  -92.714; -551.006; -584.989
788.436;  -95.937; -585.006; -585.990
788.693;  -23.359;  -92.006;  -87.990
788.950;  165.243; -125.005; -112.990
789.207;  367.870; -381.005; -372.991
789.464;  -52.378; -161.005; -301.991
789.720;   -9.001;  150.995;  110.009
789.977; -163.173;-1003.005; -671.992
790.234;  -16.321;   44.996;  -66.992
790.490; -146.744; -884.004;-1031.993
790.747;  -16.292;  -85.004;   22.007
791.004;   -6.240; -426.004; -348.993
791.260;  -69.937; -430.004; -560.994
791.517;  -84.935; -843.003; -788.994
791.773;  -24.958; -379.003; -342.994
792.030; -103.406; -596.003; -660.995
792.286;  -84.504; -686.003; -636.995
792.543;   -7.951;  -74.002; -159.995
792.799;  -43.649; -584.002; -382.996
793.055; -154.197;-1179.002;-1210.996
793.312;  -78.295; -827.002; -816.997
793.568;  -54.843; -746.002; -599.997
793.824;   25.735; -226.001; -284.997
794.081;   31.412; -447.001; -508.998
794.337;   66.189; -664.001; -561.998
794.593; 1047.716; -319.001; -271.999
794.849; 6858.818; -746.001; -772.999
795.105;  406.696; -270.000; -261.999
795.361;   35.173; -490.000; -457.000
795.617;  -49.525; -875.000; -945.000
795.873;  -21.925; -360.000; -407.000
796.129;  -24.675; -368.000; -306.000
796.385;   -8.850; -124.000; -156.000
796.641;   67.250;  412.000;  550.000
796.897;  -58.875; -666.000; -635.000
797.153;   64.675;  453.000;  357.000
797.409;  -69.000; -785.000; -868.000
797.665;  -65.250; -625.000; -732.000
797.921;  -49.250; -775.000; -762.000
798.176;  -25.725; -744.000; -747.000
798.432;  -24.375; -824.000; -596.000
798.688;  -39.725;-1174.000;-1078.000
798.943;  126.675; -165.000; -147.000
799.199;   49.775;-1005.000; -959.000
799.455;  292.750;  369.000;  316.000
799.710;  214.975; -813.000; -380.000
799.966;  414.500; -162.000; -160.000
800.221;  622.000; -638.000; -721.000
800.477;11969.775; -743.000; -710.000
800.732;13661.075; -773.000; -800.000
800.988;  829.375;  205.000;  -19.000
801.243; 1719.425; -454.000; -344.000
801.498; 9321.250; -814.000; -739.000
801.754;  633.425; -289.000; -163.000
802.009;  146.250; -257.000; -335.000
802.264;  -11.200; -967.000;-1033.000
802.520;   47.325;  222.000;   -3.000
802.775;  -31.150; -524.000; -359.000
803.030;   61.875;  395.000;  356.000
803.285;  -99.000; -840.000; -903.000
803.540;  -38.900; -686.000; -699.000
803.795;  -15.250; -648.000; -583.000
804.051;  -12.550; -279.000; -346.000
804.306;   25.900;  168.000;  128.000
804.561;  195.675;  451.000;  362.000
804.816;  135.325;  714.000;  861.000
805.071;   19.550; -185.000; -280.000
805.325;  298.575; -257.000; -427.000
805.580;  -75.200; -841.000; -877.000
805.835;  -18.275; -204.000; -297.000
806.090;  -47.325; -760.000; -676.000
806.345;  -11.650; -344.000; -264.000
806.600;   -3.950; -549.000; -632.000
806.854;  -18.825; -408.000; -538.000
807.109;    7.000; -493.000; -577.000
807.364;   22.575; -407.000; -328.000
807.618;   14.900; -415.000; -381.000
807.873;   84.825; -470.000; -494.000
808.128;  133.275; -257.000; -518.000
808.382;  121.475; -224.000; -332.000
808.637;   93.200; -440.000; -511.000
808.891;  199.600; -257.000; -180.000
809.146;  126.175; -902.000; -794.000
809.400;  299.550; -848.000; -923.000
809.654;  373.175; -779.000; -551.000
809.909;  521.675; -841.000; -927.000
810.163; 6041.700; -813.000; -651.000
810.418;20273.900; -940.000; -861.000
810.672; 1275.475; -685.000; -690.000
810.926;  742.975; -993.000; -973.000
811.180; 1317.650; -439.000; -372.000
811.434;28691.900;  240.000;  135.000
811.689;15086.425; -231.000; -365.000
811.943;  755.475; -936.000; -953.000
812.197;  367.600; -893.000; -671.000
812.451;  144.325; -379.000; -514.000
812.705;   -3.325; -809.000; -619.000
812.959;   -1.900; -263.000; -388.000
813.213;   -7.800; -283.000; -209.000
813.467;   62.950;  470.000;  253.000
813.721;  -95.825; -764.000; -792.000
813.975; -106.350; -826.000; -877.000
814.229;   47.250;  430.000;  353.000
814.482;  -67.250; -517.000; -566.000
814.736; -107.675; -766.000; -744.000
814.990; -122.625; -779.000; -872.000
815.244;  -36.700; -228.000; -285.000
815.497;  -89.825; -636.000; -601.000
815.751;   -9.725; -141.000;   82.000
816.005;  -84.550; -470.000; -586.000
816.258;  -61.675; -510.000; -363.000
816.512;  -96.650; -693.000; -610.000
816.766;    4.475;  121.000;  157.000
817.019;   14.100;  148.000;  149.000
817.273;  -95.025;-1000.000; -802.000
817.526;  -32.950; -206.000; -173.000
817.779;  -11.325;-1049.000; -960.000
818.033;  -23.275; -693.000; -807.000
818.286; -113.975; -725.000; -792.000
818.540;  -79.025; -403.000; -403.000
818.793;  -67.300; -402.000; -489.000
819.046;  -99.150; -582.000; -520.000
819.299;  -35.200; -157.000; -166.000
819.553; -130.225; -552.000; -592.000
819.806; -138.575;-1016.000; -838.000
820.059;  -60.600; -334.000; -354.000
820.312;   26.200;  152.000;  185.000
820.565;  -29.250;  110.000;  -27.000
820.818;  -34.275;  -59.000; -173.000
821.071; -155.575;-1041.000; -957.000
821.324; -104.775; -536.000; -540.000
821.577; -100.975; -457.000; -483.000
821.830;  -59.025; -270.000; -172.000
822.083; -119.300; -733.000; -288.000
822.336;  -41.100; -261.000; -167.000
822.589; -128.850; -805.000; -688.000
822.842; -123.250; -875.000; -770.000
823.094; -167.400;-1076.000;-1114.000
823.347; -113.650; -925.000; -729.000
823.600;   16.825;  402.000;  187.000
823.853;  -38.150; -311.000; -267.000
824.105;  -58.775; -331.000; -575.000
824.358;  -85.250; -617.000; -716.000
824.611;   37.850;  234.000;   40.000
824.863;  -14.500; -612.000; -591.000
825.116;   91.300;  -33.000;   27.000
825.368;  149.600; -366.000; -372.000
825.621;  235.625; -186.000; -240.000
825.873;  164.200; -704.000; -737.000
826.126;  697.550; -669.000; -641.000
826.378;14505.900; -389.000; -505.000
826.630; 4859.150; -890.000; -898.000
826.883;  147.550; -754.000; -693.000
827.135;   97.375; -279.000; -270.000
827.387;  -78.875; -893.000; -839.000
827.639;  -20.550;  -86.000;   32.000
827.892; -103.900; -742.000; -582.000
828.144; -131.000; -848.000; -804.000
828.396;  -12.925;  104.000;  -80.000
828.648; -112.425; -440.000; -333.000
828.900; -125.775; -702.000; -795.000
829.152; -103.500; -684.000; -683.000
829.404;  -66.325; -215.000; -267.000
829.656;   -2.900;  321.000;  214.000
829.908;  -16.350;  393.000;  229.000
830.160; -153.875;-1064.000;-1047.000
830.412;  -81.150; -481.000; -430.000
830.664; -106.275; -557.000; -665.000
830.916;  -62.675; -268.000; -206.000
831.167; -171.250;-1073.000; -951.000
831.419;  -95.975; -623.000; -566.000
831.671; -134.925; -764.000; -809.000
831.923;  -81.450; -311.000; -447.000
832.174;  -69.575; -273.000; -331.000
832.426;  -95.375; -493.000; -582.000
832.678; -176.750;-1043.000;-1091.000
832.929; -156.800; -947.000; -935.000
833.181;  -45.725; -575.000; -677.000
833.432;  -36.450;  -59.000; -186.000
833.684;  -28.350;  112.000;  -27.000
833.935; -107.350; -610.000; -566.000
834.187; -118.400; -829.000; -823.000
834.438;  -45.450;  -58.000;  -25.000
834.689;  -51.100; -255.000; -123.000
834.941;  -45.375; -343.000; -244.000
835.192;  -88.550; -590.000; -533.000
835.443;  -85.375; -419.000; -506.000
835.695;   -2.575;  138.000;  -16.000
835.946;  -77.175; -608.000; -378.000
836.197; -105.150; -599.000; -622.000
836.448;  -84.775; -528.000; -395.000
836.699;  -43.825; -253.000; -341.000
836.950;   -9.075;   72.000;    7.000
837.201; -145.925;-1003.000; -987.000
837.452;  -41.775; -356.000; -170.000
837.703;  -87.575; -791.000; -737.000
837.954;  -29.975; -205.000; -365.000
838.205;  -70.325;-1029.000;-1008.000
838.456;  253.800; -196.000; -282.000
838.707;   39.375; -423.000; -519.000
838.958;   46.775; -634.000; -647.000
839.209;  373.875;   18.000;   40.000
839.460;  174.850; -439.000; -201.000
839.710;  219.325; -135.000; -297.000
839.961;  503.675;  730.000;  612.000
840.212;  433.725; -382.000; -497.000
840.462; 1298.250; -328.000; -277.000
840.713;20658.925; -571.000; -536.000
840.964;10990.600;  -62.000; -143.000
841.214;  669.075; -384.000; -624.000
841.465;  659.650; -214.000; -141.000
841.715;  557.850; -417.000; -380.000
841.966;  691.675; -746.000; -685.000
842.216; 7596.875; -330.000; -431.000
842.466;37208.800; -169.000; -313.000
842.717; 2855.725; -964.000; -952.000
842.967;  354.825; -635.000; -641.000
843.217;  307.725;   20.000;   28.000
843.468;   88.075; -104.000; -132.000
843.718;  -18.475; -718.000; -726.000
843.968;  -66.650; -837.000; -765.000
844.218;   35.075; -315.000; -262.000
844.469;  -23.575; -577.000; -561.000
844.719;  -98.100; -537.000; -682.000
844.969;  -93.450; -550.000; -580.000
845.219; -136.425; -814.000; -862.000
845.469;  -71.525; -392.000; -342.000
845.719; -135.050; -792.000; -884.000
845.969;   -1.000;  119.000;  174.000
846.219; -118.725; -738.000; -720.000
846.469;   30.100;  464.000;  432.000
846.718;  -49.500; -115.000;   31.000
846.968; -132.550; -827.000; -827.000
847.218;  -49.025; -224.000; -371.000
847.468;    8.625; -586.000; -555.000
847.718; -142.850; -827.000; -798.000
847.967; -107.275; -826.000; -915.000
848.217;  -81.775; -449.000; -569.000
848.467;  -53.475; -405.000; -376.000
848.716; -103.300; -708.000; -725.000
848.966;   39.975; -372.000; -358.000
849.215;  -56.125; -428.000; -419.000
849.465;  -68.700; -785.000; -615.000
849.714; -114.975;-1132.000;-1150.000
849.964;  -36.875; -551.000; -613.000
850.213;   -8.825; -393.000; -355.000
850.463;   96.950;  137.000;  340.000
850.712;   36.875; -542.000; -567.000
850.961;   89.800; -739.000; -678.000
851.211;  183.725; -513.000; -504.000
851.460;  266.250; -635.000; -650.000
851.709;  730.125;  -25.000;   18.000
851.958;12142.475; -912.000; -750.000
852.208;19513.875; -859.000; -879.000
852.457;  806.050; -181.000;  -13.000
852.706;  147.350; -791.000; -823.000
852.955;   87.100; -507.000; -528.000
853.204;  -38.125; -521.000; -461.000
853.453;  -53.175; -418.000; -458.000
853.702; -118.125; -660.000; -750.000
853.951;  -93.250; -532.000; -520.000
854.200;  -99.750; -613.000; -562.000
854.449; -112.475; -695.000; -661.000
854.698; -101.275; -340.000; -279.000
854.946;  -52.075; -181.000; -284.000
855.195; -141.575; -843.000; -868.000
855.444;  -92.475; -395.000; -420.000
855.693; -123.300; -345.000; -432.000
855.941;  -98.700; -387.000; -516.000
856.190;  -42.025; -256.000; -382.000
856.439; -116.900; -652.000; -703.000
856.687;  -64.450;  -99.000;  -72.000
856.936; -107.800; -621.000; -323.000
857.184; -193.150;-1067.000;-1020.000
857.433; -110.125; -423.000; -512.000
857.681; -149.100; -989.000; -953.000
857.930;  -62.000; -282.000; -433.000
858.178; -157.000; -856.000; -929.000
858.427; -136.700; -802.000; -781.000
858.675; -120.250; -377.000; -544.000
858.923; -100.200; -527.000; -819.000
859.172; -173.100;-1094.000;-1070.000
859.420;  -77.000; -339.000; -239.000
859.668; -135.150; -624.000; -628.000
859.916;  -15.575;  109.000;  115.000
860.164; -106.150; -699.000; -603.000
860.413;  356.900; -878.000; -696.000
860.661;  429.125; -709.000; -577.000
860.909;  -69.225; -339.000; -325.000
861.157;  -89.700; -277.000; -444.000
861.405; -109.900; -534.000; -670.000
861.653;   15.925;  310.000;  310.000
861.901;  261.725; -543.000; -613.000
862.149;  102.475; -801.000; -824.000
862.396;  -58.000; -297.000; -187.000
862.644; -100.125; -368.000; -347.000
862.892;  -29.400;   98.000;  138.000
863.140; -114.725; -549.000; -530.000
863.388; -154.175; -815.000; -759.000
863.635; -125.250; -642.000; -601.000
863.883;  -16.475;  231.000;  190.000
864.131; -101.125; -288.000; -357.000
864.378; -121.125; -675.000; -540.000
864.626; -107.675; -347.000; -415.000
864.873; -111.775; -556.000; -505.000
865.121; -136.575; -714.000; -799.000
865.368;  -30.300; -173.000;   75.000
865.616;  -24.625;  -33.000;  -40.000
865.863;  -50.475; -462.000; -506.000
866.111;  -71.975; -795.000; -824.000
866.358;   79.300; -426.000; -420.000
866.605; 2813.075;  -64.000; -804.000
866.853; 3871.550; -621.000; -537.000
867.100;   37.675; -728.000; -775.000
867.347;  -69.250; -672.000; -611.000
867.594;  -66.050; -740.000; -714.000
867.841;  131.950;   97.000;   17.000
868.089; -130.325; -746.000; -698.000
868.336; -109.200; -477.000; -420.000
868.583; -143.050; -637.000; -741.000
868.830;  -53.775; -131.000; -170.000
869.077; -152.175; -859.000; -787.000
869.324; -119.175; -502.000; -458.000
869.571; -121.575; -398.000; -430.000
869.818; -112.750; -485.000; -439.000
870.065;  -87.625; -439.000; -513.000
870.311; -101.675; -456.000; -542.000
870.558; -102.025; -332.000; -311.000
870.805;  -88.600; -320.000; -384.000
871.052; -110.525; -494.000; -369.000
871.298;  -36.375; -204.000; -131.000
871.545;  -76.650; -151.000; -185.000
871.792;  -86.350; -173.000; -222.000
872.038;  -75.025;   43.000; -126.000
872.285; -106.400; -496.000; -387.000
872.532;  -94.850; -357.000; -387.000
872.778;   15.800;  556.000;  403.000
873.025;  -89.025; -384.000; -359.000
873.271;   13.200;  501.000;  578.000
873.517;  -28.150; -133.000; -209.000
873.764;   -5.625; -193.000;  -80.000
874.010;  -64.125; -143.000; -230.000
874.257;  -35.925;  123.000;   90.000
874.503; -128.150; -579.000; -479.000
874.749;  -59.700;   31.000;  275.000
874.995;  -77.175;  -80.000;  -20.000
875.242; -103.050; -540.000; -478.000
875.488; -121.025; -414.000; -439.000
875.734;  -36.475; -106.000; -234.000
875.980;  237.750; -872.000;-1032.000
876.226;  583.650; -157.000; -255.000
876.472;    6.175;  343.000;  237.000
876.718;  -39.825;  184.000;  158.000
876.964;  -35.075;   56.000;   55.000
877.210; -133.000; -547.000; -677.000
877.456; -127.225; -630.000; -557.000
877.702; -172.275; -821.000; -832.000
877.948; -123.225; -377.000; -497.000
878.193;   13.200;  361.000;  255.000
878.439;  -85.100; -487.000; -472.000
878.685;  -92.025; -272.000; -343.000
878.931; -121.275; -618.000; -676.000
879.176;  -83.875; -201.000; -201.000
879.422; -164.550; -933.000; -820.000
879.668;   56.100;   10.000;   79.000
879.913;  216.200;   53.000;  137.000
880.159;  -33.750; -112.000;  -17.000
880.404;  -61.225; -152.000; -162.000
880.650;  -21.425;   91.000;  141.000
880.895; -149.950; -670.000; -710.000
881.141; -123.275; -454.000; -428.000
881.386; -143.225; -503.000; -658.000
881.631;  -75.200; -311.000; -166.000
881.877;  -30.175;  112.000;  -13.000
882.122; -126.900; -684.000; -600.000
882.367;  -90.450; -136.000; -186.000
882.612;  -75.950;  -80.000; -176.000
882.858; -172.275; -877.000; -823.000
883.103;  -84.375; -297.000; -267.000
883.348; -162.150; -759.000; -852.000
883.593; -137.850; -677.000; -602.000
883.838;  -64.650; -311.000;  -24.000
884.083;   51.925;  353.000;  288.000
884.328;  -88.250; -564.000; -545.000
884.573;  -51.250; -196.000; -143.000
884.818;  279.100; -694.000; -531.000
885.063;  374.500; -348.000; -315.000
885.308;  -99.300; -475.000; -398.000
885.553;   -7.625;  245.000;  325.000
885.797; -130.050; -545.000; -615.000
886.042;  -47.100;    8.000;   58.000
886.287;  -98.675; -253.000; -211.000
886.532;  -50.425;   26.000;  204.000
886.776; -108.225; -407.000; -525.000
887.021; -129.175; -621.000; -574.000
887.265; -147.425; -685.000; -689.000
887.510; -128.350; -557.000; -496.000
887.755;  -86.325; -194.000; -164.000
887.999; -126.850; -552.000; -575.000
888.244;  -68.900;  -58.000;  161.000
888.488;  -16.300;  371.000;  393.000
888.732; -130.375; -368.000; -520.000
888.977; -111.300; -622.000; -567.000
889.221; -151.800; -683.000; -659.000
889.465; -106.950; -422.000; -566.000
889.710;  -74.925;  -56.000; -299.000
889.954;    0.775;  579.000;  467.000
890.198; -147.150; -584.000; -707.000
890.442; -138.825; -716.000; -712.000
890.687; -159.125; -800.000; -753.000
890.931;  -84.700; -273.000; -210.000
891.175; -128.325; -502.000; -500.000
891.419;  -68.975; -105.000; -110.000
891.663;  -92.325; -239.000; -112.000
891.907; -155.250; -801.000; -545.000
892.151; -175.450; -920.000; -815.000
892.395; -116.725; -274.000; -387.000
892.638;  -28.725;  408.000;  291.000
892.882; -173.650; -780.000; -867.000
893.126;   -3.375;  758.000;  558.000
893.370;  -96.750; -167.000; -168.000
893.614; -152.125; -714.000; -715.000
893.857;  -96.650; -183.000; -197.000
894.101; -136.900; -527.000; -631.000
894.345;  -63.225;  300.000;  150.000
894.588;    5.925;  569.000;  380.000
894.832;  -77.150; -178.000;  -84.000
895.075;  -85.550;   15.000;  -92.000
895.319; -117.900; -552.000; -420.000
895.563; -117.825; -413.000; -353.000
895.806; -131.575; -628.000; -741.000
896.049;  -58.675; -576.000; -368.000
896.293;  138.075;  527.000;  405.000
896.536;  -61.675; -465.000; -468.000
896.779;  -42.975; -149.000;   -1.000
897.023; -125.000; -751.000; -714.000
897.266;  -27.350;  325.000;  269.000
897.509; -183.550; -900.000; -901.000
897.752;  -55.625;  149.000;  171.000
897.996; -184.150; -972.000; -864.000
898.239;  -46.875;  168.000;  102.000
898.482; -121.375; -431.000; -453.000
898.725;  -23.300;  101.000;   53.000
898.968; -149.350; -609.000; -744.000
899.211; -105.300; -513.000; -361.000
899.454; -113.925; -633.000; -539.000
899.697;  -71.025;   90.000;  -43.000
899.940; -168.150; -761.000; -757.000
900.182; -107.825; -335.000; -405.000
900.425;  -96.000; -150.000; -298.000
900.668;  -27.900;  491.000;  350.000
900.911; -118.250; -292.000; -345.000
901.154;  -49.700;  141.000;   -3.000
901.396; -147.300; -407.000; -412.000
901.639; -136.575; -430.000; -496.000
901.882; -187.575; -790.000; -809.000
902.124;  -81.175;  -29.000; -143.000
902.367; -116.600; -315.000; -361.000
902.609; -115.600; -476.000; -453.000
902.852;  -98.600; -108.000; -260.000
903.094; -116.100; -458.000; -337.000
903.337;  -87.725;  -26.000;   53.000
903.579; -100.950; -228.000; -441.000
903.821; -161.825; -597.000; -744.000
904.064;  -54.525;   85.000;  127.000
904.306; -102.500; -126.000; -166.000
904.548; -117.450; -152.000; -366.000
904.790; -104.650; -195.000; -340.000
905.033; -114.450; -625.000; -577.000
905.275; -119.675; -513.000; -524.000
905.517;   53.125;  468.000;  256.000
905.759;  -29.750; -667.000; -761.000
906.001;  -91.675; -322.000; -369.000
906.243;  -48.500; -162.000; -224.000
906.485;  157.225; -265.000; -207.000
906.727;  215.175; -499.000; -542.000
906.969;   -9.500;  -30.000; -135.000
907.211;  158.900; -316.000; -382.000
907.453;  399.400; -188.000; -237.000
907.695;   73.050; -158.000; -385.000
907.936;   50.200;  818.000;  706.000
908.178;  -46.250;   92.000; -135.000
908.420;  -67.875; -111.000; -162.000
908.662; -131.800; -633.000; -682.000
908.903;  -68.125; -208.000; -123.000
909.145;  -68.050; -240.000; -305.000
909.386;   16.025;  315.000;  280.000
909.628;   53.575;  363.000;  397.000
909.870;   -6.000;   29.000;  264.000
910.111;  -81.250; -809.000; -949.000
910.353;   20.825; -123.000; -161.000
910.594;    7.650; -574.000; -606.000
910.835;   90.000; -265.000; -326.000
911.077;  151.025; -503.000; -604.000
911.318;  294.075; -505.000; -471.000
911.559;  445.900; -577.000; -880.000
911.801; 1240.450; -284.000; -280.000
912.042; 9059.375;  -50.000; -159.000
912.283;28038.775;  404.000;  371.000
912.524; 5570.200; -396.000; -457.000
912.765;  558.000; -193.000;   79.000
913.006;  259.575; -307.000; -338.000
913.247;   75.775; -270.000; -290.000
913.488;    8.525;  -43.000;   30.000
913.729;  -62.450; -373.000; -373.000
913.970;  -65.675;  -96.000; -292.000
914.211;  -65.300; -160.000; -198.000
914.452;  -69.450; -118.000;  -11.000
914.693;    4.500;  510.000;  592.000
914.934;   18.275;  510.000;  440.000
915.175;  -51.325;   53.000;  -95.000
915.415;  -70.550; -137.000;   27.000
915.656;  -54.375;  -28.000;  192.000
915.897;  -93.875; -252.000;  -82.000
916.137;  -56.475;   74.000;   -9.000
916.378; -128.025; -573.000; -517.000
916.619;  -83.750; -159.000;  -63.000
916.859;  -26.475;  303.000;  330.000
917.100;  134.650; 1655.000; 1070.000
917.340;   45.825;  930.000;  728.000
917.581;   42.300;  965.000;  789.000
917.821;  -11.025; -171.000;  143.000
918.061;   71.750; -199.000;  -72.000
918.302;  -45.575; -152.000; -211.000
918.542;    1.400;  -22.000;    3.000
918.782;   68.150;  369.000;  377.000
919.023;  183.200;  360.000;  427.000
919.263; 1913.525; 8131.000;  202.000
919.503; 1765.850; -137.000;  -54.000
919.743;  870.925;  390.000;  266.000
919.983;  458.300; -134.000;  -26.000
920.223;  124.200;  135.000;   14.000
920.463;  217.350;  631.000;  554.000
920.703;  198.775;   84.000;   39.000
920.943;  267.775; -110.000;   90.000
921.183;  352.775; -414.000; -405.000
921.423;  690.200;  307.000;  546.000
921.663;  981.825; -174.000; -257.000
921.903; 2040.450;  237.000;  173.000
922.143;10600.525;  372.000;  389.000
922.383;44224.700;  158.000;  115.000
922.622;19310.550; -120.000;  -15.000
922.862; 1959.750;  796.000;  785.000
923.102;  725.250;  -51.000;   33.000
923.341;  331.700;   59.000;   74.000
923.581;  140.800;  450.000;  360.000
923.821;   54.350;  301.000;  398.000
924.060;   27.875;  351.000;  193.000
924.300;  -31.900;  -16.000; -128.000
924.539;  -17.600;  584.000;  473.000
924.779;   24.275;  812.000;  597.000
925.018;  -39.450;  247.000;  353.000
925.257;    7.800;  595.000;  666.000
925.497;  -41.325;  447.000;  412.000
925.736;  -67.200;  -35.000;  102.000
925.975;   -4.100;  687.000;  669.000
926.214;   28.450;  907.000;  850.000
926.454;   29.800;  706.000;  757.000
926.693;  -41.850;  419.000;  543.000
926.932;   24.475; 1021.000;  825.000
927.171;   75.950; 1107.000; 1044.000
927.410;   59.200; 1144.000;  967.000
927.649;   37.800;  924.000;  742.000
927.888;   -7.275;  590.000;  564.000
928.127;    2.850;  680.000;  678.000
928.366;   31.775;  842.000;  826.000
928.605;   63.725;  831.000;  737.000
928.844;  275.725; 1451.000; 1393.000
929.083;  836.025;  770.000;  613.000
929.321;  499.550; 1335.000; 1359.000
929.560;  114.125; 1158.000; 1122.000
929.799;  -20.625;  574.000;  475.000
930.038;   91.075; 1025.000; 1394.000
930.276;  -41.875;  334.000;  397.000
930.515;   14.225;  827.000;  681.000
930.753;  -22.325;  614.000;  589.000
930.992;  -15.125;  664.000;  717.000
931.230;    0.575;  847.000;  847.000
931.469;  177.000; 2162.000;  892.000
931.707;   63.525;  840.000;  751.000
931.946;   70.425; 1278.000; 1344.000
932.184;   60.350; 1437.000; 1175.000
932.423;   51.875; 1265.000;  963.000
932.661;   83.375; 1296.000; 1428.000
932.899;   49.300;  987.000;  821.000
933.137;    7.350;  754.000;  564.000
933.376;  172.575; 1664.000; 1335.000
933.614;  187.650; 1759.000; 1196.000
933.852;   79.725; 1357.000; 1171.000
934.090;  123.050; 1722.000; 1747.000
934.328;  133.725; 1252.000; 1457.000
934.566;  128.500; 1431.000; 1110.000
934.804;  197.575; 1263.000; 1309.000
935.042;  657.125; 1861.000; 1850.000
935.280; 2659.500; 2088.000; 2063.000
935.518; 3017.275; 2113.000; 2007.000
935.756;  584.575; 2481.000; 2316.000
935.994;  209.225; 1808.000; 1751.000
936.231;  374.175; 2890.000; 2950.000
936.469;  206.525; 2367.000; 2378.000
936.707;  180.500; 2220.000; 2167.000
936.945;  218.675; 2825.000; 2882.000
937.182;  220.375; 2679.000; 2741.000
937.420;  312.075; 3602.000; 3031.000
937.657;  443.825; 3365.000; 3478.000
937.895;  370.225; 3331.000; 3488.000
938.133;  313.425; 3540.000; 3528.000
938.370;  339.600; 3896.000; 4191.000
938.607;  394.475; 4488.000; 4205.000
938.845;  530.525; 5587.000; 5549.000
939.082;  473.300; 5387.000; 5177.000
939.320;  525.600; 5799.000; 5728.000
939.557;  633.800; 6549.000; 6491.000
939.794;  717.550; 7285.000; 7097.000
940.031;  919.500; 8421.000; 8368.000
940.269; 1173.725; 9552.000; 9107.000
940.506; 1147.025;10901.000;10507.000

