
Integration time [ms]: 100.000
Averaging Nr. [scans]: 40
Smoothing Nr. [pixels]: 0
Data measured with spectrometer [name]: 2101013U2
Wave   ;Sample   ;Dark     ;Reference
[nm]   ;[counts] ;[counts] ;[counts] 

394.013;   69.025; -450.257; -315.536
394.305;  245.723; -461.258; -419.536
394.596; 1039.846; -676.269; -527.514
394.887; 2564.913; -796.268; -654.518
395.178;  988.718;  145.736;   11.476
395.470;   86.479; -210.263; -356.526
395.761;  215.728;  305.734;  394.479
396.052;  359.623; -545.284; -306.489
396.343;  355.117; -557.276; -454.503
396.634;  139.336; -200.279; -290.497
396.926;  144.935; -618.268; -565.517
397.217;  127.471;   11.725;  -17.504
397.508;   69.562; -366.273; -154.507
397.799;   73.511; -555.279; -571.497
398.090;   12.180; -973.280; -902.495
398.381;  108.999;   11.708;  -11.473
398.672;  -10.075; -585.292; -742.473
398.963;   76.242; -348.279; -373.498
399.254;  121.334;   54.709; -209.475
399.545;  -18.426;-1017.266; -883.520
399.836;   79.506; -407.277; -343.501
400.127;   74.350; -205.295; -209.468
400.418;   67.456; -423.274; -392.506
400.709;   71.493; -359.281; -333.493
401.000;   45.988; -268.291; -309.476
401.290;  108.588;  225.698;  115.545
401.581;   83.256; -166.286; -228.485
401.872;   35.473; -542.298; -486.462
402.163;   48.118; -313.296; -252.467
402.454;  103.835; -123.291; -163.475
402.744;   88.309; -844.297; -813.465
403.035;  519.465; -226.293;  -86.471
403.326;  672.578; -366.292; -384.474
403.617;  410.392;  204.701;  165.539
403.907;  244.104; -593.283; -679.490
404.198; 2275.493; -545.307; -599.446
404.489; 6043.183; -618.283; -588.491
404.779; 2104.766; -618.302; -660.456
405.070;  236.570;  -67.304; -174.451
405.360;  340.592; -259.293; -238.472
405.651;  371.702;  125.699;   98.542
405.942;  213.226;  209.714;  127.516
406.232;  313.016; -432.285; -413.487
406.523;  572.435;  641.706;  758.530
406.813;  113.353; -579.286; -644.484
407.104;  403.773;  261.708;  144.527
407.394;  209.494; -604.299; -591.462
407.685;  164.690;  336.715;  222.513
407.975;   58.982; -400.283; -382.490
408.265;  125.624; -134.289; -190.478
408.556;   84.782; -472.291; -459.475
408.846;  178.161;  474.706;  429.530
409.137;  103.257;   -1.288; -216.480
409.427;   62.590; -193.285; -271.487
409.717;   44.815; -776.273; -692.508
410.007;  153.509;    4.715; -170.486
410.298;   84.478; -360.295; -342.469
410.588;   78.113; -495.285; -510.486
410.878;   34.593; -792.287; -873.482
411.168;  137.425; -481.298; -478.463
411.459;  115.677; -295.283; -242.489
411.749;   69.005; -609.292; -507.474
412.039;   60.456; -755.289; -386.480
412.329;  203.974;   40.722;  132.501
412.619;  203.704;  -62.286; -148.485
412.909;  378.702;  639.711;  594.521
413.199;  356.531; -130.280; -251.495
413.490;  434.642;  521.710;  352.523
413.780;  140.860;-1013.279; -913.496
414.070;  326.568;  -46.276;  235.497
414.360;  405.395; -729.278; -666.498
414.650;  430.189; -726.288; -688.482
414.940;  523.959; -538.280; -441.496
415.230;  923.161;   50.712;   74.519
415.520; 5861.571;  155.730;   66.486
415.809;23181.142; -305.281; -125.493
416.099;17807.608; -388.277; -229.501
416.389; 4903.429;  435.726;  236.494
416.679; 2862.633;   91.738;   85.473
416.969;  497.948; -527.287; -503.483
417.259;  468.861;  341.721;  171.503
417.549;  694.166;  522.718;  318.508
417.838; 1593.962; -205.268; -147.518
418.128; 5191.273;  650.710;  492.522
418.418; 4316.671; -491.272; -579.509
418.708; 2981.754;    9.726;  -48.506
418.997;10938.750; -474.275; -480.505
419.287;11421.461; -733.273; -790.507
419.577;10673.051; -160.283; -123.489
419.866;35397.706; -588.277; -498.501
420.156;36682.767; -242.270;  -55.513
420.446; 6755.850; -112.263;  -26.526
420.735;  943.636; -376.271; -446.512
421.025;  877.769; 1830.722;  315.502
421.314;  765.009; -203.271; -226.512
421.604; 1704.505;   89.732;  233.484
421.893; 1001.305; -705.271; -602.511
422.183;  250.350; -487.263; -461.526
422.472;  403.382;  -36.271; -107.511
422.762;  488.730; -416.266; -379.521
423.051;  254.868; -916.276; -916.503
423.341;  330.588; -491.273; -439.507
423.630;  451.811; -121.265;   15.477
423.919;  398.450;   58.725;   49.495
424.209;  386.256;  -31.263;   56.473
424.498;  501.210;   68.732;  161.483
424.787; 1075.541; -535.267; -601.518
425.077; 3329.485;   34.735;   29.478
425.366; 4948.061; -734.262; -744.528
425.655; 9487.414;  639.727;  259.493
425.945;19682.414; -313.247; -268.554
426.234;10980.059;  117.741;  300.467
426.523; 4879.264;  -86.259; -350.534
426.812; 6728.951;  107.734;  159.480
427.101; 9681.477; -127.269; -323.515
427.390;12497.121;  -55.270;  -86.514
427.680; 3118.583; -624.257; -411.538
427.969;  532.019; -330.255; -301.540
428.258;  333.225; -385.257; -477.536
428.547;  578.600;  449.728;  397.490
428.836; 1405.235; -421.253; -398.543
429.125; 2045.266; -199.259;  -72.534
429.414;  883.682; -330.251; -294.548
429.703; 2982.582; -231.251; -213.548
429.992; 8902.336; -938.250; -828.549
430.281; 5836.668; -397.264; -331.524
430.570;  609.323;  -21.252;   32.454
430.859;  612.463;  279.741;  352.466
431.148;  478.210;  636.752;  631.446
431.437;  309.897;  391.748;  367.454
431.725;  161.401; -544.257; -481.536
432.014;  113.217; -845.253; -756.545
432.303;  410.984; -149.239; -105.569
432.592;  676.725; -460.263; -178.525
432.881; 1055.911; -601.248; -437.554
433.169; 5805.670; -343.255;  -61.540
433.458;11775.292;  445.765;  540.424
433.747; 5052.567; -397.261; -289.529
434.036;  948.185; -275.242; -280.564
434.324; 2016.998; -395.249; -379.551
434.613; 3522.979;   40.757;  159.437
434.902; 1231.649;  333.760;  439.433
435.190;  705.108;   75.761;  295.431
435.479;  415.611;  -52.245;   83.441
435.767;  138.569; -411.244; -427.561
436.056;  261.206; -340.242; -294.563
436.345;  373.552; -372.240; -223.568
436.633;  386.568;   60.750;  383.450
436.922;  291.604;  208.760;  414.432
437.210;  749.133; -194.236;    1.426
437.499; 2443.191; -583.235; -432.576
437.787; 2703.707; -339.236;  -10.574
438.075;  647.088;   56.761;  162.430
438.364;  901.566;  -44.238;  250.429
438.652;  545.344; -286.226; -138.592
438.941;  152.959;    3.770;  269.415
439.229;   31.045; -665.252; -466.545
439.517;   39.074; -160.234;  -85.577
439.806;   20.110; -501.225; -290.595
440.094;  189.581;  377.766;  650.421
440.382;  229.310; -653.233; -302.580
440.670;  255.915; -361.235; -285.576
440.959;   30.352; -347.223; -170.599
441.247;   90.145; -151.229; -109.587
441.535;  109.322; -266.235;   31.423
441.823;   65.004; -497.234; -305.578
442.111;  192.299;  173.771;  327.412
442.400;  627.835; -628.245; -335.559
442.688; 1737.006; -111.234; -620.579
442.976; 1292.588; -786.213; -450.617
443.264;  144.116; -324.224; -364.597
443.552;  122.670; -258.226;   51.408
443.840;  178.696;  602.765;  876.423
444.128;  118.334;  265.767;  269.420
444.416;    9.877; -694.228; -312.588
444.704;   32.981; -465.219;  -92.605
444.992;   75.973;   -0.226;  240.407
445.280;   70.134; -517.230;  -94.585
445.568;   46.442; -694.212; -396.618
445.856;  424.865; -174.221;  357.398
446.143;  956.627;  -54.220;   -7.604
446.431;  770.580;  -25.228;  625.411
446.719;  270.525;  489.783;  675.391
447.007;  208.829;  481.769;  705.416
447.295;  197.024;  597.777;  871.402
447.583;  101.893; -464.229;  -34.587
447.870;  167.962; -434.221; -202.601
448.158;  499.583; -104.230;  129.415
448.446;  381.628; -800.219; -338.604
448.733;  189.393;   13.776;  269.403
449.021;  266.291;   60.788;  341.382
449.309;  205.056; -296.210;  208.379
449.596;  226.246;  128.783;   59.392
449.884;  172.706; -571.222; -325.600
450.172;  142.561; -756.227; -406.590
450.459;  415.672;  645.786;  780.387
450.747; 2205.520; -411.218; -147.608
451.034; 7064.956;  493.772;  889.411
451.322; 5783.450; -413.214; -170.614
451.609;  509.319;  292.777;  508.403
451.897;  552.268; -550.203; -183.634
452.184; 1707.249; -622.223; -400.598
452.472; 1592.677;   97.792;  269.375
452.759;  365.754;  512.781;  864.395
453.047;  133.664; -407.212; -125.617
453.334;  102.787; -732.219; -216.606
453.621;  106.977; -438.214; -161.615
453.909;  154.335;   13.796;  384.368
454.196;  117.155; -299.199; -123.641
454.483;  220.856;  317.798;  540.364
454.771;  137.630; -215.208;  196.374
455.058;   61.234; -316.207;  102.374
455.345;   98.909;   71.807;  344.347
455.632;   86.437; -128.207;  235.373
455.919;   56.927;  -82.196;  182.354
456.207;  -51.040; -774.198; -450.642
456.494;   -2.757; -475.200;  -66.639
456.781;   27.177; -399.202; -198.635
457.068;   67.668; -253.206;  -29.628
457.355;   -3.306; -698.206; -401.629
457.642;   -0.425; -552.205; -290.630
457.929;   13.051; -778.194; -417.651
458.216;   55.639; -575.212; -354.617
458.503;  221.430; -173.193;  -19.652
458.790;  213.053; -864.208; -630.625
459.077;  276.207;  -77.202;  110.364
459.364;  746.869; -350.195; -210.649
459.651; 1579.041;  -46.206;  220.372
459.938;  742.694; -864.209; -665.623
460.225;  160.885;  132.799;  276.363
460.512;  -49.726; -836.197; -688.645
460.799;  118.069;  -32.218;  320.392
461.086;   73.722; -370.200; -251.640
461.372;   60.160; -509.198; -279.642
461.659;  133.603; -165.196;  108.354
461.946;   79.004; -445.193;  -54.651
462.233;  237.295;  842.800;  888.361
462.519;  347.492; -814.201; -464.639
462.806;  944.825; -768.197; -497.645
463.093;  846.074; -445.191;  -66.656
463.380;  -31.260; -920.186; -824.664
463.666;   68.327; -259.197;  -18.646
463.953;   89.264; -406.195; -243.648
464.239;  190.564; -173.195;  -77.648
464.526;  400.849;  413.806;  743.350
464.813;  394.936; -565.190; -304.658
465.099;  356.730;  606.807;  607.348
465.386;  352.084;  903.807;  921.348
465.672;   46.225; -694.197; -522.645
465.959;   33.578; -598.188; -520.662
466.245;   14.009; -468.193; -359.652
466.532;  106.261; -109.195;   63.352
466.818;   85.715; -357.186; -216.664
467.104;   17.804; -488.182; -415.672
467.391;  -25.338; -628.189; -459.658
467.677;   43.518; -289.186;    9.335
467.964;    1.194; -682.189; -471.660
468.250;   75.696; -331.186; -160.665
468.536;   79.539;   90.811;  180.341
468.822;  -24.043; -821.184; -574.668
469.109;  157.534;  351.827;  471.311
469.395;  185.918;  729.808;  787.346
469.681;  193.167;   46.811;  156.341
469.967; 1180.146; -699.188; -382.660
470.254; 2512.529; -494.188; -306.662
470.540; 1640.577; -601.196; -476.646
470.826;  218.565; -488.181; -397.675
471.112;  288.211;  288.816;  113.331
471.398;   95.890; -253.183;  -58.670
471.684;   39.918; -626.177; -447.680
471.970;   13.519; -918.180; -981.675
472.256;   29.917; -521.192; -441.654
472.542;    6.969; -499.171; -434.691
472.828;   19.775; -743.182; -607.672
473.114;   21.312; -380.166; -283.700
473.400;   32.559; -504.175; -293.684
473.686;   44.394; -452.166; -400.701
473.972;   54.874; -230.174; -131.687
474.258;  -28.616; -925.173; -843.689
474.544;  186.385; -183.178;   -2.679
474.830;  269.911;  -65.175;   45.316
475.116;  423.112; -123.190; -196.658
475.401;  570.796; -558.180; -467.676
475.687;  193.470; -725.180; -718.676
475.973;   20.958; -673.181; -770.673
476.259;  260.663;  736.825;  764.315
476.544;  368.976; -539.176; -437.682
476.830;  753.366; -398.172; -322.690
477.116;  622.500; -430.177; -336.682
477.401;  139.271;  346.820;  358.324
477.687;  -18.541; -289.175; -405.684
477.973;   43.236;   21.819;   28.326
478.258;    3.539; -448.163; -348.706
478.544;   57.076;   21.815;   61.334
478.829;  -58.000; -818.171; -738.692
479.115;  -41.785; -749.172; -651.690
479.401;  -11.306; -444.174; -449.686
479.686;   44.094; -253.180;  -74.676
479.972;  -26.485; -886.178; -776.680
480.257;   38.564; -258.166;  -65.700
480.542;   -8.696; -614.170; -469.693
480.828;  232.508; 1288.824; 1392.317
481.113;  -34.695; -464.176; -426.683
481.399;   -8.488; -236.161; -202.711
481.684;  -67.387; -620.166; -462.700
481.969;   27.400; -158.159;  -73.713
482.255;   10.239; -439.169; -285.695
482.540;   10.965; -569.178; -441.680
482.825;    0.435; -395.187; -404.663
483.110;   82.842;  -85.169; -105.696
483.396;  154.622; -840.157; -652.718
483.681;  445.049;  543.826;  730.313
483.966;  122.069; -696.160; -700.712
484.251;    0.998; -404.174; -310.687
484.536;   -0.076; -356.165; -378.703
484.822;   19.976; -205.173; -218.687
485.107;  -34.266; -599.152; -502.726
485.392;  144.954;  662.836;  541.296
485.677;   69.102;  354.832;  163.302
485.962;  110.044;  160.843;  270.283
486.247;   89.621;  -14.162;   -8.707
486.532;   44.440; -178.166; -325.701
486.817;  170.756;  381.839;  431.291
487.102;  124.167; -453.154; -514.722
487.387;  585.048; -637.156; -652.718
487.672; 1027.984; -154.164;  -38.705
487.957;  665.764; -394.160; -286.711
488.241;  199.376; -290.150; -314.729
488.526;  660.160; -280.152; -148.726
488.811; 1076.942; -881.177; -818.680
489.096;  805.420; -666.154; -702.723
489.381;  464.457;    3.847;  162.275
489.666;  334.912; -428.161; -510.710
489.950;  185.348;  558.846;  627.277
490.235;  -31.779; -480.151; -458.728
490.520;  -32.439; -756.161; -723.710
490.804;  -51.525; -827.156; -736.719
491.089;   10.316; -469.149; -299.732
491.374;   21.558; -132.164;  -75.704
491.658;    2.327; -817.147; -717.735
491.943;  184.040; -657.152; -609.727
492.227;  283.838; -178.155;  -38.721
492.512;   56.069; -294.157; -341.717
492.797;  -57.290; -713.149; -716.731
493.081;  -61.545; -588.147; -598.735
493.366;  -34.838; -751.161; -635.711
493.650;  200.382;  831.859;  917.254
493.935;   20.202; -648.147; -447.734
494.219;  -44.305; -778.142; -687.743
494.503;  -45.995; -585.150; -487.730
494.788;   36.485;   46.842;   74.285
495.072;  115.102;  184.850;  434.271
495.356;  163.019; -463.148; -343.733
495.641;  475.362; -812.146; -736.736
495.925;  460.555; -976.156; -903.719
496.209;   48.215; -599.149; -451.732
496.494;  -51.605; -763.142; -544.744
496.778;   12.392; -364.154; -360.722
497.062;  -56.520; -819.156; -627.719
497.346;  -32.085; -869.160; -640.711
497.631;  127.823;  580.852;  560.266
497.915;   83.047;  -64.145;  175.261
498.199;   52.872; -341.157; -277.718
498.483;   34.509; -562.152; -508.725
498.767;  185.203;  301.850;  300.271
499.051;  171.888; -126.149; -100.732
499.335;   18.036; -693.149; -739.731
499.619;  -25.068; -381.129; -423.767
499.903;   28.787; -272.155;  -65.721
500.187;   34.999; -588.153; -316.724
500.471;   18.339; -796.152; -595.727
500.755;  112.486;   62.839;  -96.710
501.039;   24.662; -270.155; -357.721
501.323;  111.384;  -21.141;  264.254
501.607;   48.764; -447.163; -503.706
501.891;   -1.302; -607.156; -512.718
502.174;  -42.367; -726.144; -585.741
502.458;   65.568;   89.849;  370.273
502.742;   23.383; -180.138; -191.751
503.026;   91.426; -412.147; -254.734
503.310;  165.024; -437.159; -375.713
503.593;  110.928; -464.147; -325.735
503.877;  122.847; -232.133; -156.760
504.161;  186.727;    2.847;  -50.724
504.444;  147.738; -841.158; -710.716
504.728;  422.882; -487.164; -522.704
505.012;  641.225; -257.150;  -76.729
505.295;  519.937; -417.161; -212.711
505.579;  491.780; -256.156; -496.719
505.862;  654.668; -555.145; -333.738
506.146;  658.852; -681.159; -758.714
506.429;  383.402;  568.841;  461.286
506.713;   57.272; -732.151; -667.728
506.996;  301.992;   90.846;  295.278
507.280;  307.827; -633.165; -474.703
507.563;  231.686; -469.155; -261.721
507.847;   73.150; -423.153; -112.724
508.130;   69.188; -665.161; -456.711
508.413;   87.159; -758.167; -577.700
508.697;  243.535; -151.167;   12.300
508.980;  125.627; -422.153; -312.724
509.263;    1.257; -466.155; -450.720
509.547;   33.700; -124.150;   82.271
509.830;   59.315; -172.160;  140.289
510.113;   91.329;  128.844;  298.281
510.396;   37.607; -530.152; -300.725
510.680;  217.870; -818.145; -812.738
510.963;  820.796;  184.846;  180.277
511.246;  720.257; -493.150; -357.730
511.529;  278.649; -482.145;  -83.739
511.812;  339.594; -250.134;   10.241
512.095;  234.269; -740.151; -396.728
512.378;   57.757; -317.147; -245.736
512.661;   26.840; -703.137; -623.753
512.944;   17.597; -750.142; -637.744
513.227;   60.187; -170.137; -171.752
513.510;   33.158; -479.144; -671.741
513.793;   22.563; -485.140; -435.747
514.076;  130.227;  -43.127;  -39.771
514.359;  106.766; -294.149; -135.732
514.642;   77.375; -442.142; -567.744
514.925;  676.712;  581.860;  561.253
515.208;  878.540; -498.134; -443.758
515.491;  582.579; -276.133; -182.761
515.773;  331.161; -410.143; -337.742
516.056; 1901.146;  249.864;  409.246
516.339; 2608.275; -754.136; -652.755
516.622; 1980.455; -518.150; -488.730
516.904; 1482.118;  882.857;  975.257
517.187;  709.186; -730.138; -523.752
517.470;  398.417; -568.143; -510.743
517.752;  387.478; -624.136; -470.756
518.035;  307.349; -708.139; -725.749
518.318;  333.575; -799.136; -744.755
518.600; 2146.107; -300.132; -325.762
518.883; 2948.474;  310.858;   88.256
519.165; 1444.229; -585.138; -426.751
519.448;  408.532;  -61.132;  -19.762
519.730;  216.010; -573.126; -415.773
520.013;  338.375;  588.867;  664.240
520.295; 1013.421;  -94.134;  -15.759
520.578; 2321.445; -335.131; -305.764
520.860; 2534.907; -254.132;   56.238
521.143; 1275.505; -763.135; -584.756
521.425;  467.047; -251.125; -279.775
521.707;  641.553; -622.127; -380.771
521.990; 1635.153; -199.127;  167.229
522.272; 1873.690; -116.140;   -4.748
522.554;  903.362; -237.143; -157.742
522.836;  412.968;  -24.134;   99.241
523.119;  242.675; -496.148; -189.734
523.401;  158.027; -448.130; -314.766
523.683;   84.341; -865.137; -693.753
523.965;  268.634;  408.862;  260.248
524.247;  245.293;   54.878;  170.220
524.529;  188.870; -451.134; -367.759
524.812;  331.203;   -3.130;  191.234
525.094;  773.283; -773.138; -631.751
525.376; 1234.581; -143.124;   78.223
525.658;  742.023; -441.136; -339.754
525.940;   26.792; -805.131; -671.764
526.222;   54.251; -188.136;  -88.755
526.504;  136.790; -190.131;   32.237
526.786;  240.748; -960.133; -647.760
527.068;  366.987; -124.123;  -67.778
527.349;  170.894; -865.137; -774.754
527.631;  141.082; -137.132;   22.238
527.913;  119.427; -664.127; -450.771
528.195;  154.766; -761.125; -639.774
528.477;  218.940;  -93.134;  -30.758
528.759;   99.503; -648.130; -522.766
529.040;   25.086; -569.123; -293.778
529.322;   57.493; -235.125;  -10.774
529.604;  165.706;  -47.130;   93.233
529.886;  162.685; -546.126; -302.773
530.167;  129.222;  232.870;  192.235
530.449;   52.556;    1.853;   63.265
530.731;   22.467; -572.122; -459.779
531.012;   49.638; -513.120; -216.784
531.294;   84.651; -118.116;  -43.792
531.575;  140.522;  290.875;  538.225
531.857;   32.885; -548.135; -266.757
532.138;   92.408; -113.141;   40.254
532.420;  196.532;  294.865;  403.244
532.701;  265.500; -722.133; -751.760
532.983;  389.903;  232.867;  182.239
533.264;  145.508; -243.126;  175.228
533.546;  -21.349; -491.136; -508.755
533.827;   63.847;  173.867;   -1.759
534.109;   62.185; -352.135;  -80.757
534.390;  111.561; -725.132; -582.762
534.671;  255.881; -270.135;  -82.756
534.953;  137.913; -751.123; -611.779
535.234;   32.462; -426.117; -255.789
535.515;  -80.579; -891.119; -735.785
535.796;  -15.827; -431.128; -193.770
536.078; -119.819;-1050.124; -904.777
536.359;   25.939;  -22.123;    3.221
536.640;   -7.808; -480.125; -197.774
536.921;  152.011;  225.871;  143.232
537.202;  343.855;  -87.138;  -16.751
537.483;  421.519;  251.869;  377.236
537.764;  142.422;   17.870;   98.235
538.045;  -44.710; -543.134; -371.758
538.326;  -33.963; -596.129; -447.768
538.607;   14.329; -686.127; -476.771
538.888;  161.179;   98.879;    5.218
539.169;  166.449; -704.122; -535.781
539.450;  322.060;  236.871;   16.233
539.731;  204.058; -361.121; -182.783
540.012;  144.938;  199.880;  412.216
540.293;   99.001;   82.876;  158.224
540.574;   30.272; -895.113; -717.796
540.855;  471.032;  435.879;  377.218
541.136;  505.646;   47.878;  139.220
541.416;  262.979; -161.130; -220.766
541.697;  168.490; -274.131; -170.763
541.978;  946.659; -270.135; -315.757
542.259; 1191.203; -211.127; -236.771
542.539;  565.420; -191.116; -186.790
542.820;  186.547;  461.875;  480.225
543.101;  137.146;  -52.145;  -77.738
543.381;   34.178; -638.127; -591.771
543.662;  258.801;  159.873; -254.771
543.942;  524.149; -751.127; -830.770
544.223;  975.723;  193.878;  161.219
544.504;  626.606; -275.124; -182.777
544.784;  545.109; -592.126; -408.773
545.065; 1527.999;  104.884; -254.791
545.345; 1813.296;  227.881;   14.215
545.626; 1186.396;  -14.113; -108.796
545.906;  803.022;   77.869;   98.235
546.186;  325.114;   92.874;  -95.773
546.467;  173.708;   99.877;  -95.778
546.747;  321.520;  264.884;  327.210
547.027;  345.704;   91.876;  111.223
547.308;  282.048; -376.127; -530.770
547.588;  363.163;  299.871;  371.232
547.868;  174.398;  458.870;  588.235
548.149;  193.856;  609.885;  593.207
548.429;  105.627; -347.127; -299.771
548.709;  151.288; -645.120; -461.784
548.989;  419.406;   84.882;   88.213
549.269; 1906.081;   10.868;  139.239
549.550; 4348.312;  215.877;  117.222
549.830; 3889.889; -758.111; -556.799
550.110;  755.871; -468.110; -320.801
550.390;  759.168; -128.122;  -56.779
550.670; 1038.017; -868.114; -783.795
550.950;  734.981; -509.121; -471.782
551.230;  168.302;  549.879;  460.218
551.510;  -14.370; -381.121; -326.782
551.790;   29.004; -173.109; -127.803
552.070;  252.608;  940.877; 1181.223
552.350;  356.725; -492.119; -377.786
552.630;  532.925;   -2.121;   77.219
552.909;  318.800;  181.884;   73.209
553.189;  228.762;  -49.132;   33.237
553.469;  169.025; -703.119; -514.786
553.749;  167.630; -469.127; -357.772
554.029;  141.066;   33.883;  -24.790
554.308;  122.935; -154.115;  -37.794
554.588;   54.922; -196.128; -204.770
554.868;   55.532; -366.121;  -47.782
555.147;  131.458; -114.115;  -46.793
555.427;  522.127; -260.116; -250.792
555.707; 3499.931; -284.115; -200.793
555.986; 4205.792; -719.111; -538.800
556.266; 2172.969;   23.884;   72.210
556.546;  100.880; -888.121; -675.782
556.825;  204.190; -657.114; -556.794
557.105; 1598.470; -125.128;   17.230
557.384; 1891.048;  122.884;  187.209
557.664;  707.251; -717.116; -508.792
557.943;   84.406; -557.121; -411.782
558.222;  156.684; -345.118; -344.788
558.502;  254.809; -116.115;  -76.793
558.781;  454.555;  194.885;  499.208
559.061;  344.983; -232.118; -227.788
559.340;  268.663;  302.883;  353.211
559.619;  600.294;   93.884;  148.210
559.899;  918.390; -239.117; -266.789
560.178;  837.559; -778.115; -593.793
560.457; 2833.992; -623.117; -562.790
560.736; 3912.618; -472.111; -482.800
561.015; 2604.868; -500.128; -502.769
561.295;  376.223;  180.893;  215.193
561.574;  338.231;  119.885;  116.207
561.853;  458.733;  274.891;  303.197
562.132;  437.136;  -45.114;  182.206
562.411;  390.626;  396.879;  553.219
562.690;  118.729; -592.115; -458.792
562.969;  121.478;  472.888;  630.203
563.248;  459.023; 2966.878; 2487.219
563.527;  236.292; -290.111; -408.800
563.806;  334.952; -650.127; -521.771
564.085;  370.888; -297.105; -206.810
564.364;  204.718; -594.117; -405.790
564.643;  436.626; -276.121; -223.781
564.922; 1685.527;  221.890;  397.198
565.201; 1680.531; -640.109; -700.803
565.479;  708.203; -297.115; -219.792
565.758;  284.220; -810.128; -712.770
566.037;  430.432; -155.109; -100.803
566.316;  204.149; -286.116;  -28.791
566.595;   44.981;  -17.115;  -12.793
566.873;   97.644; -166.111;  -79.801
567.152;  -58.873; -490.113; -590.797
567.431;    5.820; -113.116;    6.210
567.709;    9.199; -344.107; -212.807
567.988;  226.489; -810.114; -769.794
568.266;  472.756; -160.115;  -68.793
568.545;  333.259; -644.100; -514.819
568.824;  523.227;  160.885;  356.208
569.102;  465.664; -351.114; -235.794
569.381;  201.627; -492.116; -407.792
569.659;  -52.576; -553.113; -553.796
569.938;   21.572; -743.122; -465.780
570.216;   85.909; -225.109; -225.804
570.494;  -28.933; -632.114; -572.795
570.773;   35.705;  202.879;  114.218
571.051;    4.836; -373.123; -357.778
571.330;   60.147; -221.113; -174.796
571.608;   37.902; -181.098; -173.823
571.886;  -75.138; -671.111; -581.799
572.164;  -60.818; -739.121; -621.782
572.443;  -50.083; -562.105; -512.811
572.721;  -29.383; -399.117; -289.790
572.999;  -34.614; -280.117; -168.788
573.277;   92.660;  379.894;  620.191
573.555;  256.562;   94.894;   37.190
573.834; 1179.635;  -86.117; -114.788
574.112; 1402.626;  880.893;  811.193
574.390;  428.994; -143.111;  -96.801
574.668;  -16.146;  -91.112;  -61.797
574.946;  -12.737; -165.106; -187.810
575.224;  -17.170;   71.891;  -16.803
575.502;  -17.978; -200.116; -204.791
575.780;  -91.620; -767.112; -829.798
576.058;  193.593; 1589.889; 1004.200
576.336;  -31.152; -210.110; -129.801
576.614;  -62.845; -511.112; -340.798
576.891;   38.610; -711.115; -823.794
577.169;  415.642; -158.108; -285.805
577.447;  507.925;  169.893;  202.193
577.725;  245.609;  629.888;  854.201
578.003;    5.182;  -71.112; -371.798
578.280;   78.726; -208.104; -242.812
578.558;   60.009; -450.115; -422.793
578.836;  127.192; -210.114; -145.795
579.114;   32.778; -630.112; -670.797
579.391;   73.212;   -6.117;  -18.789
579.669;  -71.414; -595.114; -704.794
579.947;  155.547; -326.107; -127.806
580.224;  276.472; -692.107; -524.806
580.502;  286.026;  127.893;   76.193
580.779;   23.543;  -42.117;   75.210
581.057;  -77.940; -584.109; -470.804
581.334;  -94.035; -726.102; -695.815
581.612;   37.413;   54.895;  511.190
581.889;  -31.972;  -83.101; -129.818
582.167;  -47.158; -298.099; -190.821
582.444; -104.227; -845.102; -814.817
582.721;  106.824;  657.899;  715.183
582.999;   37.165; -326.100; -167.821
583.276;  448.540; -812.123; -713.779
583.553;  613.218; -364.102; -294.816
583.831;  183.547; -607.104; -631.812
584.108;   45.315;  349.892;  174.195
584.385;   -6.385; -122.102;  -98.815
584.662;  -69.255; -651.111; -828.801
584.940;   34.094;  204.889;  204.199
585.217;  -32.176;  -73.113; -303.796
585.494;   36.003;   71.890;  118.198
585.771;  176.085; -250.109; -354.804
586.048;  449.223; -196.113;  -76.796
586.325;  287.747; -721.110; -773.801
586.602;   91.001;  230.896;  213.188
586.879;  -26.014; -499.100; -580.820
587.156;   35.414; -156.105; -331.810
587.433;  -37.104; -701.102; -667.817
587.710;   75.530;  152.888;  234.202
587.987;  254.719; -264.105; -236.811
588.264;  739.557;  315.888;  387.202
588.541; 1245.103;  -61.104;   26.187
588.818; 2464.887;   72.892;  171.196
589.095; 2151.949; -163.104; -174.812
589.371;  331.733; -459.109; -414.804
589.648;    3.901; -581.107; -437.807
589.925;    6.718; -517.114; -621.795
590.202;   -2.545; -741.112; -607.798
590.478;   87.871; -166.105;  -73.811
590.755;  231.493; -241.108; -132.806
591.032; 2212.374; -741.110; -699.802
591.308; 3057.466; -732.094; -790.831
591.585; 1580.924; -573.110; -560.802
591.862;   97.572;-1056.102; -950.817
592.138;   54.391; -475.108; -474.805
592.415;  127.527; -486.104; -495.813
592.691; 1348.000;  460.896;  518.188
592.968; 1728.179; -208.098; -123.824
593.244;  809.545; -695.116; -595.790
593.521;   51.723; -105.102;  -42.817
593.797;  -40.281; -810.122; -720.780
594.074;  284.841; -611.096; -588.826
594.350;  628.002;  828.905;  729.172
594.626;  253.420; -303.111; -283.801
594.903;   85.048; -643.101; -645.817
595.179;  169.655;  243.896;  418.187
595.455;    2.127; -136.107; -150.807
595.731;   13.632;  -19.103;  -38.814
596.008;  -24.436; -464.111; -434.800
596.284;   22.614; -187.100; -242.820
596.560;   51.423; -501.093; -493.833
596.836;  172.341; -173.105;  -70.810
597.112;  313.992; -582.108; -437.805
597.388;  249.639;  -49.097;  -48.826
597.665;  104.051;  437.887;  530.203
597.941;  -51.624; -572.089; -658.839
598.217;   10.377; -323.110; -293.802
598.493;  221.687;   61.891; -204.804
598.769;  457.708; -175.100;  -50.819
599.045;  260.845; -490.108; -562.806
599.321;   50.838; -193.100; -261.820
599.597;  115.836; -355.109; -476.804
599.872;  421.078;  409.896;  429.187
600.148;  310.066;  -61.097; -172.826
600.424;  262.624;   91.893;  202.193
600.700;  206.802; -170.107; -280.807
600.976;  106.035; -442.097; -464.825
601.252;  206.408; -226.109; -272.803
601.527;  183.304; -833.104; -840.813
601.803;  122.172; -453.105; -404.812
602.079;  167.183; -124.100; -118.819
602.354;  497.457; -620.092; -531.835
602.630;  752.899; -140.113; -482.796
602.906; 2096.228; -910.101; -863.818
603.181; 6016.200; -627.119; -534.786
603.457; 5092.738;   98.903; -278.826
603.733;  746.159; -605.120; -626.783
604.008;  879.988; -245.106; -164.810
604.284; 2793.400; -636.101; -580.817
604.559; 2385.959;   -3.112;  -42.799
604.835;  440.241; -163.105; -225.810
605.110;  344.518; -732.099; -892.821
605.385;  627.700;  224.907;  267.167
605.661;  558.405; -625.095; -729.829
605.936; 1011.495; -664.108; -737.806
606.211;  882.839;  -17.103; -170.815
606.487;  171.163; -329.114; -376.794
606.762;   -3.200; -791.119; -745.786
607.037;  -27.359; -501.105; -433.810
607.313;  -74.752; -589.096; -574.828
607.588;  -16.612; -375.106; -137.810
607.863;   34.403;  -28.101; -143.818
608.138;  167.326;  513.890;  516.198
608.413;   15.672; -576.099; -592.822
608.688;   41.191; -203.108; -267.805
608.964;  148.657; -509.106; -218.809
609.239;  213.389; -107.105; -212.810
609.514;  239.521;  281.895;  240.188
609.789;  611.876; -187.104; -716.812
610.064;  790.022; -435.096; -609.827
610.339;  772.583; -855.109; -799.804
610.614; 1024.538; -131.100; -315.820
610.889;  579.572;  215.895;  107.188
611.163;   33.772; -407.104; -591.812
611.438;   72.914;   81.886; -167.794
611.713;  -12.975; -467.101; -499.817
611.988;   38.902; -144.101; -328.818
612.263;  -43.585; -771.102; -717.815
612.538;  194.773;  385.887;  251.204
612.812;  138.014; -832.100; -911.820
613.087;  113.952; -358.098; -338.823
613.362;  -70.773; -497.107; -557.807
613.637;   26.910;  261.897;  138.186
613.911;  -20.742; -256.092; -345.835
614.186;   98.400; -249.107; -292.807
614.460;  566.950; -842.081; -758.854
614.735;  707.124;  -55.087;  -17.843
615.010;  137.814;   43.912;  -82.841
615.284;  223.816;  360.892;  246.195
615.559;  308.282; -792.092; -955.835
615.833;  267.120;  -76.099;  -87.822
616.108;  -11.107; -225.090; -390.837
616.382;  126.026;  274.913;  402.156
616.656;  122.219; -241.090; -232.837
616.931;  456.545; -785.099; -700.822
617.205;  955.880; -973.104; -979.813
617.480;  858.145;  -91.125;    6.225
617.754;  140.218; -396.125; -128.774
618.028;    8.564; -369.129; -382.768
618.302;   44.439;   73.892;  -25.805
618.577;  -68.514; -371.103; -518.815
618.851;  -64.870; -399.109; -600.803
619.125;  -54.730; -335.134; -378.759
619.399;  -36.470; -244.104; -374.813
619.673;  -49.397; -330.115; -515.792
619.947;  -45.908; -333.114; -448.795
620.222;  -12.754; -198.110; -204.801
620.496;   -6.968;  -47.121;  -96.782
620.770;   23.748; -187.122;  -93.781
621.044;  191.764;  323.895;  346.190
621.318;  668.234; -653.120; -614.783
621.592;  590.632; -430.121; -409.783
621.866;  315.860; -476.112; -572.799
622.140;   12.446; -207.116; -356.791
622.413;   48.064;  138.889;  112.200
622.687;  -51.125; -746.101; -492.817
622.961;    7.114; -130.108; -143.805
623.235;  -62.935; -633.111; -661.800
623.509; -112.654; -816.105; -848.811
623.783;   -2.852;  -12.107;   48.193
624.056;  -19.765; -254.120; -280.783
624.330;   47.154;   63.888;   -3.797
624.604;   50.493; -271.116; -355.790
624.877;   60.575;  180.890;   26.198
625.151;   34.537; -249.114; -238.794
625.425;  -38.768; -150.103; -283.814
625.698;  -45.980; -367.119; -374.785
625.972; -102.122; -799.110; -765.802
626.245;   72.395;  685.884;  484.210
626.519;  -53.586; -426.120; -340.784
626.792;  -29.574; -192.107; -380.807
627.066;  -98.009; -485.122; -662.779
627.339;  -94.726; -736.110; -663.802
627.613;   40.313;  351.880;  148.216
627.886;   53.679;  187.891; -612.803
628.160;  -17.341;  312.880; -161.783
628.433;  -92.752; -695.125; -703.775
628.706;  -93.486; -517.120; -615.784
628.979;   28.504;  296.876;  117.223
629.253; -106.801; -785.119; -833.786
629.526;  322.533; -334.126; -253.772
629.799;  289.636; -641.123; -479.778
630.072;  140.115; -497.128; -516.769
630.346;  -74.855;-1115.116;-1080.790
630.619;  411.627; -467.107; -545.808
630.892;  538.416;  709.889;  593.200
631.165;  307.280;  790.896;  679.187
631.438; -102.168;-1092.112;-1055.798
631.711;   49.540;  453.877;  257.221
631.984;  -67.135; -523.117; -624.789
632.257;  -75.513; -636.117; -681.789
632.530;  -53.955; -412.119; -433.785
632.803;   28.810; -109.115;    7.207
633.076;  -71.492; -360.123; -422.777
633.349;    2.744;  173.872;  121.231
633.622;  -60.956; -187.119; -240.785
633.895; -121.440; -903.120; -823.783
634.167;  -66.490; -496.126; -525.773
634.440;  -21.499;  -19.116; -137.792
634.713;  -16.677;  -22.119; -120.786
634.986;   80.634;  593.871;  453.233
635.258;  -92.617; -507.115; -597.793
635.531;  110.033;  742.882; -343.788
635.804;  -25.611; -303.117; -318.789
636.077;  -84.377; -830.116; -852.791
636.349;  -17.494; -586.115; -474.793
636.622;  376.832; 1695.874; 1392.228
636.894;  201.790; -474.120; -909.784
637.167;  122.101; -836.127; -789.771
637.439;   17.123; -278.128; -213.770
637.712;  -62.791; -312.126; -293.772
637.984;  -79.427; -635.116; -707.791
638.257;  351.309;  515.877;  488.222
638.529;  534.074; -881.125; -924.776
638.802;  221.040; -508.128; -449.769
639.074; -132.652; -927.122; -952.781
639.346; -127.363; -942.135; -930.757
639.619;  -12.627;  -79.142; -319.744
639.891;   -3.058;  -83.122; -168.779
640.163;  -81.482; -689.122; -756.780
640.435;   37.295;  273.878;  103.220
640.708;   -7.878;  -72.122; -132.780
640.980;  -35.426; -366.122; -362.781
641.252;  186.751;  -25.121;  -71.781
641.524; 1686.877;  580.879;  573.219
641.796; 1698.129;-1094.121; -907.782
642.068;  302.281; -191.121; -300.782
642.340;  -62.917; -486.121; -566.783
642.613;   41.310;  294.880;  323.217
642.885; -102.414; -787.120; -878.783
643.157;  -54.262; -810.120; -658.784
643.428;   55.790;  170.880;  218.216
643.700;  -59.083; -498.120; -425.784
643.972;  -37.482;  -16.119; -133.785
644.244; -109.555; -474.119; -559.785
644.516;  -60.353; -250.119; -114.786
644.788;   58.424;  662.881;  548.214
645.060;  -17.924;  -12.119; -124.786
645.332;  -92.398; -525.118; -535.787
645.603;   30.554;  479.882;  342.213
645.875;  -80.994; -334.118; -369.787
646.147;  151.983; 1487.882; 1242.212
646.418;  -78.190; -931.117; -918.788
646.690;   92.186; -714.117; -715.789
646.962;   16.663; -413.117; -451.789
647.233;   -4.435;   15.883;   11.211
647.505; -111.083; -595.117; -475.790
647.776;   15.119;  328.884;  229.210
648.048;   -5.505; -248.116; -418.790
648.320;  -92.228; -752.116; -679.791
648.591; -157.801;-1055.116; -958.791
648.862;  -89.024; -505.116; -577.792
649.134;   16.928;  115.885;  198.208
649.405;  -63.096; -661.115; -618.792
649.677;  -57.694; -475.115; -598.793
649.948;  -12.592; -181.115; -296.793
650.219;   -8.015;  -37.115; -147.793
650.491;  -75.938; -431.114; -520.794
650.762; -123.112; -705.114; -731.794
651.033;  -87.085; -437.114; -424.795
651.304;  -98.008; -743.114; -728.795
651.576; -102.281; -680.114; -645.795
651.847;  -45.079; -250.113; -140.796
652.118;  -37.028;  -32.113; -189.796
652.389; -105.351; -639.113; -722.796
652.660;  -49.374; -147.113;  -89.797
652.931; -139.522; -897.112; -871.797
653.202;  -99.045; -382.112; -541.798
653.473;  -65.469; -633.112; -533.798
653.744;  126.058; -595.112; -590.798
654.015;  126.885; -356.112; -303.799
654.286;  -65.438; -642.111; -663.799
654.557;  -58.761; -586.111; -521.799
654.828; -164.710;-1114.111;-1088.800
655.099;  -82.433; -404.111; -291.800
655.370;  -98.931; -427.111; -543.801
655.641; -125.054; -656.110; -714.801
655.911; -106.052; -618.110; -638.801
656.182;   43.749;  437.890;  387.198
656.453;   87.626;  830.890;  746.198
656.724;  -84.197; -466.110; -426.802
656.994;  -77.045; -553.109; -568.803
657.265; -115.293; -862.109; -873.803
657.536;  -80.992; -500.109; -377.804
657.806;  -96.365; -561.109; -593.804
658.077; -139.738; -866.109; -950.804
658.347;  -86.286; -523.108; -598.805
658.618; -117.859; -646.108; -694.805
658.888;  -16.008;  -41.108;  112.195
659.159;  -90.156; -432.108; -548.806
659.429;  -27.304; -292.108; -349.806
659.700;    2.173; -435.107; -390.807
659.970;   -7.175; -370.107; -359.807
660.241;    6.076; -754.107; -921.807
660.511;  449.128; -147.107; -174.808
660.781;   56.505; -793.106; -748.808
661.052;  -53.393; -222.106; -381.808
661.322;  -29.767;   21.894;   -9.809
661.592;   11.160;  257.894;  148.191
661.862;  -80.013; -369.106; -382.810
662.133;  -97.111; -551.105; -502.810
662.403; -122.309; -770.105; -676.810
662.673;  -66.783; -256.105; -213.811
662.943; -104.581; -612.105; -551.811
663.213;  -13.704;  -85.105;  -81.811
663.483;  -85.027; -593.104; -568.812
663.753;  -52.500; -194.104; -152.812
664.023;  -22.724;   68.896;  -32.813
664.293;  -48.872; -319.104; -126.813
664.563; -117.220; -694.104; -648.813
664.833; -114.843; -743.103; -608.814
665.103; -144.941; -730.103; -793.814
665.373; -119.115; -766.103; -806.814
665.643; -104.188; -863.103; -918.815
665.913;   23.114; -534.103; -714.815
666.182;  131.666; -685.102; -719.816
666.452;  240.593;  -22.102;  -89.816
666.722;  -28.681; -724.102; -784.816
666.992; -127.329; -948.102; -921.817
667.261; -108.402; -824.102; -808.817
667.531;  193.000;  134.899;   45.183
667.801;  537.577; -440.101; -412.818
668.070;  228.053;  714.899;  697.182
668.340; -112.670; -883.101; -840.819
668.609;   96.032;  588.900;  301.181
668.879;  -94.566; -490.100; -558.819
669.149;  -69.989; -539.100; -516.820
669.418; -109.738; -698.100; -726.820
669.688;  -38.661; -482.100; -666.820
669.957;   44.391; -423.099; -546.821
670.226;  -18.782; -268.099; -331.821
670.496;  -89.705; -431.099; -635.822
670.765;  -87.954; -418.099; -501.822
671.034; -142.302; -872.099; -828.822
671.304;  -12.975;   55.902; -111.823
671.573; -150.973;-1085.098; -957.823
671.842;   53.379; -380.098; -294.823
672.112;   13.755; -692.098; -586.824
672.381;   -9.343; -239.098; -214.824
672.650; -132.166;-1005.097;-1021.825
672.919;  -91.214; -631.097; -507.825
673.188; -104.762; -681.097; -878.825
673.457; -156.936;-1101.097;-1143.826
673.726; -100.459; -579.096; -646.826
673.995;  -49.357; -533.096; -479.826
674.265;  -27.780; -263.096; -333.827
674.534;   -0.603; -183.096; -235.827
674.802;  -15.027; -618.096; -703.828
675.071;  879.325; -886.095; -801.828
675.340; 3513.627; -464.095; -339.828
675.609; 1181.704;  103.905;   82.171
675.878;   37.131; -949.095; -893.829
676.147;   37.807;  -26.095;   -8.829
676.416;   74.809; -210.094; -294.830
676.685;  667.011; 1000.906; -622.830
676.953;   85.138; -603.094; -452.831
677.222;  -35.460; -193.094; -273.831
677.491;  -27.859;  -24.094; -127.831
677.759;    3.843;   11.907;  172.168
678.028;  -25.755; -279.093; -222.832
678.297;   -5.403;   71.907;  197.168
678.565; -143.726; -898.093; -944.833
678.834;  -65.000; -311.093; -268.833
679.102;  -66.598; -411.092; -391.834
679.371; -137.246; -898.092; -727.834
679.639; -129.469; -797.092; -786.834
679.908; -119.118; -794.092; -724.835
680.176; -156.716; -895.091; -941.835
680.445;  -83.414; -346.091; -352.835
680.713;  -10.537;  -58.091;  -23.836
680.982;  -96.910; -523.091; -525.836
681.250; -110.534; -578.091; -507.837
681.518; -110.032; -534.090; -751.837
681.787;  -20.755; -204.090; -167.837
682.055;  -66.828; -490.090; -422.838
682.323; -152.101; -993.090; -992.838
682.591;   12.825; -216.090; -538.838
682.859;   77.477;    9.911;  -35.839
683.128;   19.629;  232.911;  497.161
683.396; -172.719;-1102.089;-1122.840
683.664;  -41.642; -241.089;   21.160
683.932;   -3.791;  144.911;  -76.840
684.200;  -79.039; -576.088; -320.841
684.468;  -42.362;  -73.088; -124.841
684.736;  -28.985; -214.088; -175.841
685.004; -132.333;-1024.088; -982.842
685.272;  -67.707; -880.088; -774.842
685.540;  -72.155; -499.087; -557.843
685.808;  -85.053; -651.087; -682.843
686.076; -117.501; -894.087; -969.843
686.343;  -64.424; -601.087; -815.844
686.611;   24.952; -195.087; -224.844
686.879;  405.229; -530.086; -553.844
687.147; 3002.706; -483.086; -480.845
687.414;  878.383;  -12.086; -169.845
687.682;  -13.265; -658.086; -757.846
687.950;  274.336;  259.915;  263.154
688.217;   -9.437; -792.085; -760.846
688.485;  -16.635; -632.085; -636.847
688.753;  461.692;  -11.085; -102.847
689.020;  135.719; -820.085; -851.847
689.288; -106.005; -853.084; -787.848
689.555;  -21.778; -195.084; -148.848
689.823;  -52.376; -241.084; -345.849
690.090;  -83.924; -546.084; -651.849
690.358; -166.172; -877.084; -897.849
690.625;    1.904;  120.917;   45.150
690.892;  -73.694; -403.083; -369.850
691.160;  -24.542;   72.917;  -35.850
691.427;   -5.865;  141.917;  130.149
691.694; -136.513; -855.083; -929.851
691.962; -144.637;-1177.082;-1060.852
692.229;    2.190;  127.918;   56.148
692.496;   75.617;  130.918;  -49.852
692.763;    7.394; -164.082; -201.853
693.031;  -78.954; -739.082; -716.853
693.298;  -48.853; -509.081; -368.853
693.565;  269.924; -155.081; -163.854
693.832; 1142.851;   -5.081;   -9.854
694.099;  114.053; -643.081; -642.855
694.366;  -58.545; -882.081; -896.855
694.633;  -67.269; -920.080; -633.855
694.900;  744.133; 4367.920; -114.856
695.167;  367.560; -214.080; -380.856
695.434;   94.362; -646.080; -623.856
695.701;  195.889;  121.921;  -61.857
695.968;  435.865; -365.079; -361.857
696.234;  954.342; -415.079; -646.858
696.501;10301.319; -776.079; -614.858
696.768; 5242.521; -554.079; -617.858
697.035;  305.123; -632.078; -667.859
697.302;   26.074; -448.078; -552.859
697.568;   -3.574; -458.078; -497.859
697.835;  -42.247; -683.078; -624.860
698.102;  -24.195; -498.078; -407.860
698.368;   73.731;  384.923;  396.139
698.635;  -26.317;  -47.077; -424.861
698.901;  -41.690; -240.077; -348.861
699.168;   42.487; -534.077; -456.862
699.435;   55.189;  -72.077;  -13.862
699.701; -101.385; -868.076; -764.862
699.968;    7.217;  144.924; -441.863
700.234; -104.006; -783.076; -822.863
700.500;  -56.404; -448.076; -539.864
700.767;   -6.502;   -1.075;   26.136
701.033; -144.826;-1015.075; -963.864
701.299;  -56.049; -450.075; -483.865
701.566;  103.978;  950.925;  763.135
701.832;   28.530;  -31.075;  -76.865
702.098; -108.443;-1054.074;-1034.866
702.365;  -83.192;-1098.074;-1030.866
702.631;  -33.265;-1038.074;-1063.867
702.897; 1273.162; -765.074; -676.867
703.163; 2105.089;  348.926;  254.133
703.429;  165.391; -256.073; -273.868
703.695;  -42.283; -796.073; -792.868
703.961;    7.119; -214.073; -210.868
704.227;  -63.954; -630.073; -725.869
704.493;  125.923;  613.927;  510.131
704.759;  -40.700; -565.072; -540.870
705.025;   22.101; -203.072; -194.870
705.291;  -12.297; -666.072; -562.870
705.557;  203.805;  719.928;   34.129
705.823;   14.082; -742.072; -694.871
706.089;  146.359; -307.071; -326.871
706.355;  373.685; -315.071; -244.872
706.620; 5720.787; -776.071; -729.872
706.886; 7888.239; -309.071; -362.873
707.152;  709.166; -818.070; -973.873
707.418;  -15.757;-1153.070;-1186.873
707.683;   -7.281; -550.070; -530.874
707.949;  -39.879; -547.070; -578.874
708.215;   -3.802; -129.070; -207.874
708.480;  -24.725; -520.069; -420.875
708.746;   89.827;   68.931;   28.125
709.011;  -66.547; -578.069; -612.876
709.277;  -61.820; -538.069; -543.876
709.542;  -56.918; -428.069; -387.876
709.808;   -8.691;  -59.068;   89.123
710.073;  -88.914; -577.068; -695.877
710.339;  -27.963; -242.068; -228.877
710.604;   52.264; -780.068; -845.878
710.869;  301.541; -277.068; -366.878
711.135;  -79.832; -715.067; -628.879
711.400;  -84.555; -507.067; -608.879
711.665;  -68.529; -404.067; -479.879
711.931;  -97.402; -661.067; -677.880
712.196; -120.925; -876.067; -954.880
712.461;   80.552; -402.066; -490.880
712.726;  115.329; -727.066; -771.881
712.991;  -83.320; -647.066; -664.881
713.256;  -41.793; -350.066; -332.882
713.521;  -61.616; -417.065; -381.882
713.787;  -64.289; -454.065; -472.882
714.052;  -42.287; -214.065; -400.883
714.317;  -86.486;-1045.065; -981.883
714.581; 1066.566; -374.065; -268.883
714.846; 1427.218; -822.064; -888.884
715.111;  135.470;  261.936;  257.116
715.376;  -29.878;  -86.064; -223.885
715.641;  -19.677; -365.064; -367.885
715.906;  270.525;   15.936; -551.885
716.171;  111.427;  221.937;  209.114
716.436;   19.229;  -78.063; -104.886
716.700; -113.920; -818.063; -692.886
716.965; -111.743; -794.063; -807.887
717.230;  -83.291; -339.063; -392.887
717.494;  -36.689;  -40.062; -134.888
717.759;  -85.237; -784.062; -640.888
718.024;   -0.286;  269.938;  250.112
718.288;   76.666;  685.938;  395.111
718.553; -158.882; -803.062; -977.889
718.817; -138.555; -883.061; -899.889
719.082;  -35.253; -115.061; -125.890
719.346; -141.652;-1000.061; -947.890
719.611;  -53.825; -300.061; -255.891
719.875;  -94.048; -568.060; -537.891
720.140;  -85.871; -453.060; -603.891
720.404;   28.556; -136.060; -249.892
720.668;  759.057; -475.060; -411.892
720.933;  308.759;  146.940;  137.108
721.197; -106.239; -667.059; -600.893
721.461; -139.087; -851.059; -826.893
721.725;  -25.035;  -21.059; -250.894
721.990;  -66.434; -284.059; -204.894
722.254;  -35.582;  -26.059; -108.894
722.518;  -74.580; -286.058; -442.895
722.782; -105.603; -743.058; -594.895
723.046;  118.299;  614.942;  570.105
723.310;   14.950;  374.942;  210.104
723.574; -110.073; -654.058; -614.896
723.838; -113.671; -576.057; -642.897
724.102;  -55.169; -226.057; -239.897
724.366; -159.867;-1032.057; -978.897
724.630;  -95.741; -749.057; -571.898
724.894;  -89.539; -722.057; -514.898
725.158;   -6.937;   38.944; -295.898
725.422;  -40.285; -394.056; -327.899
725.685;  -70.408; -441.056; -349.899
725.949;  -91.132; -566.056; -519.900
726.213;  -58.330; -732.056; -811.900
726.477;  139.947;-1020.055; -933.900
726.740;  134.124; -274.055; -104.901
727.004;  302.451; -384.055; -510.901
727.268; 3357.202; -442.055; -400.901
727.531;  917.804; -961.055; -775.902
727.795;  -44.094; -713.054; -673.902
728.059;  -68.642; -552.054; -557.903
728.322;  -77.890; -841.054; -669.903
728.586;    2.536; -692.054; -701.903
728.849;  -81.112; -695.053; -756.904
729.112; -129.460; -812.053; -912.904
729.376; -132.208; -959.053; -905.904
729.639;  -87.956; -536.053; -536.905
729.903; -106.505; -733.053; -699.905
730.166;  -55.028; -437.052; -399.906
730.429;  -31.951; -317.052; -468.906
730.693;  -82.649; -355.052; -894.906
730.956;  201.053;  810.948;  651.093
731.219;  646.929; -310.052; -103.907
731.482;   98.656;-1003.051; -894.907
731.745;   67.033; -794.051; -935.908
732.009;   19.135;  -30.051;   50.092
732.272; -114.163; -904.051; -771.909
732.535;  -51.912; -300.051; -310.909
732.798; -154.585;-1083.050;-1166.909
733.061;  -60.508; -430.050; -456.910
733.324;   -0.131;   31.950; -180.910
733.587;   58.246;  290.950;  365.090
733.850;  -69.853; -973.049;-1050.911
734.113;   38.649;   33.951;   32.089
734.376;   -4.774; -328.049; -447.912
734.639;  211.378; 1188.951; 1011.088
734.901;   46.729; -180.049; -402.912
735.164;  474.006; -883.048; -837.913
735.427; 1206.908; -166.048; -355.913
735.690;   97.110; -205.048; -234.913
735.952;  -41.963; -923.048; -925.914
736.215;  -24.837;-1113.048;-1009.914
736.478;   33.215; -771.047; -774.915
736.740;  204.442;   33.953;  129.085
737.003;  614.944; -658.047; -672.915
737.266; 3767.921;  -94.047;   46.084
737.528;  421.797; -682.047; -660.916
737.791;  289.074; -316.046; -327.916
738.053;  792.751;  465.954;  649.083
738.316;10771.528; -162.046; -136.917
738.578; 7544.555; -770.046; -736.918
738.841;  462.731; -382.046; -446.918
739.103;  189.958; -875.045; -777.918
739.365;  471.760;   79.955;  -69.919
739.628;  -11.063; -884.045; -805.919
739.890;  -29.936; -758.045; -710.919
740.152;  -58.035; -692.044; -754.920
740.414;  -23.183; -408.044; -359.920
740.677;  -53.481; -785.044; -634.921
740.939;  -46.079; -587.044; -487.921
741.201;  225.773; -432.044; -572.921
741.463;   15.174; -689.043; -745.922
741.725;    6.126;  -21.043; -199.922
741.987;   58.003;  220.957;  116.078
742.249;  -10.295; -751.043; -859.923
742.511;  192.357; -703.043; -794.923
742.773;    6.333; -546.042; -546.924
743.035;  117.110;  796.958;  533.076
743.297;  -64.188; -963.042;-1013.924
743.559;  688.789; -278.042; -262.925
743.821;   59.041; -735.042; -744.925
744.083;   -2.058;  -44.041; -149.925
744.345;  -92.806; -869.041; -892.926
744.607;   38.896;   75.959;  122.074
744.868;  -58.752; -490.041; -554.927
745.130; -112.975; -994.041;-1008.927
745.392;   43.026;   -1.040;  -44.927
745.653;   -7.022; -411.040; -378.928
745.915;  143.480;  896.960;  631.072
746.177;   54.157;   35.960;  -43.928
746.438;  -12.616; -428.040; -543.929
746.700;  -55.315; -947.039; -988.929
746.961;    9.937; -659.039; -740.930
747.223;  138.989; -190.039;  -74.930
747.484;   84.491; -391.039; -471.930
747.746;  144.068;  -23.038; -106.931
748.007;   93.119; -647.038; -689.931
748.269;  283.271; -468.038; -440.931
748.530;  420.623; -852.038; -638.932
748.791;  240.950; -354.038; -420.932
749.053;  409.252;  286.963;  163.067
749.314;  430.603; -236.037; -169.933
749.575;  489.230; -945.037; -905.933
749.836;  807.732; -217.037;   86.066
750.098; 2336.559;  -60.037;  -21.934
750.359;35078.161;  414.964;  555.066
750.620; 8893.662; -121.036; -220.935
750.881;  990.589; -585.036; -513.935
751.142; 1308.741; -950.036; -938.936
751.403;16359.643; -789.036; -705.936
751.664; 7230.369;-1034.035; -999.936
751.925;  483.596; -175.035; -262.937
752.186;  269.123; -298.035; -278.937
752.447;  132.875; -590.035; -445.937
752.708;   28.602; -532.035; -648.938
752.969;    5.028; -566.034; -576.938
753.230;  -17.170; -777.034; -672.939
753.491;  -16.243; -650.034; -631.939
753.751;   60.759;  109.966;   19.061
754.012;   87.811;  258.967;  181.060
754.273;   53.387; -174.033;  -71.940
754.534;    5.714; -487.033; -580.940
754.794;  -88.634; -926.033; -911.941
755.055;  128.118; 1051.967;  881.059
755.316;  -55.730; -700.032; -566.942
755.576;  -42.679; -606.032; -576.942
755.837;  -59.502; -527.032; -695.942
756.097;  -44.825; -530.032; -564.943
756.358;  -76.473; -725.032; -770.943
756.618;  -58.671; -705.031; -641.943
756.879;   -1.270; -254.031; -349.944
757.139; -130.818;-1098.031;-1116.944
757.400;  -62.166; -538.031; -553.945
757.660;   -8.389; -365.031; -401.945
757.920;    4.338; -266.030; -228.945
758.181;  -22.636; -468.030; -351.946
758.441;  -89.684; -870.030; -809.946
758.701;  -23.032; -308.030; -215.946
758.961;  -19.630; -220.030; -278.947
759.222;  -54.228; -574.029; -502.947
759.482;  -70.352; -683.029; -723.948
759.742;  -84.400; -706.029; -547.948
760.002;   -5.448;  -83.029; -143.948
760.262;   18.379;   50.972;  182.051
760.522;  -47.269; -498.028; -574.949
760.782;  -56.393; -738.028; -612.949
761.042;  -43.516; -618.028; -573.950
761.302;   48.836;   55.972;  -18.950
761.562;   43.163; -164.027; -154.951
761.822;   70.790; -710.027; -551.951
762.082;  -56.909;-1104.027;-1093.951
762.342;   60.568; -328.027; -403.952
762.601;   72.245; -567.027; -506.952
762.861;  344.297; -281.026; -207.952
763.121;  398.449; -406.026; -411.953
763.381; 7284.375; -499.026; -485.953
763.640; 8027.152; -139.026; -307.954
763.900;  356.679; -242.026; -203.954
764.160;   84.106; -458.025; -491.954
764.419;  -17.367; -726.025; -782.955
764.679;  -81.441; -795.025; -726.955
764.939;   -7.489; -124.025; -210.955
765.198;  -70.662; -608.025; -563.956
765.458;  -70.910; -710.024; -612.956
765.717;  -95.458; -454.024; -590.957
765.976;  -68.907; -428.024; -411.957
766.236;  -75.255; -475.024; -610.957
766.495;   18.972;  260.977;   73.042
766.755; -108.926;-1090.023; -987.958
767.014;    2.926; -594.023; -665.958
767.273;  -63.273; -373.023; -397.959
767.533;  -43.121; -228.023; -307.959
767.792;  -32.569; -151.022; -188.960
768.051;  -57.167; -228.022; -276.960
768.310;  -98.315; -546.022; -650.960
768.569;    8.086; -161.022;    4.039
768.828;  -40.587; -285.022; -363.961
769.088; -110.585;-1050.021; -942.961
769.347;  -92.408; -755.021; -599.962
769.606;  -90.932; -876.021; -857.962
769.865; -127.730;-1016.021;-1033.963
770.124;  -11.628; -411.021; -336.963
770.383;  -50.826; -778.020; -910.963
770.641;   -0.949; -398.020; -400.964
770.900;  -74.698; -953.020; -846.964
771.159;  -50.421; -851.020; -951.964
771.418;  -18.619; -917.020; -779.965
771.677;  133.408; -224.019; -293.965
771.936;  139.710; -794.019; -865.966
772.194; 2277.236; -465.019; -437.966
772.453;11228.688; -213.019; -391.966
772.712;  776.040;  416.982;  329.033
772.970;  107.217;   32.982;   63.033
773.229;   76.569;  -22.018;  102.033
773.488;  -83.780; -814.018; -770.968
773.746;   58.672;  296.982;  335.032
774.005;    5.724;  190.983;  -22.969
774.263;    5.126;  243.983;  177.031
774.522;  -48.797; -422.017; -548.969
774.780;  -87.946; -484.017; -417.970
775.039;  -95.719; -551.017; -531.970
775.297;  -16.617; -135.016; -351.970
775.555; -115.515; -489.016; -612.971
775.814; -118.438; -618.016; -570.971
776.072; -143.612; -749.016; -740.971
776.330;  -90.585; -630.016; -520.972
776.589; -130.533; -703.015; -721.972
776.847; -121.556; -645.015; -624.973
777.105; -172.879;-1016.015;-1032.973
777.363;  -78.003; -459.015; -454.973
777.621; -143.126; -660.015; -717.974
777.879;  -21.249;  -42.014;   32.026
778.138; -104.922; -554.014; -717.974
778.396; -117.120; -585.014; -526.975
778.654; -160.619;-1015.014; -970.975
778.912;  -71.367; -269.014; -371.976
779.170; -143.165; -880.013; -803.976
779.427; -161.388; -922.013; -897.976
779.685; -131.586; -880.013; -832.977
779.943;  -93.685; -654.013; -593.977
780.201; -173.058; -964.012; -883.978
780.459; -107.606; -651.012; -610.978
780.717;  -82.379; -440.012; -390.978
780.974; -101.952; -449.012; -490.979
781.232;  -85.301; -358.012; -338.979
781.490;  -78.299; -551.011; -472.979
781.747; -107.822; -555.011; -476.980
782.005;   24.805;  462.989;  254.020
782.263; -168.618; -542.011;-1004.981
782.520;  -93.217; -326.011; -501.981
782.778; -178.915;-1013.010;-1051.981
783.035; -175.938; -962.010; -938.982
783.293;  -69.286; -248.010; -206.982
783.550;  -59.234; -134.010; -198.982
783.808; -145.233; -764.010; -776.983
784.065; -155.606; -745.009; -874.983
784.322;  -54.029;   25.991;  -86.984
784.580; -133.302; -915.009; -771.984
784.837; -110.650; -392.009; -466.984
785.094; -138.224; -783.009; -762.985
785.352;  -79.872; -304.008; -404.985
785.609; -115.370; -934.008; -839.985
785.866;  -87.268; -345.008; -401.986
786.123;  -69.216; -639.008; -583.986
786.380; -119.290; -665.008; -604.987
786.637;  -51.038; -225.007; -380.987
786.895;  -19.586; -456.007; -543.987
787.152;  -50.359; -135.007; -267.988
787.409;  -50.808; -123.007; -225.988
787.666;  -82.231; -299.006; -378.988
787.923; -120.754; -616.006; -695.989
788.179;  -94.677; -551.006; -584.989
788.436; -100.800; -585.006; -585.990
788.693;  -28.349;  -92.006;  -87.990
788.950;  116.353; -125.005; -112.990
789.207;  182.355; -381.005; -372.991
789.464;  -65.318; -161.005; -301.991
789.720;  -15.841;  150.995;  110.009
789.977; -166.115;-1003.005; -671.992
790.234;  -33.188;   44.996;  -66.992
790.490; -157.861; -884.004;-1031.993
790.747;  -34.809;  -85.004;   22.007
791.004;  -23.982; -426.004; -348.993
791.260;  -81.481; -430.004; -560.994
791.517; -101.454; -843.003; -788.994
791.773;  -51.002; -379.003; -342.994
792.030; -115.925; -596.003; -660.995
792.286; -102.623; -686.003; -636.995
792.543;  -21.972;  -74.002; -159.995
792.799;  -57.020; -584.002; -382.996
793.055; -166.518;-1179.002;-1210.996
793.312;  -93.691; -827.002; -816.997
793.568;  -69.139; -746.002; -599.997
793.824;   -2.513; -226.001; -284.997
794.081;    8.039; -447.001; -508.998
794.337;   38.416; -664.001; -561.998
794.593; 1271.093; -319.001; -271.999
794.849; 6385.070; -746.001; -772.999
795.105;  329.296; -270.000; -261.999
795.361;    8.823; -490.000; -457.000
795.617;  -58.250; -875.000; -945.000
795.873;  -47.100; -360.000; -407.000
796.129;  -42.800; -368.000; -306.000
796.385;  -21.825; -124.000; -156.000
796.641;   50.225;  412.000;  550.000
796.897;  -93.300; -666.000; -635.000
797.153;   72.925;  453.000;  357.000
797.409; -108.250; -785.000; -868.000
797.665;  -86.925; -625.000; -732.000
797.921;  -78.900; -775.000; -762.000
798.176;  -59.250; -744.000; -747.000
798.432;  -58.075; -824.000; -596.000
798.688;  -87.275;-1174.000;-1078.000
798.943;   94.600; -165.000; -147.000
799.199;   -4.500;-1005.000; -959.000
799.455;  229.125;  369.000;  316.000
799.710;  118.500; -813.000; -380.000
799.966;  304.225; -162.000; -160.000
800.221;  470.125; -638.000; -721.000
800.477;10346.450; -743.000; -710.000
800.732; 9293.850; -773.000; -800.000
800.988;  640.100;  205.000;  -19.000
801.243; 1880.550; -454.000; -344.000
801.498; 8230.425; -814.000; -739.000
801.754;  454.950; -289.000; -163.000
802.009;   91.000; -257.000; -335.000
802.264;  -46.450; -967.000;-1033.000
802.520;   31.025;  222.000;   -3.000
802.775;  -49.275; -524.000; -359.000
803.030;   35.700;  395.000;  356.000
803.285; -116.700; -840.000; -903.000
803.540;  -66.100; -686.000; -699.000
803.795;  -46.625; -648.000; -583.000
804.051;  -50.625; -279.000; -346.000
804.306;    6.700;  168.000;  128.000
804.561;  138.325;  451.000;  362.000
804.816;  121.250;  714.000;  861.000
805.071;   -0.725; -185.000; -280.000
805.325;  180.975; -257.000; -427.000
805.580;  -96.700; -841.000; -877.000
805.835;  -30.875; -204.000; -297.000
806.090;  -82.325; -760.000; -676.000
806.345;  -30.400; -344.000; -264.000
806.600;  -25.900; -549.000; -632.000
806.854;  -19.875; -408.000; -538.000
807.109;  -11.550; -493.000; -577.000
807.364;   -7.375; -407.000; -328.000
807.618;   -1.975; -415.000; -381.000
807.873;   38.250; -470.000; -494.000
808.128;   94.500; -257.000; -518.000
808.382;   95.750; -224.000; -332.000
808.637;   66.975; -440.000; -511.000
808.891;  176.550; -257.000; -180.000
809.146;   83.350; -902.000; -794.000
809.400;  240.050; -848.000; -923.000
809.654;  312.650; -779.000; -551.000
809.909;  457.275; -841.000; -927.000
810.163; 6224.825; -813.000; -651.000
810.418;16289.900; -940.000; -861.000
810.672; 1029.250; -685.000; -690.000
810.926;  730.825; -993.000; -973.000
811.180; 1387.325; -439.000; -372.000
811.434;31775.125;  240.000;  135.000
811.689;12909.975; -231.000; -365.000
811.943;  645.525; -936.000; -953.000
812.197;  316.900; -893.000; -671.000
812.451;  140.075; -379.000; -514.000
812.705;  -30.875; -809.000; -619.000
812.959;   -3.800; -263.000; -388.000
813.213;   -0.975; -283.000; -209.000
813.467;   59.325;  470.000;  253.000
813.721;  -96.600; -764.000; -792.000
813.975; -124.500; -826.000; -877.000
814.229;   48.850;  430.000;  353.000
814.482;  -76.525; -517.000; -566.000
814.736; -118.325; -766.000; -744.000
814.990; -141.400; -779.000; -872.000
815.244;  -45.975; -228.000; -285.000
815.497;  -97.600; -636.000; -601.000
815.751;  -12.650; -141.000;   82.000
816.005;  -96.525; -470.000; -586.000
816.258;  -61.800; -510.000; -363.000
816.512; -110.975; -693.000; -610.000
816.766;   -7.700;  121.000;  157.000
817.019;   13.000;  148.000;  149.000
817.273; -113.825;-1000.000; -802.000
817.526;  -32.125; -206.000; -173.000
817.779;  -56.550;-1049.000; -960.000
818.033;  -68.125; -693.000; -807.000
818.286; -114.075; -725.000; -792.000
818.540;  -96.225; -403.000; -403.000
818.793;  -77.475; -402.000; -489.000
819.046; -112.725; -582.000; -520.000
819.299;  -37.925; -157.000; -166.000
819.553; -105.350; -552.000; -592.000
819.806; -157.800;-1016.000; -838.000
820.059;  -66.850; -334.000; -354.000
820.312;    5.100;  152.000;  185.000
820.565;  -22.875;  110.000;  -27.000
820.818;  -45.875;  -59.000; -173.000
821.071; -182.800;-1041.000; -957.000
821.324; -113.875; -536.000; -540.000
821.577; -114.575; -457.000; -483.000
821.830;  -66.675; -270.000; -172.000
822.083; -132.850; -733.000; -288.000
822.336;  -66.150; -261.000; -167.000
822.589; -130.925; -805.000; -688.000
822.842; -147.925; -875.000; -770.000
823.094; -169.500;-1076.000;-1114.000
823.347; -137.675; -925.000; -729.000
823.600;    9.375;  402.000;  187.000
823.853;  -47.525; -311.000; -267.000
824.105;  -91.350; -331.000; -575.000
824.358; -117.775; -617.000; -716.000
824.611;   21.025;  234.000;   40.000
824.863;  -52.175; -612.000; -591.000
825.116;   45.100;  -33.000;   27.000
825.368;   66.250; -366.000; -372.000
825.621;  155.500; -186.000; -240.000
825.873;   84.125; -704.000; -737.000
826.126;  566.300; -669.000; -641.000
826.378;11421.050; -389.000; -505.000
826.630; 2830.575; -890.000; -898.000
826.883;   29.025; -754.000; -693.000
827.135;   36.875; -279.000; -270.000
827.387; -112.750; -893.000; -839.000
827.639;  -49.550;  -86.000;   32.000
827.892; -137.400; -742.000; -582.000
828.144; -156.725; -848.000; -804.000
828.396;  -46.800;  104.000;  -80.000
828.648; -100.825; -440.000; -333.000
828.900; -142.875; -702.000; -795.000
829.152; -139.125; -684.000; -683.000
829.404;  -62.900; -215.000; -267.000
829.656;  -41.800;  321.000;  214.000
829.908;  -16.975;  393.000;  229.000
830.160; -175.425;-1064.000;-1047.000
830.412;  -85.900; -481.000; -430.000
830.664; -120.200; -557.000; -665.000
830.916;  -74.400; -268.000; -206.000
831.167; -185.750;-1073.000; -951.000
831.419; -117.400; -623.000; -566.000
831.671; -159.375; -764.000; -809.000
831.923; -105.475; -311.000; -447.000
832.174;  -88.075; -273.000; -331.000
832.426; -123.300; -493.000; -582.000
832.678; -184.600;-1043.000;-1091.000
832.929; -168.400; -947.000; -935.000
833.181;  -81.000; -575.000; -677.000
833.432;  -52.200;  -59.000; -186.000
833.684;  -22.800;  112.000;  -27.000
833.935; -126.525; -610.000; -566.000
834.187; -130.500; -829.000; -823.000
834.438;  -44.225;  -58.000;  -25.000
834.689;  -68.350; -255.000; -123.000
834.941;  -63.350; -343.000; -244.000
835.192; -107.300; -590.000; -533.000
835.443; -105.025; -419.000; -506.000
835.695;  -28.900;  138.000;  -16.000
835.946;  -94.975; -608.000; -378.000
836.197; -137.300; -599.000; -622.000
836.448;  -94.800; -528.000; -395.000
836.699;  -63.525; -253.000; -341.000
836.950;  -14.675;   72.000;    7.000
837.201; -152.900;-1003.000; -987.000
837.452;  -49.900; -356.000; -170.000
837.703; -126.750; -791.000; -737.000
837.954;  -53.800; -205.000; -365.000
838.205;  -87.650;-1029.000;-1008.000
838.456;  146.050; -196.000; -282.000
838.707;  -14.975; -423.000; -519.000
838.958;    6.125; -634.000; -647.000
839.209;  252.275;   18.000;   40.000
839.460;  108.700; -439.000; -201.000
839.710;  162.725; -135.000; -297.000
839.961;  414.700;  730.000;  612.000
840.212;  331.350; -382.000; -497.000
840.462; 1109.875; -328.000; -277.000
840.713;17609.700; -571.000; -536.000
840.964; 7201.000;  -62.000; -143.000
841.214;  471.275; -384.000; -624.000
841.465;  525.500; -214.000; -141.000
841.715;  491.750; -417.000; -380.000
841.966;  606.125; -746.000; -685.000
842.216; 8350.625; -330.000; -431.000
842.466;32371.650; -169.000; -313.000
842.717; 1792.025; -964.000; -952.000
842.967;  294.050; -635.000; -641.000
843.217;  249.150;   20.000;   28.000
843.468;   49.425; -104.000; -132.000
843.718;  -54.175; -718.000; -726.000
843.968; -102.875; -837.000; -765.000
844.218;   -5.950; -315.000; -262.000
844.469;  -65.750; -577.000; -561.000
844.719; -120.700; -537.000; -682.000
844.969; -100.000; -550.000; -580.000
845.219; -151.625; -814.000; -862.000
845.469;  -79.550; -392.000; -342.000
845.719; -156.625; -792.000; -884.000
845.969;  -23.775;  119.000;  174.000
846.219; -129.925; -738.000; -720.000
846.469;   14.075;  464.000;  432.000
846.718;  -54.325; -115.000;   31.000
846.968; -143.225; -827.000; -827.000
847.218;  -63.775; -224.000; -371.000
847.468;    0.775; -586.000; -555.000
847.718; -164.500; -827.000; -798.000
847.967; -131.075; -826.000; -915.000
848.217; -106.425; -449.000; -569.000
848.467;  -69.000; -405.000; -376.000
848.716; -112.175; -708.000; -725.000
848.966;  -18.725; -372.000; -358.000
849.215;  -66.800; -428.000; -419.000
849.465; -101.700; -785.000; -615.000
849.714; -159.500;-1132.000;-1150.000
849.964;  -69.650; -551.000; -613.000
850.213;  -42.900; -393.000; -355.000
850.463;   78.275;  137.000;  340.000
850.712;  -11.500; -542.000; -567.000
850.961;    9.125; -739.000; -678.000
851.211;   76.100; -513.000; -504.000
851.460;  157.275; -635.000; -650.000
851.709;  545.650;  -25.000;   18.000
851.958;10155.625; -912.000; -750.000
852.208;12697.175; -859.000; -879.000
852.457;  458.925; -181.000;  -13.000
852.706;   72.875; -791.000; -823.000
852.955;   16.125; -507.000; -528.000
853.204;  -82.600; -521.000; -461.000
853.453;  -85.575; -418.000; -458.000
853.702; -132.725; -660.000; -750.000
853.951; -108.025; -532.000; -520.000
854.200; -102.275; -613.000; -562.000
854.449; -137.925; -695.000; -661.000
854.698;  -98.425; -340.000; -279.000
854.946;  -82.300; -181.000; -284.000
855.195; -151.550; -843.000; -868.000
855.444;  -86.425; -395.000; -420.000
855.693; -123.525; -345.000; -432.000
855.941; -119.000; -387.000; -516.000
856.190;  -66.775; -256.000; -382.000
856.439; -141.300; -652.000; -703.000
856.687;  -69.350;  -99.000;  -72.000
856.936; -134.400; -621.000; -323.000
857.184; -182.350;-1067.000;-1020.000
857.433; -103.350; -423.000; -512.000
857.681; -178.175; -989.000; -953.000
857.930;  -79.250; -282.000; -433.000
858.178; -176.475; -856.000; -929.000
858.427; -148.975; -802.000; -781.000
858.675; -133.850; -377.000; -544.000
858.923; -110.175; -527.000; -819.000
859.172; -189.275;-1094.000;-1070.000
859.420;  -88.300; -339.000; -239.000
859.668; -138.075; -624.000; -628.000
859.916;  -36.475;  109.000;  115.000
860.164; -126.625; -699.000; -603.000
860.413;  254.000; -878.000; -696.000
860.661;  196.950; -709.000; -577.000
860.909;  -94.425; -339.000; -325.000
861.157; -109.550; -277.000; -444.000
861.405; -123.025; -534.000; -670.000
861.653;   -6.925;  310.000;  310.000
861.901;  140.200; -543.000; -613.000
862.149;  -25.875; -801.000; -824.000
862.396;  -81.050; -297.000; -187.000
862.644; -107.375; -368.000; -347.000
862.892;  -37.125;   98.000;  138.000
863.140; -132.950; -549.000; -530.000
863.388; -159.325; -815.000; -759.000
863.635; -126.500; -642.000; -601.000
863.883;  -20.025;  231.000;  190.000
864.131;  -97.275; -288.000; -357.000
864.378; -133.525; -675.000; -540.000
864.626; -100.575; -347.000; -415.000
864.873; -125.625; -556.000; -505.000
865.121; -151.725; -714.000; -799.000
865.368;  -48.425; -173.000;   75.000
865.616;  -42.600;  -33.000;  -40.000
865.863;  -69.600; -462.000; -506.000
866.111; -129.000; -795.000; -824.000
866.358;   46.225; -426.000; -420.000
866.605; 2424.225;  -64.000; -804.000
866.853; 2530.350; -621.000; -537.000
867.100;  -35.025; -728.000; -775.000
867.347; -103.025; -672.000; -611.000
867.594;  -94.475; -740.000; -714.000
867.841;   74.150;   97.000;   17.000
868.089; -166.400; -746.000; -698.000
868.336; -106.875; -477.000; -420.000
868.583; -139.825; -637.000; -741.000
868.830;  -61.075; -131.000; -170.000
869.077; -178.350; -859.000; -787.000
869.324; -119.300; -502.000; -458.000
869.571; -139.975; -398.000; -430.000
869.818; -117.300; -485.000; -439.000
870.065; -112.775; -439.000; -513.000
870.311; -115.475; -456.000; -542.000
870.558; -122.075; -332.000; -311.000
870.805;  -94.675; -320.000; -384.000
871.052; -111.150; -494.000; -369.000
871.298;  -68.400; -204.000; -131.000
871.545;  -75.500; -151.000; -185.000
871.792;  -98.850; -173.000; -222.000
872.038;  -75.600;   43.000; -126.000
872.285; -127.425; -496.000; -387.000
872.532; -120.175; -357.000; -387.000
872.778;   -8.975;  556.000;  403.000
873.025; -105.950; -384.000; -359.000
873.271;    7.450;  501.000;  578.000
873.517;  -37.550; -133.000; -209.000
873.764;  -30.325; -193.000;  -80.000
874.010;  -84.750; -143.000; -230.000
874.257;  -44.500;  123.000;   90.000
874.503; -141.000; -579.000; -479.000
874.749;  -68.000;   31.000;  275.000
874.995;  -67.425;  -80.000;  -20.000
875.242; -126.225; -540.000; -478.000
875.488; -124.200; -414.000; -439.000
875.734;  -79.175; -106.000; -234.000
875.980;  132.600; -872.000;-1032.000
876.226;  316.725; -157.000; -255.000
876.472;  -28.450;  343.000;  237.000
876.718;  -47.350;  184.000;  158.000
876.964;  -55.150;   56.000;   55.000
877.210; -161.225; -547.000; -677.000
877.456; -156.625; -630.000; -557.000
877.702; -174.100; -821.000; -832.000
877.948; -121.000; -377.000; -497.000
878.193;   -8.650;  361.000;  255.000
878.439; -107.550; -487.000; -472.000
878.685; -100.950; -272.000; -343.000
878.931; -145.150; -618.000; -676.000
879.176; -102.800; -201.000; -201.000
879.422; -184.025; -933.000; -820.000
879.668;   34.725;   10.000;   79.000
879.913;  125.100;   53.000;  137.000
880.159;  -61.325; -112.000;  -17.000
880.404;  -75.150; -152.000; -162.000
880.650;  -36.350;   91.000;  141.000
880.895; -155.725; -670.000; -710.000
881.141; -131.175; -454.000; -428.000
881.386; -151.150; -503.000; -658.000
881.631;  -85.650; -311.000; -166.000
881.877;  -42.000;  112.000;  -13.000
882.122; -142.325; -684.000; -600.000
882.367;  -92.100; -136.000; -186.000
882.612;  -69.700;  -80.000; -176.000
882.858; -181.350; -877.000; -823.000
883.103;  -99.675; -297.000; -267.000
883.348; -154.600; -759.000; -852.000
883.593; -155.200; -677.000; -602.000
883.838;  -67.575; -311.000;  -24.000
884.083;   26.725;  353.000;  288.000
884.328;  -95.525; -564.000; -545.000
884.573;  -48.725; -196.000; -143.000
884.818;  144.350; -694.000; -531.000
885.063;  165.250; -348.000; -315.000
885.308; -107.775; -475.000; -398.000
885.553;  -14.375;  245.000;  325.000
885.797; -136.300; -545.000; -615.000
886.042;  -60.025;    8.000;   58.000
886.287;  -94.225; -253.000; -211.000
886.532;  -49.950;   26.000;  204.000
886.776; -114.775; -407.000; -525.000
887.021; -151.850; -621.000; -574.000
887.265; -158.300; -685.000; -689.000
887.510; -130.500; -557.000; -496.000
887.755; -107.975; -194.000; -164.000
887.999; -145.325; -552.000; -575.000
888.244;  -61.500;  -58.000;  161.000
888.488;  -10.100;  371.000;  393.000
888.732; -127.725; -368.000; -520.000
888.977; -143.975; -622.000; -567.000
889.221; -168.575; -683.000; -659.000
889.465; -143.550; -422.000; -566.000
889.710;  -88.900;  -56.000; -299.000
889.954;  -12.675;  579.000;  467.000
890.198; -153.800; -584.000; -707.000
890.442; -155.400; -716.000; -712.000
890.687; -161.175; -800.000; -753.000
890.931;  -94.400; -273.000; -210.000
891.175; -136.025; -502.000; -500.000
891.419;  -79.025; -105.000; -110.000
891.663; -100.425; -239.000; -112.000
891.907; -171.125; -801.000; -545.000
892.151; -187.775; -920.000; -815.000
892.395; -108.550; -274.000; -387.000
892.638;  -38.625;  408.000;  291.000
892.882; -184.700; -780.000; -867.000
893.126;    0.700;  758.000;  558.000
893.370;  -90.450; -167.000; -168.000
893.614; -154.325; -714.000; -715.000
893.857; -100.200; -183.000; -197.000
894.101; -145.975; -527.000; -631.000
894.345;  -67.750;  300.000;  150.000
894.588;   -6.650;  569.000;  380.000
894.832;  -88.100; -178.000;  -84.000
895.075;  -88.550;   15.000;  -92.000
895.319; -134.375; -552.000; -420.000
895.563; -132.925; -413.000; -353.000
895.806; -170.075; -628.000; -741.000
896.049;  -81.075; -576.000; -368.000
896.293;   85.725;  527.000;  405.000
896.536;  -90.200; -465.000; -468.000
896.779;  -73.025; -149.000;   -1.000
897.023; -147.200; -751.000; -714.000
897.266;  -24.875;  325.000;  269.000
897.509; -195.675; -900.000; -901.000
897.752;  -47.850;  149.000;  171.000
897.996; -206.375; -972.000; -864.000
898.239;  -56.450;  168.000;  102.000
898.482; -127.225; -431.000; -453.000
898.725;  -33.900;  101.000;   53.000
898.968; -165.750; -609.000; -744.000
899.211; -118.525; -513.000; -361.000
899.454; -140.500; -633.000; -539.000
899.697;  -83.050;   90.000;  -43.000
899.940; -177.775; -761.000; -757.000
900.182; -102.650; -335.000; -405.000
900.425;  -97.625; -150.000; -298.000
900.668;  -29.150;  491.000;  350.000
900.911; -107.150; -292.000; -345.000
901.154;  -59.400;  141.000;   -3.000
901.396; -147.575; -407.000; -412.000
901.639; -147.325; -430.000; -496.000
901.882; -192.000; -790.000; -809.000
902.124;  -92.625;  -29.000; -143.000
902.367; -122.800; -315.000; -361.000
902.609; -144.200; -476.000; -453.000
902.852; -114.025; -108.000; -260.000
903.094; -124.075; -458.000; -337.000
903.337;  -80.975;  -26.000;   53.000
903.579; -117.650; -228.000; -441.000
903.821; -153.250; -597.000; -744.000
904.064;  -63.950;   85.000;  127.000
904.306; -100.975; -126.000; -166.000
904.548; -107.025; -152.000; -366.000
904.790; -105.125; -195.000; -340.000
905.033; -148.275; -625.000; -577.000
905.275; -145.125; -513.000; -524.000
905.517;   15.875;  468.000;  256.000
905.759; -101.100; -667.000; -761.000
906.001; -111.250; -322.000; -369.000
906.243;  -85.675; -162.000; -224.000
906.485;   81.900; -265.000; -207.000
906.727;   69.400; -499.000; -542.000
906.969;  -46.200;  -30.000; -135.000
907.211;   81.125; -316.000; -382.000
907.453;  245.625; -188.000; -237.000
907.695;  -14.500; -158.000; -385.000
907.936;   29.725;  818.000;  706.000
908.178;  -65.975;   92.000; -135.000
908.420;  -74.250; -111.000; -162.000
908.662; -138.950; -633.000; -682.000
908.903;  -82.050; -208.000; -123.000
909.145;  -70.950; -240.000; -305.000
909.386;   -9.450;  315.000;  280.000
909.628;   22.500;  363.000;  397.000
909.870;   -8.750;   29.000;  264.000
910.111; -118.200; -809.000; -949.000
910.353;    5.875; -123.000; -161.000
910.594;  -13.425; -574.000; -606.000
910.835;   74.175; -265.000; -326.000
911.077;  126.950; -503.000; -604.000
911.318;  275.350; -505.000; -471.000
911.559;  441.475; -577.000; -880.000
911.801; 1302.525; -284.000; -280.000
912.042;10191.775;  -50.000; -159.000
912.283;26742.250;  404.000;  371.000
912.524; 4098.600; -396.000; -457.000
912.765;  462.400; -193.000;   79.000
913.006;  232.225; -307.000; -338.000
913.247;   45.025; -270.000; -290.000
913.488;  -20.725;  -43.000;   30.000
913.729;  -82.175; -373.000; -373.000
913.970;  -75.700;  -96.000; -292.000
914.211;  -71.750; -160.000; -198.000
914.452;  -65.225; -118.000;  -11.000
914.693;    5.525;  510.000;  592.000
914.934;   10.225;  510.000;  440.000
915.175;  -66.075;   53.000;  -95.000
915.415;  -75.525; -137.000;   27.000
915.656;  -63.300;  -28.000;  192.000
915.897; -103.800; -252.000;  -82.000
916.137;  -72.050;   74.000;   -9.000
916.378; -133.750; -573.000; -517.000
916.619;  -91.800; -159.000;  -63.000
916.859;  -35.525;  303.000;  330.000
917.100;  118.400; 1655.000; 1070.000
917.340;   31.350;  930.000;  728.000
917.581;   41.050;  965.000;  789.000
917.821;  -54.950; -171.000;  143.000
918.061;   10.050; -199.000;  -72.000
918.302;  -51.350; -152.000; -211.000
918.542;  -33.900;  -22.000;    3.000
918.782;   41.400;  369.000;  377.000
919.023;  134.625;  360.000;  427.000
919.263; 1709.300; 8131.000;  202.000
919.503; 1091.600; -137.000;  -54.000
919.743;  546.275;  390.000;  266.000
919.983;  243.150; -134.000;  -26.000
920.223;   72.700;  135.000;   14.000
920.463;  132.825;  631.000;  554.000
920.703;  128.225;   84.000;   39.000
920.943;  169.950; -110.000;   90.000
921.183;  218.800; -414.000; -405.000
921.423;  510.000;  307.000;  546.000
921.663;  738.925; -174.000; -257.000
921.903; 1572.075;  237.000;  173.000
922.143; 8787.050;  372.000;  389.000
922.383;34076.625;  158.000;  115.000
922.622;11666.775; -120.000;  -15.000
922.862; 1229.800;  796.000;  785.000
923.102;  477.075;  -51.000;   33.000
923.341;  166.775;   59.000;   74.000
923.581;   76.975;  450.000;  360.000
923.821;   17.925;  301.000;  398.000
924.060;   -2.125;  351.000;  193.000
924.300;  -56.100;  -16.000; -128.000
924.539;  -14.525;  584.000;  473.000
924.779;   12.475;  812.000;  597.000
925.018;  -62.275;  247.000;  353.000
925.257;   -0.025;  595.000;  666.000
925.497;  -39.825;  447.000;  412.000
925.736;  -74.825;  -35.000;  102.000
925.975;   -8.300;  687.000;  669.000
926.214;   20.875;  907.000;  850.000
926.454;   23.950;  706.000;  757.000
926.693;  -40.000;  419.000;  543.000
926.932;   38.100; 1021.000;  825.000
927.171;   71.800; 1107.000; 1044.000
927.410;   52.225; 1144.000;  967.000
927.649;    9.425;  924.000;  742.000
927.888;  -21.525;  590.000;  564.000
928.127;  -11.725;  680.000;  678.000
928.366;   23.925;  842.000;  826.000
928.605;   37.375;  831.000;  737.000
928.844;  229.950; 1451.000; 1393.000
929.083;  578.925;  770.000;  613.000
929.321;  326.075; 1335.000; 1359.000
929.560;   89.700; 1158.000; 1122.000
929.799;  -33.425;  574.000;  475.000
930.038;   63.025; 1025.000; 1394.000
930.276;  -57.950;  334.000;  397.000
930.515;   -6.825;  827.000;  681.000
930.753;  -24.275;  614.000;  589.000
930.992;  -16.675;  664.000;  717.000
931.230;  -16.050;  847.000;  847.000
931.469;  160.775; 2162.000;  892.000
931.707;   57.800;  840.000;  751.000
931.946;   62.225; 1278.000; 1344.000
932.184;   53.550; 1437.000; 1175.000
932.423;   48.125; 1265.000;  963.000
932.661;   80.150; 1296.000; 1428.000
932.899;   15.250;  987.000;  821.000
933.137;   -1.100;  754.000;  564.000
933.376;  149.175; 1664.000; 1335.000
933.614;  162.275; 1759.000; 1196.000
933.852;   58.025; 1357.000; 1171.000
934.090;  131.700; 1722.000; 1747.000
934.328;   95.875; 1252.000; 1457.000
934.566;   93.375; 1431.000; 1110.000
934.804;  154.875; 1263.000; 1309.000
935.042;  462.975; 1861.000; 1850.000
935.280; 1962.175; 2088.000; 2063.000
935.518; 1854.275; 2113.000; 2007.000
935.756;  393.675; 2481.000; 2316.000
935.994;  161.725; 1808.000; 1751.000
936.231;  341.800; 2890.000; 2950.000
936.469;  185.300; 2367.000; 2378.000
936.707;  160.775; 2220.000; 2167.000
936.945;  241.250; 2825.000; 2882.000
937.182;  201.250; 2679.000; 2741.000
937.420;  299.900; 3602.000; 3031.000
937.657;  395.950; 3365.000; 3478.000
937.895;  337.200; 3331.000; 3488.000
938.133;  338.075; 3540.000; 3528.000
938.370;  328.400; 3896.000; 4191.000
938.607;  399.300; 4488.000; 4205.000
938.845;  558.450; 5587.000; 5549.000
939.082;  474.700; 5387.000; 5177.000
939.320;  519.300; 5799.000; 5728.000
939.557;  640.375; 6549.000; 6491.000
939.794;  713.475; 7285.000; 7097.000
940.031;  896.150; 8421.000; 8368.000
940.269; 1083.475; 9552.000; 9107.000
940.506; 1128.325;10901.000;10507.000

