
Integration time [ms]: 200.000
Averaging Nr. [scans]: 10
Smoothing Nr. [pixels]: 0
Data measured with spectrometer [name]: 2101013U2
Wave   ;Sample   ;Dark     ;Reference
[nm]   ;[counts] ;[counts] ;[counts] 

394.013;   85.226; -450.257; -315.536
394.305;  392.423; -461.258; -419.536
394.596; 2042.874; -676.269; -527.514
394.887; 5108.398; -796.268; -654.518
395.178; 1960.842;  145.736;   11.476
395.470;  147.758; -210.263; -356.526
395.761;  396.020;  305.734;  394.479
396.052;  621.792; -545.284; -306.489
396.343;  544.593; -557.276; -454.503
396.634;  180.148; -200.279; -290.497
396.926;  127.194; -618.268; -565.517
397.217;  203.500;   11.725;  -17.504
397.508;   95.823; -366.273; -154.507
397.799;   71.448; -555.279; -571.497
398.090;  -44.060; -973.280; -902.495
398.381;  223.483;   11.708;  -11.473
398.672;  -68.715; -585.292; -742.473
398.963;   75.057; -348.279; -373.498
399.254;  203.998;   54.709; -209.475
399.545; -100.985;-1017.266; -883.520
399.836;   59.777; -407.277; -343.501
400.127;  112.549; -205.295; -209.468
400.418;   41.015; -423.274; -392.506
400.709;   95.021; -359.281; -333.493
401.000;   78.304; -268.291; -309.476
401.290;  236.956;  225.698;  115.545
401.581;  111.267; -166.286; -228.485
401.872;   45.508; -542.298; -486.462
402.163;  105.838; -313.296; -252.467
402.454;  191.799; -123.291; -163.475
402.744;   81.225; -844.297; -813.465
403.035;  638.270; -226.293;  -86.471
403.326;  819.889; -366.292; -384.474
403.617;  608.600;  204.701;  165.539
403.907;  448.200; -593.283; -679.490
404.198; 4364.590; -545.307; -599.446
404.489;11433.707; -618.283; -588.491
404.779; 3778.762; -618.302; -660.456
405.070;  420.130;  -67.304; -174.451
405.360;  623.473; -259.293; -238.472
405.651;  645.678;  125.699;   98.542
405.942;  382.460;  209.714;  127.516
406.232;  414.281; -432.285; -413.487
406.523;  817.763;  641.706;  758.530
406.813;  136.063; -579.286; -644.484
407.104;  586.481;  261.708;  144.527
407.394;  261.702; -604.299; -591.462
407.685;  312.780;  336.715;  222.513
407.975;  129.705; -400.283; -382.490
408.265;  225.920; -134.289; -190.478
408.556;  107.494; -472.291; -459.475
408.846;  377.964;  474.706;  429.530
409.137;  176.832;   -1.288; -216.480
409.427;   83.281; -193.285; -271.487
409.717;   53.828; -776.273; -692.508
410.007;  284.471;    4.715; -170.486
410.298;  158.252; -360.295; -342.469
410.588;  131.777; -495.285; -510.486
410.878;   11.648; -792.287; -873.482
411.168;  207.112; -481.298; -478.463
411.459;  211.298; -295.283; -242.489
411.749;   87.892; -609.292; -507.474
412.039;   47.230; -755.289; -386.480
412.329;  353.467;   40.722;  132.501
412.619;  343.864;  -62.286; -148.485
412.909;  669.224;  639.711;  594.521
413.199;  539.040; -130.280; -251.495
413.490;  704.110;  521.710;  352.523
413.780;  209.646;-1013.279; -913.496
414.070;  578.295;  -46.276;  235.497
414.360;  592.962; -729.278; -666.498
414.650;  696.942; -726.288; -688.482
414.940;  933.445; -538.280; -441.496
415.230; 1644.838;   50.712;   74.519
415.520;10946.673;  155.730;   66.486
415.809;42594.020; -305.281; -125.493
416.099;34039.281; -388.277; -229.501
416.389; 9354.012;  435.726;  236.494
416.679; 5602.564;   91.738;   85.473
416.969;  981.955; -527.287; -503.483
417.259; 1087.449;  341.721;  171.503
417.549; 1240.219;  522.718;  318.508
417.838; 2911.097; -205.268; -147.518
418.128; 9885.518;  650.710;  492.522
418.418; 8325.337; -491.272; -579.509
418.708; 5614.512;    9.726;  -48.506
418.997;20734.206; -474.275; -480.505
419.287;21946.222; -733.273; -790.507
419.577;20435.596; -160.283; -123.489
419.866;64272.978; -588.277; -498.501
420.156;64286.667; -242.270;  -55.513
420.446;12685.353; -112.263;  -26.526
420.735; 1444.058; -376.271; -446.512
421.025; 1609.360; 1830.722;  315.502
421.314; 1095.955; -203.271; -226.512
421.604; 2066.487;   89.732;  233.484
421.893; 1174.250; -705.271; -602.511
422.183;  400.553; -487.263; -461.526
422.472;  626.852;  -36.271; -107.511
422.762;  731.523; -416.266; -379.521
423.051;  359.996; -916.276; -916.503
423.341;  520.825; -491.273; -439.507
423.630;  699.532; -121.265;   15.477
423.919;  643.705;   58.725;   49.495
424.209;  614.761;  -31.263;   56.473
424.498;  857.293;   68.732;  161.483
424.787; 1796.403; -535.267; -601.518
425.077; 5638.830;   34.735;   29.478
425.366; 7405.569; -734.262; -744.528
425.655;16792.325;  639.727;  259.493
425.945;37984.256; -313.247; -268.554
426.234;21716.702;  117.741;  300.467
426.523; 8772.510;  -86.259; -350.534
426.812;12270.817;  107.734;  159.480
427.101;17730.281; -127.269; -323.515
427.390;22322.272;  -55.270;  -86.514
427.680; 4535.638; -624.257; -411.538
427.969;  812.254; -330.255; -301.540
428.258;  503.526; -385.257; -477.536
428.547;  866.943;  449.728;  397.490
428.836; 1738.177; -421.253; -398.543
429.125; 2590.012; -199.259;  -72.534
429.414; 1263.410; -330.251; -294.548
429.703; 5412.310; -231.251; -213.548
429.992;16138.215; -938.250; -828.549
430.281;11003.643; -397.264; -331.524
430.570; 1046.396;  -21.252;   32.454
430.859;  997.009;  279.741;  352.466
431.148;  805.450;  636.752;  631.446
431.437;  571.196;  391.748;  367.454
431.725;  221.928; -544.257; -481.536
432.014;  187.288; -845.253; -756.545
432.303;  630.160; -149.239; -105.569
432.592;  952.052; -460.263; -178.525
432.881; 1742.852; -601.248; -437.554
433.169;10726.255; -343.255;  -61.540
433.458;22144.709;  445.765;  540.424
433.747; 9407.277; -397.261; -289.529
434.036; 1471.425; -275.242; -280.564
434.324; 3558.334; -395.249; -379.551
434.613; 6397.416;   40.757;  159.437
434.902; 2124.946;  333.760;  439.433
435.190;  833.858;   75.761;  295.431
435.479;  462.289;  -52.245;   83.441
435.767;  184.701; -411.244; -427.561
436.056;  377.919; -340.242; -294.563
436.345;  645.249; -372.240; -223.568
436.633;  711.727;   60.750;  383.450
436.922;  424.453;  208.760;  414.432
437.210;  803.795; -194.236;    1.426
437.499; 2421.606; -583.235; -432.576
437.787; 2725.894; -339.236;  -10.574
438.075;  813.667;   56.761;  162.430
438.364; 1104.170;  -44.238;  250.429
438.652;  618.322; -286.226; -138.592
438.941;  252.370;    3.770;  269.415
439.229;  -33.108; -665.252; -466.545
439.517;   88.619; -160.234;  -85.577
439.806;  -69.155; -501.225; -290.595
440.094;  312.930;  377.766;  650.421
440.382;  225.835; -653.233; -302.580
440.670;  315.706; -361.235; -285.576
440.959;   25.070; -347.223; -170.599
441.247;  121.487; -151.229; -109.587
441.535;  156.816; -266.235;   31.423
441.823;   51.026; -497.234; -305.578
442.111;  290.493;  173.771;  327.412
442.400;  723.688; -628.245; -335.559
442.688; 1834.529; -111.234; -620.579
442.976; 1279.097; -786.213; -450.617
443.264;  148.455; -324.224; -364.597
443.552;  182.524; -258.226;   51.408
443.840;  288.714;  602.765;  876.423
444.128;  238.334;  265.767;  269.420
444.416;  -34.204; -694.228; -312.588
444.704;   55.913; -465.219;  -92.605
444.992;  118.028;   -0.226;  240.407
445.280;   90.971; -517.230;  -94.585
445.568;    3.003; -694.212; -396.618
445.856;  487.290; -174.221;  357.398
446.143; 1036.608;  -54.220;   -7.604
446.431;  865.402;  -25.228;  625.411
446.719;  405.441;  489.783;  675.391
447.007;  316.563;  481.769;  705.416
447.295;  330.166;  597.777;  871.402
447.583;  136.983; -464.229;  -34.587
447.870;  192.886; -434.221; -202.601
448.158;  594.469; -104.230;  129.415
448.446;  438.609; -800.219; -338.604
448.733;  251.257;   13.776;  269.403
449.021;  375.002;   60.788;  341.382
449.309;  287.624; -296.210;  208.379
449.596;  389.536;  128.783;   59.392
449.884;  264.776; -571.222; -325.600
450.172;  234.410; -756.227; -406.590
450.459;  804.973;  645.786;  780.387
450.747; 4018.334; -411.218; -147.608
451.034;12995.403;  493.772;  889.411
451.322;10864.078; -413.214; -170.614
451.609; 1019.859;  292.777;  508.403
451.897;  960.415; -550.203; -183.634
452.184; 3061.666; -622.223; -400.598
452.472; 2950.655;   97.792;  269.375
452.759;  676.710;  512.781;  864.395
453.047;  159.399; -407.212; -125.617
453.334;  113.021; -732.219; -216.606
453.621;  124.981; -438.214; -161.615
453.909;  213.803;   13.796;  384.368
454.196;  165.869; -299.199; -123.641
454.483;  377.134;  317.798;  540.364
454.771;  207.859; -215.208;  196.374
455.058;  105.064; -316.207;  102.374
455.345;  208.049;   71.807;  344.347
455.632;  187.969; -128.207;  235.373
455.919;   90.502;  -82.196;  182.354
456.207; -110.124; -774.198; -450.642
456.494;  -67.149; -475.200;  -66.639
456.781;   44.128; -399.202; -198.635
457.068;  117.478; -253.206;  -29.628
457.355;   -6.920; -698.206; -401.629
457.642;    5.488; -552.205; -290.630
457.929;    3.836; -778.194; -417.651
458.216;   70.199; -575.212; -354.617
458.503;  453.343; -173.193;  -19.652
458.790;  331.756; -864.208; -630.625
459.077;  454.835;  -77.202;  110.364
459.364; 1319.326; -350.195; -210.649
459.651; 2851.175;  -46.206;  220.372
459.938; 1284.742; -864.209; -665.623
460.225;  264.039;  132.799;  276.363
460.512; -114.502; -836.197; -688.645
460.799;  194.932;  -32.218;  320.392
461.086;   82.958; -370.200; -251.640
461.372;   27.476; -509.198; -279.642
461.659;  180.504; -165.196;  108.354
461.946;   57.141; -445.193;  -54.651
462.233;  432.755;  842.800;  888.361
462.519;  539.650; -814.201; -464.639
462.806; 1557.698; -768.197; -497.645
463.093; 1515.571; -445.191;  -66.656
463.380;  -77.469; -920.186; -824.664
463.666;  102.101; -259.197;  -18.646
463.953;  136.119; -406.195; -243.648
464.239;  330.018; -173.195;  -77.648
464.526;  616.934;  413.806;  743.350
464.813;  490.188; -565.190; -304.658
465.099;  586.243;  606.807;  607.348
465.386;  579.748;  903.807;  921.348
465.672;    2.699; -694.197; -522.645
465.959;   43.914; -598.188; -520.662
466.245;   18.548; -468.193; -359.652
466.532;  153.415; -109.195;   63.352
466.818;   95.430; -357.186; -216.664
467.104;   -8.511; -488.182; -415.672
467.391;  -52.909; -628.189; -459.658
467.677;   89.336; -289.186;    9.335
467.964;    4.500; -682.189; -471.660
468.250;   88.239; -331.186; -160.665
468.536;  179.692;   90.811;  180.341
468.822;  -38.243; -821.184; -574.668
469.109;  288.806;  351.827;  471.311
469.395;  396.362;  729.808;  787.346
469.681;  342.497;   46.811;  156.341
469.967; 2030.703; -699.188; -382.660
470.254; 4367.615; -494.188; -306.662
470.540; 2976.202; -601.196; -476.646
470.826;  376.305; -488.181; -397.675
471.112;  560.762;  288.816;  113.331
471.398;  181.069; -253.183;  -58.670
471.684;   93.246; -626.177; -447.680
471.970;  -50.890; -918.180; -981.675
472.256;   54.061; -521.192; -441.654
472.542;   -0.179; -499.171; -434.691
472.828;   18.883; -743.182; -607.672
473.114;   57.185; -380.166; -283.700
473.400;    2.070; -504.175; -293.684
473.686;   54.894; -452.166; -400.701
473.972;  113.391; -230.174; -131.687
474.258; -101.094; -925.173; -843.689
474.544;  363.134; -183.178;   -2.679
474.830;  537.172;  -65.175;   45.316
475.116;  826.290; -123.190; -196.658
475.401; 1055.114; -558.180; -467.676
475.687;  284.912; -725.180; -718.676
475.973;  -36.306; -673.181; -770.673
476.259;  459.975;  736.825;  764.315
476.544;  587.357; -539.176; -437.682
476.830; 1363.516; -398.172; -322.690
477.116; 1198.655; -430.177; -336.682
477.401;  289.313;  346.820;  358.324
477.687;  -30.930; -289.175; -405.684
477.973;  135.499;   21.819;   28.326
478.258;  -20.777; -448.163; -348.706
478.544;   91.647;   21.815;   61.334
478.829; -131.071; -818.171; -738.692
479.115;  -72.085; -749.172; -651.690
479.401;   -7.016; -444.174; -449.686
479.686;   63.511; -253.180;  -74.676
479.972;  -93.259; -886.178; -776.680
480.257;   78.087; -258.166;  -65.700
480.542;   -2.365; -614.170; -469.693
480.828;  496.467; 1288.824; 1392.317
481.113;  -63.636; -464.176; -426.683
481.399;   27.858; -236.161; -202.711
481.684; -116.714; -620.166; -462.700
481.969;   88.877; -158.159;  -73.713
482.255;  -13.449; -439.169; -285.695
482.540;   19.442; -569.178; -441.680
482.825;   12.424; -395.187; -404.663
483.110;  212.855;  -85.169; -105.696
483.396;  303.109; -840.157; -652.718
483.681;  865.091;  543.826;  730.313
483.966;  257.368; -696.160; -700.712
484.251;   26.590; -404.174; -310.687
484.536;   -9.199; -356.165; -378.703
484.822;   54.394; -205.173; -218.687
485.107;  -53.036; -599.152; -502.726
485.392;  300.210;  662.836;  541.296
485.677;  155.670;  354.832;  163.302
485.962;  219.005;  160.843;  270.283
486.247;  159.435;  -14.162;   -8.707
486.532;  127.788; -178.166; -325.701
486.817;  293.550;  381.839;  431.291
487.102;  208.439; -453.154; -514.722
487.387; 1051.611; -637.156; -652.718
487.672; 1934.117; -154.164;  -38.705
487.957; 1248.060; -394.160; -286.711
488.241;  373.888; -290.150; -314.729
488.526; 1187.266; -280.152; -148.726
488.811; 1863.544; -881.177; -818.680
489.096; 1417.943; -666.154; -702.723
489.381;  820.060;    3.847;  162.275
489.666;  601.157; -428.161; -510.710
489.950;  395.447;  558.846;  627.277
490.235;  -73.119; -480.151; -458.728
490.520;  -96.044; -756.161; -723.710
490.804; -107.586; -827.156; -736.719
491.089;   18.811; -469.149; -299.732
491.374;   47.815; -132.164;  -75.704
491.658;  -52.773; -817.147; -717.735
491.943;  238.272; -657.152; -609.727
492.227;  371.633; -178.155;  -38.721
492.512;   86.404; -294.157; -341.717
492.797;  -97.698; -713.149; -716.731
493.081;  -98.669; -588.147; -598.735
493.366;  -68.242; -751.161; -635.711
493.650;  385.908;  831.859;  917.254
493.935;   78.027; -648.147; -447.734
494.219; -113.710; -778.142; -687.743
494.503;  -89.205; -585.150; -487.730
494.788;   86.192;   46.842;   74.285
495.072;  224.090;  184.850;  434.271
495.356;  230.815; -463.148; -343.733
495.641;  628.041; -812.146; -736.736
495.925;  591.021; -976.156; -903.719
496.209;   37.710; -599.149; -451.732
496.494;  -91.009; -763.142; -544.744
496.778;    9.939; -364.154; -360.722
497.062; -113.379; -819.156; -627.719
497.346;  -65.437; -869.160; -640.711
497.631;  323.821;  580.852;  560.266
497.915;  175.156;  -64.145;  175.261
498.199;   82.709; -341.157; -277.718
498.483;   56.663; -562.152; -508.725
498.767;  344.192;  301.850;  300.271
499.051;  317.007; -126.149; -100.732
499.335;   20.104; -693.149; -739.731
499.619;  -38.345; -381.129; -423.767
499.903;   43.331; -272.155;  -65.721
500.187;   36.850; -588.153; -316.724
500.471;  -36.029; -796.152; -595.727
500.755;  176.256;   62.839;  -96.710
501.039;   12.932; -270.155; -357.721
501.323;  168.811;  -21.141;  264.254
501.607;   50.524; -447.163; -503.706
501.891;  -29.589; -607.156; -512.718
502.174;  -80.828; -726.144; -585.741
502.458;  176.877;   89.849;  370.273
502.742;   74.345; -180.138; -191.751
503.026;  188.126; -412.147; -254.734
503.310;  265.176; -437.159; -375.713
503.593;  221.828; -464.147; -325.735
503.877;  183.704; -232.133; -156.760
504.161;  272.153;    2.847;  -50.724
504.444;  172.695; -841.158; -710.716
504.728;  697.114; -487.164; -522.704
505.012; 1126.387; -257.150;  -76.729
505.295;  901.858; -417.161; -212.711
505.579;  820.420; -256.156; -496.719
505.862; 1256.651; -555.145; -333.738
506.146; 1153.579; -681.159; -758.714
506.429;  701.480;  568.841;  461.286
506.713;   72.883; -732.151; -667.728
506.996;  591.138;   90.846;  295.278
507.280;  532.807; -633.165; -474.703
507.563;  401.829; -469.155; -261.721
507.847;  152.551; -423.153; -112.724
508.130;  163.759; -665.161; -456.711
508.413;  167.280; -758.167; -577.700
508.697;  407.181; -151.167;   12.300
508.980;  209.353; -422.153; -312.724
509.263;   -1.476; -466.155; -450.720
509.547;   61.887; -124.150;   82.271
509.830;  105.662; -172.160;  140.289
510.113;  183.620;  128.844;  298.281
510.396;   45.461; -530.152; -300.725
510.680;  114.153; -818.145; -812.738
510.963;  834.745;  184.846;  180.277
511.246;  663.498; -493.150; -357.730
511.529;  390.060; -482.145;  -83.739
511.812;  611.099; -250.134;   10.241
512.095;  414.179; -740.151; -396.728
512.378;  141.234; -317.147; -245.736
512.661;   30.656; -703.137; -623.753
512.944;   38.493; -750.142; -637.744
513.227;  137.653; -170.137; -171.752
513.510;   55.572; -479.144; -671.741
513.793;   48.717; -485.140; -435.747
514.076;  218.585;  -43.127;  -39.771
514.359;  194.311; -294.149; -135.732
514.642;  121.397; -442.142; -567.744
514.925; 1327.715;  581.860;  561.253
515.208; 1588.994; -498.134; -443.758
515.491; 1095.114; -276.133; -182.761
515.773;  567.878; -410.143; -337.742
516.056; 3400.566;  249.864;  409.246
516.339; 4333.571; -754.136; -652.755
516.622; 2830.994; -518.150; -488.730
516.904; 1728.288;  882.857;  975.257
517.187;  646.451; -730.138; -523.752
517.470;  556.986; -568.143; -510.743
517.752;  641.075; -624.136; -470.756
518.035;  492.132; -708.139; -725.749
518.318;  534.072; -799.136; -744.755
518.600; 3880.719; -300.132; -325.762
518.883; 5489.496;  310.858;   88.256
519.165; 2609.240; -585.138; -426.751
519.448;  546.318;  -61.132;  -19.762
519.730;  270.596; -573.126; -415.773
520.013;  540.808;  588.867;  664.240
520.295; 1109.701;  -94.134;  -15.759
520.578; 2300.237; -335.131; -305.764
520.860; 2676.818; -254.132;   56.238
521.143; 1399.879; -763.135; -584.756
521.425;  712.514; -251.125; -279.775
521.707; 1062.686; -622.127; -380.771
521.990; 2807.986; -199.127;  167.229
522.272; 3175.120; -116.140;   -4.748
522.554; 1413.479; -237.143; -157.742
522.836;  512.598;  -24.134;   99.241
523.119;  272.324; -496.148; -189.734
523.401;  189.547; -448.130; -314.766
523.683;   91.157; -865.137; -693.753
523.965;  510.448;  408.862;  260.248
524.247;  460.545;   54.878;  170.220
524.529;  311.801; -451.134; -367.759
524.812;  534.950;   -3.130;  191.234
525.094; 1365.747; -773.138; -631.751
525.376; 2155.828; -143.124;   78.223
525.658; 1308.767; -441.136; -339.754
525.940;  -32.768; -805.131; -671.764
526.222;   46.273; -188.136;  -88.755
526.504;  148.129; -190.131;   32.237
526.786;  181.305; -960.133; -647.760
527.068;  395.236; -124.123;  -67.778
527.349;  107.563; -865.137; -774.754
527.631;  192.518; -137.132;   22.238
527.913;  190.884; -664.127; -450.771
528.195;  199.004; -761.125; -639.774
528.477;  413.794;  -93.134;  -30.758
528.759;  167.750; -648.130; -522.766
529.040;   81.234; -569.123; -293.778
529.322;   54.108; -235.125;  -10.774
529.604;  215.153;  -47.130;   93.233
529.886;  132.995; -546.126; -302.773
530.167;  208.241;  232.870;  192.235
530.449;   47.233;    1.853;   63.265
530.731;   27.344; -572.122; -459.779
531.012;  110.674; -513.120; -216.784
531.294;  149.431; -118.116;  -43.792
531.575;  248.314;  290.875;  538.225
531.857;   82.286; -548.135; -266.757
532.138;  227.009; -113.141;   40.254
532.420;  296.981;  294.865;  403.244
532.701;  224.608; -722.133; -751.760
532.983;  556.113;  232.867;  182.239
533.264;  188.993; -243.126;  175.228
533.546;  -49.928; -491.136; -508.755
533.827;   90.303;  173.867;   -1.759
534.109;   38.886; -352.135;  -80.757
534.390;  122.024; -725.132; -582.762
534.671;  363.281; -270.135;  -82.756
534.953;  160.338; -751.123; -611.779
535.234;   18.809; -426.117; -255.789
535.515; -172.114; -891.119; -735.785
535.796;  -19.521; -431.128; -193.770
536.078; -243.173;-1050.124; -904.777
536.359;    0.739;  -22.123;    3.221
536.640;  -20.293; -480.125; -197.774
536.921;  263.761;  225.871;  143.232
537.202;  557.542;  -87.138;  -16.751
537.483;  785.036;  251.869;  377.236
537.764;  310.141;   17.870;   98.235
538.045;  -70.207; -543.134; -371.758
538.326;  -74.937; -596.129; -447.768
538.607;    6.887; -686.127; -476.771
538.888;  304.761;   98.879;    5.218
539.169;  282.353; -704.122; -535.781
539.450;  538.459;  236.871;   16.233
539.731;  303.467; -361.121; -182.783
540.012;  244.874;  199.880;  412.216
540.293;  190.119;   82.876;  158.224
540.574;  -25.939; -895.113; -717.796
540.855;  712.165;  435.879;  377.218
541.136;  802.549;   47.878;  139.220
541.416;  480.451; -161.130; -220.766
541.697;  309.730; -274.131; -170.763
541.978; 1716.384; -270.135; -315.757
542.259; 2094.686; -211.127; -236.771
542.539; 1045.722; -191.116; -186.790
542.820;  315.414;  461.875;  480.225
543.101;  207.255;  -52.145;  -77.738
543.381;   -0.414; -638.127; -591.771
543.662;  443.483;  159.873; -254.771
543.942;  844.780; -751.127; -830.770
544.223; 1677.752;  193.878;  161.219
544.504; 1035.427; -275.124; -182.777
544.784;  977.795; -592.126; -408.773
545.065; 2619.927;  104.884; -254.791
545.345; 3026.386;  227.881;   14.215
545.626; 2058.760;  -14.113; -108.796
545.906; 1411.140;   77.869;   98.235
546.186;  594.902;   92.874;  -95.773
546.467;  351.531;   99.877;  -95.778
546.747;  566.021;  264.884;  327.210
547.027;  595.225;   91.876;  111.223
547.308;  492.979; -376.127; -530.770
547.588;  689.264;  299.871;  371.232
547.868;  354.042;  458.870;  588.235
548.149;  375.238;  609.885;  593.207
548.429;  178.584; -347.127; -299.771
548.709;  270.574; -645.120; -461.784
548.989;  741.600;   84.882;   88.213
549.269; 3402.616;   10.868;  139.239
549.550; 7569.436;  215.877;  117.222
549.830; 6904.985; -758.111; -556.799
550.110; 1432.096; -468.110; -320.801
550.390; 1341.044; -128.122;  -56.779
550.670; 1634.853; -868.114; -783.795
550.950; 1271.364; -509.121; -471.782
551.230;  362.559;  549.879;  460.218
551.510;  -21.738; -381.121; -326.782
551.790;   54.008; -173.109; -127.803
552.070;  558.530;  940.877; 1181.223
552.350;  666.492; -492.119; -377.786
552.630;  944.255;   -2.121;   77.219
552.909;  611.428;  181.884;   73.209
553.189;  397.325;  -49.132;   33.237
553.469;  263.992; -703.119; -514.786
553.749;  275.288; -469.127; -357.772
554.029;  258.815;   33.883;  -24.790
554.308;  269.144; -154.115;  -37.794
554.588;  123.877; -196.128; -204.770
554.868;  116.965; -366.121;  -47.782
555.147;  251.140; -114.115;  -46.793
555.427; 1061.331; -260.116; -250.792
555.707; 6291.837; -284.115; -200.793
555.986; 7373.590; -719.111; -538.800
556.266; 3929.120;   23.884;   72.210
556.546;  166.962; -888.121; -675.782
556.825;  439.850; -657.114; -556.794
557.105; 2790.474; -125.128;   17.230
557.384; 3237.226;  122.884;  187.209
557.664; 1252.530; -717.116; -508.792
557.943;  200.564; -557.121; -411.782
558.222;  285.405; -345.118; -344.788
558.502;  450.342; -116.115;  -76.793
558.781;  818.635;  194.885;  499.208
559.061;  647.304; -232.118; -227.788
559.340;  511.811;  302.883;  353.211
559.619; 1109.619;   93.884;  148.210
559.899; 1571.214; -239.117; -266.789
560.178; 1475.041; -778.115; -593.793
560.457; 5094.117; -623.117; -562.790
560.736; 6760.192; -472.111; -482.800
561.015; 4677.871; -500.128; -502.769
561.295;  655.036;  180.893;  215.193
561.574;  589.538;  119.885;  116.207
561.853;  801.014;  274.891;  303.197
562.132;  826.245;  -45.114;  182.206
562.411;  748.456;  396.879;  553.219
562.690;  214.235; -592.115; -458.792
562.969;  296.470;  472.888;  630.203
563.248; 1057.453; 2966.878; 2487.219
563.527;  437.591; -290.111; -408.800
563.806;  613.784; -650.127; -521.771
564.085;  625.058; -297.105; -206.810
564.364;  397.619; -594.117; -405.790
564.643;  841.456; -276.121; -223.781
564.922; 2997.305;  221.890;  397.198
565.201; 2915.110; -640.109; -700.803
565.479; 1368.533; -297.115; -219.792
565.758;  467.374; -810.128; -712.770
566.037;  785.012; -155.109; -100.803
566.316;  348.527; -286.116;  -28.791
566.595;  121.337;  -17.115;  -12.793
566.873;  239.694; -166.111;  -79.801
567.152;  -77.931; -490.113; -590.797
567.431;   40.521; -113.116;    6.210
567.709;   80.737; -344.107; -212.807
567.988;  341.450; -810.114; -769.794
568.266;  838.937; -160.115;  -68.793
568.545;  593.326; -644.100; -514.819
568.824;  990.132;  160.885;  356.208
569.102;  822.949; -351.114; -235.794
569.381;  355.231; -492.116; -407.792
569.659;  -79.536; -553.113; -553.796
569.938;   10.450; -743.122; -465.780
570.216;  148.616; -225.109; -225.804
570.494;  -32.646; -632.114; -572.795
570.773;   73.262;  202.879;  114.218
571.051;   22.235; -373.123; -357.778
571.330;  102.960; -221.113; -174.796
571.608;   74.252; -181.098; -173.823
571.886; -141.717; -671.111; -581.799
572.164; -150.935; -739.121; -621.782
572.443;  -63.136; -562.105; -512.811
572.721;  -59.583; -399.117; -289.790
572.999;  -78.193; -280.117; -168.788
573.277;  225.454;  379.894;  620.191
573.555;  497.057;   94.894;   37.190
573.834; 2139.807;  -86.117; -114.788
574.112; 2543.640;  880.893;  811.193
574.390;  819.293; -143.111;  -96.801
574.668;   -0.529;  -91.112;  -61.797
574.946;    2.658; -165.106; -187.810
575.224;   32.610;   71.891;  -16.803
575.502;  -24.877; -200.116; -204.791
575.780; -153.328; -767.112; -829.798
576.058;  478.891; 1589.889; 1004.200
576.336;    8.499; -210.110; -129.801
576.614;  -78.827; -511.112; -340.798
576.891;   78.143; -711.115; -823.794
577.169;  788.127; -158.108; -285.805
577.447;  934.239;  169.893;  202.193
577.725;  481.379;  629.888;  854.201
578.003;   23.876;  -71.112; -371.798
578.280;  179.177; -208.104; -242.812
578.558;   65.442; -450.115; -422.793
578.836;  208.054; -210.114; -145.795
579.114;   45.270; -630.112; -670.797
579.391;  143.409;   -6.117;  -18.789
579.669; -157.955; -595.114; -704.794
579.947;  251.335; -326.107; -127.806
580.224;  448.434; -692.107; -524.806
580.502;  573.840;  127.893;   76.193
580.779;   37.518;  -42.117;   75.210
581.057; -129.484; -584.109; -470.804
581.334; -197.402; -726.102; -695.815
581.612;  127.659;   54.895;  511.190
581.889;  -37.383;  -83.101; -129.818
582.167;  -46.462; -298.099; -190.821
582.444; -204.391; -845.102; -814.817
582.721;  242.510;  657.899;  715.183
582.999;  111.834; -326.100; -167.821
583.276;  826.141; -812.123; -713.779
583.553; 1061.903; -364.102; -294.816
583.831;  321.972; -607.104; -631.812
584.108;  123.424;  349.892;  174.195
584.385;   36.097; -122.102;  -98.815
584.662; -136.105; -651.111; -828.801
584.940;   69.493;  204.889;  204.199
585.217;  -35.237;  -73.113; -303.796
585.494;   68.706;   71.890;  118.198
585.771;  313.817; -250.109; -354.804
586.048;  782.863; -196.113;  -76.796
586.325;  464.098; -721.110; -773.801
586.602;  205.077;  230.896;  213.188
586.879;  -50.971; -499.100; -580.820
587.156;   96.660; -156.105; -331.810
587.433; -100.393; -701.102; -667.817
587.710;  123.473;  152.888;  234.202
587.987;  475.068; -264.105; -236.811
588.264; 1236.976;  315.888;  387.202
588.541; 2167.781;  -61.104;   26.187
588.818; 4204.820;   72.892;  171.196
589.095; 3559.974; -163.104; -174.812
589.371;  617.914; -459.109; -414.804
589.648;    7.440; -581.107; -437.807
589.925;   51.455; -517.114; -621.795
590.202;  -16.727; -741.112; -607.798
590.478;  166.170; -166.105;  -73.811
590.755;  456.229; -241.108; -132.806
591.032; 3970.801; -741.110; -699.802
591.308; 5114.010; -732.094; -790.831
591.585; 2764.101; -573.110; -560.802
591.862;  164.409;-1056.102; -950.817
592.138;   76.426; -475.108; -474.805
592.415;  264.678; -486.104; -495.813
592.691; 2399.575;  460.896;  518.188
592.968; 2877.955; -208.098; -123.824
593.244; 1391.321; -695.116; -595.790
593.521;  148.209; -105.102;  -42.817
593.797;  -62.654; -810.122; -720.780
594.074;  480.973; -611.096; -588.826
594.350; 1098.789;  828.905;  729.172
594.626;  461.395; -303.111; -283.801
594.903;  168.610; -643.101; -645.817
595.179;  347.784;  243.896;  418.187
595.455;   38.742; -136.107; -150.807
595.731;   24.486;  -19.103;  -38.814
596.008;  -20.314; -464.111; -434.800
596.284;   61.332; -187.100; -242.820
596.560;   91.619; -501.093; -493.833
596.836;  295.763; -173.105;  -70.810
597.112;  537.627; -582.108; -437.805
597.388;  453.270;  -49.097;  -48.826
597.665;  281.167;  437.887;  530.203
597.941; -105.638; -572.089; -658.839
598.217;   38.706; -323.110; -293.802
598.493;  439.520;   61.891; -204.804
598.769;  807.224; -175.100;  -50.819
599.045;  451.231; -490.108; -562.806
599.321;  106.631; -193.100; -261.820
599.597;  208.219; -355.109; -476.804
599.872;  771.281;  409.896;  429.187
600.148;  584.772;  -61.097; -172.826
600.424;  506.238;   91.893;  202.193
600.700;  360.141; -170.107; -280.807
600.976;  187.764; -442.097; -464.825
601.252;  354.714; -226.109; -272.803
601.527;  300.882; -833.104; -840.813
601.803;  231.971; -453.105; -404.812
602.079;  300.424; -124.100; -118.819
602.354;  876.934; -620.092; -531.835
602.630; 1285.063; -140.113; -482.796
602.906; 3825.317; -910.101; -863.818
603.181;10234.992; -627.119; -534.786
603.457; 8826.669;   98.903; -278.826
603.733; 1287.268; -605.120; -626.783
604.008; 1629.158; -245.106; -164.810
604.284; 4498.812; -636.101; -580.817
604.559; 4028.879;   -3.112;  -42.799
604.835;  803.563; -163.105; -225.810
605.110;  634.439; -732.099; -892.821
605.385; 1102.923;  224.907;  267.167
605.661; 1011.693; -625.095; -729.829
605.936; 1767.531; -664.108; -737.806
606.211; 1633.596;  -17.103; -170.815
606.487;  304.848; -329.114; -376.794
606.762;    6.992; -791.119; -745.786
607.037;  -24.437; -501.105; -433.810
607.313;  -88.116; -589.096; -574.828
607.588;   10.458; -375.106; -137.810
607.863;   83.617;  -28.101; -143.818
608.138;  335.104;  513.890;  516.198
608.413;   39.644; -576.099; -592.822
608.688;   73.326; -203.108; -267.805
608.964;  287.349; -509.106; -218.809
609.239;  352.759; -107.105; -212.810
609.514;  470.870;  281.895;  240.188
609.789;  977.377; -187.104; -716.812
610.064; 1327.582; -435.096; -609.827
610.339; 1384.114; -855.109; -799.804
610.614; 1779.432; -131.100; -315.820
610.889; 1090.971;  215.895;  107.188
611.163;   31.072; -407.104; -591.812
611.438;  182.849;   81.886; -167.794
611.713;   -6.088; -467.101; -499.817
611.988;  136.615; -144.101; -328.818
612.263;  -64.502; -771.102; -717.815
612.538;  412.462;  385.887;  251.204
612.812;  243.533; -832.100; -911.820
613.087;  222.652; -358.098; -338.823
613.362; -105.558; -497.107; -557.807
613.637;  122.890;  261.897;  138.186
613.911;  -25.165; -256.092; -345.835
614.186;  234.739; -249.107; -292.807
614.460;  987.670; -842.081; -758.854
614.735; 1217.996;  -55.087;  -17.843
615.010;  260.081;   43.912;  -82.841
615.284;  430.325;  360.892;  246.195
615.559;  465.533; -792.092; -955.835
615.833;  488.841;  -76.099;  -87.822
616.108;  -11.250; -225.090; -390.837
616.382;  317.898;  274.913;  402.156
616.656;  247.051; -241.090; -232.837
616.931;  755.742; -785.099; -700.822
617.205; 1588.983; -973.104; -979.813
617.480; 1466.311;  -91.125;    6.225
617.754;  253.908; -396.125; -128.774
618.028;   -6.235; -369.129; -382.768
618.302;  140.923;   73.892;  -25.805
618.577;  -72.508; -371.103; -518.815
618.851; -138.491; -399.109; -600.803
619.125;  -58.899; -335.134; -378.759
619.399;  -61.017; -244.104; -374.813
619.673;  -71.768; -330.115; -515.792
619.947;  -53.746; -333.114; -448.795
620.222;  -30.004; -198.110; -204.801
620.496;   23.965;  -47.121;  -96.782
620.770;   40.853; -187.122;  -93.781
621.044;  378.360;  323.895;  346.190
621.318; 1102.169; -653.120; -614.783
621.592;  992.866; -430.121; -409.783
621.866;  542.980; -476.112; -572.799
622.140;   39.323; -207.116; -356.791
622.413;  130.186;  138.889;  112.200
622.687;  -92.988; -746.101; -492.817
622.961;   66.023; -130.108; -143.805
623.235; -134.713; -633.111; -661.800
623.509; -197.330; -816.105; -848.811
623.783;   23.736;  -12.107;   48.193
624.056;    1.070; -254.120; -280.783
624.330;  121.171;   63.888;   -3.797
624.604;   98.319; -271.116; -355.790
624.877;  133.102;  180.890;   26.198
625.151;   70.946; -249.114; -238.794
625.425;  -49.814; -150.103; -283.814
625.698; -137.016; -367.119; -374.785
625.972; -184.294; -799.110; -765.802
626.245;  189.121;  685.884;  484.210
626.519;  -90.924; -426.120; -340.784
626.792;  -36.959; -192.107; -380.807
627.066; -145.258; -485.122; -662.779
627.339; -185.500; -736.110; -663.802
627.613;  109.674;  351.880;  148.216
627.886;  136.209;  187.891; -612.803
628.160;   -5.032;  312.880; -161.783
628.433; -182.685; -695.125; -703.775
628.706; -135.424; -517.120; -615.784
628.979;   95.125;  296.876;  117.223
629.253; -191.409; -785.119; -833.786
629.526;  590.593; -334.126; -253.772
629.799;  493.535; -641.123; -479.778
630.072;  288.367; -497.128; -516.769
630.346; -158.479;-1115.116;-1080.790
630.619;  711.243; -467.107; -545.808
630.892; 1007.488;  709.889;  593.200
631.165;  622.783;  790.896;  679.187
631.438; -200.924;-1092.112;-1055.798
631.711;  147.340;  453.877;  257.221
631.984;  -85.586; -523.117; -624.789
632.257; -109.091; -636.117; -681.789
632.530;  -58.616; -412.119; -433.785
632.803;   79.743; -109.115;    7.207
633.076; -119.870; -360.123; -422.777
633.349;   63.373;  173.872;  121.231
633.622;  -53.717; -187.119; -240.785
633.895; -234.330; -903.120; -823.783
634.167; -103.404; -496.126; -525.773
634.440;  -10.070;  -19.116; -137.792
634.713;   18.989;  -22.119; -120.786
634.986;  204.658;  593.871;  453.233
635.258; -130.660; -507.115; -597.793
635.531;  265.904;  742.882; -343.788
635.804;  -77.687; -303.117; -318.789
636.077; -161.075; -830.116; -852.791
636.349;  -47.262; -586.115; -474.793
636.622;  777.392; 1695.874; 1392.228
636.894;  357.577; -474.120; -909.784
637.167;  236.583; -836.127; -789.771
637.439;   47.078; -278.128; -213.770
637.712;  -72.106; -312.126; -293.772
637.984; -163.474; -635.116; -707.791
638.257;  716.231;  515.877;  488.222
638.529;  749.817; -881.125; -924.776
638.802;  411.367; -508.128; -449.769
639.074; -242.849; -927.122; -952.781
639.346; -212.711; -942.135; -930.757
639.619;   54.795;  -79.142; -319.744
639.891;   30.443;  -83.122; -168.779
640.163; -156.355; -689.122; -756.780
640.435;   88.348;  273.878;  103.220
640.708;   39.150;  -72.122; -132.780
640.980;  -58.347; -366.122; -362.781
641.252;  350.856;  -25.121;  -71.781
641.524; 2826.458;  580.879;  573.219
641.796; 2684.561;-1094.121; -907.782
642.068;  532.764; -191.121; -300.782
642.340; -135.734; -486.121; -566.783
642.613;  136.569;  294.880;  323.217
642.885; -155.428; -787.120; -878.783
643.157;  -81.826; -810.120; -658.784
643.428;  109.577;  170.880;  218.216
643.700;  -86.820; -498.120; -425.784
643.972;  -56.718;  -16.119; -133.785
644.244; -168.715; -474.119; -559.785
644.516;  -72.013; -250.119; -114.786
644.788;  182.990;  662.881;  548.214
645.060;   12.193;  -12.119; -124.786
645.332; -131.205; -525.118; -535.787
645.603;  106.498;  479.882;  342.213
645.875; -100.099; -334.118; -369.787
646.147;  354.303; 1487.882; 1242.212
646.418; -146.694; -931.117; -918.788
646.690;  191.809; -714.117; -715.789
646.962;   29.411; -413.117; -451.789
647.233;   24.414;   15.883;   11.211
647.505; -158.483; -595.117; -475.790
647.776;   85.419;  328.884;  229.210
648.048;   12.722; -248.116; -418.790
648.320; -158.875; -752.116; -679.791
648.591; -283.773;-1055.116; -958.791
648.862; -142.870; -505.116; -577.792
649.134;   98.732;  115.885;  198.208
649.405;  -70.865; -661.115; -618.792
649.677;  -83.362; -475.115; -598.793
649.948;  -14.760; -181.115; -296.793
650.219;   23.543;  -37.115; -147.793
650.491; -131.054; -431.114; -520.794
650.762; -217.052; -705.114; -731.794
651.033; -137.949; -437.114; -424.795
651.304; -179.946; -743.114; -728.795
651.576; -128.344; -680.114; -645.795
651.847;  -28.841; -250.113; -140.796
652.118;   -6.138;  -32.113; -189.796
652.389; -154.936; -639.113; -722.796
652.660;  -30.933; -147.113;  -89.797
652.931; -261.031; -897.112; -871.797
653.202; -137.728; -382.112; -541.798
653.473;  -84.625; -633.112; -533.798
653.744;  198.377; -595.112; -590.798
654.015;  218.980; -356.112; -303.799
654.286; -140.617; -642.111; -663.799
654.557; -103.715; -586.111; -521.799
654.828; -308.812;-1114.111;-1088.800
655.099; -120.709; -404.111; -291.800
655.370; -148.907; -427.111; -543.801
655.641; -216.204; -656.110; -714.801
655.911; -159.301; -618.110; -638.801
656.182;  120.501;  437.890;  387.198
656.453;  199.904;  830.890;  746.198
656.724; -104.994; -466.110; -426.802
656.994; -168.691; -553.109; -568.803
657.265; -176.588; -862.109; -873.803
657.536; -160.086; -500.109; -377.804
657.806; -155.983; -561.109; -593.804
658.077; -241.380; -866.109; -950.804
658.347; -124.278; -523.108; -598.805
658.618; -180.075; -646.108; -694.805
658.888;   10.028;  -41.108;  112.195
659.159; -143.770; -432.108; -548.806
659.429;    4.233; -292.108; -349.806
659.700;  -14.164; -435.107; -390.807
659.970;   10.438; -370.107; -359.807
660.241;   -0.959; -754.107; -921.807
660.511;  763.643; -147.107; -174.808
660.781;  115.446; -793.106; -748.808
661.052;  -37.351; -222.106; -381.808
661.322;   -6.149;   21.894;   -9.809
661.592;   78.554;  257.894;  148.191
661.862;  -99.943; -369.106; -382.810
662.133; -154.041; -551.105; -502.810
662.403; -195.238; -770.105; -676.810
662.673;  -45.335; -256.105; -213.811
662.943; -155.533; -612.105; -551.811
663.213;   30.270;  -85.105;  -81.811
663.483; -145.627; -593.104; -568.812
663.753;  -64.325; -194.104; -152.812
664.023;   -6.722;   68.896;  -32.813
664.293;  -39.619; -319.104; -126.813
664.563; -191.417; -694.104; -648.813
664.833; -219.414; -743.103; -608.814
665.103; -218.812; -730.103; -793.814
665.373; -203.509; -766.103; -806.814
665.643; -184.306; -863.103; -918.815
665.913;   48.996; -534.103; -714.815
666.182;  161.299; -685.102; -719.816
666.452;  430.402;  -22.102;  -89.816
666.722;  -70.096; -724.102; -784.816
666.992; -252.393; -948.102; -921.817
667.261; -210.690; -824.102; -808.817
667.531;  375.512;  134.899;   45.183
667.801;  767.515; -440.101; -412.818
668.070;  441.518;  714.899;  697.182
668.340; -189.480; -883.101; -840.819
668.609;  261.423;  588.900;  301.181
668.879; -135.175; -490.100; -558.819
669.149; -106.072; -539.100; -516.820
669.418; -182.369; -698.100; -726.820
669.688;  -32.967; -482.100; -666.820
669.957;   90.736; -423.099; -546.821
670.226;   -9.961; -268.099; -331.821
670.496; -155.159; -431.099; -635.822
670.765; -117.856; -418.099; -501.822
671.034; -245.853; -872.099; -828.822
671.304;   59.749;   55.902; -111.823
671.573; -293.348;-1085.098; -957.823
671.842;  132.255; -380.098; -294.823
672.112;   34.557; -692.098; -586.824
672.381;   36.360; -239.098; -214.824
672.650; -263.938;-1005.097;-1021.825
672.919; -123.235; -631.097; -507.825
673.188; -162.932; -681.097; -878.825
673.457; -286.930;-1101.097;-1143.826
673.726; -120.927; -579.096; -646.826
673.995;  -60.724; -533.096; -479.826
674.265;  -32.022; -263.096; -333.827
674.534;    4.381; -183.096; -235.827
674.802;   25.484; -618.096; -703.828
675.071; 1657.486; -886.095; -801.828
675.340; 5768.989; -464.095; -339.828
675.609; 2050.492;  103.905;   82.171
675.878;   50.594; -949.095; -893.829
676.147;  107.097;  -26.095;   -8.829
676.416;  129.000; -210.094; -294.830
676.685; 1254.702; 1000.906; -622.830
676.953;  176.505; -603.094; -452.831
677.222;  -42.393; -193.094; -273.831
677.491;  -30.090;  -24.094; -127.831
677.759;   30.013;   11.907;  172.168
678.028;   -8.985; -279.093; -222.832
678.297;   27.018;   71.907;  197.168
678.565; -280.979; -898.093; -944.833
678.834;  -70.877; -311.093; -268.833
679.102; -122.674; -411.092; -391.834
679.371; -245.071; -898.092; -727.834
679.639; -231.869; -797.092; -786.834
679.908; -222.266; -794.092; -724.835
680.176; -276.463; -895.091; -941.835
680.445; -105.361; -346.091; -352.835
680.713;    6.642;  -58.091;  -23.836
680.982; -114.156; -523.091; -525.836
681.250; -192.353; -578.091; -507.837
681.518; -154.250; -534.090; -751.837
681.787;   -1.248; -204.090; -167.837
682.055;  -81.345; -490.090; -422.838
682.323; -261.442; -993.090; -992.838
682.591;   56.460; -216.090; -538.838
682.859;  145.663;    9.911;  -35.839
683.128;   95.566;  232.911;  497.161
683.396; -339.932;-1102.089;-1122.840
683.664;  -44.729; -241.089;   21.160
683.932;   57.074;  144.911;  -76.840
684.200;  -98.124; -576.088; -320.841
684.468;  -18.521;  -73.088; -124.841
684.736;   19.481; -214.088; -175.841
685.004; -234.216;-1024.088; -982.842
685.272;  -91.513; -880.088; -774.842
685.540; -110.311; -499.087; -557.843
685.808; -164.608; -651.087; -682.843
686.076; -190.105; -894.087; -969.843
686.343; -109.103; -601.087; -815.844
686.611;  100.000; -195.087; -224.844
686.879;  842.303; -530.086; -553.844
687.147; 4952.905; -483.086; -480.845
687.414; 1432.708;  -12.086; -169.845
687.682;  -43.189; -658.086; -757.846
687.950;  526.413;  259.915;  263.154
688.217;  -45.684; -792.085; -760.846
688.485;  -14.281; -632.085; -636.847
688.753;  840.721;  -11.085; -102.847
689.020;  220.224; -820.085; -851.847
689.288; -191.874; -853.084; -787.848
689.555;  -19.371; -195.084; -148.848
689.823;  -48.768; -241.084; -345.849
690.090; -105.166; -546.084; -651.849
690.358; -276.463; -877.084; -897.849
690.625;   84.040;  120.917;   45.150
690.892; -107.558; -403.083; -369.850
691.160;   25.845;   72.917;  -35.850
691.427;   58.948;  141.917;  130.149
691.694; -242.550; -855.083; -929.851
691.962; -267.647;-1177.082;-1060.852
692.229;   68.256;  127.918;   56.148
692.496;  157.158;  130.918;  -49.852
692.763;   69.061; -164.082; -201.853
693.031; -109.437; -739.082; -716.853
693.298;  -63.234; -509.081; -368.853
693.565;  574.269; -155.081; -163.854
693.832; 1859.571;   -5.081;   -9.854
694.099;  191.974; -643.081; -642.855
694.366; -114.623; -882.081; -896.855
694.633;  -91.321; -920.080; -633.855
694.900; 1567.982; 4367.920; -114.856
695.167;  645.585; -214.080; -380.856
695.434;  120.587; -646.080; -623.856
695.701;  344.190;  121.921;  -61.857
695.968;  753.793; -365.079; -361.857
696.234; 1747.295; -415.079; -646.858
696.501;16003.898; -776.079; -614.858
696.768; 7717.600; -554.079; -617.858
697.035;  511.403; -632.078; -667.859
697.302;   73.306; -448.078; -552.859
697.568;   19.308; -458.078; -497.859
697.835;  -65.089; -683.078; -624.860
698.102;  -11.986; -498.078; -407.860
698.368;  184.316;  384.923;  396.139
698.635;  -16.181;  -47.077; -424.861
698.901;  -25.678; -240.077; -348.861
699.168;  147.924; -534.077; -456.862
699.435;  109.427;  -72.077;  -13.862
699.701; -241.070; -868.076; -764.862
699.968;  -95.568;  144.924; -441.863
700.234; -151.365; -783.076; -822.863
700.500;  -95.263; -448.076; -539.864
700.767;   49.940;   -1.075;   26.136
701.033; -251.357;-1015.075; -963.864
701.299;  -79.555; -450.075; -483.865
701.566;  287.448;  950.925;  763.135
701.832;  100.151;  -31.075;  -76.865
702.098; -160.447;-1054.074;-1034.866
702.365; -131.944;-1098.074;-1030.866
702.631; -102.341;-1038.074;-1063.867
702.897; 2199.261; -765.074; -676.867
703.163; 3291.264;  348.926;  254.133
703.429;  279.667; -256.073; -273.868
703.695;  -96.031; -796.073; -792.868
703.961;   92.672; -214.073; -210.868
704.227; -130.325; -630.073; -725.869
704.493;  335.277;  613.927;  510.131
704.759;  -45.420; -565.072; -540.870
705.025;   79.782; -203.072; -194.870
705.291;  -58.315; -666.072; -562.870
705.557;  404.788;  719.928;   34.129
705.823;   45.990; -742.072; -694.871
706.089;  247.393; -307.071; -326.871
706.355;  638.296; -315.071; -244.872
706.620; 8807.898; -776.071; -729.872
706.886;11308.501; -309.071; -362.873
707.152; 1048.704; -818.070; -973.873
707.418;  -78.994;-1153.070;-1186.873
707.683;   -6.891; -550.070; -530.874
707.949;  -58.588; -547.070; -578.874
708.215;   38.014; -129.070; -207.874
708.480;   -0.983; -520.069; -420.875
708.746;  215.919;   68.931;   28.125
709.011; -111.878; -578.069; -612.876
709.277; -103.975; -538.069; -543.876
709.542;  -77.973; -428.069; -387.876
709.808;   48.230;  -59.068;   89.123
710.073; -129.467; -577.068; -695.877
710.339;   24.335; -242.068; -228.877
710.604;  139.238; -780.068; -845.878
710.869;  490.141; -277.068; -366.878
711.135; -151.257; -715.067; -628.879
711.400; -122.554; -507.067; -608.879
711.665;  -90.851; -404.067; -479.879
711.931; -162.849; -661.067; -677.880
712.196; -232.946; -876.067; -954.880
712.461;  172.956; -402.066; -490.880
712.726;  158.059; -727.066; -771.881
712.991; -142.738; -647.066; -664.881
713.256;  -66.336; -350.066; -332.882
713.521;  -42.933; -417.065; -381.882
713.787; -122.530; -454.065; -472.882
714.052;  -42.728; -214.065; -400.883
714.317; -211.325;-1045.065; -981.883
714.581; 1644.778; -374.065; -268.883
714.846; 1927.680; -822.064; -888.884
715.111;  301.483;  261.936;  257.116
715.376;  -21.514;  -86.064; -223.885
715.641;    9.188; -365.064; -367.885
715.906;  408.491;   15.936; -551.885
716.171;  293.794;  221.937;  209.114
716.436;  109.996;  -78.063; -104.886
716.700; -170.501; -818.063; -692.886
716.965; -232.599; -794.063; -807.887
717.230; -104.296; -339.063; -392.887
717.494;   13.607;  -40.062; -134.888
717.759; -169.491; -784.062; -640.888
718.024;   74.612;  269.938;  250.112
718.288;  195.915;  685.938;  395.111
718.553; -262.683; -803.062; -977.889
718.817; -210.680; -883.061; -899.889
719.082;  -38.277; -115.061; -125.890
719.346; -242.675;-1000.061; -947.890
719.611;  -68.372; -300.061; -255.891
719.875; -162.869; -568.060; -537.891
720.140; -103.767; -453.060; -603.891
720.404;  100.836; -136.060; -249.892
720.668; 1274.838; -475.060; -411.892
720.933;  491.741;  146.940;  137.108
721.197; -167.056; -667.059; -600.893
721.461; -198.554; -851.059; -826.893
721.725;    3.649;  -21.059; -250.894
721.990;  -67.348; -284.059; -204.894
722.254;   -6.546;  -26.059; -108.894
722.518;  -92.443; -286.058; -442.895
722.782; -157.340; -743.058; -594.895
723.046;  278.262;  614.942;  570.105
723.310;  120.965;  374.942;  210.104
723.574; -149.532; -654.058; -614.896
723.838; -162.430; -576.057; -642.897
724.102;  -15.727; -226.057; -239.897
724.366; -252.125;-1032.057; -978.897
724.630; -105.322; -749.057; -571.898
724.894; -130.119; -722.057; -514.898
725.158;   61.383;   38.944; -295.898
725.422;  -70.014; -394.056; -327.899
725.685;  -89.811; -441.056; -349.899
725.949; -119.809; -566.056; -519.900
726.213; -111.806; -732.056; -811.900
726.477;  201.797;-1020.055; -933.900
726.740;  244.299; -274.055; -104.901
727.004;  578.602; -384.055; -510.901
727.268; 5062.205; -442.055; -400.901
727.531; 1234.607; -961.055; -775.902
727.795;  -61.890; -713.054; -673.902
728.059; -113.688; -552.054; -557.903
728.322; -133.285; -841.054; -669.903
728.586;   23.518; -692.054; -701.903
728.849; -135.380; -695.053; -756.904
729.112; -200.077; -812.053; -912.904
729.376; -223.574; -959.053; -905.904
729.639; -113.172; -536.053; -536.905
729.903; -159.869; -733.053; -699.905
730.166;  -63.866; -437.052; -399.906
730.429;   11.536; -317.052; -468.906
730.693; -123.661; -355.052; -894.906
730.956;  421.742;  810.948;  651.093
731.219;  991.644; -310.052; -103.907
731.482;  156.947;-1003.051; -894.907
731.745;   89.550; -794.051; -935.908
732.009;   95.252;  -30.051;   50.092
732.272; -131.445; -904.051; -771.909
732.535;  -37.043; -300.051; -310.909
732.798; -295.440;-1083.050;-1166.909
733.061;  -96.537; -430.050; -456.910
733.324;   27.065;   31.950; -180.910
733.587;  157.368;  290.950;  365.090
733.850; -105.129; -973.049;-1050.911
734.113;   97.973;   33.951;   32.089
734.376;   31.176; -328.049; -447.912
734.639;  469.979; 1188.951; 1011.088
734.901;   82.581; -180.049; -402.912
735.164;  870.584; -883.048; -837.913
735.427; 1788.587; -166.048; -355.913
735.690;  231.689; -205.048; -234.913
735.952; -115.108; -923.048; -925.914
736.215;  -62.206;-1113.048;-1009.914
736.478;   42.997; -771.047; -774.915
736.740;  381.500;   33.953;  129.085
737.003; 1178.902; -658.047; -672.915
737.266; 5983.105;  -94.047;   46.084
737.528;  675.408; -682.047; -660.916
737.791;  530.910; -316.046; -327.916
738.053; 1405.813;  465.954;  649.083
738.316;17497.716; -162.046; -136.917
738.578;10578.518; -770.046; -736.918
738.841;  701.621; -382.046; -446.918
739.103;  280.724; -875.045; -777.918
739.365;  820.926;   79.955;  -69.919
739.628;  -15.571; -884.045; -805.919
739.890;  -20.369; -758.045; -710.919
740.152;  -65.766; -692.044; -754.920
740.414;   -1.763; -408.044; -359.920
740.677;  -84.761; -785.044; -634.921
740.939;  -43.658; -587.044; -487.921
741.201;  376.045; -432.044; -572.921
741.463;   59.047; -689.043; -745.922
741.725;   53.350;  -21.043; -199.922
741.987;  155.353;  220.957;  116.078
742.249;  -13.645; -751.043; -859.923
742.511;  338.758; -703.043; -794.923
742.773;    4.361; -546.042; -546.924
743.035;  337.263;  796.958;  533.076
743.297;  -72.634; -963.042;-1013.924
743.559; 1169.569; -278.042; -262.925
743.821;   69.371; -735.042; -744.925
744.083;  -25.126;  -44.041; -149.925
744.345; -164.924; -869.041; -892.926
744.607;  114.179;   75.959;  122.074
744.868; -111.718; -490.041; -554.927
745.130; -185.016; -994.041;-1008.927
745.392;  126.287;   -1.040;  -44.927
745.653;   -0.910; -411.040; -378.928
745.915;  310.592;  896.960;  631.072
746.177;  149.995;   35.960;  -43.928
746.438;  -27.302; -428.040; -543.929
746.700;  -62.100; -947.039; -988.929
746.961;   19.503; -659.039; -740.930
747.223;  252.606; -190.039;  -74.930
747.484;  171.108; -391.039; -471.930
747.746;  271.711;  -23.038; -106.931
748.007;  180.613; -647.038; -689.931
748.269;  535.816; -468.038; -440.931
748.530;  712.919; -852.038; -638.932
748.791;  432.121; -354.038; -420.932
749.053;  731.324;  286.963;  163.067
749.314;  733.027; -236.037; -169.933
749.575;  738.429; -945.037; -905.933
749.836; 1344.532; -217.037;   86.066
750.098; 4418.835;  -60.037;  -21.934
750.359;54586.037;  414.964;  555.066
750.620;12377.540; -121.036; -220.935
750.881; 1678.143; -585.036; -513.935
751.142; 2174.445; -950.036; -938.936
751.403;26639.248; -789.036; -705.936
751.664; 9762.150;-1034.035; -999.936
751.925;  812.553; -175.035; -262.937
752.186;  455.956; -298.035; -278.937
752.447;  251.558; -590.035; -445.937
752.708;   77.461; -532.035; -648.938
752.969;   13.964; -566.034; -576.938
753.230;   16.966; -777.034; -672.939
753.491;   41.669; -650.034; -631.939
753.751;  154.572;  109.966;   19.061
754.012;  224.174;  258.967;  181.060
754.273;  115.977; -174.033;  -71.940
754.534;   44.580; -487.033; -580.940
754.794; -188.718; -926.033; -911.941
755.055;  356.585; 1051.967;  881.059
755.316;  -69.713; -700.032; -566.942
755.576;  -20.110; -606.032; -576.942
755.837;  -69.807; -527.032; -695.942
756.097;  -39.905; -530.032; -564.943
756.358; -135.002; -725.032; -770.943
756.618;  -96.799; -705.031; -641.943
756.879;   40.403; -254.031; -349.944
757.139; -200.594;-1098.031;-1116.944
757.400;  -99.391; -538.031; -553.945
757.660;   12.211; -365.031; -401.945
757.920;   44.914; -266.030; -228.945
758.181;   -5.483; -468.030; -351.946
758.441; -134.481; -870.030; -809.946
758.701;  -32.478; -308.030; -215.946
758.961;  -27.175; -220.030; -278.947
759.222;  -52.673; -574.029; -502.947
759.482; -116.970; -683.029; -723.948
759.742; -123.268; -706.029; -547.948
760.002;   60.135;  -83.029; -143.948
760.262;   90.938;   50.972;  182.051
760.522;  -56.060; -498.028; -574.949
760.782;  -60.057; -738.028; -612.949
761.042;  -38.454; -618.028; -573.950
761.302;  146.748;   55.972;  -18.950
761.562;  123.451; -164.027; -154.951
761.822;  146.754; -710.027; -551.951
762.082;  -86.044;-1104.027;-1093.951
762.342;  149.559; -328.027; -403.952
762.601;  165.162; -567.027; -506.952
762.861;  618.764; -281.026; -207.952
763.121;  763.867; -406.026; -411.953
763.381;13195.969; -499.026; -485.953
763.640;11993.172; -139.026; -307.954
763.900;  593.275; -242.026; -203.954
764.160;  153.977; -458.025; -491.954
764.419;  -10.220; -726.025; -782.955
764.679; -126.017; -795.025; -726.955
764.939;   23.185; -124.025; -210.955
765.198;  -96.412; -608.025; -563.956
765.458;  -90.509; -710.024; -612.956
765.717; -117.107; -454.024; -590.957
765.976;  -67.904; -428.024; -411.957
766.236; -117.501; -475.024; -610.957
766.495;  109.201;  260.977;   73.042
766.755; -183.696;-1090.023; -987.958
767.014;   46.606; -594.023; -665.958
767.273;  -59.391; -373.023; -397.959
767.533;  -47.788; -228.023; -307.959
767.792;  -21.286; -151.022; -188.960
768.051;  -42.683; -228.022; -276.960
768.310; -108.880; -546.022; -650.960
768.569;  101.422; -161.022;    4.039
768.828;   -3.775; -285.022; -363.961
769.088; -204.772;-1050.021; -942.961
769.347; -135.670; -755.021; -599.962
769.606; -148.367; -876.021; -857.962
769.865; -230.264;-1016.021;-1033.963
770.124;   16.638; -411.021; -336.963
770.383; -120.759; -778.020; -910.963
770.641;   13.644; -398.020; -400.964
770.900; -128.054; -953.020; -846.964
771.159;  -86.251; -851.020; -951.964
771.418;  -91.949; -917.020; -779.965
771.677;  249.154; -224.019; -293.965
771.936;  197.157; -794.019; -865.966
772.194; 4055.959; -465.019; -437.966
772.453;15940.962; -213.019; -391.966
772.712; 1221.565;  416.982;  329.033
772.970;  228.167;   32.982;   63.033
773.229;  198.970;  -22.018;  102.033
773.488; -151.327; -814.018; -770.968
773.746;  177.975;  296.982;  335.032
774.005;   27.478;  190.983;  -22.969
774.263;   90.981;  243.983;  177.031
774.522; -157.517; -422.017; -548.969
774.780; -108.014; -484.017; -417.970
775.039; -144.712; -551.017; -531.970
775.297;   22.691; -135.016; -351.970
775.555; -140.706; -489.016; -612.971
775.814; -161.604; -618.016; -570.971
776.072; -181.001; -749.016; -740.971
776.330; -139.598; -630.016; -520.972
776.589; -195.096; -703.015; -721.972
776.847; -163.993; -645.015; -624.973
777.105; -285.990;-1016.015;-1032.973
777.363;  -88.688; -459.015; -454.973
777.621; -228.585; -660.015; -717.974
777.879;    4.018;  -42.014;   32.026
778.138; -131.980; -554.014; -717.974
778.396; -151.277; -585.014; -526.975
778.654; -254.975;-1015.014; -970.975
778.912; -103.872; -269.014; -371.976
779.170; -200.869; -880.013; -803.976
779.427; -247.067; -922.013; -897.976
779.685; -214.464; -880.013; -832.977
779.943; -128.161; -654.013; -593.977
780.201; -269.859; -964.012; -883.978
780.459; -218.556; -651.012; -610.978
780.717; -109.453; -440.012; -390.978
780.974; -169.251; -449.012; -490.979
781.232;  -88.848; -358.012; -338.979
781.490;  -90.345; -551.011; -472.979
781.747; -127.643; -555.011; -476.980
782.005;  121.460;  462.989;  254.020
782.263; -281.638; -542.011;-1004.981
782.520;  -99.235; -326.011; -501.981
782.778; -304.532;-1013.010;-1051.981
783.035; -281.030; -962.010; -938.982
783.293;  -46.927; -248.010; -206.982
783.550;  -36.024; -134.010; -198.982
783.808; -220.422; -764.010; -776.983
784.065; -273.719; -745.009; -874.983
784.322;  -38.316;   25.991;  -86.984
784.580; -220.114; -915.009; -771.984
784.837; -142.311; -392.009; -466.984
785.094; -208.908; -783.009; -762.985
785.352; -110.906; -304.008; -404.985
785.609; -191.103; -934.008; -839.985
785.866; -134.100; -345.008; -401.986
786.123;  -92.698; -639.008; -583.986
786.380; -172.595; -665.008; -604.987
786.637;  -40.393; -225.007; -380.987
786.895;  -51.190; -456.007; -543.987
787.152;  -13.087; -135.007; -267.988
787.409;  -22.485; -123.007; -225.988
787.666; -102.282; -299.006; -378.988
787.923; -166.579; -616.006; -695.989
788.179; -141.977; -551.006; -584.989
788.436; -195.074; -585.006; -585.990
788.693;   -7.971;  -92.006;  -87.990
788.950;  293.431; -125.005; -112.990
789.207;  296.334; -381.005; -372.991
789.464;  -40.263; -161.005; -301.991
789.720;   49.639;  150.995;  110.009
789.977; -323.358;-1003.005; -671.992
790.234;    4.344;   44.996;  -66.992
790.490; -283.453; -884.004;-1031.993
790.747;    7.650;  -85.004;   22.007
791.004;    5.352; -426.004; -348.993
791.260;  -88.945; -430.004; -560.994
791.517; -138.442; -843.003; -788.994
791.773;  -73.740; -379.003; -342.994
792.030; -187.337; -596.003; -660.995
792.286; -151.434; -686.003; -636.995
792.543;   18.668;  -74.002; -159.995
792.799;  -28.229; -584.002; -382.996
793.055; -301.526;-1179.002;-1210.996
793.312; -133.024; -827.002; -816.997
793.568;  -84.121; -746.002; -599.997
793.824;   47.181; -226.001; -284.997
794.081;   38.784; -447.001; -508.998
794.337;  138.687; -664.001; -561.998
794.593; 2704.989; -319.001; -271.999
794.849;10069.692; -746.001; -772.999
795.105;  529.695; -270.000; -261.999
795.361;   40.497; -490.000; -457.000
795.617; -115.300; -875.000; -945.000
795.873;  -26.100; -360.000; -407.000
796.129;  -19.700; -368.000; -306.000
796.385;   -7.300; -124.000; -156.000
796.641;  211.200;  412.000;  550.000
796.897;  -85.600; -666.000; -635.000
797.153;  182.900;  453.000;  357.000
797.409; -147.000; -785.000; -868.000
797.665; -106.200; -625.000; -732.000
797.921; -124.300; -775.000; -762.000
798.176; -118.000; -744.000; -747.000
798.432;  -88.400; -824.000; -596.000
798.688; -155.900;-1174.000;-1078.000
798.943;  173.000; -165.000; -147.000
799.199;  -26.900;-1005.000; -959.000
799.455;  430.000;  369.000;  316.000
799.710;  197.400; -813.000; -380.000
799.966;  511.700; -162.000; -160.000
800.221;  722.400; -638.000; -721.000
800.477;17675.800; -743.000; -710.000
800.732;12036.400; -773.000; -800.000
800.988; 1053.000;  205.000;  -19.000
801.243; 3447.400; -454.000; -344.000
801.498;11416.500; -814.000; -739.000
801.754;  601.400; -289.000; -163.000
802.009;  160.900; -257.000; -335.000
802.264; -137.500; -967.000;-1033.000
802.520;  108.600;  222.000;   -3.000
802.775;  -68.600; -524.000; -359.000
803.030;  146.300;  395.000;  356.000
803.285; -176.600; -840.000; -903.000
803.540;  -87.300; -686.000; -699.000
803.795;  -73.000; -648.000; -583.000
804.051;  -23.300; -279.000; -346.000
804.306;  106.200;  168.000;  128.000
804.561;  287.500;  451.000;  362.000
804.816;  296.100;  714.000;  861.000
805.071;   73.400; -185.000; -280.000
805.325;  328.800; -257.000; -427.000
805.580; -172.300; -841.000; -877.000
805.835;    8.400; -204.000; -297.000
806.090;  -95.700; -760.000; -676.000
806.345;    3.100; -344.000; -264.000
806.600;  -18.100; -549.000; -632.000
806.854;  -56.200; -408.000; -538.000
807.109;   -8.000; -493.000; -577.000
807.364;   24.400; -407.000; -328.000
807.618;   23.200; -415.000; -381.000
807.873;   90.000; -470.000; -494.000
808.128;  178.500; -257.000; -518.000
808.382;  204.100; -224.000; -332.000
808.637;  154.900; -440.000; -511.000
808.891;  344.600; -257.000; -180.000
809.146;  152.600; -902.000; -794.000
809.400;  397.700; -848.000; -923.000
809.654;  558.200; -779.000; -551.000
809.909;  777.300; -841.000; -927.000
810.163;12428.200; -813.000; -651.000
810.418;24303.800; -940.000; -861.000
810.672; 1524.300; -685.000; -690.000
810.926; 1156.900; -993.000; -973.000
811.180; 2573.300; -439.000; -372.000
811.434;52014.000;  240.000;  135.000
811.689;16154.000; -231.000; -365.000
811.943;  865.200; -936.000; -953.000
812.197;  539.200; -893.000; -671.000
812.451;  227.700; -379.000; -514.000
812.705;  -33.400; -809.000; -619.000
812.959;  -87.900; -263.000; -388.000
813.213;   31.700; -283.000; -209.000
813.467;  208.400;  470.000;  253.000
813.721; -143.000; -764.000; -792.000
813.975; -202.100; -826.000; -877.000
814.229;  146.800;  430.000;  353.000
814.482; -117.900; -517.000; -566.000
814.736; -159.400; -766.000; -744.000
814.990; -213.800; -779.000; -872.000
815.244;  -34.300; -228.000; -285.000
815.497; -149.300; -636.000; -601.000
815.751;   44.400; -141.000;   82.000
816.005; -122.800; -470.000; -586.000
816.258;  -64.100; -510.000; -363.000
816.512; -171.500; -693.000; -610.000
816.766;   85.800;  121.000;  157.000
817.019;  115.500;  148.000;  149.000
817.273; -189.800;-1000.000; -802.000
817.526;  -21.300; -206.000; -173.000
817.779;  -92.500;-1049.000; -960.000
818.033; -148.100; -693.000; -807.000
818.286; -170.900; -725.000; -792.000
818.540; -118.500; -403.000; -403.000
818.793;  -83.100; -402.000; -489.000
819.046; -159.600; -582.000; -520.000
819.299;   32.400; -157.000; -166.000
819.553; -173.000; -552.000; -592.000
819.806; -286.700;-1016.000; -838.000
820.059;  -45.500; -334.000; -354.000
820.312;   80.600;  152.000;  185.000
820.565;   36.200;  110.000;  -27.000
820.818;  -19.900;  -59.000; -173.000
821.071; -288.500;-1041.000; -957.000
821.324; -148.300; -536.000; -540.000
821.577; -160.300; -457.000; -483.000
821.830;  -68.300; -270.000; -172.000
822.083; -201.300; -733.000; -288.000
822.336;  -62.100; -261.000; -167.000
822.589; -222.200; -805.000; -688.000
822.842; -224.600; -875.000; -770.000
823.094; -321.500;-1076.000;-1114.000
823.347; -202.100; -925.000; -729.000
823.600;   99.900;  402.000;  187.000
823.853;  -44.100; -311.000; -267.000
824.105;  -88.800; -331.000; -575.000
824.358; -177.100; -617.000; -716.000
824.611;   97.300;  234.000;   40.000
824.863;  -37.200; -612.000; -591.000
825.116;  114.500;  -33.000;   27.000
825.368;  150.800; -366.000; -372.000
825.621;  246.100; -186.000; -240.000
825.873;  128.300; -704.000; -737.000
826.126; 1126.900; -669.000; -641.000
826.378;18709.300; -389.000; -505.000
826.630; 3355.100; -890.000; -898.000
826.883;  101.000; -754.000; -693.000
827.135;  149.000; -279.000; -270.000
827.387; -202.100; -893.000; -839.000
827.639;   16.400;  -86.000;   32.000
827.892; -200.500; -742.000; -582.000
828.144; -257.700; -848.000; -804.000
828.396;  -12.600;  104.000;  -80.000
828.648; -161.200; -440.000; -333.000
828.900; -209.600; -702.000; -795.000
829.152; -191.100; -684.000; -683.000
829.404;  -48.100; -215.000; -267.000
829.656;  -48.100;  321.000;  214.000
829.908;   56.300;  393.000;  229.000
830.160; -303.200;-1064.000;-1047.000
830.412; -122.100; -481.000; -430.000
830.664; -187.200; -557.000; -665.000
830.916; -111.600; -268.000; -206.000
831.167; -312.500;-1073.000; -951.000
831.419; -144.300; -623.000; -566.000
831.671; -233.100; -764.000; -809.000
831.923; -100.500; -311.000; -447.000
832.174;  -83.600; -273.000; -331.000
832.426; -149.400; -493.000; -582.000
832.678; -336.100;-1043.000;-1091.000
832.929; -277.100; -947.000; -935.000
833.181; -131.800; -575.000; -677.000
833.432;  -17.400;  -59.000; -186.000
833.684;   34.200;  112.000;  -27.000
833.935; -166.100; -610.000; -566.000
834.187; -195.700; -829.000; -823.000
834.438;   -5.800;  -58.000;  -25.000
834.689;  -63.900; -255.000; -123.000
834.941;  -36.600; -343.000; -244.000
835.192; -172.500; -590.000; -533.000
835.443;  -89.900; -419.000; -506.000
835.695;   26.500;  138.000;  -16.000
835.946; -110.700; -608.000; -378.000
836.197; -166.300; -599.000; -622.000
836.448; -133.900; -528.000; -395.000
836.699;  -77.000; -253.000; -341.000
836.950;   48.200;   72.000;    7.000
837.201; -265.700;-1003.000; -987.000
837.452;  -34.700; -356.000; -170.000
837.703; -165.700; -791.000; -737.000
837.954;  -29.400; -205.000; -365.000
838.205; -159.200;-1029.000;-1008.000
838.456;  255.400; -196.000; -282.000
838.707;    6.600; -423.000; -519.000
838.958;   -6.600; -634.000; -647.000
839.209;  490.700;   18.000;   40.000
839.460;  217.200; -439.000; -201.000
839.710;  285.300; -135.000; -297.000
839.961;  770.500;  730.000;  612.000
840.212;  536.000; -382.000; -497.000
840.462; 2035.000; -328.000; -277.000
840.713;29429.900; -571.000; -536.000
840.964; 8789.300;  -62.000; -143.000
841.214;  757.700; -384.000; -624.000
841.465;  899.900; -214.000; -141.000
841.715;  756.400; -417.000; -380.000
841.966; 1077.900; -746.000; -685.000
842.216;17352.900; -330.000; -431.000
842.466;49412.000; -169.000; -313.000
842.717; 1941.800; -964.000; -952.000
842.967;  533.000; -635.000; -641.000
843.217;  486.500;   20.000;   28.000
843.468;  170.000; -104.000; -132.000
843.718;  -67.900; -718.000; -726.000
843.968; -178.200; -837.000; -765.000
844.218;   94.800; -315.000; -262.000
844.469;  -65.100; -577.000; -561.000
844.719; -155.500; -537.000; -682.000
844.969; -123.900; -550.000; -580.000
845.219; -226.700; -814.000; -862.000
845.469;  -92.500; -392.000; -342.000
845.719; -223.600; -792.000; -884.000
845.969;   59.000;  119.000;  174.000
846.219; -180.000; -738.000; -720.000
846.469;  102.000;  464.000;  432.000
846.718;  -19.100; -115.000;   31.000
846.968; -196.300; -827.000; -827.000
847.218;  -77.300; -224.000; -371.000
847.468; -143.500; -586.000; -555.000
847.718; -230.200; -827.000; -798.000
847.967; -197.700; -826.000; -915.000
848.217; -140.700; -449.000; -569.000
848.467;  -72.400; -405.000; -376.000
848.716; -196.300; -708.000; -725.000
848.966;   26.700; -372.000; -358.000
849.215;  -86.300; -428.000; -419.000
849.465; -142.000; -785.000; -615.000
849.714; -266.400;-1132.000;-1150.000
849.964;  -58.700; -551.000; -613.000
850.213;  -40.500; -393.000; -355.000
850.463;  169.600;  137.000;  340.000
850.712;    9.400; -542.000; -567.000
850.961;   24.100; -739.000; -678.000
851.211;  143.100; -513.000; -504.000
851.460;  239.000; -635.000; -650.000
851.709;  949.100;  -25.000;   18.000
851.958;18144.500; -912.000; -750.000
852.208;16679.100; -859.000; -879.000
852.457;  700.400; -181.000;  -13.000
852.706;  130.900; -791.000; -823.000
852.955;   60.100; -507.000; -528.000
853.204; -113.100; -521.000; -461.000
853.453;  -71.500; -418.000; -458.000
853.702; -221.800; -660.000; -750.000
853.951; -153.900; -532.000; -520.000
854.200; -198.200; -613.000; -562.000
854.449; -180.300; -695.000; -661.000
854.698; -129.700; -340.000; -279.000
854.946;  -89.600; -181.000; -284.000
855.195; -249.300; -843.000; -868.000
855.444; -102.700; -395.000; -420.000
855.693; -220.300; -345.000; -432.000
855.941; -150.700; -387.000; -516.000
856.190;  -64.300; -256.000; -382.000
856.439; -169.700; -652.000; -703.000
856.687;  -35.900;  -99.000;  -72.000
856.936; -168.300; -621.000; -323.000
857.184; -304.600;-1067.000;-1020.000
857.433; -104.900; -423.000; -512.000
857.681; -281.900; -989.000; -953.000
857.930;  -87.800; -282.000; -433.000
858.178; -258.200; -856.000; -929.000
858.427; -233.700; -802.000; -781.000
858.675; -174.300; -377.000; -544.000
858.923; -155.500; -527.000; -819.000
859.172; -317.100;-1094.000;-1070.000
859.420; -123.900; -339.000; -239.000
859.668; -229.300; -624.000; -628.000
859.916;   53.000;  109.000;  115.000
860.164; -195.800; -699.000; -603.000
860.413;  508.900; -878.000; -696.000
860.661;  231.400; -709.000; -577.000
860.909; -106.500; -339.000; -325.000
861.157; -117.900; -277.000; -444.000
861.405; -169.900; -534.000; -670.000
861.653;   80.600;  310.000;  310.000
861.901;  355.500; -543.000; -613.000
862.149;  -85.800; -801.000; -824.000
862.396; -103.300; -297.000; -187.000
862.644; -129.900; -368.000; -347.000
862.892;   27.900;   98.000;  138.000
863.140; -177.600; -549.000; -530.000
863.388; -246.300; -815.000; -759.000
863.635; -207.900; -642.000; -601.000
863.883;   31.700;  231.000;  190.000
864.131; -131.300; -288.000; -357.000
864.378; -190.800; -675.000; -540.000
864.626; -147.800; -347.000; -415.000
864.873; -177.300; -556.000; -505.000
865.121; -191.000; -714.000; -799.000
865.368;  -20.800; -173.000;   75.000
865.616;  -29.300;  -33.000;  -40.000
865.863;  -95.100; -462.000; -506.000
866.111; -179.000; -795.000; -824.000
866.358;   86.400; -426.000; -420.000
866.605; 4017.800;  -64.000; -804.000
866.853; 2962.600; -621.000; -537.000
867.100; -123.100; -728.000; -775.000
867.347; -139.500; -672.000; -611.000
867.594; -153.100; -740.000; -714.000
867.841;  198.200;   97.000;   17.000
868.089; -254.600; -746.000; -698.000
868.336; -123.200; -477.000; -420.000
868.583; -238.700; -637.000; -741.000
868.830;  -29.500; -131.000; -170.000
869.077; -299.600; -859.000; -787.000
869.324; -164.200; -502.000; -458.000
869.571; -175.200; -398.000; -430.000
869.818; -188.000; -485.000; -439.000
870.065; -128.100; -439.000; -513.000
870.311; -152.100; -456.000; -542.000
870.558; -138.600; -332.000; -311.000
870.805;  -63.300; -320.000; -384.000
871.052; -181.000; -494.000; -369.000
871.298;  -22.400; -204.000; -131.000
871.545;  -71.400; -151.000; -185.000
871.792;  -81.400; -173.000; -222.000
872.038;  -93.300;   43.000; -126.000
872.285; -183.900; -496.000; -387.000
872.532; -140.100; -357.000; -387.000
872.778;  114.000;  556.000;  403.000
873.025; -111.900; -384.000; -359.000
873.271;  110.400;  501.000;  578.000
873.517;  -14.900; -133.000; -209.000
873.764;   19.000; -193.000;  -80.000
874.010;  -78.300; -143.000; -230.000
874.257;    3.200;  123.000;   90.000
874.503; -209.200; -579.000; -479.000
874.749;  -61.400;   31.000;  275.000
874.995;  -96.100;  -80.000;  -20.000
875.242; -170.300; -540.000; -478.000
875.488; -154.900; -414.000; -439.000
875.734;  -20.400; -106.000; -234.000
875.980;  354.600; -872.000;-1032.000
876.226;  487.100; -157.000; -255.000
876.472;   68.100;  343.000;  237.000
876.718;   30.900;  184.000;  158.000
876.964;   -9.100;   56.000;   55.000
877.210; -200.300; -547.000; -677.000
877.456; -218.300; -630.000; -557.000
877.702; -284.600; -821.000; -832.000
877.948; -177.700; -377.000; -497.000
878.193;  130.000;  361.000;  255.000
878.439; -133.200; -487.000; -472.000
878.685; -105.800; -272.000; -343.000
878.931; -212.300; -618.000; -676.000
879.176;  -95.600; -201.000; -201.000
879.422; -300.500; -933.000; -820.000
879.668;  153.800;   10.000;   79.000
879.913;  245.200;   53.000;  137.000
880.159;  -17.000; -112.000;  -17.000
880.404;  -69.100; -152.000; -162.000
880.650;  -24.000;   91.000;  141.000
880.895; -261.100; -670.000; -710.000
881.141; -174.000; -454.000; -428.000
881.386; -230.500; -503.000; -658.000
881.631; -101.500; -311.000; -166.000
881.877;  -10.900;  112.000;  -13.000
882.122; -203.400; -684.000; -600.000
882.367;  -92.400; -136.000; -186.000
882.612;  -43.900;  -80.000; -176.000
882.858; -274.400; -877.000; -823.000
883.103; -128.400; -297.000; -267.000
883.348; -263.400; -759.000; -852.000
883.593; -219.200; -677.000; -602.000
883.838;  -51.600; -311.000;  -24.000
884.083;   90.800;  353.000;  288.000
884.328; -134.700; -564.000; -545.000
884.573;  -31.100; -196.000; -143.000
884.818;  379.100; -694.000; -531.000
885.063;  221.000; -348.000; -315.000
885.308; -176.200; -475.000; -398.000
885.553;   76.400;  245.000;  325.000
885.797; -190.300; -545.000; -615.000
886.042;  -28.100;    8.000;   58.000
886.287; -142.300; -253.000; -211.000
886.532;  -32.000;   26.000;  204.000
886.776; -153.700; -407.000; -525.000
887.021; -229.300; -621.000; -574.000
887.265; -255.700; -685.000; -689.000
887.510; -185.200; -557.000; -496.000
887.755; -135.700; -194.000; -164.000
887.999; -206.300; -552.000; -575.000
888.244;  -44.200;  -58.000;  161.000
888.488;   90.300;  371.000;  393.000
888.732; -186.500; -368.000; -520.000
888.977; -157.900; -622.000; -567.000
889.221; -270.400; -683.000; -659.000
889.465; -179.500; -422.000; -566.000
889.710;  -89.500;  -56.000; -299.000
889.954;   91.000;  579.000;  467.000
890.198; -216.700; -584.000; -707.000
890.442; -246.600; -716.000; -712.000
890.687; -261.900; -800.000; -753.000
890.931;  -84.600; -273.000; -210.000
891.175; -209.900; -502.000; -500.000
891.419;  -51.400; -105.000; -110.000
891.663; -125.900; -239.000; -112.000
891.907; -254.000; -801.000; -545.000
892.151; -310.800; -920.000; -815.000
892.395; -142.700; -274.000; -387.000
892.638;   35.500;  408.000;  291.000
892.882; -266.400; -780.000; -867.000
893.126;   90.200;  758.000;  558.000
893.370;  -97.100; -167.000; -168.000
893.614; -249.600; -714.000; -715.000
893.857; -129.500; -183.000; -197.000
894.101; -204.600; -527.000; -631.000
894.345;  -23.000;  300.000;  150.000
894.588;  108.900;  569.000;  380.000
894.832;  -78.500; -178.000;  -84.000
895.075;  -70.600;   15.000;  -92.000
895.319; -178.500; -552.000; -420.000
895.563; -186.600; -413.000; -353.000
895.806; -247.000; -628.000; -741.000
896.049;  -66.900; -576.000; -368.000
896.293;  232.400;  527.000;  405.000
896.536; -116.100; -465.000; -468.000
896.779;  -78.600; -149.000;   -1.000
897.023; -243.900; -751.000; -714.000
897.266;   35.400;  325.000;  269.000
897.509; -289.200; -900.000; -901.000
897.752;  -25.900;  149.000;  171.000
897.996; -304.100; -972.000; -864.000
898.239;    9.700;  168.000;  102.000
898.482; -193.300; -431.000; -453.000
898.725;  -10.100;  101.000;   53.000
898.968; -258.000; -609.000; -744.000
899.211; -125.800; -513.000; -361.000
899.454; -227.100; -633.000; -539.000
899.697;  -56.700;   90.000;  -43.000
899.940; -278.800; -761.000; -757.000
900.182; -125.000; -335.000; -405.000
900.425; -111.400; -150.000; -298.000
900.668;   56.100;  491.000;  350.000
900.911; -164.500; -292.000; -345.000
901.154;  -10.900;  141.000;   -3.000
901.396; -207.400; -407.000; -412.000
901.639; -195.300; -430.000; -496.000
901.882; -322.900; -790.000; -809.000
902.124; -108.200;  -29.000; -143.000
902.367; -167.300; -315.000; -361.000
902.609; -215.000; -476.000; -453.000
902.852;  -96.600; -108.000; -260.000
903.094; -197.500; -458.000; -337.000
903.337;  -15.500;  -26.000;   53.000
903.579; -136.800; -228.000; -441.000
903.821; -252.400; -597.000; -744.000
904.064;  -11.100;   85.000;  127.000
904.306; -115.700; -126.000; -166.000
904.548; -142.200; -152.000; -366.000
904.790; -126.400; -195.000; -340.000
905.033; -164.400; -625.000; -577.000
905.275; -189.600; -513.000; -524.000
905.517;  148.000;  468.000;  256.000
905.759; -125.300; -667.000; -761.000
906.001; -135.600; -322.000; -369.000
906.243;  -69.700; -162.000; -224.000
906.485;  304.000; -265.000; -207.000
906.727;  147.300; -499.000; -542.000
906.969;   -7.700;  -30.000; -135.000
907.211;  242.000; -316.000; -382.000
907.453;  473.700; -188.000; -237.000
907.695;   -2.400; -158.000; -385.000
907.936;  172.800;  818.000;  706.000
908.178;  -56.000;   92.000; -135.000
908.420;  -39.300; -111.000; -162.000
908.662; -186.300; -633.000; -682.000
908.903; -117.900; -208.000; -123.000
909.145;  -63.700; -240.000; -305.000
909.386;   95.300;  315.000;  280.000
909.628;  146.500;  363.000;  397.000
909.870;   67.500;   29.000;  264.000
910.111; -207.100; -809.000; -949.000
910.353;   86.800; -123.000; -161.000
910.594;   -3.200; -574.000; -606.000
910.835;  214.300; -265.000; -326.000
911.077;  257.700; -503.000; -604.000
911.318;  553.700; -505.000; -471.000
911.559;  789.700; -577.000; -880.000
911.801; 2571.400; -284.000; -280.000
912.042;21932.500;  -50.000; -159.000
912.283;44655.900;  404.000;  371.000
912.524; 5180.600; -396.000; -457.000
912.765;  825.700; -193.000;   79.000
913.006;  439.500; -307.000; -338.000
913.247;  120.500; -270.000; -290.000
913.488;   25.300;  -43.000;   30.000
913.729;  -76.400; -373.000; -373.000
913.970;  -63.300;  -96.000; -292.000
914.211;  -58.000; -160.000; -198.000
914.452;  -83.800; -118.000;  -11.000
914.693;  142.900;  510.000;  592.000
914.934;  108.200;  510.000;  440.000
915.175;  -62.500;   53.000;  -95.000
915.415;  -95.800; -137.000;   27.000
915.656;  -39.400;  -28.000;  192.000
915.897; -124.900; -252.000;  -82.000
916.137;  -67.700;   74.000;   -9.000
916.378; -212.900; -573.000; -517.000
916.619; -110.600; -159.000;  -63.000
916.859;   21.400;  303.000;  330.000
917.100;  401.000; 1655.000; 1070.000
917.340;  178.400;  930.000;  728.000
917.581;  158.700;  965.000;  789.000
917.821;  -18.400; -171.000;  143.000
918.061;   30.500; -199.000;  -72.000
918.302;  -54.600; -152.000; -211.000
918.542;   10.200;  -22.000;    3.000
918.782;   96.800;  369.000;  377.000
919.023;  318.200;  360.000;  427.000
919.263; 2701.800; 8131.000;  202.000
919.503; 1759.200; -137.000;  -54.000
919.743; 1084.600;  390.000;  266.000
919.983;  391.300; -134.000;  -26.000
920.223;  151.600;  135.000;   14.000
920.463;  328.000;  631.000;  554.000
920.703;  249.700;   84.000;   39.000
920.943;  316.300; -110.000;   90.000
921.183;  351.600; -414.000; -405.000
921.423;  876.600;  307.000;  546.000
921.663; 1168.100; -174.000; -257.000
921.903; 2677.400;  237.000;  173.000
922.143;16462.100;  372.000;  389.000
922.383;55335.600;  158.000;  115.000
922.622;14174.400; -120.000;  -15.000
922.862; 1778.200;  796.000;  785.000
923.102;  724.000;  -51.000;   33.000
923.341;  318.200;   59.000;   74.000
923.581;  213.500;  450.000;  360.000
923.821;  102.700;  301.000;  398.000
924.060;   75.700;  351.000;  193.000
924.300;  -36.500;  -16.000; -128.000
924.539;   67.800;  584.000;  473.000
924.779;  124.300;  812.000;  597.000
925.018;   -2.000;  247.000;  353.000
925.257;   44.200;  595.000;  666.000
925.497;  -14.600;  447.000;  412.000
925.736;  -56.900;  -35.000;  102.000
925.975;   88.400;  687.000;  669.000
926.214;  150.400;  907.000;  850.000
926.454;  151.000;  706.000;  757.000
926.693;    4.600;  419.000;  543.000
926.932;  181.200; 1021.000;  825.000
927.171;  248.700; 1107.000; 1044.000
927.410;  222.900; 1144.000;  967.000
927.649;  162.200;  924.000;  742.000
927.888;   60.600;  590.000;  564.000
928.127;   68.000;  680.000;  678.000
928.366;  137.800;  842.000;  826.000
928.605;  155.100;  831.000;  737.000
928.844;  510.700; 1451.000; 1393.000
929.083; 1102.600;  770.000;  613.000
929.321;  572.900; 1335.000; 1359.000
929.560;  265.300; 1158.000; 1122.000
929.799;    6.300;  574.000;  475.000
930.038;  261.100; 1025.000; 1394.000
930.276;  -34.900;  334.000;  397.000
930.515;   80.900;  827.000;  681.000
930.753;   26.900;  614.000;  589.000
930.992;   54.200;  664.000;  717.000
931.230;   71.000;  847.000;  847.000
931.469;  417.500; 2162.000;  892.000
931.707;  230.500;  840.000;  751.000
931.946;  229.500; 1278.000; 1344.000
932.184;  197.200; 1437.000; 1175.000
932.423;  187.600; 1265.000;  963.000
932.661;  225.900; 1296.000; 1428.000
932.899;  137.900;  987.000;  821.000
933.137;   95.300;  754.000;  564.000
933.376;  369.000; 1664.000; 1335.000
933.614;  380.800; 1759.000; 1196.000
933.852;  168.400; 1357.000; 1171.000
934.090;  336.100; 1722.000; 1747.000
934.328;  303.300; 1252.000; 1457.000
934.566;  256.400; 1431.000; 1110.000
934.804;  349.500; 1263.000; 1309.000
935.042;  875.700; 1861.000; 1850.000
935.280; 3429.900; 2088.000; 2063.000
935.518; 2574.400; 2113.000; 2007.000
935.756;  692.100; 2481.000; 2316.000
935.994;  377.600; 1808.000; 1751.000
936.231;  800.600; 2890.000; 2950.000
936.469;  447.700; 2367.000; 2378.000
936.707;  421.100; 2220.000; 2167.000
936.945;  531.500; 2825.000; 2882.000
937.182;  506.200; 2679.000; 2741.000
937.420;  750.700; 3602.000; 3031.000
937.657;  946.400; 3365.000; 3478.000
937.895;  786.600; 3331.000; 3488.000
938.133;  725.000; 3540.000; 3528.000
938.370;  793.700; 3896.000; 4191.000
938.607;  923.400; 4488.000; 4205.000
938.845; 1233.700; 5587.000; 5549.000
939.082; 1055.800; 5387.000; 5177.000
939.320; 1198.100; 5799.000; 5728.000
939.557; 1390.400; 6549.000; 6491.000
939.794; 1586.000; 7285.000; 7097.000
940.031; 1981.300; 8421.000; 8368.000
940.269; 2303.200; 9552.000; 9107.000
940.506; 2376.200;10901.000;10507.000

