
Integration time [ms]: 100.000
Averaging Nr. [scans]: 40
Smoothing Nr. [pixels]: 0
Data measured with spectrometer [name]: 2101013U2
Wave   ;Sample   ;Dark     ;Reference
[nm]   ;[counts] ;[counts] ;[counts] 

394.013;   77.793; -450.257; -315.536
394.305;  281.216; -461.258; -419.536
394.596; 1121.362; -676.269; -527.514
394.887; 2660.829; -796.268; -654.518
395.178; 1018.334;  145.736;   11.476
395.470;   99.446; -210.263; -356.526
395.761;  228.819;  305.734;  394.479
396.052;  439.410; -545.284; -306.489
396.343;  424.531; -557.276; -454.503
396.634;  149.349; -200.279; -290.497
396.926;  185.126; -618.268; -565.517
397.217;  143.135;   11.725;  -17.504
397.508;   65.601; -366.273; -154.507
397.799;   69.474; -555.279; -571.497
398.090;   24.693; -973.280; -902.495
398.381;  156.359;   11.708;  -11.473
398.672;   15.185; -585.292; -742.473
398.963;   79.580; -348.279; -373.498
399.254;  151.694;   54.709; -209.475
399.545;  -10.235;-1017.266; -883.520
399.836;   87.169; -407.277; -343.501
400.127;   60.635; -205.295; -209.468
400.418;   78.346; -423.274; -392.506
400.709;   90.955; -359.281; -333.493
401.000;   59.023; -268.291; -309.476
401.290;  120.921;  225.698;  115.545
401.581;   77.792; -166.286; -228.485
401.872;   26.457; -542.298; -486.462
402.163;   59.352; -313.296; -252.467
402.454;  106.745; -123.291; -163.475
402.744;  108.619; -844.297; -813.465
403.035;  515.575; -226.293;  -86.471
403.326;  686.088; -366.292; -384.474
403.617;  417.976;  204.701;  165.539
403.907;  258.691; -593.283; -679.490
404.198; 2365.899; -545.307; -599.446
404.489; 6207.446; -618.283; -588.491
404.779; 2157.524; -618.302; -660.456
405.070;  246.078;  -67.304; -174.451
405.360;  355.602; -259.293; -238.472
405.651;  371.461;  125.699;   98.542
405.942;  218.838;  209.714;  127.516
406.232;  350.402; -432.285; -413.487
406.523;  596.645;  641.706;  758.530
406.813;  130.115; -579.286; -644.484
407.104;  416.558;  261.708;  144.527
407.394;  241.052; -604.299; -591.462
407.685;  175.876;  336.715;  222.513
407.975;   81.769; -400.283; -382.490
408.265;  132.460; -134.289; -190.478
408.556;   69.192; -472.291; -459.475
408.846;  180.921;  474.706;  429.530
409.137;  101.143;   -1.288; -216.480
409.427;   59.302; -193.285; -271.487
409.717;   35.029; -776.273; -692.508
410.007;  164.071;    4.715; -170.486
410.298;  118.613; -360.295; -342.469
410.588;   82.049; -495.285; -510.486
410.878;   56.079; -792.287; -873.482
411.168;  131.534; -481.298; -478.463
411.459;  143.339; -295.283; -242.489
411.749;   70.190; -609.292; -507.474
412.039;   76.766; -755.289; -386.480
412.329;  218.662;   40.722;  132.501
412.619;  204.840;  -62.286; -148.485
412.909;  405.837;  639.711;  594.521
413.199;  378.943; -130.280; -251.495
413.490;  436.778;  521.710;  352.523
413.780;  158.573;-1013.279; -913.496
414.070;  346.132;  -46.276;  235.497
414.360;  424.358; -729.278; -666.498
414.650;  447.900; -726.288; -688.482
414.940;  554.697; -538.280; -441.496
415.230;  921.922;   50.712;   74.519
415.520; 5990.536;  155.730;   66.486
415.809;23885.780; -305.281; -125.493
416.099;18088.722; -388.277; -229.501
416.389; 5012.643;  435.726;  236.494
416.679; 2896.374;   91.738;   85.473
416.969;  534.209; -527.287; -503.483
417.259;  486.599;  341.721;  171.503
417.549;  703.329;  522.718;  318.508
417.838; 1607.353; -205.268; -147.518
418.128; 5321.358;  650.710;  492.522
418.418; 4393.886; -491.272; -579.509
418.708; 3014.269;    9.726;  -48.506
418.997;11209.464; -474.275; -480.505
419.287;11549.625; -733.273; -790.507
419.577;10810.288; -160.283; -123.489
419.866;36217.945; -588.277; -498.501
420.156;37422.457; -242.270;  -55.513
420.446; 6737.342; -112.263;  -26.526
420.735;  967.826; -376.271; -446.512
421.025;  861.108; 1830.722;  315.502
421.314;  802.199; -203.271; -226.512
421.604; 1766.596;   89.732;  233.484
421.893; 1037.420; -705.271; -602.511
422.183;  262.192; -487.263; -461.526
422.472;  397.396;  -36.271; -107.511
422.762;  522.921; -416.266; -379.521
423.051;  287.482; -916.276; -916.503
423.341;  351.927; -491.273; -439.507
423.630;  454.802; -121.265;   15.477
423.919;  409.564;   58.725;   49.495
424.209;  375.498;  -31.263;   56.473
424.498;  492.150;   68.732;  161.483
424.787; 1107.057; -535.267; -601.518
425.077; 3427.551;   34.735;   29.478
425.366; 5071.153; -734.262; -744.528
425.655; 9691.803;  639.727;  259.493
425.945;20030.009; -313.247; -268.554
426.234;11049.376;  117.741;  300.467
426.523; 5009.106;  -86.259; -350.534
426.812; 6846.192;  107.734;  159.480
427.101; 9950.192; -127.269; -323.515
427.390;12791.011;  -55.270;  -86.514
427.680; 3165.301; -624.257; -411.538
427.969;  524.562; -330.255; -301.540
428.258;  354.718; -385.257; -477.536
428.547;  608.040;  449.728;  397.490
428.836; 1504.779; -421.253; -398.543
429.125; 2125.333; -199.259;  -72.534
429.414;  892.927; -330.251; -294.548
429.703; 3120.352; -231.251; -213.548
429.992; 9170.655; -938.250; -828.549
430.281; 5936.810; -397.264; -331.524
430.570;  637.742;  -21.252;   32.454
430.859;  647.706;  279.741;  352.466
431.148;  464.979;  636.752;  631.446
431.437;  303.766;  391.748;  367.454
431.725;  163.969; -544.257; -481.536
432.014;  149.686; -845.253; -756.545
432.303;  418.981; -149.239; -105.569
432.592;  709.191; -460.263; -178.525
432.881; 1090.681; -601.248; -437.554
433.169; 5953.913; -343.255;  -61.540
433.458;12122.815;  445.765;  540.424
433.747; 5048.809; -397.261; -289.529
434.036; 1000.632; -275.242; -280.564
434.324; 2098.168; -395.249; -379.551
434.613; 3581.200;   40.757;  159.437
434.902; 1261.071;  333.760;  439.433
435.190;  750.180;   75.761;  295.431
435.479;  406.132;  -52.245;   83.441
435.767;  150.840; -411.244; -427.561
436.056;  261.127; -340.242; -294.563
436.345;  403.973; -372.240; -223.568
436.633;  411.313;   60.750;  383.450
436.922;  309.876;  208.760;  414.432
437.210;  785.205; -194.236;    1.426
437.499; 2598.488; -583.235; -432.576
437.787; 2834.755; -339.236;  -10.574
438.075;  675.285;   56.761;  162.430
438.364;  941.813;  -44.238;  250.429
438.652;  579.044; -286.226; -138.592
438.941;  157.858;    3.770;  269.415
439.229;   25.364; -665.252; -466.545
439.517;   49.372; -160.234;  -85.577
439.806;    4.485; -501.225; -290.595
440.094;  191.854;  377.766;  650.421
440.382;  260.783; -653.233; -302.580
440.670;  278.913; -361.235; -285.576
440.959;   39.952; -347.223; -170.599
441.247;   96.069; -151.229; -109.587
441.535;  154.695; -266.235;   31.423
441.823;   58.552; -497.234; -305.578
442.111;  220.473;  173.771;  327.412
442.400;  681.881; -628.245; -335.559
442.688; 1816.229; -111.234; -620.579
442.976; 1339.366; -786.213; -450.617
443.264;  136.942; -324.224; -364.597
443.552;  125.970; -258.226;   51.408
443.840;  179.519;  602.765;  876.423
444.128;  117.207;  265.767;  269.420
444.416;   32.726; -694.228; -312.588
444.704;   46.282; -465.219;  -92.605
444.992;   90.098;   -0.226;  240.407
445.280;   58.883; -517.230;  -94.585
445.568;   69.595; -694.212; -396.618
445.856;  422.116; -174.221;  357.398
446.143;  969.079;  -54.220;   -7.604
446.431;  783.330;  -25.228;  625.411
446.719;  282.077;  489.783;  675.391
447.007;  183.853;  481.769;  705.416
447.295;  204.074;  597.777;  871.402
447.583;   99.492; -464.229;  -34.587
447.870;  180.763; -434.221; -202.601
448.158;  515.082; -104.230;  129.415
448.446;  400.005; -800.219; -338.604
448.733;  187.618;   13.776;  269.403
449.021;  284.494;   60.788;  341.382
449.309;  209.409; -296.210;  208.379
449.596;  244.248;  128.783;   59.392
449.884;  162.231; -571.222; -325.600
450.172;  155.585; -756.227; -406.590
450.459;  421.924;  645.786;  780.387
450.747; 2217.447; -411.218; -147.608
451.034; 7219.331;  493.772;  889.411
451.322; 5852.827; -413.214; -170.614
451.609;  495.169;  292.777;  508.403
451.897;  577.948; -550.203; -183.634
452.184; 1748.475; -622.223; -400.598
452.472; 1643.856;   97.792;  269.375
452.759;  367.105;  512.781;  864.395
453.047;  141.042; -407.212; -125.617
453.334;   84.863; -732.219; -216.606
453.621;  121.955; -438.214; -161.615
453.909;  132.490;   13.796;  384.368
454.196;  131.511; -299.199; -123.641
454.483;  225.611;  317.798;  540.364
454.771;  157.184; -215.208;  196.374
455.058;   62.462; -316.207;  102.374
455.345;  103.942;   71.807;  344.347
455.632;   92.216; -128.207;  235.373
455.919;   58.884;  -82.196;  182.354
456.207;  -50.410; -774.198; -450.642
456.494;   -4.402; -475.200;  -66.639
456.781;   17.282; -399.202; -198.635
457.068;   70.797; -253.206;  -29.628
457.355;    2.648; -698.206; -401.629
457.642;    3.029; -552.205; -290.630
457.929;   15.183; -778.194; -417.651
458.216;   65.367; -575.212; -354.617
458.503;  227.187; -173.193;  -19.652
458.790;  241.007; -864.208; -630.625
459.077;  276.287;  -77.202;  110.364
459.364;  782.250; -350.195; -210.649
459.651; 1635.795;  -46.206;  220.372
459.938;  758.147; -864.209; -665.623
460.225;  170.365;  132.799;  276.363
460.512;  -35.969; -836.197; -688.645
460.799;  118.695;  -32.218;  320.392
461.086;   94.953; -370.200; -251.640
461.372;   64.591; -509.198; -279.642
461.659;  149.010; -165.196;  108.354
461.946;   87.236; -445.193;  -54.651
462.233;  254.901;  842.800;  888.361
462.519;  348.397; -814.201; -464.639
462.806; 1004.681; -768.197; -497.645
463.093;  843.932; -445.191;  -66.656
463.380;  -11.577; -920.186; -824.664
463.666;   84.183; -259.197;  -18.646
463.953;   95.595; -406.195; -243.648
464.239;  184.020; -173.195;  -77.648
464.526;  406.906;  413.806;  743.350
464.813;  394.643; -565.190; -304.658
465.099;  378.737;  606.807;  607.348
465.386;  353.091;  903.807;  921.348
465.672;   54.031; -694.197; -522.645
465.959;   47.887; -598.188; -520.662
466.245;   33.966; -468.193; -359.652
466.532;  115.318; -109.195;   63.352
466.818;  109.848; -357.186; -216.664
467.104;    3.889; -488.182; -415.672
467.391;   -6.155; -628.189; -459.658
467.677;   43.452; -289.186;    9.335
467.964;   36.302; -682.189; -471.660
468.250;   78.405; -331.186; -160.665
468.536;   83.647;   90.811;  180.341
468.822;  -24.533; -821.184; -574.668
469.109;  138.695;  351.827;  471.311
469.395;  190.676;  729.808;  787.346
469.681;  207.725;   46.811;  156.341
469.967; 1213.554; -699.188; -382.660
470.254; 2614.337; -494.188; -306.662
470.540; 1644.708; -601.196; -476.646
470.826;  251.200; -488.181; -397.675
471.112;  304.345;  288.816;  113.331
471.398;   94.475; -253.183;  -58.670
471.684;   56.429; -626.177; -447.680
471.970;   -0.596; -918.180; -981.675
472.256;   30.225; -521.192; -441.654
472.542;   21.406; -499.171; -434.691
472.828;   35.135; -743.182; -607.672
473.114;   50.225; -380.166; -283.700
473.400;   29.945; -504.175; -293.684
473.686;   53.907; -452.166; -400.701
473.972;   70.735; -230.174; -131.687
474.258;  -35.205; -925.173; -843.689
474.544;  180.470; -183.178;   -2.679
474.830;  277.522;  -65.175;   45.316
475.116;  439.720; -123.190; -196.658
475.401;  608.631; -558.180; -467.676
475.687;  195.980; -725.180; -718.676
475.973;   29.193; -673.181; -770.673
476.259;  258.124;  736.825;  764.315
476.544;  354.012; -539.176; -437.682
476.830;  744.002; -398.172; -322.690
477.116;  645.610; -430.177; -336.682
477.401;  133.606;  346.820;  358.324
477.687;   -8.905; -289.175; -405.684
477.973;   46.321;   21.819;   28.326
478.258;    7.877; -448.163; -348.706
478.544;   39.060;   21.815;   61.334
478.829;  -34.788; -818.171; -738.692
479.115;  -29.348; -749.172; -651.690
479.401;    6.480; -444.174; -449.686
479.686;   17.854; -253.180;  -74.676
479.972;  -33.200; -886.178; -776.680
480.257;   37.177; -258.166;  -65.700
480.542;    6.816; -614.170; -469.693
480.828;  230.294; 1288.824; 1392.317
481.113;  -28.759; -464.176; -426.683
481.399;    3.376; -236.161; -202.711
481.684;  -30.149; -620.166; -462.700
481.969;   14.515; -158.159;  -73.713
482.255;   -0.198; -439.169; -285.695
482.540;    2.151; -569.178; -441.680
482.825;    4.693; -395.187; -404.663
483.110;   90.705;  -85.169; -105.696
483.396;  171.612; -840.157; -652.718
483.681;  452.910;  543.826;  730.313
483.966;  132.859; -696.160; -700.712
484.251;   13.684; -404.174; -310.687
484.536;   15.762; -356.165; -378.703
484.822;   19.537; -205.173; -218.687
485.107;  -18.950; -599.152; -502.726
485.392;  128.018;  662.836;  541.296
485.677;   79.290;  354.832;  163.302
485.962;  109.259;  160.843;  270.283
486.247;  101.360;  -14.162;   -8.707
486.532;   46.028; -178.166; -325.701
486.817;  171.596;  381.839;  431.291
487.102;  127.333; -453.154; -514.722
487.387;  621.914; -637.156; -652.718
487.672; 1083.348; -154.164;  -38.705
487.957;  688.703; -394.160; -286.711
488.241;  187.667; -290.150; -314.729
488.526;  660.552; -280.152; -148.726
488.811; 1115.153; -881.177; -818.680
489.096;  854.311; -666.154; -702.723
489.381;  480.223;    3.847;  162.275
489.666;  352.701; -428.161; -510.710
489.950;  174.914;  558.846;  627.277
490.235;  -13.263; -480.151; -458.728
490.520;  -40.825; -756.161; -723.710
490.804;  -52.959; -827.156; -736.719
491.089;    4.408; -469.149; -299.732
491.374;   44.372; -132.164;  -75.704
491.658;    9.770; -817.147; -717.735
491.943;  210.206; -657.152; -609.727
492.227;  296.554; -178.155;  -38.721
492.512;   60.984; -294.157; -341.717
492.797;  -54.873; -713.149; -716.731
493.081;  -40.978; -588.147; -598.735
493.366;  -22.898; -751.161; -635.711
493.650;  198.351;  831.859;  917.254
493.935;   45.144; -648.147; -447.734
494.219;  -32.087; -778.142; -687.743
494.503;  -39.703; -585.150; -487.730
494.788;   40.800;   46.842;   74.285
495.072;  104.093;  184.850;  434.271
495.356;  185.411; -463.148; -343.733
495.641;  483.004; -812.146; -736.736
495.925;  483.071; -976.156; -903.719
496.209;   49.057; -599.149; -451.732
496.494;  -35.961; -763.142; -544.744
496.778;    9.633; -364.154; -360.722
497.062;  -46.430; -819.156; -627.719
497.346;  -21.895; -869.160; -640.711
497.631;  134.415;  580.852;  560.266
497.915;   78.290;  -64.145;  175.261
498.199;   55.937; -341.157; -277.718
498.483;   50.875; -562.152; -508.725
498.767;  181.420;  301.850;  300.271
499.051;  169.955; -126.149; -100.732
499.335;   32.678; -693.149; -739.731
499.619;  -23.572; -381.129; -423.767
499.903;   44.528; -272.155;  -65.721
500.187;   32.090; -588.153; -316.724
500.471;   34.905; -796.152; -595.727
500.755;  132.075;   62.839;  -96.710
501.039;   38.028; -270.155; -357.721
501.323;  103.878;  -21.141;  264.254
501.607;   63.403; -447.163; -503.706
501.891;   10.688; -607.156; -512.718
502.174;  -18.549; -726.144; -585.741
502.458;   83.234;   89.849;  370.273
502.742;   52.077; -180.138; -191.751
503.026;   94.818; -412.147; -254.734
503.310;  152.564; -437.159; -375.713
503.593;  116.945; -464.147; -325.735
503.877;  132.843; -232.133; -156.760
504.161;  203.493;    2.847;  -50.724
504.444;  136.953; -841.158; -710.716
504.728;  425.171; -487.164; -522.704
505.012;  694.891; -257.150;  -76.729
505.295;  513.001; -417.161; -212.711
505.579;  500.295; -256.156; -496.719
505.862;  691.111; -555.145; -333.738
506.146;  668.666; -681.159; -758.714
506.429;  392.467;  568.841;  461.286
506.713;   71.189; -732.151; -667.728
506.996;  308.908;   90.846;  295.278
507.280;  328.141; -633.165; -474.703
507.563;  223.976; -469.155; -261.721
507.847;   91.091; -423.153; -112.724
508.130;   84.877; -665.161; -456.711
508.413;  101.022; -758.167; -577.700
508.697;  231.223; -151.167;   12.300
508.980;  144.568; -422.153; -312.724
509.263;   -3.153; -466.155; -450.720
509.547;   42.716; -124.150;   82.271
509.830;   60.554; -172.160;  140.289
510.113;   72.920;  128.844;  298.281
510.396;   44.098; -530.152; -300.725
510.680;  226.962; -818.145; -812.738
510.963;  832.312;  184.846;  180.277
511.246;  743.149; -493.150; -357.730
511.529;  299.467; -482.145;  -83.739
511.812;  346.214; -250.134;   10.241
512.095;  229.561; -740.151; -396.728
512.378;   76.999; -317.147; -245.736
512.661;   23.960; -703.137; -623.753
512.944;   23.665; -750.142; -637.744
513.227;   63.607; -170.137; -171.752
513.510;   35.101; -479.144; -671.741
513.793;   46.507; -485.140; -435.747
514.076;  150.649;  -43.127;  -39.771
514.359;   93.108; -294.149; -135.732
514.642;   92.143; -442.142; -567.744
514.925;  709.531;  581.860;  561.253
515.208;  939.235; -498.134; -443.758
515.491;  596.674; -276.133; -182.761
515.773;  315.130; -410.143; -337.742
516.056; 1919.566;  249.864;  409.246
516.339; 2655.370; -754.136; -652.755
516.622; 2014.447; -518.150; -488.730
516.904; 1553.162;  882.857;  975.257
517.187;  730.531; -730.138; -523.752
517.470;  438.211; -568.143; -510.743
517.752;  427.873; -624.136; -470.756
518.035;  323.343; -708.139; -725.749
518.318;  322.045; -799.136; -744.755
518.600; 2165.478; -300.132; -325.762
518.883; 3012.143;  310.858;   88.256
519.165; 1455.298; -585.138; -426.751
519.448;  407.328;  -61.132;  -19.762
519.730;  239.632; -573.126; -415.773
520.013;  337.270;  588.867;  664.240
520.295; 1083.166;  -94.134;  -15.759
520.578; 2446.366; -335.131; -305.764
520.860; 2699.278; -254.132;   56.238
521.143; 1345.775; -763.135; -584.756
521.425;  498.945; -251.125; -279.775
521.707;  659.350; -622.127; -380.771
521.990; 1632.600; -199.127;  167.229
522.272; 1868.384; -116.140;   -4.748
522.554;  919.205; -237.143; -157.742
522.836;  447.264;  -24.134;   99.241
523.119;  240.042; -496.148; -189.734
523.401;  177.598; -448.130; -314.766
523.683;   91.785; -865.137; -693.753
523.965;  247.553;  408.862;  260.248
524.247;  255.841;   54.878;  170.220
524.529;  198.816; -451.134; -367.759
524.812;  342.175;   -3.130;  191.234
525.094;  805.228; -773.138; -631.751
525.376; 1243.879; -143.124;   78.223
525.658;  747.717; -441.136; -339.754
525.940;   21.487; -805.131; -671.764
526.222;   48.696; -188.136;  -88.755
526.504;  147.785; -190.131;   32.237
526.786;  265.068; -960.133; -647.760
527.068;  393.960; -124.123;  -67.778
527.349;  189.639; -865.137; -774.754
527.631;  130.202; -137.132;   22.238
527.913;  136.874; -664.127; -450.771
528.195;  155.938; -761.125; -639.774
528.477;  237.761;  -93.134;  -30.758
528.759;  127.649; -648.130; -522.766
529.040;   39.658; -569.123; -293.778
529.322;   50.115; -235.125;  -10.774
529.604;  167.702;  -47.130;   93.233
529.886;  164.381; -546.126; -302.773
530.167;  143.893;  232.870;  192.235
530.449;   58.524;    1.853;   63.265
530.731;   18.740; -572.122; -459.779
531.012;   66.886; -513.120; -216.784
531.294;   66.426; -118.116;  -43.792
531.575;  150.070;  290.875;  538.225
531.857;   36.181; -548.135; -266.757
532.138;   99.551; -113.141;   40.254
532.420;  194.852;  294.865;  403.244
532.701;  276.246; -722.133; -751.760
532.983;  415.299;  232.867;  182.239
533.264;  149.779; -243.126;  175.228
533.546;  -33.029; -491.136; -508.755
533.827;   66.992;  173.867;   -1.759
534.109;   65.680; -352.135;  -80.757
534.390;  126.582; -725.132; -582.762
534.671;  270.051; -270.135;  -82.756
534.953;  150.961; -751.123; -611.779
535.234;   32.186; -426.117; -255.789
535.515;  -80.030; -891.119; -735.785
535.796;  -17.305; -431.128; -193.770
536.078; -110.246;-1050.124; -904.777
536.359;   15.562;  -22.123;    3.221
536.640;   -3.436; -480.125; -197.774
536.921;  149.407;  225.871;  143.232
537.202;  366.675;  -87.138;  -16.751
537.483;  425.090;  251.869;  377.236
537.764;  164.093;   17.870;   98.235
538.045;  -33.590; -543.134; -371.758
538.326;  -23.241; -596.129; -447.768
538.607;   19.876; -686.127; -476.771
538.888;  176.327;   98.879;    5.218
539.169;  184.972; -704.122; -535.781
539.450;  354.056;  236.871;   16.233
539.731;  234.256; -361.121; -182.783
540.012;  151.786;  199.880;  412.216
540.293;   86.448;   82.876;  158.224
540.574;   36.122; -895.113; -717.796
540.855;  441.480;  435.879;  377.218
541.136;  546.094;   47.878;  139.220
541.416;  285.450; -161.130; -220.766
541.697;  179.111; -274.131; -170.763
541.978;  974.654; -270.135; -315.757
542.259; 1219.000; -211.127; -236.771
542.539;  587.220; -191.116; -186.790
542.820;  178.244;  461.875;  480.225
543.101;  122.589;  -52.145;  -77.738
543.381;   50.875; -638.127; -591.771
543.662;  253.123;  159.873; -254.771
543.942;  543.521; -751.127; -830.770
544.223;  964.496;  193.878;  161.219
544.504;  614.053; -275.124; -182.777
544.784;  550.106; -592.126; -408.773
545.065; 1562.173;  104.884; -254.791
545.345; 1819.770;  227.881;   14.215
545.626; 1181.196;  -14.113; -108.796
545.906;  810.443;   77.869;   98.235
546.186;  307.086;   92.874;  -95.773
546.467;  176.231;   99.877;  -95.778
546.747;  309.119;  264.884;  327.210
547.027;  335.677;   91.876;  111.223
547.308;  313.645; -376.127; -530.770
547.588;  364.610;  299.871;  371.232
547.868;  195.169;  458.870;  588.235
548.149;  193.681;  609.885;  593.207
548.429;  123.448; -347.127; -299.771
548.709;  175.536; -645.120; -461.784
548.989;  446.055;   84.882;   88.213
549.269; 1876.701;   10.868;  139.239
549.550; 4445.110;  215.877;  117.222
549.830; 3943.739; -758.111; -556.799
550.110;  779.797; -468.110; -320.801
550.390;  784.866; -128.122;  -56.779
550.670; 1065.192; -868.114; -783.795
550.950;  722.629; -509.121; -471.782
551.230;  174.101;  549.879;  460.218
551.510;   -3.872; -381.121; -326.782
551.790;   20.504; -173.109; -127.803
552.070;  239.581;  940.877; 1181.223
552.350;  357.974; -492.119; -377.786
552.630;  515.873;   -2.121;   77.219
552.909;  327.874;  181.884;   73.209
553.189;  200.233;  -49.132;   33.237
553.469;  178.349; -703.119; -514.786
553.749;  161.552; -469.127; -357.772
554.029;  158.215;   33.883;  -24.790
554.308;  129.335; -154.115;  -37.794
554.588;   62.944; -196.128; -204.770
554.868;   56.080; -366.121;  -47.782
555.147;  138.432; -114.115;  -46.793
555.427;  532.101; -260.116; -250.792
555.707; 3559.180; -284.115; -200.793
555.986; 4325.167; -719.111; -538.800
556.266; 2212.968;   23.884;   72.210
556.546;   78.253; -888.121; -675.782
556.825;  232.764; -657.114; -556.794
557.105; 1634.617; -125.128;   17.230
557.384; 1929.198;  122.884;  187.209
557.664;  733.250; -717.116; -508.792
557.943;  115.104; -557.121; -411.782
558.222;  154.283; -345.118; -344.788
558.502;  251.659; -116.115;  -76.793
558.781;  449.179;  194.885;  499.208
559.061;  364.782; -232.118; -227.788
559.340;  276.312;  302.883;  353.211
559.619;  646.618;   93.884;  148.210
559.899;  919.764; -239.117; -266.789
560.178;  856.883; -778.115; -593.793
560.457; 2841.141; -623.117; -562.790
560.736; 4023.169; -472.111; -482.800
561.015; 2650.689; -500.128; -502.769
561.295;  347.249;  180.893;  215.193
561.574;  344.306;  119.885;  116.207
561.853;  462.784;  274.891;  303.197
562.132;  453.311;  -45.114;  182.206
562.411;  409.649;  396.879;  553.219
562.690;  117.879; -592.115; -458.792
562.969;  127.678;  472.888;  630.203
563.248;  492.596; 2966.878; 2487.219
563.527;  239.418; -290.111; -408.800
563.806;  335.598; -650.127; -521.771
564.085;  376.390; -297.105; -206.810
564.364;  213.292; -594.117; -405.790
564.643;  461.724; -276.121; -223.781
564.922; 1710.628;  221.890;  397.198
565.201; 1675.431; -640.109; -700.803
565.479;  721.677; -297.115; -219.792
565.758;  308.617; -810.128; -712.770
566.037;  439.932; -155.109; -100.803
566.316;  206.273; -286.116;  -28.791
566.595;   58.380;  -17.115;  -12.793
566.873;   91.020; -166.111;  -79.801
567.152;  -46.398; -490.113; -590.797
567.431;    8.494; -113.116;    6.210
567.709;    5.000; -344.107; -212.807
567.988;  241.914; -810.114; -769.794
568.266;  502.730; -160.115;  -68.793
568.545;  353.462; -644.100; -514.819
568.824;  511.852;  160.885;  356.208
569.102;  474.289; -351.114; -235.794
569.381;  191.351; -492.116; -407.792
569.659;  -41.801; -553.113; -553.796
569.938;   26.245; -743.122; -465.780
570.216;  103.685; -225.109; -225.804
570.494;  -28.158; -632.114; -572.795
570.773;   41.303;  202.879;  114.218
571.051;    8.509; -373.123; -357.778
571.330;   41.721; -221.113; -174.796
571.608;   16.705; -181.098; -173.823
571.886;  -62.788; -671.111; -581.799
572.164;  -58.845; -739.121; -621.782
572.443;  -30.332; -562.105; -512.811
572.721;  -40.859; -399.117; -289.790
572.999;  -37.090; -280.117; -168.788
573.277;   83.937;  379.894;  620.191
573.555;  255.389;   94.894;   37.190
573.834; 1175.584;  -86.117; -114.788
574.112; 1412.827;  880.893;  811.193
574.390;  411.519; -143.111;  -96.801
574.668;   13.254;  -91.112;  -61.797
574.946;  -31.611; -165.106; -187.810
575.224;    7.131;   71.891;  -16.803
575.502;  -21.079; -200.116; -204.791
575.780;  -73.620; -767.112; -829.798
576.058;  135.618; 1589.889; 1004.200
576.336;  -19.551; -210.110; -129.801
576.614;  -53.820; -511.112; -340.798
576.891;   41.785; -711.115; -823.794
577.169;  453.318; -158.108; -285.805
577.447;  511.476;  169.893;  202.193
577.725;  244.184;  629.888;  854.201
578.003;    8.557;  -71.112; -371.798
578.280;   91.802; -208.104; -242.812
578.558;   87.559; -450.115; -422.793
578.836;  120.942; -210.114; -145.795
579.114;   57.828; -630.112; -670.797
579.391;   59.961;   -6.117;  -18.789
579.669;  -67.115; -595.114; -704.794
579.947;  141.348; -326.107; -127.806
580.224;  284.748; -692.107; -524.806
580.502;  285.952;  127.893;   76.193
580.779;   29.892;  -42.117;   75.210
581.057;  -75.040; -584.109; -470.804
581.334;  -86.107; -726.102; -695.815
581.612;   43.840;   54.895;  511.190
581.889;  -24.444;  -83.101; -129.818
582.167;  -48.005; -298.099; -190.821
582.444;  -97.425; -845.102; -814.817
582.721;  105.376;  657.899;  715.183
582.999;   42.518; -326.100; -167.821
583.276;  452.588; -812.123; -713.779
583.553;  645.146; -364.102; -294.816
583.831;  197.274; -607.104; -631.812
584.108;   52.716;  349.892;  174.195
584.385;  -13.733; -122.102;  -98.815
584.662;  -65.530; -651.111; -828.801
584.940;   25.594;  204.889;  204.199
585.217;  -13.352;  -73.113; -303.796
585.494;   23.828;   71.890;  118.198
585.771;  177.986; -250.109; -354.804
586.048;  463.998; -196.113;  -76.796
586.325;  275.923; -721.110; -773.801
586.602;   67.853;  230.896;  213.188
586.879;  -21.211; -499.100; -580.820
587.156;   52.216; -156.105; -331.810
587.433;  -26.302; -701.102; -667.817
587.710;   66.231;  152.888;  234.202
587.987;  285.146; -264.105; -236.811
588.264;  754.357;  315.888;  387.202
588.541; 1229.680;  -61.104;   26.187
588.818; 2525.638;   72.892;  171.196
589.095; 2176.601; -163.104; -174.812
589.371;  350.959; -459.109; -414.804
589.648;   14.877; -581.107; -437.807
589.925;   25.568; -517.114; -621.795
590.202;   10.855; -741.112; -607.798
590.478;   68.623; -166.105;  -73.811
590.755;  243.244; -241.108; -132.806
591.032; 2210.550; -741.110; -699.802
591.308; 3145.046; -732.094; -790.831
591.585; 1584.449; -573.110; -560.802
591.862;  118.325;-1056.102; -950.817
592.138;   48.567; -475.108; -474.805
592.415;  125.329; -486.104; -495.813
592.691; 1346.676;  460.896;  518.188
592.968; 1760.257; -208.098; -123.824
593.244;  827.194; -695.116; -595.790
593.521;   60.225; -105.102;  -42.817
593.797;  -15.058; -810.122; -720.780
594.074;  319.120; -611.096; -588.826
594.350;  619.981;  828.905;  729.172
594.626;  265.145; -303.111; -283.801
594.903;   97.601; -643.101; -645.817
595.179;  178.307;  243.896;  418.187
595.455;   10.353; -136.107; -150.807
595.731;    0.559;  -19.103;  -38.814
596.008;  -25.760; -464.111; -434.800
596.284;   29.141; -187.100; -242.820
596.560;   48.677; -501.093; -493.833
596.836;  174.343; -173.105;  -70.810
597.112;  294.643; -582.108; -437.805
597.388;  261.118;  -49.097;  -48.826
597.665;  103.501;  437.887;  530.203
597.941;  -67.793; -572.089; -658.839
598.217;   -8.747; -323.110; -293.802
598.493;  230.263;   61.891; -204.804
598.769;  467.811; -175.100;  -50.819
599.045;  257.746; -490.108; -562.806
599.321;   52.765; -193.100; -261.820
599.597;  127.462; -355.109; -476.804
599.872;  430.005;  409.896;  429.187
600.148;  322.544;  -61.097; -172.826
600.424;  264.976;   91.893;  202.193
600.700;  209.453; -170.107; -280.807
600.976;  104.138; -442.097; -464.825
601.252;  199.584; -226.109; -272.803
601.527;  185.081; -833.104; -840.813
601.803;  128.298; -453.105; -404.812
602.079;  164.186; -124.100; -118.819
602.354;  513.162; -620.092; -531.835
602.630;  766.798; -140.113; -482.796
602.906; 2049.406; -910.101; -863.818
603.181; 6172.549; -627.119; -534.786
603.457; 5260.017;   98.903; -278.826
603.733;  717.832; -605.120; -626.783
604.008;  882.815; -245.106; -164.810
604.284; 2811.627; -636.101; -580.817
604.559; 2484.184;   -3.112;  -42.799
604.835;  429.393; -163.105; -225.810
605.110;  366.846; -732.099; -892.821
605.385;  624.530;  224.907;  267.167
605.661;  571.284; -625.095; -729.829
605.936; 1042.946; -664.108; -737.806
606.211;  880.741;  -17.103; -170.815
606.487;  163.863; -329.114; -376.794
606.762;   -8.626; -791.119; -745.786
607.037;  -26.907; -501.105; -433.810
607.313;  -45.823; -589.096; -574.828
607.588;  -18.261; -375.106; -137.810
607.863;   35.030;  -28.101; -143.818
608.138;  158.827;  513.890;  516.198
608.413;   17.500; -576.099; -592.822
608.688;   34.292; -203.108; -267.805
608.964;  170.934; -509.106; -218.809
609.239;  221.165; -107.105; -212.810
609.514;  218.098;  281.895;  240.188
609.789;  608.153; -187.104; -716.812
610.064;  793.701; -435.096; -609.827
610.339;  771.909; -855.109; -799.804
610.614; 1061.141; -131.100; -315.820
610.889;  577.123;  215.895;  107.188
611.163;   21.874; -407.104; -591.812
611.438;   62.439;   81.886; -167.794
611.713;   -6.398; -467.101; -499.817
611.988;   37.154; -144.101; -328.818
612.263;  -25.457; -771.102; -717.815
612.538;  196.673;  385.887;  251.204
612.812;  142.142; -832.100; -911.820
613.087;  126.030; -358.098; -338.823
613.362;  -66.497; -497.107; -557.807
613.637;   37.862;  261.897;  138.186
613.911;  -19.912; -256.092; -345.835
614.186;   99.501; -249.107; -292.807
614.460;  584.132; -842.081; -758.854
614.735;  702.030;  -55.087;  -17.843
615.010;  147.745;   43.912;  -82.841
615.284;  234.192;  360.892;  246.195
615.559;  329.511; -792.092; -955.835
615.833;  267.548;  -76.099;  -87.822
616.108;   -9.702; -225.090; -390.837
616.382;  116.107;  274.913;  402.156
616.656;  117.899; -241.090; -232.837
616.931;  463.598; -785.099; -700.822
617.205;  970.357; -973.104; -979.813
617.480;  881.693;  -91.125;    6.225
617.754;  145.040; -396.125; -128.774
618.028;   -0.965; -369.129; -382.768
618.302;   61.640;   73.892;  -25.805
618.577;  -51.562; -371.103; -518.815
618.851;  -59.344; -399.109; -600.803
619.125;  -46.609; -335.134; -378.759
619.399;  -32.043; -244.104; -374.813
619.673;  -54.248; -330.115; -515.792
619.947;  -54.208; -333.114; -448.795
620.222;  -25.604; -198.110; -204.801
620.496;   -3.945;  -47.121;  -96.782
620.770;   17.596; -187.122;  -93.781
621.044;  199.391;  323.895;  346.190
621.318;  681.758; -653.120; -614.783
621.592;  605.605; -430.121; -409.783
621.866;  316.935; -476.112; -572.799
622.140;   10.971; -207.116; -356.791
622.413;   50.439;  138.889;  112.200
622.687;  -49.573; -746.101; -492.817
622.961;    8.690; -130.108; -143.805
623.235;  -54.685; -633.111; -661.800
623.509; -114.852; -816.105; -848.811
623.783;    2.674;  -12.107;   48.193
624.056;  -17.391; -254.120; -280.783
624.330;   37.154;   63.888;   -3.797
624.604;   40.192; -271.116; -355.790
624.877;   55.776;  180.890;   26.198
625.151;   39.086; -249.114; -238.794
625.425;  -28.441; -150.103; -283.814
625.698;  -60.082; -367.119; -374.785
625.972;  -96.597; -799.110; -765.802
626.245;   68.444;  685.884;  484.210
626.519;  -54.312; -426.120; -340.784
626.792;  -49.647; -192.107; -380.807
627.066;  -78.986; -485.122; -662.779
627.339;  -94.501; -736.110; -663.802
627.613;   34.286;  351.880;  148.216
627.886;   54.255;  187.891; -612.803
628.160;  -20.443;  312.880; -161.783
628.433;  -96.380; -695.125; -703.775
628.706;  -99.062; -517.120; -615.784
628.979;   21.477;  296.876;  117.223
629.253;  -92.927; -785.119; -833.786
629.526;  315.905; -334.126; -253.772
629.799;  310.034; -641.123; -479.778
630.072;  130.462; -497.128; -516.769
630.346;  -76.706;-1115.116;-1080.790
630.619;  390.479; -467.107; -545.808
630.892;  552.941;  709.889;  593.200
631.165;  313.907;  790.896;  679.187
631.438;  -88.293;-1092.112;-1055.798
631.711;   46.562;  453.877;  257.221
631.984;  -63.861; -523.117; -624.789
632.257;  -77.714; -636.117; -681.789
632.530;  -56.332; -412.119; -433.785
632.803;    7.584; -109.115;    7.207
633.076;  -59.969; -360.123; -422.777
633.349;    9.016;  173.872;  121.231
633.622;  -45.958; -187.119; -240.785
633.895; -127.816; -903.120; -823.783
634.167;  -68.318; -496.126; -525.773
634.440;  -31.324;  -19.116; -137.792
634.713;    8.322;  -22.119; -120.786
634.986;   57.831;  593.871;  453.233
635.258;  -81.468; -507.115; -597.793
635.531;   95.657;  742.882; -343.788
635.804;  -24.887; -303.117; -318.789
636.077;  -91.378; -830.116; -852.791
636.349;   -9.969; -586.115; -474.793
636.622;  334.854; 1695.874; 1392.228
636.894;  210.963; -474.120; -909.784
637.167;  137.698; -836.127; -789.771
637.439;   21.444; -278.128; -213.770
637.712;  -54.469; -312.126; -293.772
637.984;  -95.678; -635.116; -707.791
638.257;  347.806;  515.877;  488.222
638.529;  543.121; -881.125; -924.776
638.802;  232.812; -508.128; -449.769
639.074; -122.029; -927.122; -952.781
639.346; -113.143; -942.135; -930.757
639.619;   -4.409;  -79.142; -319.744
639.891;    1.564;  -83.122; -168.779
640.163;  -73.584; -689.122; -756.780
640.435;   23.943;  273.878;  103.220
640.708;    7.645;  -72.122; -132.780
640.980;  -39.628; -366.122; -362.781
641.252;  169.924;  -25.121;  -71.781
641.524; 1708.225;  580.879;  573.219
641.796; 1739.052;-1094.121; -907.782
642.068;  322.404; -191.121; -300.782
642.340;  -60.919; -486.121; -566.783
642.613;   32.833;  294.880;  323.217
642.885;  -84.890; -787.120; -878.783
643.157;  -57.614; -810.120; -658.784
643.428;   50.688;  170.880;  218.216
643.700;  -78.510; -498.120; -425.784
643.972;  -30.633;  -16.119; -133.785
644.244;  -95.106; -474.119; -559.785
644.516;  -37.429; -250.119; -114.786
644.788;   63.322;  662.881;  548.214
645.060;  -27.201;  -12.119; -124.786
645.332; -101.999; -525.118; -535.787
645.603;   22.403;  479.882;  342.213
645.875;  -86.120; -334.118; -369.787
646.147;  156.557; 1487.882; 1242.212
646.418;  -75.691; -931.117; -918.788
646.690;  111.985; -714.117; -715.789
646.962;   13.137; -413.117; -451.789
647.233;   -1.111;   15.883;   11.211
647.505;  -97.834; -595.117; -475.790
647.776;   20.093;  328.884;  229.210
648.048;  -20.280; -248.116; -418.790
648.320;  -80.479; -752.116; -679.791
648.591; -146.277;-1055.116; -958.791
648.862;  -81.125; -505.116; -577.792
649.134;   -1.598;  115.885;  198.208
649.405;  -36.221; -661.115; -618.792
649.677;  -63.169; -475.115; -598.793
649.948;  -15.142; -181.115; -296.793
650.219;  -12.541;  -37.115; -147.793
650.491;  -82.689; -431.114; -520.794
650.762; -109.637; -705.114; -731.794
651.033;  -89.410; -437.114; -424.795
651.304;  -98.008; -743.114; -728.795
651.576;  -71.781; -680.114; -645.795
651.847;  -40.805; -250.113; -140.796
652.118;  -29.053;  -32.113; -189.796
652.389;  -95.126; -639.113; -722.796
652.660;  -39.199; -147.113;  -89.797
652.931; -146.997; -897.112; -871.797
653.202;  -82.570; -382.112; -541.798
653.473;  -70.644; -633.112; -533.798
653.744;  127.808; -595.112; -590.798
654.015;  119.960; -356.112; -303.799
654.286;  -78.088; -642.111; -663.799
654.557;  -58.186; -586.111; -521.799
654.828; -145.684;-1114.111;-1088.800
655.099;  -85.482; -404.111; -291.800
655.370;  -84.831; -427.111; -543.801
655.641; -115.154; -656.110; -714.801
655.911; -106.027; -618.110; -638.801
656.182;   48.875;  437.890;  387.198
656.453;   97.152;  830.890;  746.198
656.724;  -88.096; -466.110; -426.802
656.994;  -82.245; -553.109; -568.803
657.265; -107.568; -862.109; -873.803
657.536;  -82.666; -500.109; -377.804
657.806; -106.539; -561.109; -593.804
658.077; -131.262; -866.109; -950.804
658.347;  -86.635; -523.108; -598.805
658.618; -114.109; -646.108; -694.805
658.888;  -39.382;  -41.108;  112.195
659.159;  -79.355; -432.108; -548.806
659.429;  -12.778; -292.108; -349.806
659.700;    1.199; -435.107; -390.807
659.970;  -19.449; -370.107; -359.807
660.241;   -0.897; -754.107; -921.807
660.511;  449.379; -147.107; -174.808
660.781;   95.256; -793.106; -748.808
661.052;  -46.267; -222.106; -381.808
661.322;  -32.040;   21.894;   -9.809
661.592;    1.012;  257.894;  148.191
661.862;  -79.636; -369.106; -382.810
662.133; -100.260; -551.105; -502.810
662.403; -112.183; -770.105; -676.810
662.673;  -55.781; -256.105; -213.811
662.943; -106.654; -612.105; -551.811
663.213;  -17.527;  -85.105;  -81.811
663.483;  -70.900; -593.104; -568.812
663.753;  -48.748; -194.104; -152.812
664.023;  -29.472;   68.896;  -32.813
664.293;  -65.370; -319.104; -126.813
664.563; -102.693; -694.104; -648.813
664.833; -122.116; -743.103; -608.814
665.103; -128.839; -730.103; -793.814
665.373; -114.412; -766.103; -806.814
665.643;  -86.686; -863.103; -918.815
665.913;   19.716; -534.103; -714.815
666.182;  139.468; -685.102; -719.816
666.452;  256.995;  -22.102;  -89.816
666.722;  -25.103; -724.102; -784.816
666.992; -148.251; -948.102; -921.817
667.261; -105.775; -824.102; -808.817
667.531;  187.627;  134.899;   45.183
667.801;  556.529; -440.101; -412.818
668.070;  222.356;  714.899;  697.182
668.340;  -85.292; -883.101; -840.819
668.609;   76.035;  588.900;  301.181
668.879;  -83.938; -490.100; -558.819
669.149;  -74.012; -539.100; -516.820
669.418;  -98.510; -698.100; -726.820
669.688;  -37.158; -482.100; -666.820
669.957;   75.619; -423.099; -546.821
670.226;  -21.429; -268.099; -331.821
670.496; -101.977; -431.099; -635.822
670.765;  -81.851; -418.099; -501.822
671.034; -139.649; -872.099; -828.822
671.304;  -11.922;   55.902; -111.823
671.573; -140.445;-1085.098; -957.823
671.842;   60.607; -380.098; -294.823
672.112;   12.759; -692.098; -586.824
672.381;  -12.414; -239.098; -214.824
672.650; -132.038;-1005.097;-1021.825
672.919;  -98.611; -631.097; -507.825
673.188;  -83.134; -681.097; -878.825
673.457; -157.457;-1101.097;-1143.826
673.726;  -87.430; -579.096; -646.826
673.995;  -50.653; -533.096; -479.826
674.265;  -17.627; -263.096; -333.827
674.534;   -7.675; -183.096; -235.827
674.802;   -2.898; -618.096; -703.828
675.071;  844.454; -886.095; -801.828
675.340; 3601.856; -464.095; -339.828
675.609; 1175.708;  103.905;   82.171
675.878;   57.734; -949.095; -893.829
676.147;   36.761;  -26.095;   -8.829
676.416;   65.188; -210.094; -294.830
676.685;  669.165; 1000.906; -622.830
676.953;   93.092; -603.094; -452.831
677.222;  -40.156; -193.094; -273.831
677.491;  -38.129;  -24.094; -127.831
677.759;  -20.453;   11.907;  172.168
678.028;  -23.451; -279.093; -222.832
678.297;  -19.424;   71.907;  197.168
678.565; -130.022; -898.093; -944.833
678.834;  -66.470; -311.093; -268.833
679.102;  -84.193; -411.092; -391.834
679.371; -147.367; -898.092; -727.834
679.639; -137.890; -797.092; -786.834
679.908; -126.563; -794.092; -724.835
680.176; -142.386; -895.091; -941.835
680.445;  -71.184; -346.091; -352.835
680.713;  -27.807;  -58.091;  -23.836
680.982;  -92.656; -523.091; -525.836
681.250; -103.629; -578.091; -507.837
681.518;  -91.177; -534.090; -751.837
681.787;  -25.475; -204.090; -167.837
682.055;  -56.123; -490.090; -422.838
682.323; -152.821; -993.090; -992.838
682.591;   31.606; -216.090; -538.838
682.859;   59.182;    9.911;  -35.839
683.128;   18.034;  232.911;  497.161
683.396; -156.239;-1102.089;-1122.840
683.664;  -52.812; -241.089;   21.160
683.932;  -13.435;  144.911;  -76.840
684.200;  -89.108; -576.088; -320.841
684.468;  -19.107;  -73.088; -124.841
684.736;  -42.180; -214.088; -175.841
685.004; -133.103;-1024.088; -982.842
685.272;  -45.001; -880.088; -774.842
685.540;  -75.749; -499.087; -557.843
685.808;  -92.472; -651.087; -682.843
686.076; -109.845; -894.087; -969.843
686.343;  -69.194; -601.087; -815.844
686.611;   29.833; -195.087; -224.844
686.879;  383.785; -530.086; -553.844
687.147; 3032.637; -483.086; -480.845
687.414;  872.789;  -12.086; -169.845
687.682;    5.166; -658.086; -757.846
687.950;  270.917;  259.915;  263.154
688.217;    9.244; -792.085; -760.846
688.485;  -16.354; -632.085; -636.847
688.753;  466.248;  -11.085; -102.847
689.020;  144.575; -820.085; -851.847
689.288;  -93.398; -853.084; -787.848
689.555;  -38.072; -195.084; -148.848
689.823;  -43.520; -241.084; -345.849
690.090;  -83.993; -546.084; -651.849
690.358; -136.041; -877.084; -897.849
690.625;   -4.514;  120.917;   45.150
690.892;  -70.637; -403.083; -369.850
691.160;  -20.310;   72.917;  -35.850
691.427;   11.141;  141.917;  130.149
691.694; -133.182; -855.083; -929.851
691.962; -149.980;-1177.082;-1060.852
692.229;   -1.503;  127.918;   56.148
692.496;   65.824;  130.918;  -49.852
692.763;    3.426; -164.082; -201.853
693.031;  -70.748; -739.082; -716.853
693.298;  -31.796; -509.081; -368.853
693.565;  253.856; -155.081; -163.854
693.832; 1165.183;   -5.081;   -9.854
694.099;  142.635; -643.081; -642.855
694.366;  -47.263; -882.081; -896.855
694.633;  -40.937; -920.080; -633.855
694.900;  724.940; 4367.920; -114.856
695.167;  398.442; -214.080; -380.856
695.434;  110.094; -646.080; -623.856
695.701;  177.196;  121.921;  -61.857
695.968;  429.873; -365.079; -361.857
696.234;  934.525; -415.079; -646.858
696.501;10464.976; -776.079; -614.858
696.768; 5552.503; -554.079; -617.858
697.035;  314.305; -632.078; -667.859
697.302;   41.857; -448.078; -552.859
697.568;   18.434; -458.078; -497.859
697.835;  -24.064; -683.078; -624.860
698.102;  -29.263; -498.078; -407.860
698.368;   76.814;  384.923;  396.139
698.635;  -39.559;  -47.077; -424.861
698.901;  -26.682; -240.077; -348.861
699.168;   56.870; -534.077; -456.862
699.435;   57.797;  -72.077;  -13.862
699.701; -105.326; -868.076; -764.862
699.968;   13.150;  144.924; -441.863
700.234; -101.223; -783.076; -822.863
700.500;  -57.446; -448.076; -539.864
700.767;   -8.394;   -1.075;   26.136
701.033; -122.367;-1015.075; -963.864
701.299;  -54.665; -450.075; -483.865
701.566;  111.786;  950.925;  763.135
701.832;   22.788;  -31.075;  -76.865
702.098;  -93.635;-1054.074;-1034.866
702.365;  -95.958;-1098.074;-1030.866
702.631;  -20.831;-1038.074;-1063.867
702.897; 1259.596; -765.074; -676.867
703.163; 2221.022;  348.926;  254.133
703.429;  156.649; -256.073; -273.868
703.695;  -12.424; -796.073; -792.868
703.961;   24.453; -214.073; -210.868
704.227;  -50.270; -630.073; -725.869
704.493;  111.032;  613.927;  510.131
704.759;  -21.266; -565.072; -540.870
705.025;   33.435; -203.072; -194.870
705.291;   -6.638; -666.072; -562.870
705.557;  186.689;  719.928;   34.129
705.823;   44.541; -742.072; -694.871
706.089;  169.418; -307.071; -326.871
706.355;  365.645; -315.071; -244.872
706.620; 5714.196; -776.071; -729.872
706.886; 8329.923; -309.071; -362.873
707.152;  770.625; -818.070; -973.873
707.418;    4.702;-1153.070;-1186.873
707.683;    0.454; -550.070; -530.874
707.949;  -37.894; -547.070; -578.874
708.215;   -1.692; -129.070; -207.874
708.480;  -29.491; -520.069; -420.875
708.746;  100.686;   68.931;   28.125
709.011;  -60.437; -578.069; -612.876
709.277;  -75.410; -538.069; -543.876
709.542;  -49.233; -428.069; -387.876
709.808;  -12.006;  -59.068;   89.123
710.073;  -76.630; -577.068; -695.877
710.339;  -24.428; -242.068; -228.877
710.604;   59.174; -780.068; -845.878
710.869;  304.826; -277.068; -366.878
711.135;  -72.922; -715.067; -628.879
711.400;  -78.170; -507.067; -608.879
711.665;  -59.144; -404.067; -479.879
711.931;  -95.967; -661.067; -677.880
712.196; -117.440; -876.067; -954.880
712.461;   86.587; -402.066; -490.880
712.726;  136.414; -727.066; -771.881
712.991;  -76.584; -647.066; -664.881
713.256;  -39.832; -350.066; -332.882
713.521;  -61.731; -417.065; -381.882
713.787;  -57.604; -454.065; -472.882
714.052;  -36.502; -214.065; -400.883
714.317;  -87.025;-1045.065; -981.883
714.581; 1034.227; -374.065; -268.883
714.846; 1553.579; -822.064; -888.884
715.111;  145.730;  261.936;  257.116
715.376;  -23.993;  -86.064; -223.885
715.641;  -21.016; -365.064; -367.885
715.906;  282.161;   15.936; -551.885
716.171;  121.863;  221.937;  209.114
716.436;   28.965;  -78.063; -104.886
716.700; -103.534; -818.063; -692.886
716.965; -116.607; -794.063; -807.887
717.230;  -74.780; -339.063; -392.887
717.494;  -28.428;  -40.062; -134.888
717.759;  -83.676; -784.062; -640.888
718.024;   -7.224;  269.938;  250.112
718.288;   76.353;  685.938;  395.111
718.553; -152.321; -803.062; -977.889
718.817; -134.819; -883.061; -899.889
719.082;  -37.517; -115.061; -125.890
719.346; -147.615;-1000.061; -947.890
719.611;  -51.813; -300.061; -255.891
719.875; -102.586; -568.060; -537.891
720.140;  -66.785; -453.060; -603.891
720.404;   26.167; -136.060; -249.892
720.668;  773.344; -475.060; -411.892
720.933;  308.096;  146.940;  137.108
721.197;  -96.552; -667.059; -600.893
721.461; -127.050; -851.059; -826.893
721.725;   -8.448;  -21.059; -250.894
721.990;  -61.347; -284.059; -204.894
722.254;  -38.495;  -26.059; -108.894
722.518;  -56.593; -286.058; -442.895
722.782;  -85.991; -743.058; -594.895
723.046;  110.211;  614.942;  570.105
723.310;   27.588;  374.942;  210.104
723.574; -103.661; -654.058; -614.896
723.838; -107.459; -576.057; -642.897
724.102;  -52.907; -226.057; -239.897
724.366; -130.855;-1032.057; -978.897
724.630;  -98.578; -749.057; -571.898
724.894;  -87.426; -722.057; -514.898
725.158;  -11.125;   38.944; -295.898
725.422;  -40.648; -394.056; -327.899
725.685;  -63.596; -441.056; -349.899
725.949;  -83.669; -566.056; -519.900
726.213;  -76.142; -732.056; -811.900
726.477;  142.585;-1020.055; -933.900
726.740;  143.662; -274.055; -104.901
727.004;  322.038; -384.055; -510.901
727.268; 3445.340; -442.055; -400.901
727.531; 1024.767; -961.055; -775.902
727.795;  -19.106; -713.054; -673.902
728.059;  -40.529; -552.054; -557.903
728.322;  -90.702; -841.054; -669.903
728.586;   26.624; -692.054; -701.903
728.849;  -82.999; -695.053; -756.904
729.112; -113.047; -812.053; -912.904
729.376; -124.870; -959.053; -905.904
729.639;  -66.993; -536.053; -536.905
729.903; -118.241; -733.053; -699.905
730.166;  -50.415; -437.052; -399.906
730.429;  -53.913; -317.052; -468.906
730.693;  -65.336; -355.052; -894.906
730.956;  182.141;  810.948;  651.093
731.219;  660.418; -310.052; -103.907
731.482;   91.895;-1003.051; -894.907
731.745;   86.147; -794.051; -935.908
732.009;   21.223;  -30.051;   50.092
732.272;  -85.375; -904.051; -771.909
732.535;  -54.998; -300.051; -310.909
732.798; -149.221;-1083.050;-1166.909
733.061;  -56.919; -430.050; -456.910
733.324;  -13.442;   31.950; -180.910
733.587;   66.034;  290.950;  365.090
733.850;  -79.614; -973.049;-1050.911
734.113;   25.313;   33.951;   32.089
734.376;   -0.910; -328.049; -447.912
734.639;  198.317; 1188.951; 1011.088
734.901;   62.669; -180.049; -402.912
735.164;  444.296; -883.048; -837.913
735.427; 1231.572; -166.048; -355.913
735.690;  117.349; -205.048; -234.913
735.952;  -21.674; -923.048; -925.914
736.215;  -15.822;-1113.048;-1009.914
736.478;   33.780; -771.047; -774.915
736.740;  204.107;   33.953;  129.085
737.003;  574.958; -658.047; -672.915
737.266; 3805.485;  -94.047;   46.084
737.528;  425.587; -682.047; -660.916
737.791;  316.614; -316.046; -327.916
738.053;  778.716;  465.954;  649.083
738.316;10609.318; -162.046; -136.917
738.578; 8136.394; -770.046; -736.918
738.841;  470.071; -382.046; -446.918
739.103;  180.948; -875.045; -777.918
739.365;  519.775;   79.955;  -69.919
739.628;   -2.648; -884.045; -805.919
739.890;  -29.071; -758.045; -710.919
740.152;  -31.994; -692.044; -754.920
740.414;   -9.543; -408.044; -359.920
740.677;  -50.041; -785.044; -634.921
740.939;  -55.764; -587.044; -487.921
741.201;  240.063; -432.044; -572.921
741.463;   32.815; -689.043; -745.922
741.725;    3.842;  -21.043; -199.922
741.987;   50.143;  220.957;  116.078
742.249;   -7.305; -751.043; -859.923
742.511;  185.372; -703.043; -794.923
742.773;   10.599; -546.042; -546.924
743.035;  122.101;  796.958;  533.076
743.297;  -46.547; -963.042;-1013.924
743.559;  711.655; -278.042; -262.925
743.821;   54.206; -735.042; -744.925
744.083;    4.733;  -44.041; -149.925
744.345;  -89.890; -869.041; -892.926
744.607;   36.712;   75.959;  122.074
744.868;  -49.536; -490.041; -554.927
745.130; -107.259; -994.041;-1008.927
745.392;   48.767;   -1.040;  -44.927
745.653;  -17.606; -411.040; -378.928
745.915;  148.921;  896.960;  631.072
746.177;   48.523;   35.960;  -43.928
746.438;    4.775; -428.040; -543.929
746.700;  -48.498; -947.039; -988.929
746.961;    3.653; -659.039; -740.930
747.223;  130.880; -190.039;  -74.930
747.484;   65.307; -391.039; -471.930
747.746;  151.359;  -23.038; -106.931
748.007;  109.636; -647.038; -689.931
748.269;  277.813; -468.038; -440.931
748.530;  454.015; -852.038; -638.932
748.791;  255.791; -354.038; -420.932
749.053;  438.943;  286.963;  163.067
749.314;  441.245; -236.037; -169.933
749.575;  495.522; -945.037; -905.933
749.836;  809.374; -217.037;   86.066
750.098; 2199.376;  -60.037;  -21.934
750.359;34806.852;  414.964;  555.066
750.620; 9710.704; -121.036; -220.935
750.881; 1007.481; -585.036; -513.935
751.142; 1298.733; -950.036; -938.936
751.403;16103.135; -789.036; -705.936
751.664; 7878.662;-1034.035; -999.936
751.925;  495.763; -175.035; -262.937
752.186;  275.565; -298.035; -278.937
752.447;  133.292; -590.035; -445.937
752.708;   44.369; -532.035; -648.938
752.969;    0.821; -566.034; -576.938
753.230;   -9.352; -777.034; -672.939
753.491;   -6.925; -650.034; -631.939
753.751;   62.751;  109.966;   19.061
754.012;   91.128;  258.967;  181.060
754.273;   37.505; -174.033;  -71.940
754.534;   -8.068; -487.033; -580.940
754.794;  -93.266; -926.033; -911.941
755.055;  125.361; 1051.967;  881.059
755.316;  -42.363; -700.032; -566.942
755.576;  -24.336; -606.032; -576.942
755.837;  -38.809; -527.032; -695.942
756.097;  -37.482; -530.032; -564.943
756.358;  -69.655; -725.032; -770.943
756.618;  -61.603; -705.031; -641.943
756.879;   -2.901; -254.031; -349.944
757.139; -124.925;-1098.031;-1116.944
757.400;  -59.798; -538.031; -553.945
757.660;   -4.221; -365.031; -401.945
757.920;   11.456; -266.030; -228.945
758.181;  -15.917; -468.030; -351.946
758.441;  -93.615; -870.030; -809.946
758.701;  -46.339; -308.030; -215.946
758.961;  -20.662; -220.030; -278.947
759.222;  -46.285; -574.029; -502.947
759.482;  -82.533; -683.029; -723.948
759.742;  -87.256; -706.029; -547.948
760.002;   -1.329;  -83.029; -143.948
760.262;   15.997;   50.972;  182.051
760.522;  -43.501; -498.028; -574.949
760.782;  -34.774; -738.028; -612.949
761.042;  -36.947; -618.028; -573.950
761.302;   47.955;   55.972;  -18.950
761.562;   64.882; -164.027; -154.951
761.822;   62.059; -710.027; -551.951
762.082;  -45.565;-1104.027;-1093.951
762.342;   58.887; -328.027; -403.952
762.601;   80.889; -567.027; -506.952
762.861;  345.266; -281.026; -207.952
763.121;  388.368; -406.026; -411.953
763.381; 7061.570; -499.026; -485.953
763.640; 8670.396; -139.026; -307.954
763.900;  381.423; -242.026; -203.954
764.160;   88.825; -458.025; -491.954
764.419;  -11.398; -726.025; -782.955
764.679;  -66.971; -795.025; -726.955
764.939;  -10.419; -124.025; -210.955
765.198;  -75.818; -608.025; -563.956
765.458;  -82.091; -710.024; -612.956
765.717;  -92.414; -454.024; -590.957
765.976;  -58.012; -428.024; -411.957
766.236;  -70.010; -475.024; -610.957
766.495;   16.217;  260.977;   73.042
766.755;  -85.206;-1090.023; -987.958
767.014;  -11.580; -594.023; -665.958
767.273;  -49.503; -373.023; -397.959
767.533;  -37.926; -228.023; -307.959
767.792;  -30.374; -151.022; -188.960
768.051;  -61.472; -228.022; -276.960
768.310;  -89.670; -546.022; -650.960
768.569;   -9.894; -161.022;    4.039
768.828;  -23.267; -285.022; -363.961
769.088; -119.640;-1050.021; -942.961
769.347;  -88.263; -755.021; -599.962
769.606;  -87.261; -876.021; -857.962
769.865; -130.334;-1016.021;-1033.963
770.124;    7.193; -411.021; -336.963
770.383;  -52.481; -778.020; -910.963
770.641;  -12.704; -398.020; -400.964
770.900;  -51.552; -953.020; -846.964
771.159;  -43.425; -851.020; -951.964
771.418;   -7.773; -917.020; -779.965
771.677;  124.804; -224.019; -293.965
771.936;  148.155; -794.019; -865.966
772.194; 2091.182; -465.019; -437.966
772.453;11855.984; -213.019; -391.966
772.712;  851.736;  416.982;  329.033
772.970;  125.163;   32.982;   63.033
773.229;   91.990;  -22.018;  102.033
773.488;  -81.759; -814.018; -770.968
773.746;   46.693;  296.982;  335.032
774.005;    2.995;  190.983;  -22.969
774.263;   14.847;  243.983;  177.031
774.522;  -40.801; -422.017; -548.969
774.780;  -78.249; -484.017; -417.970
775.039;  -93.272; -551.017; -531.970
775.297;  -33.971; -135.016; -351.970
775.555; -110.944; -489.016; -612.971
775.814; -113.767; -618.016; -570.971
776.072; -122.565; -749.016; -740.971
776.330;  -92.288; -630.016; -520.972
776.589; -117.136; -703.015; -721.972
776.847; -132.160; -645.015; -624.973
777.105; -164.408;-1016.015;-1032.973
777.363;  -89.656; -459.015; -454.973
777.621; -135.204; -660.015; -717.974
777.879;  -23.752;  -42.014;   32.026
778.138;  -78.800; -554.014; -717.974
778.396; -108.573; -585.014; -526.975
778.654; -174.697;-1015.014; -970.975
778.912;  -64.095; -269.014; -371.976
779.170; -132.168; -880.013; -803.976
779.427; -150.666; -922.013; -897.976
779.685; -144.414; -880.013; -832.977
779.943;  -86.187; -654.013; -593.977
780.201; -156.361; -964.012; -883.978
780.459; -120.034; -651.012; -610.978
780.717;  -76.232; -440.012; -390.978
780.974; -108.305; -449.012; -490.979
781.232;  -80.103; -358.012; -338.979
781.490;  -69.026; -551.011; -472.979
781.747;  -93.750; -555.011; -476.980
782.005;    7.827;  462.989;  254.020
782.263; -171.321; -542.011;-1004.981
782.520;  -84.819; -326.011; -501.981
782.778; -163.617;-1013.010;-1051.981
783.035; -172.040; -962.010; -938.982
783.293;  -62.138; -248.010; -206.982
783.550;  -68.612; -134.010; -198.982
783.808; -136.535; -764.010; -776.983
784.065; -167.783; -745.009; -874.983
784.322;  -38.381;   25.991;  -86.984
784.580; -144.304; -915.009; -771.984
784.837;  -96.277; -392.009; -466.984
785.094; -125.576; -783.009; -762.985
785.352;  -75.249; -304.008; -404.985
785.609; -119.722; -934.008; -839.985
785.866;  -87.370; -345.008; -401.986
786.123;  -71.718; -639.008; -583.986
786.380; -114.416; -665.008; -604.987
786.637;  -43.040; -225.007; -380.987
786.895;  -20.088; -456.007; -543.987
787.152;  -49.236; -135.007; -267.988
787.409;  -43.659; -123.007; -225.988
787.666;  -92.207; -299.006; -378.988
787.923; -118.205; -616.006; -695.989
788.179;  -98.103; -551.006; -584.989
788.436; -108.852; -585.006; -585.990
788.693;  -52.350;  -92.006;  -87.990
788.950;   98.427; -125.005; -112.990
789.207;  205.829; -381.005; -372.991
789.464;  -56.294; -161.005; -301.991
789.720;  -34.367;  150.995;  110.009
789.977; -150.966;-1003.005; -671.992
790.234;  -45.039;   44.996;  -66.992
790.490; -151.087; -884.004;-1031.993
790.747;  -35.010;  -85.004;   22.007
791.004;  -40.133; -426.004; -348.993
791.260;  -96.356; -430.004; -560.994
791.517; -114.129; -843.003; -788.994
791.773;  -53.928; -379.003; -342.994
792.030; -104.126; -596.003; -660.995
792.286; -114.374; -686.003; -636.995
792.543;  -19.347;  -74.002; -159.995
792.799;  -59.320; -584.002; -382.996
793.055; -155.693;-1179.002;-1210.996
793.312; -100.017; -827.002; -816.997
793.568;  -58.790; -746.002; -599.997
793.824;   14.712; -226.001; -284.997
794.081;   16.689; -447.001; -508.998
794.337;   53.416; -664.001; -561.998
794.593; 1148.218; -319.001; -271.999
794.849; 6709.044; -746.001; -772.999
795.105;  397.296; -270.000; -261.999
795.361;   22.773; -490.000; -457.000
795.617;  -60.900; -875.000; -945.000
795.873;  -51.425; -360.000; -407.000
796.129;  -48.875; -368.000; -306.000
796.385;  -19.525; -124.000; -156.000
796.641;   60.600;  412.000;  550.000
796.897;  -91.050; -666.000; -635.000
797.153;   70.925;  453.000;  357.000
797.409;  -93.375; -785.000; -868.000
797.665;  -82.725; -625.000; -732.000
797.921;  -75.775; -775.000; -762.000
798.176;  -53.725; -744.000; -747.000
798.432;  -52.175; -824.000; -596.000
798.688;  -72.775;-1174.000;-1078.000
798.943;   80.900; -165.000; -147.000
799.199;    3.625;-1005.000; -959.000
799.455;  239.725;  369.000;  316.000
799.710;  134.500; -813.000; -380.000
799.966;  325.425; -162.000; -160.000
800.221;  477.350; -638.000; -721.000
800.477; 9945.425; -743.000; -710.000
800.732;10229.025; -773.000; -800.000
800.988;  674.975;  205.000;  -19.000
801.243; 1789.750; -454.000; -344.000
801.498; 8837.300; -814.000; -739.000
801.754;  543.550; -289.000; -163.000
802.009;   95.900; -257.000; -335.000
802.264;  -32.175; -967.000;-1033.000
802.520;   33.450;  222.000;   -3.000
802.775;  -51.650; -524.000; -359.000
803.030;   37.300;  395.000;  356.000
803.285; -111.525; -840.000; -903.000
803.540;  -64.475; -686.000; -699.000
803.795;  -29.450; -648.000; -583.000
804.051;  -43.125; -279.000; -346.000
804.306;   14.450;  168.000;  128.000
804.561;  129.200;  451.000;  362.000
804.816;  124.900;  714.000;  861.000
805.071;   -6.525; -185.000; -280.000
805.325;  183.750; -257.000; -427.000
805.580; -108.525; -841.000; -877.000
805.835;  -20.475; -204.000; -297.000
806.090;  -67.050; -760.000; -676.000
806.345;  -24.350; -344.000; -264.000
806.600;  -30.650; -549.000; -632.000
806.854;  -29.575; -408.000; -538.000
807.109;  -10.900; -493.000; -577.000
807.364;   21.375; -407.000; -328.000
807.618;  -12.475; -415.000; -381.000
807.873;   51.925; -470.000; -494.000
808.128;   88.625; -257.000; -518.000
808.382;  102.750; -224.000; -332.000
808.637;   67.050; -440.000; -511.000
808.891;  187.025; -257.000; -180.000
809.146;   91.350; -902.000; -794.000
809.400;  232.400; -848.000; -923.000
809.654;  334.275; -779.000; -551.000
809.909;  462.625; -841.000; -927.000
810.163; 5720.675; -813.000; -651.000
810.418;17072.225; -940.000; -861.000
810.672; 1106.400; -685.000; -690.000
810.926;  732.650; -993.000; -973.000
811.180; 1420.000; -439.000; -372.000
811.434;31709.550;  240.000;  135.000
811.689;14932.775; -231.000; -365.000
811.943;  699.925; -936.000; -953.000
812.197;  367.850; -893.000; -671.000
812.451;  153.575; -379.000; -514.000
812.705;  -13.925; -809.000; -619.000
812.959;   13.625; -263.000; -388.000
813.213;   -3.925; -283.000; -209.000
813.467;   82.625;  470.000;  253.000
813.721;  -90.825; -764.000; -792.000
813.975; -100.075; -826.000; -877.000
814.229;   45.050;  430.000;  353.000
814.482;  -72.900; -517.000; -566.000
814.736; -127.575; -766.000; -744.000
814.990; -122.350; -779.000; -872.000
815.244;  -54.825; -228.000; -285.000
815.497; -100.525; -636.000; -601.000
815.751;  -36.350; -141.000;   82.000
816.005;  -74.700; -470.000; -586.000
816.258;  -73.350; -510.000; -363.000
816.512; -101.275; -693.000; -610.000
816.766;    0.050;  121.000;  157.000
817.019;    4.800;  148.000;  149.000
817.273; -119.850;-1000.000; -802.000
817.526;  -25.875; -206.000; -173.000
817.779;  -54.325;-1049.000; -960.000
818.033;  -60.050; -693.000; -807.000
818.286; -110.825; -725.000; -792.000
818.540;  -86.925; -403.000; -403.000
818.793;  -88.225; -402.000; -489.000
819.046;  -92.550; -582.000; -520.000
819.299;  -30.475; -157.000; -166.000
819.553; -113.500; -552.000; -592.000
819.806; -157.650;-1016.000; -838.000
820.059;  -66.875; -334.000; -354.000
820.312;   12.625;  152.000;  185.000
820.565;  -31.200;  110.000;  -27.000
820.818;  -59.000;  -59.000; -173.000
821.071; -154.300;-1041.000; -957.000
821.324; -104.775; -536.000; -540.000
821.577;  -93.225; -457.000; -483.000
821.830;  -69.650; -270.000; -172.000
822.083; -119.825; -733.000; -288.000
822.336;  -50.875; -261.000; -167.000
822.589; -136.950; -805.000; -688.000
822.842; -147.300; -875.000; -770.000
823.094; -175.925;-1076.000;-1114.000
823.347; -142.000; -925.000; -729.000
823.600;    1.050;  402.000;  187.000
823.853;  -54.275; -311.000; -267.000
824.105;  -79.000; -331.000; -575.000
824.358; -124.100; -617.000; -716.000
824.611;   19.525;  234.000;   40.000
824.863;  -45.825; -612.000; -591.000
825.116;   49.575;  -33.000;   27.000
825.368;   57.825; -366.000; -372.000
825.621;  159.850; -186.000; -240.000
825.873;   84.800; -704.000; -737.000
826.126;  540.200; -669.000; -641.000
826.378;11275.300; -389.000; -505.000
826.630; 3320.575; -890.000; -898.000
826.883;   55.900; -754.000; -693.000
827.135;   36.275; -279.000; -270.000
827.387; -119.775; -893.000; -839.000
827.639;  -29.650;  -86.000;   32.000
827.892; -130.075; -742.000; -582.000
828.144; -158.400; -848.000; -804.000
828.396;  -22.250;  104.000;  -80.000
828.648; -100.550; -440.000; -333.000
828.900; -153.725; -702.000; -795.000
829.152; -120.650; -684.000; -683.000
829.404;  -58.375; -215.000; -267.000
829.656;   -4.900;  321.000;  214.000
829.908;  -28.725;  393.000;  229.000
830.160; -179.350;-1064.000;-1047.000
830.412;  -98.250; -481.000; -430.000
830.664; -121.175; -557.000; -665.000
830.916;  -84.725; -268.000; -206.000
831.167; -181.025;-1073.000; -951.000
831.419; -125.100; -623.000; -566.000
831.671; -145.225; -764.000; -809.000
831.923;  -89.875; -311.000; -447.000
832.174;  -79.075; -273.000; -331.000
832.426; -123.575; -493.000; -582.000
832.678; -179.025;-1043.000;-1091.000
832.929; -166.875; -947.000; -935.000
833.181;  -66.100; -575.000; -677.000
833.432;  -59.175;  -59.000; -186.000
833.684;  -32.475;  112.000;  -27.000
833.935; -110.375; -610.000; -566.000
834.187; -128.075; -829.000; -823.000
834.438;  -59.200;  -58.000;  -25.000
834.689;  -55.700; -255.000; -123.000
834.941;  -62.950; -343.000; -244.000
835.192;  -97.325; -590.000; -533.000
835.443; -107.250; -419.000; -506.000
835.695;  -17.025;  138.000;  -16.000
835.946;  -99.375; -608.000; -378.000
836.197; -102.650; -599.000; -622.000
836.448;  -94.400; -528.000; -395.000
836.699;  -59.525; -253.000; -341.000
836.950;  -25.900;   72.000;    7.000
837.201; -163.600;-1003.000; -987.000
837.452;  -55.925; -356.000; -170.000
837.703; -110.675; -791.000; -737.000
837.954;  -46.925; -205.000; -365.000
838.205;  -69.700;-1029.000;-1008.000
838.456;  131.925; -196.000; -282.000
838.707;    9.275; -423.000; -519.000
838.958;    3.525; -634.000; -647.000
839.209;  259.850;   18.000;   40.000
839.460;  102.550; -439.000; -201.000
839.710;  169.750; -135.000; -297.000
839.961;  388.150;  730.000;  612.000
840.212;  313.875; -382.000; -497.000
840.462; 1071.150; -328.000; -277.000
840.713;17217.025; -571.000; -536.000
840.964; 8145.475;  -62.000; -143.000
841.214;  499.675; -384.000; -624.000
841.465;  535.375; -214.000; -141.000
841.715;  484.300; -417.000; -380.000
841.966;  596.500; -746.000; -685.000
842.216; 7481.300; -330.000; -431.000
842.466;33381.875; -169.000; -313.000
842.717; 2227.200; -964.000; -952.000
842.967;  295.625; -635.000; -641.000
843.217;  270.025;   20.000;   28.000
843.468;   71.300; -104.000; -132.000
843.718;  -48.075; -718.000; -726.000
843.968; -101.775; -837.000; -765.000
844.218;   -2.400; -315.000; -262.000
844.469;  -49.600; -577.000; -561.000
844.719;  -93.325; -537.000; -682.000
844.969; -108.750; -550.000; -580.000
845.219; -144.825; -814.000; -862.000
845.469;  -70.725; -392.000; -342.000
845.719; -137.275; -792.000; -884.000
845.969;  -23.125;  119.000;  174.000
846.219; -129.075; -738.000; -720.000
846.469;   13.575;  464.000;  432.000
846.718;  -44.925; -115.000;   31.000
846.968; -138.725; -827.000; -827.000
847.218;  -69.975; -224.000; -371.000
847.468;    1.000; -586.000; -555.000
847.718; -156.175; -827.000; -798.000
847.967; -135.150; -826.000; -915.000
848.217;  -91.100; -449.000; -569.000
848.467;  -68.450; -405.000; -376.000
848.716; -117.250; -708.000; -725.000
848.966;  -16.975; -372.000; -358.000
849.215;  -75.700; -428.000; -419.000
849.465;  -91.575; -785.000; -615.000
849.714; -127.800;-1132.000;-1150.000
849.964;  -69.700; -551.000; -613.000
850.213;  -18.250; -393.000; -355.000
850.463;   69.625;  137.000;  340.000
850.712;   13.025; -542.000; -567.000
850.961;   12.225; -739.000; -678.000
851.211;  103.625; -513.000; -504.000
851.460;  159.425; -635.000; -650.000
851.709;  551.350;  -25.000;   18.000
851.958; 9627.525; -912.000; -750.000
852.208;13922.300; -859.000; -879.000
852.457;  531.125; -181.000;  -13.000
852.706;   86.400; -791.000; -823.000
852.955;   19.750; -507.000; -528.000
853.204;  -73.250; -521.000; -461.000
853.453;  -93.350; -418.000; -458.000
853.702; -128.100; -660.000; -750.000
853.951; -123.400; -532.000; -520.000
854.200; -107.650; -613.000; -562.000
854.449; -140.300; -695.000; -661.000
854.698;  -90.750; -340.000; -279.000
854.946;  -86.100; -181.000; -284.000
855.195; -146.175; -843.000; -868.000
855.444; -104.175; -395.000; -420.000
855.693; -120.675; -345.000; -432.000
855.941; -108.050; -387.000; -516.000
856.190;  -71.525; -256.000; -382.000
856.439; -124.050; -652.000; -703.000
856.687;  -63.950;  -99.000;  -72.000
856.936; -117.675; -621.000; -323.000
857.184; -172.025;-1067.000;-1020.000
857.433; -106.125; -423.000; -512.000
857.681; -168.625; -989.000; -953.000
857.930;  -87.500; -282.000; -433.000
858.178; -178.025; -856.000; -929.000
858.427; -162.525; -802.000; -781.000
858.675; -120.625; -377.000; -544.000
858.923; -120.275; -527.000; -819.000
859.172; -179.900;-1094.000;-1070.000
859.420;  -86.625; -339.000; -239.000
859.668; -135.150; -624.000; -628.000
859.916;  -37.225;  109.000;  115.000
860.164; -116.250; -699.000; -603.000
860.413;  211.775; -878.000; -696.000
860.661;  220.825; -709.000; -577.000
860.909;  -83.900; -339.000; -325.000
861.157;  -85.975; -277.000; -444.000
861.405; -140.550; -534.000; -670.000
861.653;  -13.100;  310.000;  310.000
861.901;  123.450; -543.000; -613.000
862.149;   -3.900; -801.000; -824.000
862.396;  -87.625; -297.000; -187.000
862.644;  -91.875; -368.000; -347.000
862.892;  -48.150;   98.000;  138.000
863.140; -122.250; -549.000; -530.000
863.388; -159.950; -815.000; -759.000
863.635; -117.550; -642.000; -601.000
863.883;  -18.275;  231.000;  190.000
864.131;  -94.875; -288.000; -357.000
864.378; -124.775; -675.000; -540.000
864.626; -108.675; -347.000; -415.000
864.873; -116.025; -556.000; -505.000
865.121; -135.125; -714.000; -799.000
865.368;  -53.950; -173.000;   75.000
865.616;  -44.475;  -33.000;  -40.000
865.863;  -57.350; -462.000; -506.000
866.111;  -93.850; -795.000; -824.000
866.358;   35.175; -426.000; -420.000
866.605; 2313.450;  -64.000; -804.000
866.853; 2798.400; -621.000; -537.000
867.100;  -27.250; -728.000; -775.000
867.347; -106.500; -672.000; -611.000
867.594; -104.450; -740.000; -714.000
867.841;   79.700;   97.000;   17.000
868.089; -149.075; -746.000; -698.000
868.336; -105.475; -477.000; -420.000
868.583; -147.775; -637.000; -741.000
868.830;  -58.350; -131.000; -170.000
869.077; -156.950; -859.000; -787.000
869.324; -128.850; -502.000; -458.000
869.571; -135.375; -398.000; -430.000
869.818; -125.400; -485.000; -439.000
870.065; -113.400; -439.000; -513.000
870.311; -118.025; -456.000; -542.000
870.558; -101.300; -332.000; -311.000
870.805;  -92.000; -320.000; -384.000
871.052; -117.950; -494.000; -369.000
871.298;  -72.000; -204.000; -131.000
871.545;  -70.600; -151.000; -185.000
871.792;  -99.325; -173.000; -222.000
872.038;  -67.250;   43.000; -126.000
872.285; -127.025; -496.000; -387.000
872.532; -117.325; -357.000; -387.000
872.778;   -0.025;  556.000;  403.000
873.025;  -97.600; -384.000; -359.000
873.271;    6.175;  501.000;  578.000
873.517;  -41.425; -133.000; -209.000
873.764;  -36.900; -193.000;  -80.000
874.010;  -71.375; -143.000; -230.000
874.257;  -58.450;  123.000;   90.000
874.503; -132.475; -579.000; -479.000
874.749;  -73.550;   31.000;  275.000
874.995;  -70.425;  -80.000;  -20.000
875.242; -126.925; -540.000; -478.000
875.488; -117.550; -414.000; -439.000
875.734;  -71.775; -106.000; -234.000
875.980;  117.900; -872.000;-1032.000
876.226;  334.075; -157.000; -255.000
876.472;  -10.175;  343.000;  237.000
876.718;  -46.175;  184.000;  158.000
876.964;  -51.900;   56.000;   55.000
877.210; -140.850; -547.000; -677.000
877.456; -138.350; -630.000; -557.000
877.702; -180.500; -821.000; -832.000
877.948; -113.750; -377.000; -497.000
878.193;  -28.600;  361.000;  255.000
878.439;  -91.925; -487.000; -472.000
878.685; -105.525; -272.000; -343.000
878.931; -133.750; -618.000; -676.000
879.176;  -96.775; -201.000; -201.000
879.422; -177.600; -933.000; -820.000
879.668;   29.300;   10.000;   79.000
879.913;  140.375;   53.000;  137.000
880.159;  -67.950; -112.000;  -17.000
880.404;  -73.175; -152.000; -162.000
880.650;  -48.775;   91.000;  141.000
880.895; -162.800; -670.000; -710.000
881.141; -128.975; -454.000; -428.000
881.386; -147.075; -503.000; -658.000
881.631;  -88.850; -311.000; -166.000
881.877;  -41.450;  112.000;  -13.000
882.122; -138.150; -684.000; -600.000
882.367;  -94.875; -136.000; -186.000
882.612;  -78.750;  -80.000; -176.000
882.858; -179.025; -877.000; -823.000
883.103; -104.375; -297.000; -267.000
883.348; -160.600; -759.000; -852.000
883.593; -147.025; -677.000; -602.000
883.838;  -53.425; -311.000;  -24.000
884.083;    3.050;  353.000;  288.000
884.328; -102.800; -564.000; -545.000
884.573;  -54.575; -196.000; -143.000
884.818;  142.925; -694.000; -531.000
885.063;  179.875; -348.000; -315.000
885.308; -101.050; -475.000; -398.000
885.553;  -24.975;  245.000;  325.000
885.797; -130.625; -545.000; -615.000
886.042;  -56.625;    8.000;   58.000
886.287;  -78.850; -253.000; -211.000
886.532;  -60.825;   26.000;  204.000
886.776; -106.050; -407.000; -525.000
887.021; -132.175; -621.000; -574.000
887.265; -156.425; -685.000; -689.000
887.510; -123.400; -557.000; -496.000
887.755;  -98.925; -194.000; -164.000
887.999; -143.775; -552.000; -575.000
888.244;  -68.775;  -58.000;  161.000
888.488;  -24.625;  371.000;  393.000
888.732; -124.900; -368.000; -520.000
888.977; -123.025; -622.000; -567.000
889.221; -155.050; -683.000; -659.000
889.465; -125.625; -422.000; -566.000
889.710;  -90.775;  -56.000; -299.000
889.954;   -2.625;  579.000;  467.000
890.198; -152.875; -584.000; -707.000
890.442; -160.150; -716.000; -712.000
890.687; -171.925; -800.000; -753.000
890.931;  -88.675; -273.000; -210.000
891.175; -133.200; -502.000; -500.000
891.419;  -84.100; -105.000; -110.000
891.663;  -99.975; -239.000; -112.000
891.907; -171.675; -801.000; -545.000
892.151; -185.525; -920.000; -815.000
892.395; -126.750; -274.000; -387.000
892.638;  -23.550;  408.000;  291.000
892.882; -184.875; -780.000; -867.000
893.126;   26.300;  758.000;  558.000
893.370; -100.325; -167.000; -168.000
893.614; -152.875; -714.000; -715.000
893.857; -102.075; -183.000; -197.000
894.101; -143.875; -527.000; -631.000
894.345;  -63.925;  300.000;  150.000
894.588;   14.625;  569.000;  380.000
894.832;  -89.300; -178.000;  -84.000
895.075;  -92.600;   15.000;  -92.000
895.319; -136.750; -552.000; -420.000
895.563; -116.050; -413.000; -353.000
895.806; -153.400; -628.000; -741.000
896.049;  -82.850; -576.000; -368.000
896.293;   81.075;  527.000;  405.000
896.536;  -87.800; -465.000; -468.000
896.779;  -75.950; -149.000;   -1.000
897.023; -134.400; -751.000; -714.000
897.266;  -42.300;  325.000;  269.000
897.509; -185.325; -900.000; -901.000
897.752;  -43.650;  149.000;  171.000
897.996; -196.125; -972.000; -864.000
898.239;  -40.075;  168.000;  102.000
898.482; -119.550; -431.000; -453.000
898.725;  -47.550;  101.000;   53.000
898.968; -149.600; -609.000; -744.000
899.211; -126.600; -513.000; -361.000
899.454; -127.850; -633.000; -539.000
899.697;  -76.775;   90.000;  -43.000
899.940; -163.350; -761.000; -757.000
900.182; -116.550; -335.000; -405.000
900.425; -105.075; -150.000; -298.000
900.668;  -33.400;  491.000;  350.000
900.911; -104.700; -292.000; -345.000
901.154;  -69.575;  141.000;   -3.000
901.396; -135.600; -407.000; -412.000
901.639; -144.850; -430.000; -496.000
901.882; -177.750; -790.000; -809.000
902.124;  -89.075;  -29.000; -143.000
902.367; -125.175; -315.000; -361.000
902.609; -143.925; -476.000; -453.000
902.852;  -89.525; -108.000; -260.000
903.094; -126.725; -458.000; -337.000
903.337;  -79.425;  -26.000;   53.000
903.579; -112.175; -228.000; -441.000
903.821; -155.550; -597.000; -744.000
904.064;  -70.550;   85.000;  127.000
904.306;  -92.375; -126.000; -166.000
904.548;  -93.975; -152.000; -366.000
904.790; -104.900; -195.000; -340.000
905.033; -134.400; -625.000; -577.000
905.275; -135.200; -513.000; -524.000
905.517;   39.075;  468.000;  256.000
905.759;  -69.150; -667.000; -761.000
906.001; -112.225; -322.000; -369.000
906.243;  -70.000; -162.000; -224.000
906.485;   90.075; -265.000; -207.000
906.727;   92.850; -499.000; -542.000
906.969;  -56.825;  -30.000; -135.000
907.211;   79.175; -316.000; -382.000
907.453;  246.450; -188.000; -237.000
907.695;   -1.825; -158.000; -385.000
907.936;   26.000;  818.000;  706.000
908.178;  -60.250;   92.000; -135.000
908.420;  -77.675; -111.000; -162.000
908.662; -125.600; -633.000; -682.000
908.903;  -81.775; -208.000; -123.000
909.145;  -61.425; -240.000; -305.000
909.386;   -9.400;  315.000;  280.000
909.628;   14.000;  363.000;  397.000
909.870;   -6.550;   29.000;  264.000
910.111;  -88.300; -809.000; -949.000
910.353;   20.750; -123.000; -161.000
910.594;   -0.775; -574.000; -606.000
910.835;   86.300; -265.000; -326.000
911.077;  147.600; -503.000; -604.000
911.318;  287.400; -505.000; -471.000
911.559;  459.225; -577.000; -880.000
911.801; 1307.400; -284.000; -280.000
912.042; 9714.025;  -50.000; -159.000
912.283;28055.700;  404.000;  371.000
912.524; 5002.800; -396.000; -457.000
912.765;  532.275; -193.000;   79.000
913.006;  248.200; -307.000; -338.000
913.247;   47.850; -270.000; -290.000
913.488;    4.750;  -43.000;   30.000
913.729;  -85.025; -373.000; -373.000
913.970;  -68.300;  -96.000; -292.000
914.211;  -78.500; -160.000; -198.000
914.452;  -62.450; -118.000;  -11.000
914.693;    1.925;  510.000;  592.000
914.934;    8.075;  510.000;  440.000
915.175;  -76.450;   53.000;  -95.000
915.415;  -84.500; -137.000;   27.000
915.656;  -63.475;  -28.000;  192.000
915.897;  -96.825; -252.000;  -82.000
916.137;  -75.825;   74.000;   -9.000
916.378; -144.000; -573.000; -517.000
916.619;  -90.900; -159.000;  -63.000
916.859;  -33.775;  303.000;  330.000
917.100;  117.625; 1655.000; 1070.000
917.340;   33.675;  930.000;  728.000
917.581;   26.600;  965.000;  789.000
917.821;  -43.000; -171.000;  143.000
918.061;   -7.275; -199.000;  -72.000
918.302;  -51.750; -152.000; -211.000
918.542;  -32.375;  -22.000;    3.000
918.782;   32.225;  369.000;  377.000
919.023;  111.950;  360.000;  427.000
919.263; 1645.450; 8131.000;  202.000
919.503; 1118.125; -137.000;  -54.000
919.743;  581.275;  390.000;  266.000
919.983;  256.950; -134.000;  -26.000
920.223;   71.525;  135.000;   14.000
920.463;  142.775;  631.000;  554.000
920.703;  148.225;   84.000;   39.000
920.943;  173.875; -110.000;   90.000
921.183;  236.725; -414.000; -405.000
921.423;  514.350;  307.000;  546.000
921.663;  777.375; -174.000; -257.000
921.903; 1596.650;  237.000;  173.000
922.143; 8541.500;  372.000;  389.000
922.383;34695.350;  158.000;  115.000
922.622;13557.175; -120.000;  -15.000
922.862; 1376.750;  796.000;  785.000
923.102;  505.375;  -51.000;   33.000
923.341;  210.025;   59.000;   74.000
923.581;  102.500;  450.000;  360.000
923.821;   27.500;  301.000;  398.000
924.060;    9.500;  351.000;  193.000
924.300;  -49.825;  -16.000; -128.000
924.539;  -13.925;  584.000;  473.000
924.779;   30.475;  812.000;  597.000
925.018;  -47.625;  247.000;  353.000
925.257;  -21.175;  595.000;  666.000
925.497;  -46.550;  447.000;  412.000
925.736;  -79.425;  -35.000;  102.000
925.975;   -6.875;  687.000;  669.000
926.214;   15.975;  907.000;  850.000
926.454;   27.800;  706.000;  757.000
926.693;  -40.500;  419.000;  543.000
926.932;   28.100; 1021.000;  825.000
927.171;   69.600; 1107.000; 1044.000
927.410;   53.300; 1144.000;  967.000
927.649;   18.600;  924.000;  742.000
927.888;  -10.975;  590.000;  564.000
928.127;  -17.075;  680.000;  678.000
928.366;   17.875;  842.000;  826.000
928.605;   28.925;  831.000;  737.000
928.844;  223.200; 1451.000; 1393.000
929.083;  578.550;  770.000;  613.000
929.321;  350.175; 1335.000; 1359.000
929.560;   93.250; 1158.000; 1122.000
929.799;  -25.275;  574.000;  475.000
930.038;   74.300; 1025.000; 1394.000
930.276;  -53.200;  334.000;  397.000
930.515;    1.025;  827.000;  681.000
930.753;  -14.175;  614.000;  589.000
930.992;  -36.925;  664.000;  717.000
931.230;   -0.100;  847.000;  847.000
931.469;  162.050; 2162.000;  892.000
931.707;   67.325;  840.000;  751.000
931.946;   57.750; 1278.000; 1344.000
932.184;   43.825; 1437.000; 1175.000
932.423;   38.775; 1265.000;  963.000
932.661;   85.150; 1296.000; 1428.000
932.899;   28.775;  987.000;  821.000
933.137;    1.825;  754.000;  564.000
933.376;  121.350; 1664.000; 1335.000
933.614;  150.275; 1759.000; 1196.000
933.852;   45.425; 1357.000; 1171.000
934.090;  121.825; 1722.000; 1747.000
934.328;  114.450; 1252.000; 1457.000
934.566;  102.550; 1431.000; 1110.000
934.804;  139.675; 1263.000; 1309.000
935.042;  472.375; 1861.000; 1850.000
935.280; 1937.700; 2088.000; 2063.000
935.518; 2064.650; 2113.000; 2007.000
935.756;  414.175; 2481.000; 2316.000
935.994;  164.375; 1808.000; 1751.000
936.231;  330.550; 2890.000; 2950.000
936.469;  206.525; 2367.000; 2378.000
936.707;  158.000; 2220.000; 2167.000
936.945;  223.900; 2825.000; 2882.000
937.182;  203.925; 2679.000; 2741.000
937.420;  284.975; 3602.000; 3031.000
937.657;  385.825; 3365.000; 3478.000
937.895;  352.900; 3331.000; 3488.000
938.133;  302.075; 3540.000; 3528.000
938.370;  345.250; 3896.000; 4191.000
938.607;  385.175; 4488.000; 4205.000
938.845;  536.450; 5587.000; 5549.000
939.082;  474.225; 5387.000; 5177.000
939.320;  553.075; 5799.000; 5728.000
939.557;  647.100; 6549.000; 6491.000
939.794;  726.225; 7285.000; 7097.000
940.031;  881.175; 8421.000; 8368.000
940.269; 1096.325; 9552.000; 9107.000
940.506; 1126.475;10901.000;10507.000

