
Integration time [ms]: 200.000
Averaging Nr. [scans]: 10
Smoothing Nr. [pixels]: 0
Data measured with spectrometer [name]: 2101013U2
Wave   ;Sample   ;Dark     ;Reference
[nm]   ;[counts] ;[counts] ;[counts] 

394.013;  -85.119; -450.257; -315.536
394.305; -155.420; -461.258; -419.536
394.596; -156.830; -676.269; -527.514
394.887; -226.028; -796.268; -654.518
395.178;   42.975;  145.736;   11.476
395.470;  -93.524; -210.263; -356.526
395.761;   99.174;  305.734;  394.479
396.052; -128.842; -545.284; -306.489
396.343; -171.235; -557.276; -454.503
396.634;  -87.738; -200.279; -290.497
396.926; -145.728; -618.268; -565.517
397.217;  -40.134;   11.725;  -17.504
397.508;  -61.433; -366.273; -154.507
397.799; -194.938; -555.279; -571.497
398.090; -239.239; -973.280; -902.495
398.381;   23.051;   11.708;  -11.473
398.672; -158.149; -585.292; -742.473
398.963;  -98.937; -348.279; -373.498
399.254;   16.952;   54.709; -209.475
399.545; -276.527;-1017.266; -883.520
399.836;  -77.236; -407.277; -343.501
400.127;  -62.851; -205.295; -209.468
400.418;  -48.233; -423.274; -392.506
400.709; -130.440; -359.281; -333.493
401.000;  -42.248; -268.291; -309.476
401.290;   69.843;  225.698;  115.545
401.581;    0.857; -166.286; -228.485
401.872; -152.754; -542.298; -486.462
402.163;  -76.352; -313.296; -252.467
402.454;  -37.048; -123.291; -163.475
402.744; -216.453; -844.297; -813.465
403.035;  -71.950; -226.293;  -86.471
403.326;  -81.049; -366.292; -384.474
403.617;   54.045;  204.701;  165.539
403.907; -156.241; -593.283; -679.490
404.198; -177.062; -545.307; -599.446
404.489; -145.041; -618.283; -588.491
404.779; -206.557; -618.302; -660.456
405.070;    5.841;  -67.304; -174.451
405.360;  -85.550; -259.293; -238.472
405.651;   84.144;  125.699;   98.542
405.942;   44.956;  209.714;  127.516
406.232; -147.642; -432.285; -413.487
406.523;  191.750;  641.706;  758.530
406.813; -163.644; -579.286; -644.484
407.104;   71.751;  261.708;  144.527
407.394; -197.154; -604.299; -591.462
407.685;   28.657;  336.715;  222.513
407.975; -107.641; -400.283; -382.490
408.265;  -37.547; -134.289; -190.478
408.556; -143.548; -472.291; -459.475
408.846;  131.850;  474.706;  429.530
409.137;   29.754;   -1.288; -216.480
409.427; -101.842; -193.285; -271.487
409.717; -137.133; -776.273; -692.508
410.007;  -28.943;    4.715; -170.486
410.298;  -84.451; -360.295; -342.469
410.588; -142.443; -495.285; -510.486
410.878; -228.645; -792.287; -873.482
411.168; -132.754; -481.298; -478.463
411.459;  -56.041; -295.283; -242.489
411.749; -165.348; -609.292; -507.474
412.039; -224.046; -755.289; -386.480
412.329;   47.863;   40.722;  132.501
412.619;  -37.444;  -62.286; -148.485
412.909;  172.154;  639.711;  594.521
413.199;  -34.138; -130.280; -251.495
413.490;  153.153;  521.710;  352.523
413.780; -241.638;-1013.279; -913.496
414.070;   10.265;  -46.276;  235.497
414.360; -150.537; -729.278; -666.498
414.650; -207.845; -726.288; -688.482
414.940; -131.738; -538.280; -441.496
415.230;    8.855;   50.712;   74.519
415.520;   64.570;  155.730;   66.486
415.809;  -46.740; -305.281; -125.493
416.099;  -46.536; -388.277; -229.501
416.389;   97.266;  435.726;  236.494
416.679;   46.077;   91.738;   85.473
416.969; -105.544; -527.287; -503.483
417.259;  117.362;  341.721;  171.503
417.549;  104.060;  522.718;  318.508
417.838;  -43.528; -205.268; -147.518
418.128;  130.253;  650.710;  492.522
418.418; -151.432; -491.272; -579.509
418.708;   -4.734;    9.726;  -48.506
418.997;  -95.834; -474.275; -480.505
419.287; -279.833; -733.273; -790.507
419.577;  -23.341; -160.283; -123.489
419.866; -133.436; -588.277; -498.501
420.156;  -26.930; -242.270;  -55.513
420.446;   -6.824; -112.263;  -26.526
420.735; -154.631; -376.271; -446.512
421.025;  549.963; 1830.722;  315.502
421.314;  -25.731; -203.271; -226.512
421.604;   11.171;   89.732;  233.484
421.893; -190.331; -705.271; -602.511
422.183; -140.624; -487.263; -461.526
422.472;  -14.331;  -36.271; -107.511
422.762; -135.926; -416.266; -379.521
423.051; -238.935; -916.276; -916.503
423.341; -148.833; -491.273; -439.507
423.630;   -7.026; -121.265;   15.477
423.919;    2.566;   58.725;   49.495
424.209;    0.876;  -31.263;   56.473
424.498;   -3.128;   68.732;  161.483
424.787; -154.228; -535.267; -601.518
425.077;   -9.026;   34.735;   29.478
425.366; -202.223; -734.262; -744.528
425.655;  190.367;  639.727;  259.493
425.945;  -43.911; -313.247; -268.554
426.234;   31.979;  117.741;  300.467
426.523;  -92.020;  -86.259; -350.534
426.812;   28.473;  107.734;  159.480
427.101;  -26.329; -127.269; -323.515
427.390;  -28.330;  -55.270;  -86.514
427.680; -128.819; -624.257; -411.538
427.969;  -93.217; -330.255; -301.540
428.258; -138.019; -385.257; -477.536
428.547;   79.868;  449.728;  397.490
428.836; -116.816; -421.253; -398.543
429.125;  -67.020; -199.259;  -72.534
429.414;  -92.414; -330.251; -294.548
429.703;  -91.514; -231.251; -213.548
429.992; -244.813; -938.250; -828.549
430.281; -145.725; -397.264; -331.524
430.570;   -5.815;  -21.252;   32.454
430.859;   59.680;  279.741;  352.466
431.148;  197.289;  636.752;  631.446
431.437;   97.885;  391.748;  367.454
431.725; -138.619; -544.257; -481.536
432.014; -279.415; -845.253; -756.545
432.303;  -65.004; -149.239; -105.569
432.592; -134.224; -460.263; -178.525
432.881; -170.711; -601.248; -437.554
433.169;  -64.817; -343.255;  -61.540
433.458;  152.200;  445.765;  540.424
433.747; -134.523; -397.261; -289.529
434.036; -106.806; -275.242; -280.564
434.324; -178.912; -395.249; -379.551
434.613;   30.393;   40.757;  159.437
434.902;   50.495;  333.760;  439.433
435.190;   79.896;   75.761;  295.431
435.479;  -59.608;  -52.245;   83.441
435.767; -119.208; -411.244; -427.561
436.056; -120.106; -340.242; -294.563
436.345; -103.904; -372.240; -223.568
436.633;   35.487;   60.750;  383.450
436.922;   81.596;  208.760;  414.432
437.210;  -74.901; -194.236;    1.426
437.499; -206.901; -583.235; -432.576
437.787; -141.501; -339.236;  -10.574
438.075;   25.797;   56.761;  162.430
438.364;  -38.703;  -44.238;  250.429
438.652;  -73.993; -286.226; -138.592
438.941;  -23.396;    3.770;  269.415
439.229; -202.015; -665.252; -466.545
439.517;  -90.400; -160.234;  -85.577
439.806; -173.691; -501.225; -290.595
440.094;  112.401;  377.766;  650.421
440.382; -169.299; -653.233; -302.580
440.670; -128.301; -361.235; -285.576
440.959; -144.790; -347.223; -170.599
441.247;  -90.095; -151.229; -109.587
441.535;  -77.100; -266.235;   31.423
441.823; -172.199; -497.234; -305.578
442.111;   12.005;  173.771;  327.412
442.400; -185.608; -628.245; -335.559
442.688;  -36.999; -111.234; -620.579
442.976; -259.881; -786.213; -450.617
443.264; -125.991; -324.224; -364.597
443.552;  -89.993; -258.226;   51.408
443.840;  189.700;  602.765;  876.423
444.128;   47.901;  265.767;  269.420
444.416; -158.195; -694.228; -312.588
444.704; -135.187; -465.219;  -92.605
444.992;   -9.592;   -0.226;  240.407
445.280; -109.196; -517.230;  -94.585
445.568; -196.781; -694.212; -396.618
445.856;  -55.188; -174.221;  357.398
446.143;  -45.787;  -54.220;   -7.604
446.431;   37.406;  -25.228;  625.411
446.719;  184.615;  489.783;  675.391
447.007;  129.803;  481.769;  705.416
447.295;  144.110;  597.777;  871.402
447.583; -144.795; -464.229;  -34.587
447.870; -156.689; -434.221; -202.601
448.158;  -43.596; -104.230;  129.415
448.446; -209.387; -800.219; -338.604
448.733;  -88.690;   13.776;  269.403
449.021;   -4.081;   60.788;  341.382
449.309;  -83.279; -296.210;  208.379
449.596;   46.315;  128.783;   59.392
449.884; -198.189; -571.222; -325.600
450.172; -240.694; -756.227; -406.590
450.459;  130.917;  645.786;  780.387
450.747; -147.285; -411.218; -147.608
451.034;  174.906;  493.772;  889.411
451.322; -136.982; -413.214; -170.614
451.609;    3.010;  292.777;  508.403
451.897; -132.673; -550.203; -183.634
452.184; -212.390; -622.223; -400.598
452.472;   -6.877;   97.792;  269.375
452.759;  126.613;  512.781;  864.395
453.047; -124.881; -407.212; -125.617
453.334; -192.986; -732.219; -216.606
453.621; -143.582; -438.214; -161.615
453.909;  -10.774;   13.796;  384.368
454.196;  -97.970; -299.199; -123.641
454.483;    8.328;  317.798;  540.364
454.771;  -63.077; -215.208;  196.374
455.058; -117.377; -316.207;  102.374
455.345;  -17.164;   71.807;  344.347
455.632;  -67.876; -128.207;  235.373
455.919;  -19.467;  -82.196;  182.354
456.207; -279.869; -774.198; -450.642
456.494; -193.471; -475.200;  -66.639
456.781; -170.572; -399.202; -198.635
457.068;  -76.576; -253.206;  -29.628
457.355; -211.176; -698.206; -401.629
457.642; -136.375; -552.205; -290.630
457.929; -212.865; -778.194; -417.651
458.216; -147.881; -575.212; -354.617
458.503;  -73.765; -173.193;  -19.652
458.790; -235.577; -864.208; -630.625
459.077;  -59.872;  -77.202;  110.364
459.364;  -87.766; -350.195; -210.649
459.651;  -26.876;  -46.206;  220.372
459.938; -273.078; -864.209; -665.623
460.225;  -15.672;  132.799;  276.363
460.512; -273.468; -836.197; -688.645
460.799;   -6.885;  -32.218;  320.392
461.086; -121.570; -370.200; -251.640
461.372; -183.769; -509.198; -279.642
461.659;  -30.967; -165.196;  108.354
461.946; -105.165; -445.193;  -54.651
462.233;  239.229;  842.800;  888.361
462.519; -255.871; -814.201; -464.639
462.806; -217.868; -768.197; -497.645
463.093; -143.663; -445.191;  -66.656
463.380; -267.559; -920.186; -824.664
463.666;  -77.267; -259.197;  -18.646
463.953;  -85.266; -406.195; -243.648
464.239; -108.266; -173.195;  -77.648
464.526;  107.035;  413.806;  743.350
464.813; -168.762; -565.190; -304.658
465.099;  111.635;  606.807;  607.348
465.386;  224.036;  903.807;  921.348
465.672; -224.268; -694.197; -522.645
465.959; -198.860; -598.188; -520.662
466.245; -102.864; -468.193; -359.652
466.532;  -56.466; -109.195;   63.352
466.818;  -92.859; -357.186; -216.664
467.104; -189.355; -488.182; -415.672
467.391; -196.361; -628.189; -459.658
467.677; -101.658; -289.186;    9.335
467.964; -180.961; -682.189; -471.660
468.250; -119.158; -331.186; -160.665
468.536;   -3.461;   90.811;  180.341
468.822; -248.457; -821.184; -574.668
469.109;  119.253;  351.827;  471.311
469.395;  168.337;  729.808;  787.346
469.681;   16.439;   46.811;  156.341
469.967; -212.161; -699.188; -382.660
470.254;  -95.460; -494.188; -306.662
470.540; -177.067; -601.196; -476.646
470.826; -171.354; -488.181; -397.675
471.112;  -24.257;  288.816;  113.331
471.398;  -42.556; -253.183;  -58.670
471.684; -189.151; -626.177; -447.680
471.970; -298.753; -918.180; -981.675
472.256; -174.263; -521.192; -441.654
472.542; -161.346; -499.171; -434.691
472.828; -235.155; -743.182; -607.672
473.114; -117.442; -380.166; -283.700
473.400; -173.649; -504.175; -293.684
473.686; -146.341; -452.166; -400.701
473.972;  -58.548; -230.174; -131.687
474.258; -251.847; -925.173; -843.689
474.544;  -59.952; -183.178;   -2.679
474.830;  -32.049;  -65.175;   45.316
475.116;  -93.461; -123.190; -196.658
475.401; -143.053; -558.180; -467.676
475.687; -242.153; -725.180; -718.676
475.973; -197.354; -673.181; -770.673
476.259;  163.051;  736.825;  764.315
476.544; -174.050; -539.176; -437.682
476.830; -160.646; -398.172; -322.690
477.116; -111.050; -430.177; -336.682
477.401;  113.247;  346.820;  358.324
477.687; -101.149; -289.175; -405.684
477.973;  -30.154;   21.819;   28.326
478.258; -151.139; -448.163; -348.706
478.544;  -44.858;   21.815;   61.334
478.829; -213.645; -818.171; -738.692
479.115; -218.546; -749.172; -651.690
479.401; -108.248; -444.174; -449.686
479.686;  -71.453; -253.180;  -74.676
479.972; -237.251; -886.178; -776.680
480.257;  -83.642; -258.166;  -65.700
480.542; -183.845; -614.170; -469.693
480.828;  311.450; 1288.824; 1392.317
481.113; -165.350; -464.176; -426.683
481.399; -101.537; -236.161; -202.711
481.684; -160.542; -620.166; -462.700
481.969;  -64.036; -158.159;  -73.713
482.255; -114.744; -439.169; -285.695
482.540; -150.651; -569.178; -441.680
482.825; -152.559; -395.187; -404.663
483.110;  -58.044;  -85.169; -105.696
483.396; -197.933; -840.157; -652.718
483.681;  133.152;  543.826;  730.313
483.966; -220.136; -696.160; -700.712
484.251; -161.648; -404.174; -310.687
484.536; -134.841; -356.165; -378.703
484.822;  -99.248; -205.173; -218.687
485.107; -190.730; -599.152; -502.726
485.392;  153.860;  662.836;  541.296
485.677;   46.957;  354.832;  163.302
485.962;   33.866;  160.843;  270.283
486.247;   19.862;  -14.162;   -8.707
486.532; -128.741; -178.166; -325.701
486.817;   98.963;  381.839;  431.291
487.102; -198.831; -453.154; -514.722
487.387; -159.133; -637.156; -652.718
487.672;  -77.240; -154.164;  -38.705
487.957;  -87.437; -394.160; -286.711
488.241;  -87.628; -290.150; -314.729
488.526;  -91.430; -280.152; -148.726
488.811; -316.651; -881.177; -818.680
489.096; -224.331; -666.154; -702.723
489.381;  -27.230;    3.847;  162.275
489.666; -121.537; -428.161; -510.710
489.950;  138.569;  558.846;  627.277
490.235; -155.729; -480.151; -458.728
490.520; -219.037; -756.161; -723.710
490.804; -238.633; -827.156; -736.719
491.089; -106.027; -469.149; -299.732
491.374;  -10.340; -132.164;  -75.704
491.658; -236.225; -817.147; -717.735
491.943; -197.429; -657.152; -609.727
492.227;  -61.132; -178.155;  -38.721
492.512; -105.634; -294.157; -341.717
492.797; -271.227; -713.149; -716.731
493.081; -196.325; -588.147; -598.735
493.366; -220.437; -751.161; -635.711
493.650;  227.580;  831.859;  917.254
493.935; -184.526; -648.147; -447.734
494.219; -207.821; -778.142; -687.743
494.503; -217.228; -585.150; -487.730
494.788;    3.165;   46.842;   74.285
495.072;   78.472;  184.850;  434.271
495.356; -106.726; -463.148; -343.733
495.641; -259.925; -812.146; -736.736
495.925; -280.733; -976.156; -903.719
496.209; -160.827; -599.149; -451.732
496.494; -205.921; -763.142; -544.744
496.778; -134.231; -364.154; -360.722
497.062; -231.633; -819.156; -627.719
497.346; -222.436; -869.160; -640.711
497.631;  106.074;  580.852;  560.266
497.915;  -17.324;  -64.145;  175.261
498.199; -101.033; -341.157; -277.718
498.483; -170.730; -562.152; -508.725
498.767;   54.572;  301.850;  300.271
499.051;  -21.727; -126.149; -100.732
499.335; -208.827; -693.149; -739.731
499.619; -142.310; -381.129; -423.767
499.903;  -69.832; -272.155;  -65.721
500.187; -172.331; -588.153; -316.724
500.471; -240.029; -796.152; -595.727
500.755;  -62.737;   62.839;  -96.710
501.039;  -72.132; -270.155; -357.721
501.323;  -11.220;  -21.141;  264.254
501.607;  -92.139; -447.163; -503.706
501.891; -215.433; -607.156; -512.718
502.174; -203.822; -726.144; -585.741
502.458;   -2.829;   89.849;  370.273
502.742;  -66.618; -180.138; -191.751
503.026; -126.426; -412.147; -254.734
503.310; -124.036; -437.159; -375.713
503.593; -120.025; -464.147; -325.735
503.877;  -85.914; -232.133; -156.760
504.161;  -45.030;    2.847;  -50.724
504.444; -252.034; -841.158; -710.716
504.728; -189.540; -487.164; -522.704
505.012;  -53.528; -257.150;  -76.729
505.295; -113.637; -417.161; -212.711
505.579;  -98.933; -256.156; -496.719
505.862; -152.824; -555.145; -333.738
506.146; -201.535; -681.159; -758.714
506.429;  119.165;  568.841;  461.286
506.713; -196.528; -732.151; -667.728
506.996;   -0.831;   90.846;  295.278
507.280; -173.040; -633.165; -474.703
507.563; -148.532; -469.155; -261.721
507.847; -166.231; -423.153; -112.724
508.130; -197.637; -665.161; -456.711
508.413; -188.642; -758.167; -577.700
508.697;  -43.442; -151.167;   12.300
508.980; -104.630; -422.153; -312.724
509.263; -164.132; -466.155; -450.720
509.547;  -53.428; -124.150;   82.271
509.830;  -82.937; -172.160;  140.289
510.113;   45.867;  128.844;  298.281
510.396; -165.330; -530.152; -300.725
510.680; -225.824; -818.145; -812.738
510.963;    3.069;  184.846;  180.277
511.246; -167.727; -493.150; -357.730
511.529; -150.923; -482.145;  -83.739
511.812;  -44.214; -250.134;   10.241
512.095; -207.629; -740.151; -396.728
512.378;  -80.325; -317.147; -245.736
512.661; -228.017; -703.137; -623.753
512.944; -197.521; -750.142; -637.744
513.227; -114.217; -170.137; -171.752
513.510; -156.422; -479.144; -671.741
513.793; -194.919; -485.140; -435.747
514.076;  -12.808;  -43.127;  -39.771
514.359; -117.727; -294.149; -135.732
514.642; -185.121; -442.142; -567.744
514.925;  114.080;  581.860;  561.253
515.208; -152.614; -498.134; -443.758
515.491; -127.213; -276.133; -182.761
515.773; -116.622; -410.143; -337.742
516.056;   27.784;  249.864;  409.246
516.339; -223.416; -754.136; -652.755
516.622; -194.828; -518.150; -488.730
516.904;  224.479;  882.857;  975.257
517.187; -211.717; -730.138; -523.752
517.470; -164.222; -568.143; -510.743
517.752; -185.016; -624.136; -470.756
518.035; -223.718; -708.139; -725.749
518.318; -282.416; -799.136; -744.755
518.600; -114.413; -300.132; -325.762
518.883;   31.079;  310.858;   88.256
519.165; -159.518; -585.138; -426.751
519.448;  -78.013;  -61.132;  -19.762
519.730; -203.807; -573.126; -415.773
520.013;  140.287;  588.867;  664.240
520.295;  -53.814;  -94.134;  -15.759
520.578; -138.211; -335.131; -305.764
520.860;  -87.213; -254.132;   56.238
521.143; -221.215; -763.135; -584.756
521.425;  -80.106; -251.125; -279.775
521.707; -168.008; -622.127; -380.771
521.990;  -11.308; -199.127;  167.229
522.272;  -71.919; -116.140;   -4.748
522.554;  -75.822; -237.143; -157.742
522.836;  -57.314;  -24.134;   99.241
523.119; -121.326; -496.148; -189.734
523.401; -156.211; -448.130; -314.766
523.683; -245.417; -865.137; -693.753
523.965;   49.783;  408.862;  260.248
524.247;    6.196;   54.878;  170.220
524.529; -180.514; -451.134; -367.759
524.812;  -34.011;   -3.130;  191.234
525.094; -302.517; -773.138; -631.751
525.376;  -32.105; -143.124;   78.223
525.658; -148.716; -441.136; -339.754
525.940; -236.312; -805.131; -671.764
526.222; -108.116; -188.136;  -88.755
526.504;  -50.012; -190.131;   32.237
526.786; -305.314; -960.133; -647.760
527.068;  -85.705; -124.123;  -67.778
527.349; -275.716; -865.137; -774.754
527.631;  -26.113; -137.132;   22.238
527.913; -237.308; -664.127; -450.771
528.195; -227.307; -761.125; -639.774
528.477;  -36.914;  -93.134;  -30.758
528.759; -203.611; -648.130; -522.766
529.040; -197.505; -569.123; -293.778
529.322;  -87.007; -235.125;  -10.774
529.604;  -73.110;  -47.130;   93.233
529.886; -139.507; -546.126; -302.773
530.167;  -20.611;  232.870;  192.235
530.449;  -18.625;    1.853;   63.265
530.731; -211.404; -572.122; -459.779
531.012; -168.002; -513.120; -216.784
531.294;  -74.998; -118.116;  -43.792
531.575;   89.794;  290.875;  538.225
531.857; -192.415; -548.135; -266.757
532.138;  -46.220; -113.141;   40.254
532.420;  -10.315;  294.865;  403.244
532.701; -261.113; -722.133; -751.760
532.983;   57.887;  232.867;  182.239
533.264;  -67.808; -243.126;  175.228
533.546; -190.616; -491.136; -508.755
533.827;   31.586;  173.867;   -1.759
534.109; -164.315; -352.135;  -80.757
534.390; -258.212; -725.132; -582.762
534.671; -108.515; -270.135;  -82.756
534.953; -223.305; -751.123; -611.779
535.234; -161.100; -426.117; -255.789
535.515; -268.901; -891.119; -735.785
535.796; -154.609; -431.128; -193.770
536.078; -309.405;-1050.124; -904.777
536.359;  -99.505;  -22.123;    3.221
536.640; -127.907; -480.125; -197.774
536.921;    4.590;  225.871;  143.232
537.202;  -83.818;  -87.138;  -16.751
537.483;   45.489;  251.869;  377.236
537.764;   12.789;   17.870;   98.235
538.045; -188.114; -543.134; -371.758
538.326; -149.010; -596.129; -447.768
538.607; -246.608; -686.127; -476.771
538.888;  -46.703;   98.879;    5.218
539.169; -243.604; -704.122; -535.781
539.450;   62.690;  236.871;   16.233
539.731; -137.003; -361.121; -182.783
540.012;  -12.702;  199.880;  412.216
540.293;  -69.806;   82.876;  158.224
540.574; -268.996; -895.113; -717.796
540.855;   40.797;  435.879;  377.218
541.136;   -7.004;   47.878;  139.220
541.416; -139.410; -161.130; -220.766
541.697; -126.012; -274.131; -170.763
541.978; -125.415; -270.135; -315.757
542.259; -147.708; -211.127; -236.771
542.539; -123.499; -191.116; -186.790
542.820;   56.094;  461.875;  480.225
543.101; -119.724;  -52.145;  -77.738
543.381; -279.508; -638.127; -591.771
543.662;  -35.508;  159.873; -254.771
543.942; -306.609; -751.127; -830.770
544.223;  -36.804;  193.878;  161.219
544.504; -125.505; -275.124; -182.777
544.784; -217.908; -592.126; -408.773
545.065; -143.999;  104.884; -254.791
545.345;  -35.301;  227.881;   14.215
545.626;  -38.696;  -14.113; -108.796
545.906;  -62.011;   77.869;   98.235
546.186; -114.507;   92.874;  -95.773
546.467;  -92.605;   99.877;  -95.778
546.747;   49.001;  264.884;  327.210
547.027;  -52.406;   91.876;  111.223
547.308; -162.809; -376.127; -530.770
547.588;   22.290;  299.871;  371.232
547.868;  135.589;  458.870;  588.235
548.149;  135.902;  609.885;  593.207
548.429;  -82.708; -347.127; -299.771
548.709; -227.802; -645.120; -461.784
548.989;  -14.100;   84.882;   88.213
549.269; -163.113;   10.868;  139.239
549.550;    1.995;  215.877;  117.222
549.830; -248.895; -758.111; -556.799
550.110; -188.094; -468.110; -320.801
550.390; -122.404; -128.122;  -56.779
550.670; -293.397; -868.114; -783.795
550.950; -209.403; -509.121; -471.782
551.230;  136.997;  549.879;  460.218
551.510; -164.903; -381.121; -326.782
551.790;  -77.393; -173.109; -127.803
552.070;  260.095;  940.877; 1181.223
552.350; -148.201; -492.119; -377.786
552.630;  -31.403;   -2.121;   77.219
552.909;   26.401;  181.884;   73.209
553.189;  -79.212;  -49.132;   33.237
553.469; -204.001; -703.119; -514.786
553.749; -211.208; -469.127; -357.772
554.029;  -41.599;   33.883;  -24.790
554.308;  -91.998; -154.115;  -37.794
554.588; -136.609; -196.128; -204.770
554.868; -164.503; -366.121;  -47.782
555.147;  -91.198; -114.115;  -46.793
555.427; -147.098; -260.116; -250.792
555.707; -113.598; -284.115; -200.793
555.986; -252.094; -719.111; -538.800
556.266;  -37.799;   23.884;   72.210
556.546; -276.503; -888.121; -675.782
556.825; -216.497; -657.114; -556.794
557.105;  -94.209; -125.128;   17.230
557.384;    2.001;  122.884;  187.209
557.664; -242.998; -717.116; -508.792
557.943; -135.403; -557.121; -411.782
558.222; -171.200; -345.118; -344.788
558.502;  -92.698; -116.115;  -76.793
558.781;   56.902;  194.885;  499.208
559.061;  -96.900; -232.118; -227.788
559.340;   39.700;  302.883;  353.211
559.619;  -21.799;   93.884;  148.210
559.899; -174.100; -239.117; -266.789
560.178; -227.598; -778.115; -593.793
560.457; -236.099; -623.117; -562.790
560.736; -168.594; -472.111; -482.800
561.015; -237.809; -500.128; -502.769
561.295;  -23.791;  180.893;  215.193
561.574;  -14.398;  119.885;  116.207
561.853;   23.907;  274.891;  303.197
562.132;  -56.197;  -45.114;  182.206
562.411;   92.697;  396.879;  553.219
562.690; -209.198; -592.115; -458.792
562.969;  126.004;  472.888;  630.203
563.248;  749.896; 2966.878; 2487.219
563.527; -130.294; -290.111; -408.800
563.806; -230.808; -650.127; -521.771
564.085; -109.990; -297.105; -206.810
564.364; -219.299; -594.117; -405.790
564.643; -110.103; -276.121; -223.781
564.922;  -21.393;  221.890;  397.198
565.201; -226.693; -640.109; -700.803
565.479; -113.098; -297.115; -219.792
565.758; -273.509; -810.128; -712.770
566.037;  -81.293; -155.109; -100.803
566.316; -103.299; -286.116;  -28.791
566.595; -106.198;  -17.115;  -12.793
566.873;  124.106; -166.111;  -79.801
567.152; -226.296; -490.113; -590.797
567.431;  -43.299; -113.116;    6.210
567.709; -111.091; -344.107; -212.807
567.988; -312.097; -810.114; -769.794
568.266; -119.298; -160.115;  -68.793
568.545; -184.885; -644.100; -514.819
568.824;   26.002;  160.885;  356.208
569.102; -115.797; -351.114; -235.794
569.381; -185.898; -492.116; -407.792
569.659; -190.696; -553.113; -553.796
569.938; -264.104; -743.122; -465.780
570.216; -110.093; -225.109; -225.804
570.494; -246.097; -632.114; -572.795
570.773;   17.697;  202.879;  114.218
571.051; -155.505; -373.123; -357.778
571.330;  -98.396; -221.113; -174.796
571.608; -120.684; -181.098; -173.823
571.886; -246.695; -671.111; -581.799
572.164; -274.303; -739.121; -621.782
572.443; -188.990; -562.105; -512.811
572.721; -164.399; -399.117; -289.790
572.999; -138.400; -280.117; -168.788
573.277;   92.110;  379.894;  620.191
573.555;    2.510;   94.894;   37.190
573.834; -131.700;  -86.117; -114.788
574.112;  191.609;  880.893;  811.193
574.390;  -96.694; -143.111;  -96.801
574.668;  -42.996;  -91.112;  -61.797
574.946;  -89.190; -165.106; -187.810
575.224;  -33.493;   71.891;  -16.803
575.502; -134.499; -200.116; -204.791
575.780; -251.296; -767.112; -829.798
576.058;  225.806; 1589.889; 1004.200
576.336;  -84.994; -210.110; -129.801
576.614; -204.896; -511.112; -340.798
576.891; -258.998; -711.115; -823.794
577.169; -129.292; -158.108; -285.805
577.447;   53.909;  169.893;  202.193
577.725;  129.505;  629.888;  854.201
578.003; -101.595;  -71.112; -371.798
578.280; -110.389; -208.104; -242.812
578.558; -224.298; -450.115; -422.793
578.836; -101.597; -210.114; -145.795
579.114; -227.696; -630.112; -670.797
579.391;  -42.000;   -6.117;  -18.789
579.669; -268.297; -595.114; -704.794
579.947; -126.991; -326.107; -127.806
580.224; -218.491; -692.107; -524.806
580.502;  -63.691;  127.893;   76.193
580.779;  -11.499;  -42.117;   75.210
581.057; -221.693; -584.109; -470.804
581.334; -245.587; -726.102; -695.815
581.612;   46.210;   54.895;  511.190
581.889;  -68.486;  -83.101; -129.818
582.167; -151.985; -298.099; -190.821
582.444; -251.486; -845.102; -814.817
582.721;  136.714;  657.899;  715.183
582.999;  -75.185; -326.100; -167.821
583.276; -281.804; -812.123; -713.779
583.553; -133.587; -364.102; -294.816
583.831; -247.989; -607.104; -631.812
584.108;    5.508;  349.892;  174.195
584.385; -114.387; -122.102;  -98.815
584.662; -215.994; -651.111; -828.801
584.940;   -3.894;  204.889;  204.199
585.217;  -86.096;  -73.113; -303.796
585.494;  -57.593;   71.890;  118.198
585.771; -140.893; -250.109; -354.804
586.048; -102.996; -196.113;  -76.796
586.325; -230.494; -721.110; -773.801
586.602;   34.111;  230.896;  213.188
586.879; -181.685; -499.100; -580.820
587.156;  -90.290; -156.105; -331.810
587.433; -252.287; -701.102; -667.817
587.710;  -30.396;  152.888;  234.202
587.987; -125.589; -264.105; -236.811
588.264;   52.105;  315.888;  387.202
588.541;  -54.488;  -61.104;   26.187
588.818;  -86.492;   72.892;  171.196
589.095;  -81.189; -163.104; -174.812
589.371; -182.593; -459.109; -414.804
589.648; -208.691; -581.107; -437.807
589.925; -196.297; -517.114; -621.795
590.202; -248.896; -741.112; -607.798
590.478;  -78.689; -166.105;  -73.811
590.755; -137.392; -241.108; -132.806
591.032; -245.294; -741.110; -699.802
591.308; -231.480; -732.094; -790.831
591.585; -216.094; -573.110; -560.802
591.862; -290.387;-1056.102; -950.817
592.138; -194.992; -475.108; -474.805
592.415; -182.489; -486.104; -495.813
592.691;  100.911;  460.896;  518.188
592.968; -129.883; -208.098; -123.824
593.244; -260.899; -695.116; -595.790
593.521;  -55.986; -105.102;  -42.817
593.797; -277.004; -810.122; -720.780
594.074; -202.282; -611.096; -588.826
594.350;  133.119;  828.905;  729.172
594.626; -113.894; -303.111; -283.801
594.903; -225.986; -643.101; -645.817
595.179;   42.912;  243.896;  418.187
595.455; -113.391; -136.107; -150.807
595.731;  -74.388;  -19.103;  -38.814
596.008; -171.595; -464.111; -434.800
596.284; -108.885; -187.100; -242.820
596.560; -203.279; -501.093; -493.833
596.836; -114.490; -173.105;  -70.810
597.112; -181.492; -582.108; -437.805
597.388;  -72.582;  -49.097;  -48.826
597.665;   84.804;  437.887;  530.203
597.941; -219.076; -572.089; -658.839
598.217; -119.193; -323.110; -293.802
598.493;  -91.392;   61.891; -204.804
598.769;  -98.585; -175.100;  -50.819
599.045; -200.492; -490.108; -562.806
599.321; -188.285; -193.100; -261.820
599.597; -141.093; -355.109; -476.804
599.872;   63.812;  409.896;  429.187
600.148;  -54.582;  -61.097; -172.826
600.424;  -24.591;   91.893;  202.193
600.700;  -84.291; -170.107; -280.807
600.976; -183.183; -442.097; -464.825
601.252; -111.593; -226.109; -272.803
601.527; -298.988; -833.104; -840.813
601.803; -148.789; -453.105; -404.812
602.079;  -74.385; -124.100; -118.819
602.354; -200.278; -620.092; -531.835
602.630; -114.396; -140.113; -482.796
602.906; -289.286; -910.101; -863.818
603.181; -210.101; -627.119; -534.786
603.457;  -40.282;   98.903; -278.826
603.733; -229.003; -605.120; -626.783
604.008;  -69.790; -245.106; -164.810
604.284; -225.486; -636.101; -580.817
604.559;  -24.395;   -3.112;  -42.799
604.835; -127.190; -163.105; -225.810
605.110; -272.485; -732.099; -892.821
605.385;   37.021;  224.907;  267.167
605.661; -243.481; -625.095; -729.829
605.936; -264.792; -664.108; -737.806
606.211;  -44.287;  -17.103; -170.815
606.487; -137.797; -329.114; -376.794
606.762; -238.501; -791.119; -745.786
607.037; -163.690; -501.105; -433.810
607.313; -206.581; -589.096; -574.828
607.588; -137.390; -375.106; -137.810
607.863;  -70.786;  -28.101; -143.818
608.138;   97.706;  513.890;  516.198
608.413; -201.284; -576.099; -592.822
608.688; -145.092; -203.108; -267.805
608.964; -124.490; -509.106; -218.809
609.239; -109.490; -107.105; -212.810
609.514;   32.111;  281.895;  240.188
609.789; -277.189; -187.104; -716.812
610.064; -185.282; -435.096; -609.827
610.339; -298.693; -855.109; -799.804
610.614; -109.185; -131.100; -315.820
610.889;  -22.089;  215.895;  107.188
611.163; -198.389; -407.104; -591.812
611.438;  -76.297;   81.886; -167.794
611.713; -183.086; -467.101; -499.817
611.988; -107.986; -144.101; -328.818
612.263; -307.887; -771.102; -717.815
612.538;   75.404;  385.887;  251.204
612.812; -262.285; -832.100; -911.820
613.087; -158.684; -358.098; -338.823
613.362; -198.391; -497.107; -557.807
613.637;   14.212;  261.897;  138.186
613.911; -126.478; -256.092; -345.835
614.186; -151.991; -249.107; -292.807
614.460; -277.469; -842.081; -758.854
614.735;  -76.574;  -55.087;  -17.843
615.010;  -27.975;   43.912;  -82.841
615.284;   68.708;  360.892;  246.195
615.559; -259.578; -792.092; -955.835
615.833;  -77.384;  -76.099;  -87.822
616.108; -119.377; -225.090; -390.837
616.382;   68.326;  274.913;  402.156
616.656;  -83.377; -241.090; -232.837
616.931; -267.084; -785.099; -700.822
617.205; -305.088; -973.104; -979.813
617.480;  -98.606;  -91.125;    6.225
617.754; -158.207; -396.125; -128.774
618.028; -155.310; -369.129; -382.768
618.302;  -34.992;   73.892;  -25.805
618.577; -218.788; -371.103; -518.815
618.851; -171.093; -399.109; -600.803
619.125; -153.514; -335.134; -378.759
619.399; -100.788; -244.104; -374.813
619.673; -140.598; -330.115; -515.792
619.947; -152.197; -333.114; -448.795
620.222; -117.294; -198.110; -204.801
620.496;  -52.903;  -47.121;  -96.782
620.770;  -99.604; -187.122;  -93.781
621.044;   42.210;  323.895;  346.190
621.318; -229.903; -653.120; -614.783
621.592; -135.803; -430.121; -409.783
621.866; -215.495; -476.112; -572.799
622.140; -114.699; -207.116; -356.791
622.413;   35.805;  138.889;  112.200
622.687; -181.186; -746.101; -492.817
622.961;  -86.392; -130.108; -143.805
623.235; -208.995; -633.111; -661.800
623.509; -301.089; -816.105; -848.811
623.783;   -3.491;  -12.107;   48.193
624.056; -132.502; -254.120; -280.783
624.330;   -1.996;   63.888;   -3.797
624.604; -105.699; -271.116; -355.790
624.877;  -10.194;  180.890;   26.198
625.151; -124.997; -249.114; -238.794
625.425;  -94.788; -150.103; -283.814
625.698; -167.602; -367.119; -374.785
625.972; -234.893; -799.110; -765.802
626.245;   85.601;  685.884;  484.210
626.519; -135.502; -426.120; -340.784
626.792; -111.691; -192.107; -380.807
627.066; -210.304; -485.122; -662.779
627.339; -276.494; -736.110; -663.802
627.613;   31.398;  351.880;  148.216
627.886;    7.607;  187.891; -612.803
628.160; -116.403;  312.880; -161.783
628.433; -280.906; -695.125; -703.775
628.706; -189.902; -517.120; -615.784
628.979;   -1.406;  296.876;  117.223
629.253; -267.801; -785.119; -833.786
629.526; -127.608; -334.126; -253.772
629.799; -187.905; -641.123; -479.778
630.072; -172.209; -497.128; -516.769
630.346; -351.699;-1115.116;-1080.790
630.619; -186.891; -467.107; -545.808
630.892;  159.705;  709.889;  593.200
631.165;  159.112;  790.896;  679.187
631.438; -348.095;-1092.112;-1055.798
631.711;   55.895;  453.877;  257.221
631.984; -164.900; -523.117; -624.789
632.257; -212.700; -636.117; -681.789
632.530; -149.502; -412.119; -433.785
632.803;    6.702; -109.115;    7.207
633.076; -168.905; -360.123; -422.777
633.349;  -21.909;  173.872;  121.231
633.622;  -98.902; -187.119; -240.785
633.895; -335.602; -903.120; -823.783
634.167; -149.907; -496.126; -525.773
634.440;  -59.998;  -19.116; -137.792
634.713;   -8.901;  -22.119; -120.786
634.986;  107.890;  593.871;  453.233
635.258; -190.498; -507.115; -597.793
635.531;  163.200;  742.882; -343.788
635.804; -116.100; -303.117; -318.789
636.077; -265.299; -830.116; -852.791
636.349; -201.498; -586.115; -474.793
636.622;  479.692; 1695.874; 1392.228
636.894; -187.902; -474.120; -909.784
637.167; -268.908; -836.127; -789.771
637.439;  -79.809; -278.128; -213.770
637.712; -126.108; -312.126; -293.772
637.984; -215.399; -635.116; -707.791
638.257;  139.695;  515.877;  488.222
638.529; -295.806; -881.125; -924.776
638.802; -208.709; -508.128; -449.769
639.074; -320.604; -927.122; -952.781
639.346; -314.515; -942.135; -930.757
639.619;  -56.221;  -79.142; -319.744
639.891; -107.804;  -83.122; -168.779
640.163; -229.804; -689.122; -756.780
640.435;  -24.604;  273.878;  103.220
640.708;  -18.304;  -72.122; -132.780
640.980; -159.104; -366.122; -362.781
641.252;  -22.103;  -25.121;  -71.781
641.524;  104.997;  580.879;  573.219
641.796; -294.003;-1094.121; -907.782
642.068; -128.303; -191.121; -300.782
642.340; -161.703; -486.121; -566.783
642.613;    5.697;  294.880;  323.217
642.885; -243.402; -787.120; -878.783
643.157; -279.702; -810.120; -658.784
643.428;   17.698;  170.880;  218.216
643.700; -147.102; -498.120; -425.784
643.972;  -63.302;  -16.119; -133.785
644.244; -187.602; -474.119; -559.785
644.516;  -82.301; -250.119; -114.786
644.788;  128.799;  662.881;  548.214
645.060;   -4.901;  -12.119; -124.786
645.332; -234.401; -525.118; -535.787
645.603;   99.099;  479.882;  342.213
645.875; -147.300; -334.118; -369.787
646.147;  351.100; 1487.882; 1242.212
646.418; -344.500; -931.117; -918.788
646.690; -221.900; -714.117; -715.789
646.962; -159.600; -413.117; -451.789
647.233;    4.900;   15.883;   11.211
647.505; -186.599; -595.117; -475.790
647.776;   79.101;  328.884;  229.210
648.048; -124.299; -248.116; -418.790
648.320; -245.899; -752.116; -679.791
648.591; -343.999;-1055.116; -958.791
648.862; -147.098; -505.116; -577.792
649.134;   -8.298;  115.885;  198.208
649.405; -191.398; -661.115; -618.792
649.677; -202.398; -475.115; -598.793
649.948;  -76.198; -181.115; -296.793
650.219;  -35.598;  -37.115; -147.793
650.491; -146.197; -431.114; -520.794
650.762; -264.797; -705.114; -731.794
651.033; -156.697; -437.114; -424.795
651.304; -293.197; -743.114; -728.795
651.576; -222.097; -680.114; -645.795
651.847; -106.497; -250.113; -140.796
652.118;  -20.896;  -32.113; -189.796
652.389; -238.896; -639.113; -722.796
652.660;  -34.596; -147.113;  -89.797
652.931; -316.796; -897.112; -871.797
653.202; -158.996; -382.112; -541.798
653.473; -204.995; -633.112; -533.798
653.744; -159.495; -595.112; -590.798
654.015; -135.695; -356.112; -303.799
654.286; -171.695; -642.111; -663.799
654.557; -216.795; -586.111; -521.799
654.828; -358.995;-1114.111;-1088.800
655.099; -157.894; -404.111; -291.800
655.370; -161.594; -427.111; -543.801
655.641; -254.594; -656.110; -714.801
655.911; -165.294; -618.110; -638.801
656.182;   71.506;  437.890;  387.198
656.453;  213.006;  830.890;  746.198
656.724; -170.493; -466.110; -426.802
656.994; -192.693; -553.109; -568.803
657.265; -258.693; -862.109; -873.803
657.536; -139.693; -500.109; -377.804
657.806; -233.493; -561.109; -593.804
658.077; -257.492; -866.109; -950.804
658.347; -194.692; -523.108; -598.805
658.618; -237.692; -646.108; -694.805
658.888;  -45.592;  -41.108;  112.195
659.159; -147.692; -432.108; -548.806
659.429; -126.092; -292.108; -349.806
659.700; -123.691; -435.107; -390.807
659.970; -178.191; -370.107; -359.807
660.241; -260.091; -754.107; -921.807
660.511;  -70.791; -147.107; -174.808
660.781; -243.291; -793.106; -748.808
661.052; -127.891; -222.106; -381.808
661.322;   -1.790;   21.894;   -9.809
661.592;   13.910;  257.894;  148.191
661.862; -115.990; -369.106; -382.810
662.133; -181.590; -551.105; -502.810
662.403; -239.390; -770.105; -676.810
662.673; -102.689; -256.105; -213.811
662.943; -177.389; -612.105; -551.811
663.213;  -64.789;  -85.105;  -81.811
663.483; -176.189; -593.104; -568.812
663.753;  -96.489; -194.104; -152.812
664.023;   -5.189;   68.896;  -32.813
664.293; -117.688; -319.104; -126.813
664.563; -211.188; -694.104; -648.813
664.833; -233.588; -743.103; -608.814
665.103; -251.388; -730.103; -793.814
665.373; -240.088; -766.103; -806.814
665.643; -277.088; -863.103; -918.815
665.913; -203.387; -534.103; -714.815
666.182; -212.187; -685.102; -719.816
666.452; -120.587;  -22.102;  -89.816
666.722; -221.287; -724.102; -784.816
666.992; -327.687; -948.102; -921.817
667.261; -263.986; -824.102; -808.817
667.531;  -36.686;  134.899;   45.183
667.801; -147.086; -440.101; -412.818
668.070;  203.314;  714.899;  697.182
668.340; -280.486; -883.101; -840.819
668.609;   86.814;  588.900;  301.181
668.879; -189.985; -490.100; -558.819
669.149; -189.285; -539.100; -516.820
669.418; -230.085; -698.100; -726.820
669.688; -187.585; -482.100; -666.820
669.957; -171.785; -423.099; -546.821
670.226; -122.584; -268.099; -331.821
670.496; -210.684; -431.099; -635.822
670.765; -159.284; -418.099; -501.822
671.034; -255.684; -872.099; -828.822
671.304;  -15.584;   55.902; -111.823
671.573; -323.884;-1085.098; -957.823
671.842; -106.483; -380.098; -294.823
672.112; -229.683; -692.098; -586.824
672.381;  -98.383; -239.098; -214.824
672.650; -295.283;-1005.097;-1021.825
672.919; -221.783; -631.097; -507.825
673.188; -229.383; -681.097; -878.825
673.457; -393.282;-1101.097;-1143.826
673.726; -203.382; -579.096; -646.826
673.995; -166.582; -533.096; -479.826
674.265; -121.182; -263.096; -333.827
674.534; -111.582; -183.096; -235.827
674.802; -160.681; -618.096; -703.828
675.071; -299.681; -886.095; -801.828
675.340; -197.081; -464.095; -339.828
675.609;   -5.081;  103.905;   82.171
675.878; -270.281; -949.095; -893.829
676.147;  -67.781;  -26.095;   -8.829
676.416;  -97.080; -210.094; -294.830
676.685;  306.820; 1000.906; -622.830
676.953; -189.280; -603.094; -452.831
677.222; -106.580; -193.094; -273.831
677.491;  -80.980;  -24.094; -127.831
677.759;  -44.880;   11.907;  172.168
678.028;  -85.079; -279.093; -222.832
678.297;  -26.979;   71.907;  197.168
678.565; -272.379; -898.093; -944.833
678.834; -140.379; -311.093; -268.833
679.102; -140.579; -411.092; -391.834
679.371; -304.078; -898.092; -727.834
679.639; -243.778; -797.092; -786.834
679.908; -268.478; -794.092; -724.835
680.176; -301.678; -895.091; -941.835
680.445; -153.678; -346.091; -352.835
680.713;   -4.278;  -58.091;  -23.836
680.982; -214.377; -523.091; -525.836
681.250; -177.477; -578.091; -507.837
681.518; -215.277; -534.090; -751.837
681.787;  -55.977; -204.090; -167.837
682.055; -178.977; -490.090; -422.838
682.323; -302.977; -993.090; -992.838
682.591; -106.576; -216.090; -538.838
682.859;  -70.876;    9.911;  -35.839
683.128;   10.824;  232.911;  497.161
683.396; -327.976;-1102.089;-1122.840
683.664;  -92.876; -241.089;   21.160
683.932;   -1.475;  144.911;  -76.840
684.200; -206.075; -576.088; -320.841
684.468;  -32.675;  -73.088; -124.841
684.736; -100.975; -214.088; -175.841
685.004; -330.375;-1024.088; -982.842
685.272; -262.775; -880.088; -774.842
685.540; -211.174; -499.087; -557.843
685.808; -235.974; -651.087; -682.843
686.076; -293.174; -894.087; -969.843
686.343; -250.174; -601.087; -815.844
686.611;  -66.174; -195.087; -224.844
686.879; -181.774; -530.086; -553.844
687.147; -173.373; -483.086; -480.845
687.414;  -99.273;  -12.086; -169.845
687.682; -231.173; -658.086; -757.846
687.950;   21.427;  259.915;  263.154
688.217; -261.073; -792.085; -760.846
688.485; -211.872; -632.085; -636.847
688.753;   -3.872;  -11.085; -102.847
689.020; -291.072; -820.085; -851.847
689.288; -266.172; -853.084; -787.848
689.555; -110.472; -195.084; -148.848
689.823; -126.672; -241.084; -345.849
690.090; -217.371; -546.084; -651.849
690.358; -318.971; -877.084; -897.849
690.625;   -4.971;  120.917;   45.150
690.892; -145.271; -403.083; -369.850
691.160;  -42.971;   72.917;  -35.850
691.427;   46.229;  141.917;  130.149
691.694; -321.070; -855.083; -929.851
691.962; -322.170;-1177.082;-1060.852
692.229;  -20.270;  127.918;   56.148
692.496;  -36.170;  130.918;  -49.852
692.763; -130.670; -164.082; -201.853
693.031; -198.169; -739.082; -716.853
693.298; -233.769; -509.081; -368.853
693.565;  -63.369; -155.081; -163.854
693.832;  -46.469;   -5.081;   -9.854
694.099; -194.769; -643.081; -642.855
694.366; -307.169; -882.081; -896.855
694.633; -275.068; -920.080; -633.855
694.900; 1340.132; 4367.920; -114.856
695.167;  -68.468; -214.080; -380.856
695.434; -262.868; -646.080; -623.856
695.701;   58.632;  121.921;  -61.857
695.968; -182.467; -365.079; -361.857
696.234; -180.267; -415.079; -646.858
696.501; -220.967; -776.079; -614.858
696.768; -205.467; -554.079; -617.858
697.035; -206.067; -632.078; -667.859
697.302; -195.167; -448.078; -552.859
697.568; -157.666; -458.078; -497.859
697.835; -202.566; -683.078; -624.860
698.102; -166.366; -498.078; -407.860
698.368;   76.334;  384.923;  396.139
698.635; -153.366;  -47.077; -424.861
698.901;  -84.666; -240.077; -348.861
699.168; -137.065; -534.077; -456.862
699.435;  -46.665;  -72.077;  -13.862
699.701; -320.965; -868.076; -764.862
699.968; -144.165;  144.924; -441.863
700.234; -261.865; -783.076; -822.863
700.500; -144.364; -448.076; -539.864
700.767;  -58.364;   -1.075;   26.136
701.033; -309.664;-1015.075; -963.864
701.299; -201.064; -450.075; -483.865
701.566;  224.136;  950.925;  763.135
701.832;    2.936;  -31.075;  -76.865
702.098; -302.763;-1054.074;-1034.866
702.365; -344.263;-1098.074;-1030.866
702.631; -325.963;-1038.074;-1063.867
702.897; -263.063; -765.074; -676.867
703.163;   69.837;  348.926;  254.133
703.429; -132.063; -256.073; -273.868
703.695; -203.462; -796.073; -792.868
703.961; -109.262; -214.073; -210.868
704.227; -234.562; -630.073; -725.869
704.493;  133.338;  613.927;  510.131
704.759; -188.462; -565.072; -540.870
705.025;  -86.461; -203.072; -194.870
705.291; -204.661; -666.072; -562.870
705.557;  203.239;  719.928;   34.129
705.823; -215.261; -742.072; -694.871
706.089; -140.461; -307.071; -326.871
706.355;  -59.361; -315.071; -244.872
706.620; -275.460; -776.071; -729.872
706.886; -130.360; -309.071; -362.873
707.152; -310.160; -818.070; -973.873
707.418; -358.460;-1153.070;-1186.873
707.683; -204.660; -550.070; -530.874
707.949; -178.660; -547.070; -578.874
708.215; -114.459; -129.070; -207.874
708.480; -176.659; -520.069; -420.875
708.746;  -33.159;   68.931;   28.125
709.011; -173.459; -578.069; -612.876
709.277; -194.159; -538.069; -543.876
709.542; -150.958; -428.069; -387.876
709.808;  -57.358;  -59.068;   89.123
710.073; -193.658; -577.068; -695.877
710.339;  -92.858; -242.068; -228.877
710.604; -258.958; -780.068; -845.878
710.869; -135.158; -277.068; -366.878
711.135; -220.557; -715.067; -628.879
711.400; -193.157; -507.067; -608.879
711.665; -147.757; -404.067; -479.879
711.931; -248.257; -661.067; -677.880
712.196; -271.357; -876.067; -954.880
712.461; -175.857; -402.066; -490.880
712.726; -241.056; -727.066; -771.881
712.991; -270.056; -647.066; -664.881
713.256; -128.356; -350.066; -332.882
713.521; -197.356; -417.065; -381.882
713.787; -175.456; -454.065; -472.882
714.052; -130.255; -214.065; -400.883
714.317; -346.155;-1045.065; -981.883
714.581; -144.555; -374.065; -268.883
714.846; -289.955; -822.064; -888.884
715.111;   18.045;  261.936;  257.116
715.376;  -90.355;  -86.064; -223.885
715.641; -156.154; -365.064; -367.885
715.906; -147.254;   15.936; -551.885
716.171;   19.446;  221.937;  209.114
716.436;  -36.954;  -78.063; -104.886
716.700; -269.354; -818.063; -692.886
716.965; -243.053; -794.063; -807.887
717.230; -160.653; -339.063; -392.887
717.494;  -40.153;  -40.062; -134.888
717.759; -254.953; -784.062; -640.888
718.024;   21.847;  269.938;  250.112
718.288;  124.047;  685.938;  395.111
718.553; -285.752; -803.062; -977.889
718.817; -296.152; -883.061; -899.889
719.082;  -39.852; -115.061; -125.890
719.346; -315.352;-1000.061; -947.890
719.611;  -71.952; -300.061; -255.891
719.875; -237.952; -568.060; -537.891
720.140; -149.951; -453.060; -603.891
720.404; -102.151; -136.060; -249.892
720.668; -123.051; -475.060; -411.892
720.933;   15.349;  146.940;  137.108
721.197; -215.351; -667.059; -600.893
721.461; -315.450; -851.059; -826.893
721.725;   13.350;  -21.059; -250.894
721.990;  -99.650; -284.059; -204.894
722.254;  -67.150;  -26.059; -108.894
722.518; -141.950; -286.058; -442.895
722.782; -221.650; -743.058; -594.895
723.046;  142.451;  614.942;  570.105
723.310;   61.851;  374.942;  210.104
723.574; -202.149; -654.058; -614.896
723.838; -208.249; -576.057; -642.897
724.102;  -89.849; -226.057; -239.897
724.366; -282.749;-1032.057; -978.897
724.630; -245.848; -749.057; -571.898
724.894; -190.848; -722.057; -514.898
725.158;  -67.648;   38.944; -295.898
725.422; -110.948; -394.056; -327.899
725.685; -172.748; -441.056; -349.899
725.949; -202.147; -566.056; -519.900
726.213; -272.047; -732.056; -811.900
726.477; -310.247;-1020.055; -933.900
726.740; -110.147; -274.055; -104.901
727.004; -146.547; -384.055; -510.901
727.268; -195.047; -442.055; -400.901
727.531; -265.346; -961.055; -775.902
727.795; -251.346; -713.054; -673.902
728.059; -202.046; -552.054; -557.903
728.322; -235.146; -841.054; -669.903
728.586; -183.146; -692.054; -701.903
728.849; -254.846; -695.053; -756.904
729.112; -275.145; -812.053; -912.904
729.376; -280.745; -959.053; -905.904
729.639; -176.845; -536.053; -536.905
729.903; -266.145; -733.053; -699.905
730.166; -107.145; -437.052; -399.906
730.429; -110.844; -317.052; -468.906
730.693; -161.144; -355.052; -894.906
730.956;  192.456;  810.948;  651.093
731.219;  -54.244; -310.052; -103.907
731.482; -302.944;-1003.051; -894.907
731.745; -290.244; -794.051; -935.908
732.009;   -7.343;  -30.051;   50.092
732.272; -205.243; -904.051; -771.909
732.535; -108.843; -300.051; -310.909
732.798; -335.443;-1083.050;-1166.909
733.061; -177.843; -430.050; -456.910
733.324;  -11.143;   31.950; -180.910
733.587;   71.158;  290.950;  365.090
733.850; -209.942; -973.049;-1050.911
734.113;  -25.042;   33.951;   32.089
734.376; -137.942; -328.049; -447.912
734.639;  257.558; 1188.951; 1011.088
734.901; -115.741; -180.049; -402.912
735.164; -281.841; -883.048; -837.913
735.427;  -63.141; -166.048; -355.913
735.690;  -93.041; -205.048; -234.913
735.952; -303.541; -923.048; -925.914
736.215; -338.441;-1113.048;-1009.914
736.478; -250.740; -771.047; -774.915
736.740;  -49.040;   33.953;  129.085
737.003; -238.540; -658.047; -672.915
737.266;  195.560;  -94.047;   46.084
737.528; -211.640; -682.047; -660.916
737.791; -167.740; -316.046; -327.916
738.053;   50.761;  465.954;  649.083
738.316; -102.439; -162.046; -136.917
738.578; -248.239; -770.046; -736.918
738.841; -165.239; -382.046; -446.918
739.103; -238.439; -875.045; -777.918
739.365;  -50.238;   79.955;  -69.919
739.628; -270.638; -884.045; -805.919
739.890; -211.138; -758.045; -710.919
740.152; -228.838; -692.044; -754.920
740.414; -179.938; -408.044; -359.920
740.677; -190.438; -785.044; -634.921
740.939; -236.937; -587.044; -487.921
741.201; -157.437; -432.044; -572.921
741.463; -197.137; -689.043; -745.922
741.725;  -73.437;  -21.043; -199.922
741.987;   25.263;  220.957;  116.078
742.249; -282.036; -751.043; -859.923
742.511; -258.736; -703.043; -794.923
742.773; -153.636; -546.042; -546.924
743.035;  123.664;  796.958;  533.076
743.297; -324.336; -963.042;-1013.924
743.559;  -96.636; -278.042; -262.925
743.821; -236.735; -735.042; -744.925
744.083; -118.435;  -44.041; -149.925
744.345; -266.835; -869.041; -892.926
744.607;   -4.235;   75.959;  122.074
744.868; -181.135; -490.041; -554.927
745.130; -317.835; -994.041;-1008.927
745.392;   -4.534;   -1.040;  -44.927
745.653; -144.534; -411.040; -378.928
745.915;  177.466;  896.960;  631.072
746.177;  -86.934;   35.960;  -43.928
746.438; -193.034; -428.040; -543.929
746.700; -290.933; -947.039; -988.929
746.961; -216.433; -659.039; -740.930
747.223;  -91.933; -190.039;  -74.930
747.484; -133.833; -391.039; -471.930
747.746;  -68.533;  -23.038; -106.931
748.007; -228.033; -647.038; -689.931
748.269; -134.532; -468.038; -440.931
748.530; -210.632; -852.038; -638.932
748.791; -169.332; -354.038; -420.932
749.053;   65.668;  286.963;  163.067
749.314; -107.232; -236.037; -169.933
749.575; -286.932; -945.037; -905.933
749.836;  -66.131; -217.037;   86.066
750.098;  -41.131;  -60.037;  -21.934
750.359;   63.269;  414.964;  555.066
750.620;  -58.431; -121.036; -220.935
750.881; -238.831; -585.036; -513.935
751.142; -280.630; -950.036; -938.936
751.403; -244.830; -789.036; -705.936
751.664; -326.830;-1034.035; -999.936
751.925;  -87.030; -175.035; -262.937
752.186; -116.430; -298.035; -278.937
752.447; -188.630; -590.035; -445.937
752.708; -186.029; -532.035; -648.938
752.969; -246.329; -566.034; -576.938
753.230; -242.229; -777.034; -672.939
753.491; -228.329; -650.034; -631.939
753.751;  -10.029;  109.966;   19.061
754.012;   27.071;  258.967;  181.060
754.273;  -85.028; -174.033;  -71.940
754.534; -221.928; -487.033; -580.940
754.794; -299.728; -926.033; -911.941
755.055;  238.972; 1051.967;  881.059
755.316; -201.528; -700.032; -566.942
755.576; -189.427; -606.032; -576.942
755.837; -183.427; -527.032; -695.942
756.097; -193.827; -530.032; -564.943
756.358; -254.627; -725.032; -770.943
756.618; -229.727; -705.031; -641.943
756.879; -109.627; -254.031; -349.944
757.139; -364.426;-1098.031;-1116.944
757.400; -191.726; -538.031; -553.945
757.660; -164.426; -365.031; -401.945
757.920; -121.126; -266.030; -228.945
758.181; -157.826; -468.030; -351.946
758.441; -280.126; -870.030; -809.946
758.701; -123.525; -308.030; -215.946
758.961; -110.525; -220.030; -278.947
759.222; -190.325; -574.029; -502.947
759.482; -222.425; -683.029; -723.948
759.742; -264.725; -706.029; -547.948
760.002;  -64.024;  -83.029; -143.948
760.262;  -61.124;   50.972;  182.051
760.522; -135.124; -498.028; -574.949
760.782; -247.024; -738.028; -612.949
761.042; -186.124; -618.028; -573.950
761.302;  -60.124;   55.972;  -18.950
761.562;  -89.523; -164.027; -154.951
761.822; -236.323; -710.027; -551.951
762.082; -344.123;-1104.027;-1093.951
762.342; -150.923; -328.027; -403.952
762.601; -170.923; -567.027; -506.952
762.861; -144.822; -281.026; -207.952
763.121; -170.722; -406.026; -411.953
763.381; -171.422; -499.026; -485.953
763.640;  -53.422; -139.026; -307.954
763.900; -112.922; -242.026; -203.954
764.160; -114.022; -458.025; -491.954
764.419; -247.021; -726.025; -782.955
764.679; -251.821; -795.025; -726.955
764.939; -106.221; -124.025; -210.955
765.198; -189.421; -608.025; -563.956
765.458; -239.421; -710.024; -612.956
765.717; -205.421; -454.024; -590.957
765.976; -150.720; -428.024; -411.957
766.236; -217.520; -475.024; -610.957
766.495;   -3.420;  260.977;   73.042
766.755; -335.720;-1090.023; -987.958
767.014; -247.420; -594.023; -665.958
767.273; -142.619; -373.023; -397.959
767.533; -160.819; -228.023; -307.959
767.792;  -64.919; -151.022; -188.960
768.051; -157.419; -228.022; -276.960
768.310; -177.719; -546.022; -650.960
768.569;  -61.719; -161.022;    4.039
768.828; -122.118; -285.022; -363.961
769.088; -332.718;-1050.021; -942.961
769.347; -204.518; -755.021; -599.962
769.606; -303.218; -876.021; -857.962
769.865; -337.518;-1016.021;-1033.963
770.124;  -93.418; -411.021; -336.963
770.383; -287.817; -778.020; -910.963
770.641; -192.617; -398.020; -400.964
770.900; -293.317; -953.020; -846.964
771.159; -329.017; -851.020; -951.964
771.418; -293.517; -917.020; -779.965
771.677;  -81.316; -224.019; -293.965
771.936; -260.416; -794.019; -865.966
772.194; -278.816; -465.019; -437.966
772.453; -123.116; -213.019; -391.966
772.712;   71.684;  416.982;  329.033
772.970;  -22.916;   32.982;   63.033
773.229;  -19.315;  -22.018;  102.033
773.488; -261.815; -814.018; -770.968
773.746;   41.785;  296.982;  335.032
774.005;  -20.415;  190.983;  -22.969
774.263;   16.185;  243.983;  177.031
774.522; -188.215; -422.017; -548.969
774.780; -215.014; -484.017; -417.970
775.039; -184.314; -551.017; -531.970
775.297;  -77.714; -135.016; -351.970
775.555; -202.114; -489.016; -612.971
775.814; -234.114; -618.016; -570.971
776.072; -245.913; -749.016; -740.971
776.330; -191.113; -630.016; -520.972
776.589; -228.813; -703.015; -721.972
776.847; -279.013; -645.015; -624.973
777.105; -332.213;-1016.015;-1032.973
777.363; -192.013; -459.015; -454.973
777.621; -254.112; -660.015; -717.974
777.879;  -63.112;  -42.014;   32.026
778.138; -169.112; -554.014; -717.974
778.396; -256.112; -585.014; -526.975
778.654; -327.012;-1015.014; -970.975
778.912; -129.812; -269.014; -371.976
779.170; -260.411; -880.013; -803.976
779.427; -282.911; -922.013; -897.976
779.685; -299.211; -880.013; -832.977
779.943; -240.811; -654.013; -593.977
780.201; -323.511; -964.012; -883.978
780.459; -231.410; -651.012; -610.978
780.717; -144.010; -440.012; -390.978
780.974; -204.510; -449.012; -490.979
781.232; -119.810; -358.012; -338.979
781.490; -222.810; -551.011; -472.979
781.747; -196.310; -555.011; -476.980
782.005;   85.991;  462.989;  254.020
782.263; -313.409; -542.011;-1004.981
782.520; -169.709; -326.011; -501.981
782.778; -315.409;-1013.010;-1051.981
783.035; -360.009; -962.010; -938.982
783.293; -104.009; -248.010; -206.982
783.550; -106.308; -134.010; -198.982
783.808; -241.408; -764.010; -776.983
784.065; -314.608; -745.009; -874.983
784.322;  -54.208;   25.991;  -86.984
784.580; -310.508; -915.009; -771.984
784.837; -160.007; -392.009; -466.984
785.094; -252.707; -783.009; -762.985
785.352; -143.107; -304.008; -404.985
785.609; -307.607; -934.008; -839.985
785.866; -155.907; -345.008; -401.986
786.123; -257.607; -639.008; -583.986
786.380; -192.306; -665.008; -604.987
786.637; -143.206; -225.007; -380.987
786.895; -192.706; -456.007; -543.987
787.152;  -86.006; -135.007; -267.988
787.409;  -48.306; -123.007; -225.988
787.666; -182.405; -299.006; -378.988
787.923; -220.105; -616.006; -695.989
788.179; -203.005; -551.006; -584.989
788.436; -208.705; -585.006; -585.990
788.693;  -68.005;  -92.006;  -87.990
788.950;  -70.005; -125.005; -112.990
789.207; -181.304; -381.005; -372.991
789.464; -120.504; -161.005; -301.991
789.720;  -24.404;  150.995;  110.009
789.977; -349.404;-1003.005; -671.992
790.234;  -57.104;   44.996;  -66.992
790.490; -290.904; -884.004;-1031.993
790.747;  -68.703;  -85.004;   22.007
791.004; -156.303; -426.004; -348.993
791.260; -176.803; -430.004; -560.994
791.517; -257.303; -843.003; -788.994
791.773; -170.903; -379.003; -342.994
792.030; -239.202; -596.003; -660.995
792.286; -249.102; -686.003; -636.995
792.543;  -51.402;  -74.002; -159.995
792.799; -174.702; -584.002; -382.996
793.055; -369.802;-1179.002;-1210.996
793.312; -301.102; -827.002; -816.997
793.568; -194.201; -746.002; -599.997
793.824; -124.101; -226.001; -284.997
794.081; -175.401; -447.001; -508.998
794.337; -177.501; -664.001; -561.998
794.593; -102.101; -319.001; -271.999
794.849; -291.601; -746.001; -772.999
795.105; -156.800; -270.000; -261.999
795.361; -174.000; -490.000; -457.000
795.617; -272.200; -875.000; -945.000
795.873; -187.400; -360.000; -407.000
796.129; -125.000; -368.000; -306.000
796.385;  -88.100; -124.000; -156.000
796.641;  108.100;  412.000;  550.000
796.897; -227.700; -666.000; -635.000
797.153;  110.700;  453.000;  357.000
797.409; -316.000; -785.000; -868.000
797.665; -231.700; -625.000; -732.000
797.921; -276.600; -775.000; -762.000
798.176; -236.200; -744.000; -747.000
798.432; -298.100; -824.000; -596.000
798.688; -349.400;-1174.000;-1078.000
798.943; -111.100; -165.000; -147.000
799.199; -282.400;-1005.000; -959.000
799.455;   82.700;  369.000;  316.000
799.710; -250.600; -813.000; -380.000
799.966; -105.300; -162.000; -160.000
800.221; -200.700; -638.000; -721.000
800.477; -291.800; -743.000; -710.000
800.732; -275.800; -773.000; -800.000
800.988;  -25.500;  205.000;  -19.000
801.243; -121.700; -454.000; -344.000
801.498; -266.600; -814.000; -739.000
801.754;  -82.100; -289.000; -163.000
802.009; -140.900; -257.000; -335.000
802.264; -310.800; -967.000;-1033.000
802.520;  -51.900;  222.000;   -3.000
802.775; -176.500; -524.000; -359.000
803.030;   52.500;  395.000;  356.000
803.285; -295.300; -840.000; -903.000
803.540; -248.500; -686.000; -699.000
803.795; -208.100; -648.000; -583.000
804.051; -155.000; -279.000; -346.000
804.306;    9.500;  168.000;  128.000
804.561;   64.500;  451.000;  362.000
804.816;  229.400;  714.000;  861.000
805.071; -118.700; -185.000; -280.000
805.325; -142.200; -257.000; -427.000
805.580; -329.700; -841.000; -877.000
805.835; -113.300; -204.000; -297.000
806.090; -257.600; -760.000; -676.000
806.345; -107.200; -344.000; -264.000
806.600; -255.000; -549.000; -632.000
806.854; -174.200; -408.000; -538.000
807.109; -152.200; -493.000; -577.000
807.364; -108.900; -407.000; -328.000
807.618; -198.400; -415.000; -381.000
807.873; -209.100; -470.000; -494.000
808.128; -128.000; -257.000; -518.000
808.382; -113.300; -224.000; -332.000
808.637; -189.500; -440.000; -511.000
808.891; -110.300; -257.000; -180.000
809.146; -300.800; -902.000; -794.000
809.400; -308.300; -848.000; -923.000
809.654; -223.900; -779.000; -551.000
809.909; -288.300; -841.000; -927.000
810.163; -263.000; -813.000; -651.000
810.418; -299.300; -940.000; -861.000
810.672; -252.600; -685.000; -690.000
810.926; -309.000; -993.000; -973.000
811.180; -214.300; -439.000; -372.000
811.434;   14.100;  240.000;  135.000
811.689; -139.800; -231.000; -365.000
811.943; -328.600; -936.000; -953.000
812.197; -289.500; -893.000; -671.000
812.451; -187.500; -379.000; -514.000
812.705; -311.200; -809.000; -619.000
812.959; -234.200; -263.000; -388.000
813.213; -100.000; -283.000; -209.000
813.467;   90.200;  470.000;  253.000
813.721; -291.100; -764.000; -792.000
813.975; -248.400; -826.000; -877.000
814.229;    6.600;  430.000;  353.000
814.482; -227.000; -517.000; -566.000
814.736; -282.100; -766.000; -744.000
814.990; -291.300; -779.000; -872.000
815.244; -103.800; -228.000; -285.000
815.497; -210.600; -636.000; -601.000
815.751;  -63.300; -141.000;   82.000
816.005; -182.500; -470.000; -586.000
816.258; -186.100; -510.000; -363.000
816.512; -248.900; -693.000; -610.000
816.766;    4.200;  121.000;  157.000
817.019;    0.200;  148.000;  149.000
817.273; -340.000;-1000.000; -802.000
817.526;  -67.800; -206.000; -173.000
817.779; -336.600;-1049.000; -960.000
818.033; -271.600; -693.000; -807.000
818.286; -296.800; -725.000; -792.000
818.540; -213.000; -403.000; -403.000
818.793; -175.100; -402.000; -489.000
819.046; -218.300; -582.000; -520.000
819.299;  -97.500; -157.000; -166.000
819.553; -231.700; -552.000; -592.000
819.806; -364.000;-1016.000; -838.000
820.059; -111.400; -334.000; -354.000
820.312;  -19.100;  152.000;  185.000
820.565;  -21.000;  110.000;  -27.000
820.818;  -96.200;  -59.000; -173.000
821.071; -355.600;-1041.000; -957.000
821.324; -237.000; -536.000; -540.000
821.577; -181.600; -457.000; -483.000
821.830; -132.300; -270.000; -172.000
822.083; -235.900; -733.000; -288.000
822.336; -106.100; -261.000; -167.000
822.589; -251.000; -805.000; -688.000
822.842; -298.300; -875.000; -770.000
823.094; -339.500;-1076.000;-1114.000
823.347; -283.600; -925.000; -729.000
823.600;   46.300;  402.000;  187.000
823.853; -131.000; -311.000; -267.000
824.105; -177.500; -331.000; -575.000
824.358; -261.500; -617.000; -716.000
824.611;   -1.000;  234.000;   40.000
824.863; -217.100; -612.000; -591.000
825.116;  -51.100;  -33.000;   27.000
825.368; -186.100; -366.000; -372.000
825.621;  -41.600; -186.000; -240.000
825.873; -258.400; -704.000; -737.000
826.126; -262.100; -669.000; -641.000
826.378; -190.200; -389.000; -505.000
826.630; -325.400; -890.000; -898.000
826.883; -282.800; -754.000; -693.000
827.135; -119.500; -279.000; -270.000
827.387; -288.100; -893.000; -839.000
827.639;  -63.800;  -86.000;   32.000
827.892; -270.300; -742.000; -582.000
828.144; -290.800; -848.000; -804.000
828.396;  -73.200;  104.000;  -80.000
828.648; -141.500; -440.000; -333.000
828.900; -310.800; -702.000; -795.000
829.152; -242.500; -684.000; -683.000
829.404; -150.300; -215.000; -267.000
829.656;   31.400;  321.000;  214.000
829.908;  -10.200;  393.000;  229.000
830.160; -304.700;-1064.000;-1047.000
830.412; -190.000; -481.000; -430.000
830.664; -239.300; -557.000; -665.000
830.916; -156.300; -268.000; -206.000
831.167; -315.800;-1073.000; -951.000
831.419; -224.300; -623.000; -566.000
831.671; -247.700; -764.000; -809.000
831.923; -162.600; -311.000; -447.000
832.174; -115.100; -273.000; -331.000
832.426; -214.100; -493.000; -582.000
832.678; -360.400;-1043.000;-1091.000
832.929; -362.500; -947.000; -935.000
833.181; -211.900; -575.000; -677.000
833.432;  -93.000;  -59.000; -186.000
833.684;   13.600;  112.000;  -27.000
833.935; -227.000; -610.000; -566.000
834.187; -261.700; -829.000; -823.000
834.438;  -68.800;  -58.000;  -25.000
834.689;  -61.200; -255.000; -123.000
834.941; -122.600; -343.000; -244.000
835.192; -194.900; -590.000; -533.000
835.443; -259.500; -419.000; -506.000
835.695;    3.500;  138.000;  -16.000
835.946; -207.600; -608.000; -378.000
836.197; -225.400; -599.000; -622.000
836.448; -210.800; -528.000; -395.000
836.699; -126.500; -253.000; -341.000
836.950;  -38.200;   72.000;    7.000
837.201; -310.300;-1003.000; -987.000
837.452; -156.400; -356.000; -170.000
837.703; -281.700; -791.000; -737.000
837.954; -192.800; -205.000; -365.000
838.205; -334.100;-1029.000;-1008.000
838.456; -119.800; -196.000; -282.000
838.707; -164.900; -423.000; -519.000
838.958; -254.000; -634.000; -647.000
839.209;  -28.000;   18.000;   40.000
839.460; -139.700; -439.000; -201.000
839.710; -143.200; -135.000; -297.000
839.961;  110.800;  730.000;  612.000
840.212; -194.900; -382.000; -497.000
840.462; -174.300; -328.000; -277.000
840.713; -203.000; -571.000; -536.000
840.964;  -69.500;  -62.000; -143.000
841.214; -217.200; -384.000; -624.000
841.465;  -83.700; -214.000; -141.000
841.715; -170.000; -417.000; -380.000
841.966; -263.700; -746.000; -685.000
842.216; -179.400; -330.000; -431.000
842.466; -139.000; -169.000; -313.000
842.717; -335.600; -964.000; -952.000
842.967; -230.900; -635.000; -641.000
843.217;  -70.000;   20.000;   28.000
843.468;  -73.300; -104.000; -132.000
843.718; -256.400; -718.000; -726.000
843.968; -301.700; -837.000; -765.000
844.218; -126.400; -315.000; -262.000
844.469; -266.300; -577.000; -561.000
844.719; -202.700; -537.000; -682.000
844.969; -222.200; -550.000; -580.000
845.219; -302.700; -814.000; -862.000
845.469; -160.800; -392.000; -342.000
845.719; -297.100; -792.000; -884.000
845.969;  -26.500;  119.000;  174.000
846.219; -241.100; -738.000; -720.000
846.469;   48.200;  464.000;  432.000
846.718;  -80.000; -115.000;   31.000
846.968; -314.100; -827.000; -827.000
847.218; -101.800; -224.000; -371.000
847.468; -248.900; -586.000; -555.000
847.718; -287.800; -827.000; -798.000
847.967; -298.200; -826.000; -915.000
848.217; -158.400; -449.000; -569.000
848.467; -157.300; -405.000; -376.000
848.716; -257.900; -708.000; -725.000
848.966; -154.700; -372.000; -358.000
849.215; -175.600; -428.000; -419.000
849.465; -280.900; -785.000; -615.000
849.714; -383.400;-1132.000;-1150.000
849.964; -213.900; -551.000; -613.000
850.213; -147.700; -393.000; -355.000
850.463;   -4.000;  137.000;  340.000
850.712; -195.500; -542.000; -567.000
850.961; -262.500; -739.000; -678.000
851.211; -212.000; -513.000; -504.000
851.460; -238.000; -635.000; -650.000
851.709;  -15.600;  -25.000;   18.000
851.958; -276.500; -912.000; -750.000
852.208; -297.000; -859.000; -879.000
852.457; -124.200; -181.000;  -13.000
852.706; -284.100; -791.000; -823.000
852.955; -230.500; -507.000; -528.000
853.204; -185.600; -521.000; -461.000
853.453; -216.200; -418.000; -458.000
853.702; -270.400; -660.000; -750.000
853.951; -212.100; -532.000; -520.000
854.200; -212.800; -613.000; -562.000
854.449; -252.700; -695.000; -661.000
854.698; -141.600; -340.000; -279.000
854.946; -110.600; -181.000; -284.000
855.195; -290.000; -843.000; -868.000
855.444; -158.700; -395.000; -420.000
855.693; -197.100; -345.000; -432.000
855.941; -225.000; -387.000; -516.000
856.190;  -90.500; -256.000; -382.000
856.439; -248.400; -652.000; -703.000
856.687;  -75.500;  -99.000;  -72.000
856.936; -194.900; -621.000; -323.000
857.184; -331.200;-1067.000;-1020.000
857.433; -188.500; -423.000; -512.000
857.681; -304.100; -989.000; -953.000
857.930; -133.200; -282.000; -433.000
858.178; -281.300; -856.000; -929.000
858.427; -280.300; -802.000; -781.000
858.675; -191.700; -377.000; -544.000
858.923; -203.100; -527.000; -819.000
859.172; -354.400;-1094.000;-1070.000
859.420; -152.100; -339.000; -239.000
859.668; -227.300; -624.000; -628.000
859.916;  -15.300;  109.000;  115.000
860.164; -231.400; -699.000; -603.000
860.413; -305.600; -878.000; -696.000
860.661; -235.800; -709.000; -577.000
860.909; -153.100; -339.000; -325.000
861.157; -120.000; -277.000; -444.000
861.405; -230.200; -534.000; -670.000
861.653;   60.300;  310.000;  310.000
861.901; -228.900; -543.000; -613.000
862.149; -304.200; -801.000; -824.000
862.396; -138.200; -297.000; -187.000
862.644; -140.700; -368.000; -347.000
862.892;  -21.200;   98.000;  138.000
863.140; -159.100; -549.000; -530.000
863.388; -279.800; -815.000; -759.000
863.635; -201.500; -642.000; -601.000
863.883;   14.200;  231.000;  190.000
864.131; -152.200; -288.000; -357.000
864.378; -276.000; -675.000; -540.000
864.626; -155.200; -347.000; -415.000
864.873; -232.000; -556.000; -505.000
865.121; -255.100; -714.000; -799.000
865.368;  -97.500; -173.000;   75.000
865.616;  -63.800;  -33.000;  -40.000
865.863; -202.500; -462.000; -506.000
866.111; -319.200; -795.000; -824.000
866.358; -166.700; -426.000; -420.000
866.605;  -86.300;  -64.000; -804.000
866.853; -240.400; -621.000; -537.000
867.100; -290.300; -728.000; -775.000
867.347; -267.300; -672.000; -611.000
867.594; -251.900; -740.000; -714.000
867.841;  -33.100;   97.000;   17.000
868.089; -295.900; -746.000; -698.000
868.336; -196.800; -477.000; -420.000
868.583; -226.200; -637.000; -741.000
868.830;  -50.900; -131.000; -170.000
869.077; -306.800; -859.000; -787.000
869.324; -229.100; -502.000; -458.000
869.571; -206.100; -398.000; -430.000
869.818; -189.300; -485.000; -439.000
870.065; -171.100; -439.000; -513.000
870.311; -180.400; -456.000; -542.000
870.558; -137.600; -332.000; -311.000
870.805; -123.500; -320.000; -384.000
871.052; -178.700; -494.000; -369.000
871.298; -152.600; -204.000; -131.000
871.545;  -83.800; -151.000; -185.000
871.792; -144.500; -173.000; -222.000
872.038;  -86.700;   43.000; -126.000
872.285; -231.000; -496.000; -387.000
872.532; -147.500; -357.000; -387.000
872.778;   54.400;  556.000;  403.000
873.025; -113.400; -384.000; -359.000
873.271;   90.600;  501.000;  578.000
873.517;  -57.300; -133.000; -209.000
873.764;  -94.100; -193.000;  -80.000
874.010;  -95.000; -143.000; -230.000
874.257;  -58.800;  123.000;   90.000
874.503; -190.500; -579.000; -479.000
874.749;  -90.300;   31.000;  275.000
874.995;  -83.900;  -80.000;  -20.000
875.242; -246.700; -540.000; -478.000
875.488; -170.100; -414.000; -439.000
875.734; -131.700; -106.000; -234.000
875.980; -378.600; -872.000;-1032.000
876.226; -123.200; -157.000; -255.000
876.472;   19.600;  343.000;  237.000
876.718;  -61.600;  184.000;  158.000
876.964;   -6.000;   56.000;   55.000
877.210; -263.000; -547.000; -677.000
877.456; -205.000; -630.000; -557.000
877.702; -335.800; -821.000; -832.000
877.948; -201.700; -377.000; -497.000
878.193;   41.100;  361.000;  255.000
878.439; -199.100; -487.000; -472.000
878.685; -172.700; -272.000; -343.000
878.931; -201.800; -618.000; -676.000
879.176; -122.500; -201.000; -201.000
879.422; -331.700; -933.000; -820.000
879.668;  -43.100;   10.000;   79.000
879.913;  -49.700;   53.000;  137.000
880.159; -109.900; -112.000;  -17.000
880.404;  -75.200; -152.000; -162.000
880.650;  -27.800;   91.000;  141.000
880.895; -275.300; -670.000; -710.000
881.141; -216.000; -454.000; -428.000
881.386; -224.000; -503.000; -658.000
881.631; -154.700; -311.000; -166.000
881.877;  -31.400;  112.000;  -13.000
882.122; -226.800; -684.000; -600.000
882.367; -111.500; -136.000; -186.000
882.612; -101.600;  -80.000; -176.000
882.858; -281.300; -877.000; -823.000
883.103; -164.000; -297.000; -267.000
883.348; -222.200; -759.000; -852.000
883.593; -297.500; -677.000; -602.000
883.838; -107.800; -311.000;  -24.000
884.083;    5.600;  353.000;  288.000
884.328; -189.200; -564.000; -545.000
884.573; -132.000; -196.000; -143.000
884.818; -226.100; -694.000; -531.000
885.063; -177.300; -348.000; -315.000
885.308; -183.900; -475.000; -398.000
885.553;   -5.000;  245.000;  325.000
885.797; -205.800; -545.000; -615.000
886.042;  -74.900;    8.000;   58.000
886.287; -117.500; -253.000; -211.000
886.532;  -37.000;   26.000;  204.000
886.776; -127.100; -407.000; -525.000
887.021; -247.000; -621.000; -574.000
887.265; -245.500; -685.000; -689.000
887.510; -244.200; -557.000; -496.000
887.755; -115.700; -194.000; -164.000
887.999; -231.400; -552.000; -575.000
888.244;  -77.400;  -58.000;  161.000
888.488;   34.100;  371.000;  393.000
888.732; -218.700; -368.000; -520.000
888.977; -252.200; -622.000; -567.000
889.221; -278.100; -683.000; -659.000
889.465; -233.200; -422.000; -566.000
889.710;  -90.200;  -56.000; -299.000
889.954;   37.400;  579.000;  467.000
890.198; -228.600; -584.000; -707.000
890.442; -294.900; -716.000; -712.000
890.687; -291.000; -800.000; -753.000
890.931; -134.700; -273.000; -210.000
891.175; -195.800; -502.000; -500.000
891.419; -101.200; -105.000; -110.000
891.663;  -97.400; -239.000; -112.000
891.907; -267.400; -801.000; -545.000
892.151; -280.300; -920.000; -815.000
892.395; -199.300; -274.000; -387.000
892.638;   17.200;  408.000;  291.000
892.882; -336.700; -780.000; -867.000
893.126;  117.400;  758.000;  558.000
893.370; -134.500; -167.000; -168.000
893.614; -237.500; -714.000; -715.000
893.857; -174.400; -183.000; -197.000
894.101; -215.400; -527.000; -631.000
894.345;  -56.800;  300.000;  150.000
894.588;  110.500;  569.000;  380.000
894.832; -118.100; -178.000;  -84.000
895.075; -108.300;   15.000;  -92.000
895.319; -251.300; -552.000; -420.000
895.563; -189.900; -413.000; -353.000
895.806; -277.100; -628.000; -741.000
896.049; -173.100; -576.000; -368.000
896.293;   26.700;  527.000;  405.000
896.536; -219.800; -465.000; -468.000
896.779; -115.600; -149.000;   -1.000
897.023; -281.200; -751.000; -714.000
897.266;  -12.800;  325.000;  269.000
897.509; -288.800; -900.000; -901.000
897.752;  -64.500;  149.000;  171.000
897.996; -330.500; -972.000; -864.000
898.239;  -41.200;  168.000;  102.000
898.482; -202.600; -431.000; -453.000
898.725;  -73.700;  101.000;   53.000
898.968; -275.900; -609.000; -744.000
899.211; -237.600; -513.000; -361.000
899.454; -220.200; -633.000; -539.000
899.697;  -84.500;   90.000;  -43.000
899.940; -289.200; -761.000; -757.000
900.182; -203.300; -335.000; -405.000
900.425;  -85.200; -150.000; -298.000
900.668;   19.200;  491.000;  350.000
900.911; -133.100; -292.000; -345.000
901.154;  -52.800;  141.000;   -3.000
901.396; -229.100; -407.000; -412.000
901.639; -263.400; -430.000; -496.000
901.882; -307.200; -790.000; -809.000
902.124; -124.300;  -29.000; -143.000
902.367; -180.600; -315.000; -361.000
902.609; -231.200; -476.000; -453.000
902.852; -111.500; -108.000; -260.000
903.094; -219.700; -458.000; -337.000
903.337;  -38.000;  -26.000;   53.000
903.579; -181.200; -228.000; -441.000
903.821; -264.200; -597.000; -744.000
904.064;  -97.600;   85.000;  127.000
904.306; -111.200; -126.000; -166.000
904.548; -187.200; -152.000; -366.000
904.790; -144.000; -195.000; -340.000
905.033; -256.200; -625.000; -577.000
905.275; -242.500; -513.000; -524.000
905.517;   -8.300;  468.000;  256.000
905.759; -287.600; -667.000; -761.000
906.001; -219.800; -322.000; -369.000
906.243; -185.900; -162.000; -224.000
906.485; -176.600; -265.000; -207.000
906.727; -225.400; -499.000; -542.000
906.969; -140.100;  -30.000; -135.000
907.211; -166.900; -316.000; -382.000
907.453; -130.000; -188.000; -237.000
907.695; -149.100; -158.000; -385.000
907.936;   95.800;  818.000;  706.000
908.178;  -78.100;   92.000; -135.000
908.420; -142.100; -111.000; -162.000
908.662; -246.700; -633.000; -682.000
908.903; -194.100; -208.000; -123.000
909.145; -106.800; -240.000; -305.000
909.386;   -5.800;  315.000;  280.000
909.628;   50.900;  363.000;  397.000
909.870;  -68.200;   29.000;  264.000
910.111; -346.700; -809.000; -949.000
910.353; -187.000; -123.000; -161.000
910.594; -226.800; -574.000; -606.000
910.835; -212.700; -265.000; -326.000
911.077; -243.700; -503.000; -604.000
911.318; -221.700; -505.000; -471.000
911.559; -289.900; -577.000; -880.000
911.801; -171.200; -284.000; -280.000
912.042; -114.300;  -50.000; -159.000
912.283;    1.800;  404.000;  371.000
912.524; -196.400; -396.000; -457.000
912.765; -166.000; -193.000;   79.000
913.006; -195.100; -307.000; -338.000
913.247; -221.900; -270.000; -290.000
913.488; -111.600;  -43.000;   30.000
913.729; -238.800; -373.000; -373.000
913.970; -162.600;  -96.000; -292.000
914.211; -121.600; -160.000; -198.000
914.452; -122.600; -118.000;  -11.000
914.693;   46.500;  510.000;  592.000
914.934;   86.900;  510.000;  440.000
915.175; -102.600;   53.000;  -95.000
915.415;  -94.000; -137.000;   27.000
915.656; -120.500;  -28.000;  192.000
915.897; -141.300; -252.000;  -82.000
916.137; -141.800;   74.000;   -9.000
916.378; -216.200; -573.000; -517.000
916.619; -173.900; -159.000;  -63.000
916.859;  -24.300;  303.000;  330.000
917.100;  313.100; 1655.000; 1070.000
917.340;  129.500;  930.000;  728.000
917.581;   73.500;  965.000;  789.000
917.821; -173.100; -171.000;  143.000
918.061; -157.300; -199.000;  -72.000
918.302; -159.600; -152.000; -211.000
918.542; -138.300;  -22.000;    3.000
918.782;  -24.500;  369.000;  377.000
919.023;  -12.500;  360.000;  427.000
919.263; 2131.000; 8131.000;  202.000
919.503; -151.600; -137.000;  -54.000
919.743;   20.900;  390.000;  266.000
919.983; -140.100; -134.000;  -26.000
920.223; -110.400;  135.000;   14.000
920.463;   23.400;  631.000;  554.000
920.703;  -68.800;   84.000;   39.000
920.943; -157.600; -110.000;   90.000
921.183; -225.200; -414.000; -405.000
921.423;    2.600;  307.000;  546.000
921.663; -153.200; -174.000; -257.000
921.903;  -55.800;  237.000;  173.000
922.143;  -23.000;  372.000;  389.000
922.383;  -94.300;  158.000;  115.000
922.622; -128.700; -120.000;  -15.000
922.862;   54.400;  796.000;  785.000
923.102;  -98.900;  -51.000;   33.000
923.341; -124.800;   59.000;   74.000
923.581;  -20.200;  450.000;  360.000
923.821;  -56.000;  301.000;  398.000
924.060;    1.300;  351.000;  193.000
924.300; -146.700;  -16.000; -128.000
924.539;   -0.800;  584.000;  473.000
924.779;   82.900;  812.000;  597.000
925.018;  -69.100;  247.000;  353.000
925.257;   16.300;  595.000;  666.000
925.497;   -9.700;  447.000;  412.000
925.736; -104.900;  -35.000;  102.000
925.975;   71.200;  687.000;  669.000
926.214;   77.000;  907.000;  850.000
926.454;  104.900;  706.000;  757.000
926.693;  -33.800;  419.000;  543.000
926.932;  135.700; 1021.000;  825.000
927.171;  214.400; 1107.000; 1044.000
927.410;  217.100; 1144.000;  967.000
927.649;   99.900;  924.000;  742.000
927.888;   38.200;  590.000;  564.000
928.127;   14.000;  680.000;  678.000
928.366;   76.500;  842.000;  826.000
928.605;   91.100;  831.000;  737.000
928.844;  255.700; 1451.000; 1393.000
929.083;    4.900;  770.000;  613.000
929.321;  187.800; 1335.000; 1359.000
929.560;  204.500; 1158.000; 1122.000
929.799;   -6.900;  574.000;  475.000
930.038;  229.800; 1025.000; 1394.000
930.276;   -5.500;  334.000;  397.000
930.515;   46.700;  827.000;  681.000
930.753;   36.300;  614.000;  589.000
930.992;    5.200;  664.000;  717.000
931.230;   60.200;  847.000;  847.000
931.469;  406.100; 2162.000;  892.000
931.707;  207.100;  840.000;  751.000
931.946;  190.600; 1278.000; 1344.000
932.184;  157.200; 1437.000; 1175.000
932.423;  131.700; 1265.000;  963.000
932.661;  219.000; 1296.000; 1428.000
932.899;   57.600;  987.000;  821.000
933.137;   38.300;  754.000;  564.000
933.376;  186.100; 1664.000; 1335.000
933.614;  294.100; 1759.000; 1196.000
933.852;   94.700; 1357.000; 1171.000
934.090;  272.600; 1722.000; 1747.000
934.328;  205.400; 1252.000; 1457.000
934.566;  191.400; 1431.000; 1110.000
934.804;  122.800; 1263.000; 1309.000
935.042;  271.300; 1861.000; 1850.000
935.280;  334.400; 2088.000; 2063.000
935.518;  396.100; 2113.000; 2007.000
935.756;  420.200; 2481.000; 2316.000
935.994;  254.200; 1808.000; 1751.000
936.231;  565.500; 2890.000; 2950.000
936.469;  381.600; 2367.000; 2378.000
936.707;  388.200; 2220.000; 2167.000
936.945;  521.000; 2825.000; 2882.000
937.182;  496.600; 2679.000; 2741.000
937.420;  658.200; 3602.000; 3031.000
937.657;  688.600; 3365.000; 3478.000
937.895;  675.300; 3331.000; 3488.000
938.133;  719.600; 3540.000; 3528.000
938.370;  729.500; 3896.000; 4191.000
938.607;  873.700; 4488.000; 4205.000
938.845; 1191.600; 5587.000; 5549.000
939.082; 1090.400; 5387.000; 5177.000
939.320; 1132.800; 5799.000; 5728.000
939.557; 1362.700; 6549.000; 6491.000
939.794; 1572.600; 7285.000; 7097.000
940.031; 1717.600; 8421.000; 8368.000
940.269; 2004.200; 9552.000; 9107.000
940.506; 2306.000;10901.000;10507.000

