
Integration time [ms]: 100.000
Averaging Nr. [scans]: 40
Smoothing Nr. [pixels]: 0
Data measured with spectrometer [name]: 2101013U2
Wave   ;Sample   ;Dark     ;Reference
[nm]   ;[counts] ;[counts] ;[counts] 

394.013;   64.201; -450.257; -315.536
394.305;  226.499; -461.258; -419.536
394.596; 1001.623; -676.269; -527.514
394.887; 2406.939; -796.268; -654.518
395.178;  947.794;  145.736;   11.476
395.470;   95.330; -210.263; -356.526
395.761;  234.604;  305.734;  394.479
396.052;  350.776; -545.284; -306.489
396.343;  345.794; -557.276; -454.503
396.634;  163.189; -200.279; -290.497
396.926;  185.362; -618.268; -565.517
397.217;  158.823;   11.725;  -17.504
397.508;   75.264; -366.273; -154.507
397.799;   83.114; -555.279; -571.497
398.090;   15.383; -973.280; -902.495
398.381;  122.878;   11.708;  -11.473
398.672;   12.804; -585.292; -742.473
398.963;   80.220; -348.279; -373.498
399.254;  137.763;   54.709; -209.475
399.545;   -1.749;-1017.266; -883.520
399.836;   90.033; -407.277; -343.501
400.127;   80.130; -205.295; -209.468
400.418;   81.884; -423.274; -392.506
400.709;   92.221; -359.281; -333.493
401.000;   58.692; -268.291; -309.476
401.290;  129.768;  225.698;  115.545
401.581;   74.809; -166.286; -228.485
401.872;   45.477; -542.298; -486.462
402.163;   65.772; -313.296; -252.467
402.454;  114.038; -123.291; -163.475
402.744;  109.739; -844.297; -813.465
403.035;  568.319; -226.293;  -86.471
403.326;  744.007; -366.292; -384.474
403.617;  475.347;  204.701;  165.539
403.907;  253.906; -593.283; -679.490
404.198; 2198.948; -545.307; -599.446
404.489; 5722.236; -618.283; -588.491
404.779; 2104.171; -618.302; -660.456
405.070;  250.250;  -67.304; -174.451
405.360;  333.346; -259.293; -238.472
405.651;  366.407;  125.699;   98.542
405.942;  230.304;  209.714;  127.516
406.232;  378.469; -432.285; -413.487
406.523;  629.614;  641.706;  758.530
406.813;  136.957; -579.286; -644.484
407.104;  432.052;  261.708;  144.527
407.394;  271.823; -604.299; -591.462
407.685;  180.818;  336.715;  222.513
407.975;   82.510; -400.283; -382.490
408.265;  148.102; -134.289; -190.478
408.556;   84.910; -472.291; -459.475
408.846;  169.790;  474.706;  429.530
409.137;   98.336;   -1.288; -216.480
409.427;   67.818; -193.285; -271.487
409.717;   46.592; -776.273; -692.508
410.007;  172.812;    4.715; -170.486
410.298;  115.732; -360.295; -342.469
410.588;   89.666; -495.285; -510.486
410.878;   58.646; -792.287; -873.482
411.168;  145.455; -481.298; -478.463
411.459;  125.505; -295.283; -242.489
411.749;   70.234; -609.292; -507.474
412.039;   75.309; -755.289; -386.480
412.329;  222.301;   40.722;  132.501
412.619;  216.257;  -62.286; -148.485
412.909;  399.705;  639.711;  594.521
413.199;  388.258; -130.280; -251.495
413.490;  468.096;  521.710;  352.523
413.780;  151.462;-1013.279; -913.496
414.070;  349.970;  -46.276;  235.497
414.360;  430.898; -729.278; -666.498
414.650;  433.918; -726.288; -688.482
414.940;  506.412; -538.280; -441.496
415.230;  887.390;   50.712;   74.519
415.520; 5678.822;  155.730;   66.486
415.809;22098.120; -305.281; -125.493
416.099;17210.961; -388.277; -229.501
416.389; 4582.131;  435.726;  236.494
416.679; 2701.159;   91.738;   85.473
416.969;  506.601; -527.287; -503.483
417.259;  570.264;  341.721;  171.503
417.549;  689.819;  522.718;  318.508
417.838; 1522.989; -205.268; -147.518
418.128; 4858.626;  650.710;  492.522
418.418; 4102.848; -491.272; -579.509
418.708; 2766.082;    9.726;  -48.506
418.997;10246.427; -474.275; -480.505
419.287;10714.388; -733.273; -790.507
419.577; 9804.754; -160.283; -123.489
419.866;32742.084; -588.277; -498.501
420.156;34623.668; -242.270;  -55.513
420.446; 6536.801; -112.263;  -26.526
420.735; 1001.138; -376.271; -446.512
421.025;  890.372; 1830.722;  315.502
421.314;  851.911; -203.271; -226.512
421.604; 2016.557;   89.732;  233.484
421.893; 1187.182; -705.271; -602.511
422.183;  249.251; -487.263; -461.526
422.472;  390.309;  -36.271; -107.511
422.762;  490.856; -416.266; -379.521
423.051;  272.621; -916.276; -916.503
423.341;  346.665; -491.273; -439.507
423.630;  463.012; -121.265;   15.477
423.919;  400.902;   58.725;   49.495
424.209;  386.632;  -31.263;   56.473
424.498;  477.186;   68.732;  161.483
424.787; 1023.218; -535.267; -601.518
425.077; 3224.761;   34.735;   29.478
425.366; 5029.387; -734.262; -744.528
425.655; 9069.491;  639.727;  259.493
425.945;17623.288; -313.247; -268.554
426.234;10030.234;  117.741;  300.467
426.523; 4694.639;  -86.259; -350.534
426.812; 6441.927;  107.734;  159.480
427.101; 9261.653; -127.269; -323.515
427.390;12098.747;  -55.270;  -86.514
427.680; 3329.934; -624.257; -411.538
427.969;  559.744; -330.255; -301.540
428.258;  345.150; -385.257; -477.536
428.547;  602.827;  449.728;  397.490
428.836; 1528.160; -421.253; -398.543
429.125; 2309.841; -199.259;  -72.534
429.414;  928.582; -330.251; -294.548
429.703; 2866.457; -231.251; -213.548
429.992; 8393.210; -938.250; -828.549
430.281; 5581.744; -397.264; -331.524
430.570;  623.423;  -21.252;   32.454
430.859;  684.314;  279.741;  352.466
431.148;  508.384;  636.752;  631.446
431.437;  339.422;  391.748;  367.454
431.725;  158.102; -544.257; -481.536
432.014;  135.442; -845.253; -756.545
432.303;  431.233; -149.239; -105.569
432.592;  733.001; -460.263; -178.525
432.881; 1009.210; -601.248; -437.554
433.169; 5396.095; -343.255;  -61.540
433.458;11060.891;  445.765;  540.424
433.747; 4859.243; -397.261; -289.529
434.036; 1063.209; -275.242; -280.564
434.324; 2020.423; -395.249; -379.551
434.613; 3386.928;   40.757;  159.437
434.902; 1264.848;  333.760;  439.433
435.190;  836.057;   75.761;  295.431
435.479;  476.385;  -52.245;   83.441
435.767;  155.293; -411.244; -427.561
436.056;  286.030; -340.242; -294.563
436.345;  379.150; -372.240; -223.568
436.633;  395.468;   60.750;  383.450
436.922;  345.328;  208.760;  414.432
437.210;  947.231; -194.236;    1.426
437.499; 3054.039; -583.235; -432.576
437.787; 3342.805; -339.236;  -10.574
438.075;  765.137;   56.761;  162.430
438.364; 1039.389;  -44.238;  250.429
438.652;  635.816; -286.226; -138.592
438.941;  198.857;    3.770;  269.415
439.229;   34.420; -665.252; -466.545
439.517;   51.472; -160.234;  -85.577
439.806;   16.032; -501.225; -290.595
440.094;  224.979;  377.766;  650.421
440.382;  290.208; -653.233; -302.580
440.670;  297.913; -361.235; -285.576
440.959;   42.674; -347.223; -170.599
441.247;  112.193; -151.229; -109.587
441.535;  153.795; -266.235;   31.423
441.823;   79.252; -497.234; -305.578
442.111;  234.272;  173.771;  327.412
442.400;  740.684; -628.245; -335.559
442.688; 2074.879; -111.234; -620.579
442.976; 1579.884; -786.213; -450.617
443.264;  158.363; -324.224; -364.597
443.552;  139.043; -258.226;   51.408
443.840;  205.244;  602.765;  876.423
444.128;  132.532;  265.767;  269.420
444.416;   20.624; -694.228; -312.588
444.704;   43.178; -465.219;  -92.605
444.992;   94.295;   -0.226;  240.407
445.280;   87.757; -517.230;  -94.585
445.568;   80.538; -694.212; -396.618
445.856;  476.462; -174.221;  357.398
446.143; 1083.249;  -54.220;   -7.604
446.431;  894.328;  -25.228;  625.411
446.719;  311.571;  489.783;  675.391
447.007;  223.877;  481.769;  705.416
447.295;  194.296;  597.777;  871.402
447.583;  108.465; -464.229;  -34.587
447.870;  205.284; -434.221; -202.601
448.158;  525.081; -104.230;  129.415
448.446;  432.250; -800.219; -338.604
448.733;  194.190;   13.776;  269.403
449.021;  312.712;   60.788;  341.382
449.309;  209.802; -296.210;  208.379
449.596;  235.543;  128.783;   59.392
449.884;  177.028; -571.222; -325.600
450.172;  137.858; -756.227; -406.590
450.459;  411.143;  645.786;  780.387
450.747; 1997.891; -411.218; -147.608
451.034; 6447.779;  493.772;  889.411
451.322; 5359.671; -413.214; -170.614
451.609;  493.966;  292.777;  508.403
451.897;  505.663; -550.203; -183.634
452.184; 1591.346; -622.223; -400.598
452.472; 1533.923;   97.792;  269.375
452.759;  371.526;  512.781;  864.395
453.047;  153.460; -407.212; -125.617
453.334;  109.483; -732.219; -216.606
453.621;  113.648; -438.214; -161.615
453.909;  143.981;   13.796;  384.368
454.196;  134.125; -299.199; -123.641
454.483;  230.801;  317.798;  540.364
454.771;  168.626; -215.208;  196.374
455.058;   54.929; -316.207;  102.374
455.345;  112.728;   71.807;  344.347
455.632;   79.532; -128.207;  235.373
455.919;   67.722;  -82.196;  182.354
456.207;  -47.171; -774.198; -450.642
456.494;    4.338; -475.200;  -66.639
456.781;   16.822; -399.202; -198.635
457.068;   68.864; -253.206;  -29.628
457.355;   10.090; -698.206; -401.629
457.642;   14.870; -552.205; -290.630
457.929;   26.695; -778.194; -417.651
458.216;   77.210; -575.212; -354.617
458.503;  210.374; -173.193;  -19.652
458.790;  216.099; -864.208; -630.625
459.077;  260.052;  -77.202;  110.364
459.364;  717.063; -350.195; -210.649
459.651; 1500.362;  -46.206;  220.372
459.938;  724.539; -864.209; -665.623
460.225;  197.305;  132.799;  276.363
460.512;  -43.806; -836.197; -688.645
460.799;  125.365;  -32.218;  320.392
461.086;   96.667; -370.200; -251.640
461.372;   75.854; -509.198; -279.642
461.659;  150.823; -165.196;  108.354
461.946;   95.273; -445.193;  -54.651
462.233;  265.440;  842.800;  888.361
462.519;  357.962; -814.201; -464.639
462.806;  916.069; -768.197; -497.645
463.093;  799.643; -445.191;  -66.656
463.380;  -32.742; -920.186; -824.664
463.666;   71.146; -259.197;  -18.646
463.953;  103.908; -406.195; -243.648
464.239;  181.633; -173.195;  -77.648
464.526;  444.718;  413.806;  743.350
464.813;  403.954; -565.190; -304.658
465.099;  402.774;  606.807;  607.348
465.386;  381.028;  903.807;  921.348
465.672;   70.970; -694.197; -522.645
465.959;   52.922; -598.188; -520.662
466.245;   29.253; -468.193; -359.652
466.532;  125.656; -109.195;   63.352
466.818;  100.808; -357.186; -216.664
467.104;   18.872; -488.182; -415.672
467.391;    1.531; -628.189; -459.658
467.677;   32.362; -289.186;    9.335
467.964;   30.913; -682.189; -471.660
468.250;   92.989; -331.186; -160.665
468.536;   90.082;   90.811;  180.341
468.822;  -18.674; -821.184; -574.668
469.109;  165.701;  351.827;  471.311
469.395;  206.362;  729.808;  787.346
469.681;  203.410;   46.811;  156.341
469.967; 1112.290; -699.188; -382.660
470.254; 2322.748; -494.188; -306.662
470.540; 1549.997; -601.196; -476.646
470.826;  225.358; -488.181; -397.675
471.112;  275.454;  288.816;  113.331
471.398;   97.059; -253.183;  -58.670
471.684;   53.310; -626.177; -447.680
471.970;   14.587; -918.180; -981.675
472.256;   40.836; -521.192; -441.654
472.542;   23.861; -499.171; -434.691
472.828;   39.043; -743.182; -607.672
473.114;   49.454; -380.166; -283.700
473.400;   27.302; -504.175; -293.684
473.686;   49.110; -452.166; -400.701
473.972;   71.341; -230.174; -131.687
474.258;  -45.824; -925.173; -843.689
474.544;  163.927; -183.178;   -2.679
474.830;  257.153;  -65.175;   45.316
475.116;  382.681; -123.190; -196.658
475.401;  535.014; -558.180; -467.676
475.687;  178.538; -725.180; -718.676
475.973;   35.076; -673.181; -770.673
476.259;  284.555;  736.825;  764.315
476.544;  350.193; -539.176; -437.682
476.830;  680.757; -398.172; -322.690
477.116;  565.492; -430.177; -336.682
477.401;  145.863;  346.820;  358.324
477.687;  -16.598; -289.175; -405.684
477.973;   48.104;   21.819;   28.326
478.258;   -3.545; -448.163; -348.706
478.544;   63.994;   21.815;   61.334
478.829;  -31.208; -818.171; -738.692
479.115;  -28.418; -749.172; -651.690
479.401;   -5.589; -444.174; -449.686
479.686;   27.412; -253.180;  -74.676
479.972;  -26.593; -886.178; -776.680
480.257;   36.055; -258.166;  -65.700
480.542;    4.245; -614.170; -469.693
480.828;  234.750; 1288.824; 1392.317
481.113;  -19.077; -464.176; -426.683
481.399;    1.553; -236.161; -202.711
481.684;  -53.470; -620.166; -462.700
481.969;   31.491; -158.159;  -73.713
482.255;    3.931; -439.169; -285.695
482.540;    0.608; -569.178; -441.680
482.825;    7.228; -395.187; -404.663
483.110;   88.684;  -85.169; -105.696
483.396;  144.812; -840.157; -652.718
483.681;  408.991;  543.826;  730.313
483.966;  112.610; -696.160; -700.712
484.251;    9.490; -404.174; -310.687
484.536;   27.940; -356.165; -378.703
484.822;   19.118; -205.173; -218.687
485.107;  -21.251; -599.152; -502.726
485.392;  141.321;  662.836;  541.296
485.677;   82.244;  354.832;  163.302
485.962;  109.785;  160.843;  270.283
486.247;  107.537;  -14.162;   -8.707
486.532;   64.581; -178.166; -325.701
486.817;  183.122;  381.839;  431.291
487.102;  125.983; -453.154; -514.722
487.387;  545.364; -637.156; -652.718
487.672;  929.101; -154.164;  -38.705
487.957;  608.929; -394.160; -286.711
488.241;  167.715; -290.150; -314.729
488.526;  606.250; -280.152; -148.726
488.811;  976.435; -881.177; -818.680
489.096;  742.960; -666.154; -702.723
489.381;  436.472;    3.847;  162.275
489.666;  303.553; -428.161; -510.710
489.950;  182.713;  558.846;  627.277
490.235;  -20.089; -480.151; -458.728
490.520;  -42.623; -756.161; -723.710
490.804;  -58.659; -827.156; -736.719
491.089;    3.481; -469.149; -299.732
491.374;   46.024; -132.164;  -75.704
491.658;    6.642; -817.147; -717.735
491.943;  202.080; -657.152; -609.727
492.227;  308.929; -178.155;  -38.721
492.512;   78.859; -294.157; -341.717
492.797;  -63.525; -713.149; -716.731
493.081;  -46.130; -588.147; -598.735
493.366;  -25.872; -751.161; -635.711
493.650;  203.096;  831.859;  917.254
493.935;   29.266; -648.147; -447.734
494.219;  -31.566; -778.142; -687.743
494.503;  -51.405; -585.150; -487.730
494.788;   50.951;   46.842;   74.285
495.072;  106.842;  184.850;  434.271
495.356;  157.259; -463.148; -343.733
495.641;  478.101; -812.146; -736.736
495.925;  468.696; -976.156; -903.719
496.209;   58.455; -599.149; -451.732
496.494;  -38.491; -763.142; -544.744
496.778;   18.233; -364.154; -360.722
497.062;  -57.630; -819.156; -627.719
497.346;  -41.344; -869.160; -640.711
497.631;  145.562;  580.852;  560.266
497.915;   76.161;  -64.145;  175.261
498.199;   84.337; -341.157; -277.718
498.483;   40.299; -562.152; -508.725
498.767;  177.568;  301.850;  300.271
499.051;  143.028; -126.149; -100.732
499.335;   21.001; -693.149; -739.731
499.619;  -26.830; -381.129; -423.767
499.903;   31.777; -272.155;  -65.721
500.187;   29.065; -588.153; -316.724
500.471;   22.654; -796.152; -595.727
500.755;  121.327;   62.839;  -96.710
501.039;   54.503; -270.155; -357.721
501.323;  111.848;  -21.141;  264.254
501.607;   58.105; -447.163; -503.706
501.891;   16.938; -607.156; -512.718
502.174;  -21.878; -726.144; -585.741
502.458;   92.333;   89.849;  370.273
502.742;   44.846; -180.138; -191.751
503.026;   82.791; -412.147; -254.734
503.310;  134.215; -437.159; -375.713
503.593;   90.068; -464.147; -325.735
503.877;  123.635; -232.133; -156.760
504.161;  197.517;    2.847;  -50.724
504.444;  140.653; -841.158; -710.716
504.728;  365.198; -487.164; -522.704
505.012;  621.515; -257.150;  -76.729
505.295;  476.978; -417.161; -212.711
505.579;  446.645; -256.156; -496.719
505.862;  613.358; -555.145; -333.738
506.146;  574.092; -681.159; -758.714
506.429;  347.918;  568.841;  461.286
506.713;   61.937; -732.151; -667.728
506.996;  280.207;   90.846;  295.278
507.280;  279.644; -633.165; -474.703
507.563;  210.401; -469.155; -261.721
507.847;   83.340; -423.153; -112.724
508.130;   63.404; -665.161; -456.711
508.413;   97.826; -758.167; -577.700
508.697;  206.676; -151.167;   12.300
508.980;  119.992; -422.153; -312.724
509.263;   -5.503; -466.155; -450.720
509.547;   47.214; -124.150;   82.271
509.830;   57.656; -172.160;  140.289
510.113;   67.295;  128.844;  298.281
510.396;   36.172; -530.152; -300.725
510.680;  273.734; -818.145; -812.738
510.963;  956.087;  184.846;  180.277
511.246;  888.097; -493.150; -357.730
511.529;  311.189; -482.145;  -83.739
511.812;  295.582; -250.134;   10.241
512.095;  203.034; -740.151; -396.728
512.378;   55.796; -317.147; -245.736
512.661;   14.054; -703.137; -623.753
512.944;   19.961; -750.142; -637.744
513.227;   61.626; -170.137; -171.752
513.510;   35.247; -479.144; -671.741
513.793;   25.527; -485.140; -435.747
514.076;  147.390;  -43.127;  -39.771
514.359;  109.981; -294.149; -135.732
514.642;   70.464; -442.142; -567.744
514.925;  638.826;  581.860;  561.253
515.208;  789.929; -498.134; -443.758
515.491;  539.867; -276.133; -182.761
515.773;  305.676; -410.143; -337.742
516.056; 1724.085;  249.864;  409.246
516.339; 2411.539; -754.136; -652.755
516.622; 2088.570; -518.150; -488.730
516.904; 1734.882;  882.857;  975.257
517.187;  797.975; -730.138; -523.752
517.470;  427.431; -568.143; -510.743
517.752;  376.566; -624.136; -470.756
518.035;  268.537; -708.139; -725.749
518.318;  275.114; -799.136; -744.755
518.600; 1887.845; -300.132; -325.762
518.883; 2650.313;  310.858;   88.256
519.165; 1318.768; -585.138; -426.751
519.448;  421.645;  -61.132;  -19.762
519.730;  231.322; -573.126; -415.773
520.013;  384.638;  588.867;  664.240
520.295; 1186.584;  -94.134;  -15.759
520.578; 2667.333; -335.131; -305.764
520.860; 2900.720; -254.132;   56.238
521.143; 1450.918; -763.135; -584.756
521.425;  492.010; -251.125; -279.775
521.707;  607.415; -622.127; -380.771
521.990; 1482.491; -199.127;  167.229
522.272; 1679.254; -116.140;   -4.748
522.554;  892.226; -237.143; -157.742
522.836;  466.682;  -24.134;   99.241
523.119;  262.140; -496.148; -189.734
523.401;  170.765; -448.130; -314.766
523.683;   75.629; -865.137; -693.753
523.965;  233.223;  408.862;  260.248
524.247;  244.530;   54.878;  170.220
524.529;  185.059; -451.134; -367.759
524.812;  317.141;   -3.130;  191.234
525.094;  687.197; -773.138; -631.751
525.376; 1110.869; -143.124;   78.223
525.658;  668.761; -441.136; -339.754
525.940;    8.255; -805.131; -671.764
526.222;   64.439; -188.136;  -88.755
526.504;  157.678; -190.131;   32.237
526.786;  288.986; -960.133; -647.760
527.068;  420.424; -124.123;  -67.778
527.349;  201.258; -865.137; -774.754
527.631;  156.495; -137.132;   22.238
527.913;  122.040; -664.127; -450.771
528.195;  121.278; -761.125; -639.774
528.477;  198.504;  -93.134;  -30.758
528.759;   92.741; -648.130; -522.766
529.040;   26.023; -569.123; -293.778
529.322;   58.281; -235.125;  -10.774
529.604;  183.943;  -47.130;   93.233
529.886;  175.247; -546.126; -302.773
530.167;  160.810;  232.870;  192.235
530.449;   53.846;    1.853;   63.265
530.731;   21.880; -572.122; -459.779
531.012;   44.825; -513.120; -216.784
531.294;   58.188; -118.116;  -43.792
531.575;  128.010;  290.875;  538.225
531.857;   41.199; -548.135; -266.757
532.138;   93.697; -113.141;   40.254
532.420;  212.245;  294.865;  403.244
532.701;  292.738; -722.133; -751.760
532.983;  423.191;  232.867;  182.239
533.264;  169.245; -243.126;  175.228
533.546;  -19.861; -491.136; -508.755
533.827;   62.910;  173.867;   -1.759
534.109;   62.674; -352.135;  -80.757
534.390;  123.249; -725.132; -582.762
534.671;  262.795; -270.135;  -82.756
534.953;  144.975; -751.123; -611.779
535.234;   30.148; -426.117; -255.789
535.515;  -83.067; -891.119; -735.785
535.796;  -20.914; -431.128; -193.770
536.078; -108.907;-1050.124; -904.777
536.359;   19.001;  -22.123;    3.221
536.640;   -5.571; -480.125; -197.774
536.921;  164.074;  225.871;  143.232
537.202;  315.894;  -87.138;  -16.751
537.483;  394.582;  251.869;  377.236
537.764;  144.485;   17.870;   98.235
538.045;  -42.272; -543.134; -371.758
538.326;  -32.025; -596.129; -447.768
538.607;    1.316; -686.127; -476.771
538.888;  143.841;   98.879;    5.218
539.169;  156.611; -704.122; -535.781
539.450;  324.372;  236.871;   16.233
539.731;  223.370; -361.121; -182.783
540.012;  149.150;  199.880;  412.216
540.293;  102.113;   82.876;  158.224
540.574;   20.908; -895.113; -717.796
540.855;  460.593;  435.879;  377.218
541.136;  524.858;   47.878;  139.220
541.416;  254.192; -161.130; -220.766
541.697;  175.228; -274.131; -170.763
541.978;  852.372; -270.135; -315.757
542.259; 1070.366; -211.127; -236.771
542.539;  524.232; -191.116; -186.790
542.820;  187.159;  461.875;  480.225
543.101;  128.811;  -52.145;  -77.738
543.381;   43.141; -638.127; -591.771
543.662;  249.838;  159.873; -254.771
543.942;  462.087; -751.127; -830.770
544.223;  899.785;  193.878;  161.219
544.504;  569.168; -275.124; -182.777
544.784;  501.097; -592.126; -408.773
545.065; 1395.210;  104.884; -254.791
545.345; 1659.833;  227.881;   14.215
545.626; 1065.057;  -14.113; -108.796
545.906;  726.635;   77.869;   98.235
546.186;  297.901;   92.874;  -95.773
546.467;  172.221;   99.877;  -95.778
546.747;  289.032;  264.884;  327.210
547.027;  321.917;   91.876;  111.223
547.308;  251.136; -376.127; -530.770
547.588;  352.751;  299.871;  371.232
547.868;  169.561;  458.870;  588.235
548.149;  189.368;  609.885;  593.207
548.429;   94.864; -347.127; -299.771
548.709;  139.074; -645.120; -461.784
548.989;  397.942;   84.882;   88.213
549.269; 1726.644;   10.868;  139.239
549.550; 3878.600;  215.877;  117.222
549.830; 3510.425; -758.111; -556.799
550.110;  698.482; -468.110; -320.801
550.390;  672.930; -128.122;  -56.779
550.670;  913.628; -868.114; -783.795
550.950;  662.443; -509.121; -471.782
551.230;  174.539;  549.879;  460.218
551.510;  -29.233; -381.121; -326.782
551.790;   27.365; -173.109; -127.803
552.070;  243.370;  940.877; 1181.223
552.350;  316.362; -492.119; -377.786
552.630;  466.687;   -2.121;   77.219
552.909;  296.936;  181.884;   73.209
553.189;  192.050;  -49.132;   33.237
553.469;  134.437; -703.119; -514.786
553.749;  135.317; -469.127; -357.772
554.029;  123.852;   33.883;  -24.790
554.308;  122.872; -154.115;  -37.794
554.588;   41.860; -196.128; -204.770
554.868;   45.769; -366.121;  -47.782
555.147;  118.269; -114.115;  -46.793
555.427;  474.063; -260.116; -250.792
555.707; 3149.967; -284.115; -200.793
555.986; 3759.003; -719.111; -538.800
556.266; 2021.055;   23.884;   72.210
556.546;   85.417; -888.121; -675.782
556.825;  200.651; -657.114; -556.794
557.105; 1434.933; -125.128;   17.230
557.384; 1682.260;  122.884;  187.209
557.664;  641.538; -717.116; -508.792
557.943;   80.943; -557.121; -411.782
558.222;  127.420; -345.118; -344.788
558.502;  236.745; -116.115;  -76.793
558.781;  403.416;  194.885;  499.208
559.061;  323.145; -232.118; -227.788
559.340;  248.125;  302.883;  353.211
559.619;  562.080;   93.884;  148.210
559.899;  795.652; -239.117; -266.789
560.178;  751.245; -778.115; -593.793
560.457; 2496.028; -623.117; -562.790
560.736; 3461.554; -472.111; -482.800
561.015; 2341.231; -500.128; -502.769
561.295;  336.484;  180.893;  215.193
561.574;  314.642;  119.885;  116.207
561.853;  436.019;  274.891;  303.197
562.132;  403.347;  -45.114;  182.206
562.411;  354.013;  396.879;  553.219
562.690;   90.641; -592.115; -458.792
562.969;  147.764;  472.888;  630.203
563.248;  498.760; 2966.878; 2487.219
563.527;  211.253; -290.111; -408.800
563.806;  283.839; -650.127; -521.771
564.085;  317.499; -297.105; -206.810
564.364;  162.305; -594.117; -405.790
564.643;  403.213; -276.121; -223.781
564.922; 1512.713;  221.890;  397.198
565.201; 1458.341; -640.109; -700.803
565.479;  634.439; -297.115; -219.792
565.758;  255.533; -810.128; -712.770
566.037;  379.592; -155.109; -100.803
566.316;  199.260; -286.116;  -28.791
566.595;   40.142;  -17.115;  -12.793
566.873;   95.105; -166.111;  -79.801
567.152;  -60.236; -490.113; -590.797
567.431;    5.631; -113.116;    6.210
567.709;    3.734; -344.107; -212.807
567.988;  204.901; -810.114; -769.794
568.266;  435.217; -160.115;  -68.793
568.545;  301.369; -644.100; -514.819
568.824;  459.814;  160.885;  356.208
569.102;  407.025; -351.114; -235.794
569.381;  160.638; -492.116; -407.792
569.659;  -38.740; -553.113; -553.796
569.938;   11.684; -743.122; -465.780
570.216;   80.770; -225.109; -225.804
570.494;  -35.796; -632.114; -572.795
570.773;   39.942;  202.879;  114.218
571.051;   -7.277; -373.123; -357.778
571.330;   42.558; -221.113; -174.796
571.608;   38.362; -181.098; -173.823
571.886;  -76.627; -671.111; -581.799
572.164;  -76.106; -739.121; -621.782
572.443;  -59.873; -562.105; -512.811
572.721;  -35.172; -399.117; -289.790
572.999;  -27.328; -280.117; -168.788
573.277;   92.446;  379.894;  620.191
573.555;  249.448;   94.894;   37.190
573.834; 1059.872;  -86.117; -114.788
574.112; 1249.086;  880.893;  811.193
574.390;  372.454; -143.111;  -96.801
574.668;    5.165;  -91.112;  -61.797
574.946;  -27.802; -165.106; -187.810
575.224;    5.666;   71.891;  -16.803
575.502;   -7.967; -200.116; -204.791
575.780;  -92.734; -767.112; -829.798
576.058;  210.454; 1589.889; 1004.200
576.336;  -25.316; -210.110; -129.801
576.614;  -52.084; -511.112; -340.798
576.891;   33.271; -711.115; -823.794
577.169;  380.128; -158.108; -285.805
577.447;  462.736;  169.893;  202.193
577.725;  258.345;  629.888;  854.201
578.003;   12.993;  -71.112; -371.798
578.280;  102.286; -208.104; -242.812
578.558;   83.695; -450.115; -422.793
578.836;  141.953; -210.114; -145.795
579.114;   44.189; -630.112; -670.797
579.391;   81.299;   -6.117;  -18.789
579.669;  -62.553; -595.114; -704.794
579.947;  135.058; -326.107; -127.806
580.224;  229.582; -692.107; -524.806
580.502;  248.212;  127.893;   76.193
580.779;   17.304;  -42.117;   75.210
581.057;  -64.555; -584.109; -470.804
581.334;  -86.575; -726.102; -695.815
581.612;   44.674;   54.895;  511.190
581.889;  -22.437;  -83.101; -129.818
582.167;  -27.323; -298.099; -190.821
582.444;  -99.567; -845.102; -814.817
582.721;   92.659;  657.899;  715.183
582.999;   26.950; -326.100; -167.821
583.276;  399.052; -812.123; -713.779
583.553;  520.203; -364.102; -294.816
583.831;  152.233; -607.104; -631.812
584.108;   57.926;  349.892;  174.195
584.385;   14.475; -122.102;  -98.815
584.662;  -82.119; -651.111; -828.801
584.940;   37.755;  204.889;  204.199
585.217;  -12.240;  -73.113; -303.796
585.494;   43.914;   71.890;  118.198
585.771;  163.521; -250.109; -354.804
586.048;  426.234; -196.113;  -76.796
586.325;  232.208; -721.110; -773.801
586.602;   80.436;  230.896;  213.188
586.879;  -43.079; -499.100; -580.820
587.156;   37.950; -156.105; -331.810
587.433;  -41.994; -701.102; -667.817
587.710;   50.042;  152.888;  234.202
587.987;  265.605; -264.105; -236.811
588.264;  680.143;  315.888;  387.202
588.541; 1168.639;  -61.104;   26.187
588.818; 2288.098;   72.892;  171.196
589.095; 1960.484; -163.104; -174.812
589.371;  332.344; -459.109; -414.804
589.648;    4.586; -581.107; -437.807
589.925;   15.179; -517.114; -621.795
590.202;  -22.259; -741.112; -607.798
590.478;   68.656; -166.105;  -73.811
590.755;  202.629; -241.108; -132.806
591.032; 1970.835; -741.110; -699.802
591.308; 2714.676; -732.094; -790.831
591.585; 1425.210; -573.110; -560.802
591.862;   71.332;-1056.102; -950.817
592.138;   31.227; -475.108; -474.805
592.415;  107.162; -486.104; -495.813
592.691; 1240.360;  460.896;  518.188
592.968; 1571.938; -208.098; -123.824
593.244;  736.581; -695.116; -595.790
593.521;   50.633; -105.102;  -42.817
593.797;  -36.694; -810.122; -720.780
594.074;  247.326; -611.096; -588.826
594.350;  576.587;  828.905;  729.172
594.626;  254.131; -303.111; -283.801
594.903;   63.233; -643.101; -645.817
595.179;  163.791;  243.896;  418.187
595.455;    9.963; -136.107; -150.807
595.731;   -3.908;  -19.103;  -38.814
596.008;  -43.450; -464.111; -434.800
596.284;   16.173; -187.100; -242.820
596.560;   31.982; -501.093; -493.833
596.836;  140.602; -173.105;  -70.810
597.112;  263.427; -582.108; -437.805
597.388;  227.999;  -49.097;  -48.826
597.665;   96.012;  437.887;  530.203
597.941;  -68.890; -572.089; -658.839
598.217;   -0.187; -323.110; -293.802
598.493;  202.423;   61.891; -204.804
598.769;  397.018; -175.100;  -50.819
599.045;  243.955; -490.108; -562.806
599.321;   24.047; -193.100; -261.820
599.597;   96.772; -355.109; -476.804
599.872;  397.314;  409.896;  429.187
600.148;  290.850;  -61.097; -172.826
600.424;  237.910;   91.893;  202.193
600.700;  194.112; -170.107; -280.807
600.976;   73.745; -442.097; -464.825
601.252;  197.044; -226.109; -272.803
601.527;  155.039; -833.104; -840.813
601.803;  104.532; -453.105; -404.812
602.079;  158.893; -124.100; -118.819
602.354;  453.566; -620.092; -531.835
602.630;  658.110; -140.113; -482.796
602.906; 1907.738; -910.101; -863.818
603.181; 5417.037; -627.119; -534.786
603.457; 4599.173;   98.903; -278.826
603.733;  671.471; -605.120; -626.783
604.008;  807.374; -245.106; -164.810
604.284; 2486.135; -636.101; -580.817
604.559; 2183.220;   -3.112;  -42.799
604.835;  408.176; -163.105; -225.810
605.110;  328.828; -732.099; -892.821
605.385;  574.234;  224.907;  267.167
605.661;  511.764; -625.095; -729.829
605.936;  875.181; -664.108; -737.806
606.211;  761.649;  -17.103; -170.815
606.487;  158.874; -329.114; -376.794
606.762;  -18.588; -791.119; -745.786
607.037;  -39.023; -501.105; -433.810
607.313;  -65.117; -589.096; -574.828
607.588;  -11.477; -375.106; -137.810
607.863;   25.038;  -28.101; -143.818
608.138;  156.262;  513.890;  516.198
608.413;   -5.969; -576.099; -592.822
608.688;   32.002; -203.108; -267.805
608.964;  158.793; -509.106; -218.809
609.239;  195.824; -107.105; -212.810
609.514;  214.832;  281.895;  240.188
609.789;  533.586; -187.104; -716.812
610.064;  704.556; -435.096; -609.827
610.339;  688.644; -855.109; -799.804
610.614;  905.673; -131.100; -315.820
610.889;  528.282;  215.895;  107.188
611.163;    7.333; -407.104; -591.812
611.438;   59.200;   81.886; -167.794
611.713;   -7.315; -467.101; -499.817
611.988;   38.237; -144.101; -328.818
612.263;  -42.475; -771.102; -717.815
612.538;  178.884;  385.887;  251.204
612.812;  106.774; -832.100; -911.820
613.087;   80.186; -358.098; -338.823
613.362;  -72.513; -497.107; -557.807
613.637;   44.095;  261.897;  138.186
613.911;  -27.608; -256.092; -345.835
614.186;   77.511; -249.107; -292.807
614.460;  508.858; -842.081; -758.854
614.735;  606.108;  -55.087;  -17.843
615.010;  115.898;   43.912;  -82.841
615.284;  217.251;  360.892;  246.195
615.559;  287.866; -792.092; -955.835
615.833;  236.604;  -76.099;  -87.822
616.108;  -10.323; -225.090; -390.837
616.382;  128.034;  274.913;  402.156
616.656;  114.978; -241.090; -232.837
616.931;  396.730; -785.099; -700.822
617.205;  839.315; -973.104; -979.813
617.480;  792.308;  -91.125;    6.225
617.754;  125.855; -396.125; -128.774
618.028;  -10.098; -369.129; -382.768
618.302;   48.950;   73.892;  -25.805
618.577;  -63.754; -371.103; -518.815
618.851;  -69.209; -399.109; -600.803
619.125;  -56.991; -335.134; -378.759
619.399;  -32.735; -244.104; -374.813
619.673;  -52.911; -330.115; -515.792
619.947;  -63.922; -333.114; -448.795
620.222;  -17.743; -198.110; -204.801
620.496;   -8.656;  -47.121;  -96.782
620.770;    5.061; -187.122;  -93.781
621.044;  172.475;  323.895;  346.190
621.318;  602.871; -653.120; -614.783
621.592;  528.919; -430.121; -409.783
621.866;  257.621; -476.112; -572.799
622.140;    6.033; -207.116; -356.791
622.413;   49.900;  138.889;  112.200
622.687;  -69.015; -746.101; -492.817
622.961;   10.125; -130.108; -143.805
623.235;  -77.674; -633.111; -661.800
623.509; -113.844; -816.105; -848.811
623.783;    1.883;  -12.107;   48.193
624.056;  -29.353; -254.120; -280.783
624.330;   28.490;   63.888;   -3.797
624.604;   29.930; -271.116; -355.790
624.877;   50.286;  180.890;   26.198
625.151;   18.923; -249.114; -238.794
625.425;  -27.158; -150.103; -283.814
625.698;  -55.394; -367.119; -374.785
625.972; -102.637; -799.110; -765.802
626.245;   73.732;  685.884;  484.210
626.519;  -54.724; -426.120; -340.784
626.792;  -37.888; -192.107; -380.807
627.066;  -98.971; -485.122; -662.779
627.339; -106.541; -736.110; -663.802
627.613;   34.125;  351.880;  148.216
627.886;  -74.310;  187.891; -612.803
628.160;  -21.354;  312.880; -161.783
628.433; -100.790; -695.125; -703.775
628.706;  -98.899; -517.120; -615.784
628.979;   30.292;  296.876;  117.223
629.253; -101.539; -785.119; -833.786
629.526;  265.895; -334.126; -253.772
629.799;  235.699; -641.123; -479.778
630.072;  103.928; -497.128; -516.769
630.346;  -96.793;-1115.116;-1080.790
630.619;  362.238; -467.107; -545.808
630.892;  502.052;  709.889;  593.200
631.165;  282.890;  790.896;  679.187
631.438; -102.957;-1092.112;-1055.798
631.711;   38.177;  453.877;  257.221
631.984;  -81.098; -523.117; -624.789
632.257;  -89.476; -636.117; -681.789
632.530;  -46.243; -412.119; -433.785
632.803;   10.121; -109.115;    7.207
633.076;  -73.205; -360.123; -422.777
633.349;    1.832;  173.872;  121.231
633.622;  -50.244; -187.119; -240.785
633.895; -127.853; -903.120; -823.783
634.167;  -78.053; -496.126; -525.773
634.440;  -16.637;  -19.116; -137.792
634.713;  -12.565;  -22.119; -120.786
634.986;   67.347;  593.871;  453.233
635.258;  -84.181; -507.115; -597.793
635.531;   91.470;  742.882; -343.788
635.804;  -36.749; -303.117; -318.789
636.077;  -91.916; -830.116; -852.791
636.349;  -34.957; -586.115; -474.793
636.622;  353.895; 1695.874; 1392.228
636.894;  150.452; -474.120; -909.784
637.167;   91.564; -836.127; -789.771
637.439;   19.060; -278.128; -213.770
637.712;  -43.629; -312.126; -293.772
637.984;  -93.215; -635.116; -707.791
638.257;  350.296;  515.877;  488.222
638.529;  466.836; -881.125; -924.776
638.802;  200.978; -508.128; -449.769
639.074; -126.315; -927.122; -952.781
639.346; -134.025; -942.135; -930.757
639.619;  -17.388;  -79.142; -319.744
639.891;  -14.146;  -83.122; -168.779
640.163;  -84.195; -689.122; -756.780
640.435;   30.057;  273.878;  103.220
640.708;    3.034;  -72.122; -132.780
640.980;  -35.189; -366.122; -362.781
641.252;  168.813;  -25.121;  -71.781
641.524; 1617.664;  580.879;  573.219
641.796; 1611.716;-1094.121; -907.782
642.068;  279.118; -191.121; -300.782
642.340;  -55.130; -486.121; -566.783
642.613;   43.171;  294.880;  323.217
642.885; -112.977; -787.120; -878.783
643.157;  -63.575; -810.120; -658.784
643.428;   55.302;  170.880;  218.216
643.700;  -70.972; -498.120; -425.784
643.972;  -35.995;  -16.119; -133.785
644.244;  -78.693; -474.119; -559.785
644.516;  -56.066; -250.119; -114.786
644.788;   67.861;  662.881;  548.214
645.060;  -27.038;  -12.119; -124.786
645.332; -119.361; -525.118; -535.787
645.603;   26.391;  479.882;  342.213
645.875;  -77.657; -334.118; -369.787
646.147;  172.469; 1487.882; 1242.212
646.418;  -99.654; -931.117; -918.788
646.690;   69.573; -714.117; -715.789
646.962;    1.975; -413.117; -451.789
647.233;   -7.798;   15.883;   11.211
647.505;  -95.097; -595.117; -475.790
647.776;   38.355;  328.884;  229.210
648.048;  -18.318; -248.116; -418.790
648.320;  -86.691; -752.116; -679.791
648.591; -148.465;-1055.116; -958.791
648.862;  -94.888; -505.116; -577.792
649.134;   21.489;  115.885;  198.208
649.405;  -71.409; -661.115; -618.792
649.677;  -68.707; -475.115; -598.793
649.948;  -13.406; -181.115; -296.793
650.219;   -1.004;  -37.115; -147.793
650.491;  -81.327; -431.114; -520.794
650.762; -129.600; -705.114; -731.794
651.033;  -80.924; -437.114; -424.795
651.304; -104.547; -743.114; -728.795
651.576;  -80.745; -680.114; -645.795
651.847;  -38.568; -250.113; -140.796
652.118;   -6.991;  -32.113; -189.796
652.389; -115.290; -639.113; -722.796
652.660;  -30.188; -147.113;  -89.797
652.931; -139.086; -897.112; -871.797
653.202;  -88.509; -382.112; -541.798
653.473;  -69.008; -633.112; -533.798
653.744;  114.419; -595.112; -590.798
654.015;   98.296; -356.112; -303.799
654.286;  -69.602; -642.111; -663.799
654.557;  -70.150; -586.111; -521.799
654.828; -176.974;-1114.111;-1088.800
655.099;  -88.847; -404.111; -291.800
655.370;  -87.845; -427.111; -543.801
655.641; -130.243; -656.110; -714.801
655.911; -107.342; -618.110; -638.801
656.182;   62.735;  437.890;  387.198
656.453;   99.187;  830.890;  746.198
656.724;  -60.461; -466.110; -426.802
656.994;  -80.859; -553.109; -568.803
657.265; -121.383; -862.109; -873.803
657.536;  -83.731; -500.109; -377.804
657.806; -104.604; -561.109; -593.804
658.077; -133.077; -866.109; -950.804
658.347;  -91.551; -523.108; -598.805
658.618; -117.099; -646.108; -694.805
658.888;  -22.047;  -41.108;  112.195
659.159;  -69.895; -432.108; -548.806
659.429;  -27.768; -292.108; -349.806
659.700;   -3.517; -435.107; -390.807
659.970;  -19.440; -370.107; -359.807
660.241;   -1.263; -754.107; -921.807
660.511;  416.289; -147.107; -174.808
660.781;   64.265; -793.106; -748.808
661.052;  -39.733; -222.106; -381.808
661.322;  -21.256;   21.894;   -9.809
661.592;   34.496;  257.894;  148.191
661.862;  -79.652; -369.106; -382.810
662.133;  -92.801; -551.105; -502.810
662.403; -122.174; -770.105; -676.810
662.673;  -57.297; -256.105; -213.811
662.943; -103.295; -612.105; -551.811
663.213;  -10.544;  -85.105;  -81.811
663.483;  -91.467; -593.104; -568.812
663.753;  -44.665; -194.104; -152.812
664.023;  -27.488;   68.896;  -32.813
664.293;  -54.536; -319.104; -126.813
664.563; -114.335; -694.104; -648.813
664.833; -130.483; -743.103; -608.814
665.103; -121.381; -730.103; -793.814
665.373; -121.179; -766.103; -806.814
665.643; -104.103; -863.103; -918.815
665.913;    8.399; -534.103; -714.815
666.182;  113.076; -685.102; -719.816
666.452;  224.903;  -22.102;  -89.816
666.722;  -37.270; -724.102; -784.816
666.992; -134.519; -948.102; -921.817
667.261;  -98.617; -824.102; -808.817
667.531;  212.435;  134.899;   45.183
667.801;  502.862; -440.101; -412.818
668.070;  243.013;  714.899;  697.182
668.340; -102.935; -883.101; -840.819
668.609;   85.717;  588.900;  301.181
668.879;  -87.956; -490.100; -558.819
669.149;  -84.305; -539.100; -516.820
669.418; -100.378; -698.100; -726.820
669.688;  -41.751; -482.100; -666.820
669.957;   39.201; -423.099; -546.821
670.226;  -34.697; -268.099; -331.821
670.496;  -96.221; -431.099; -635.822
670.765;  -85.819; -418.099; -501.822
671.034; -131.442; -872.099; -828.822
671.304;  -10.165;   55.902; -111.823
671.573; -145.864;-1085.098; -957.823
671.842;   42.363; -380.098; -294.823
672.112;   -3.885; -692.098; -586.824
672.381;   -8.558; -239.098; -214.824
672.650; -140.706;-1005.097;-1021.825
672.919;  -88.205; -631.097; -507.825
673.188; -110.753; -681.097; -878.825
673.457; -145.751;-1101.097;-1143.826
673.726;  -82.749; -579.096; -646.826
673.995;  -54.423; -533.096; -479.826
674.265;  -35.346; -263.096; -333.827
674.534;  -15.544; -183.096; -235.827
674.802;  -23.892; -618.096; -703.828
675.071;  822.385; -886.095; -801.828
675.340; 3194.886; -464.095; -339.828
675.609; 1094.163;  103.905;   82.171
675.878;   25.790; -949.095; -893.829
676.147;   30.792;  -26.095;   -8.829
676.416;   49.668; -210.094; -294.830
676.685;  609.745; 1000.906; -622.830
676.953;   77.047; -603.094; -452.831
677.222;  -24.476; -193.094; -273.831
677.491;  -32.899;  -24.094; -127.831
677.759;  -14.173;   11.907;  172.168
678.028;  -34.021; -279.093; -222.832
678.297;   -0.869;   71.907;  197.168
678.565; -148.717; -898.093; -944.833
678.834;  -58.191; -311.093; -268.833
679.102;  -75.289; -411.092; -391.834
679.371; -146.112; -898.092; -727.834
679.639; -135.685; -797.092; -786.834
679.908; -117.583; -794.092; -724.835
680.176; -167.682; -895.091; -941.835
680.445;  -74.555; -346.091; -352.835
680.713;  -10.803;  -58.091;  -23.836
680.982; -101.426; -523.091; -525.836
681.250; -120.450; -578.091; -507.837
681.518; -117.448; -534.090; -751.837
681.787;  -32.371; -204.090; -167.837
682.055;  -76.544; -490.090; -422.838
682.323; -163.067; -993.090; -992.838
682.591;   18.609; -216.090; -538.838
682.859;   61.936;    9.911;  -35.839
683.128;    9.763;  232.911;  497.161
683.396; -179.960;-1102.089;-1122.840
683.664;  -32.509; -241.089;   21.160
683.932;  -12.807;  144.911;  -76.840
684.200;  -83.555; -576.088; -320.841
684.468;  -49.953;  -73.088; -124.841
684.736;  -27.151; -214.088; -175.841
685.004; -125.725;-1024.088; -982.842
685.272;  -67.923; -880.088; -774.842
685.540;  -73.346; -499.087; -557.843
685.808;  -95.719; -651.087; -682.843
686.076; -122.918; -894.087; -969.843
686.343;  -65.341; -601.087; -815.844
686.611;   31.086; -195.087; -224.844
686.879;  397.838; -530.086; -553.844
687.147; 2741.665; -483.086; -480.845
687.414;  766.241;  -12.086; -169.845
687.682;  -26.082; -658.086; -757.846
687.950;  252.045;  259.915;  263.154
688.217;  -22.703; -792.085; -760.846
688.485;   -5.127; -632.085; -636.847
688.753;  409.500;  -11.085; -102.847
689.020;  109.077; -820.085; -851.847
689.288; -125.146; -853.084; -787.848
689.555;  -35.494; -195.084; -148.848
689.823;  -52.193; -241.084; -345.849
690.090;  -85.041; -546.084; -651.849
690.358; -157.614; -877.084; -897.849
690.625;    2.313;  120.917;   45.150
690.892;  -80.136; -403.083; -369.850
691.160;  -13.659;   72.917;  -35.850
691.427;   -6.257;  141.917;  130.149
691.694; -126.280; -855.083; -929.851
691.962; -151.504;-1177.082;-1060.852
692.229;    9.173;  127.918;   56.148
692.496;   55.800;  130.918;  -49.852
692.763;   -5.073; -164.082; -201.853
693.031;  -81.196; -739.082; -716.853
693.298;  -43.070; -509.081; -368.853
693.565;  239.482; -155.081; -163.854
693.832; 1024.659;   -5.081;   -9.854
694.099;  103.711; -643.081; -642.855
694.366;  -62.363; -882.081; -896.855
694.633;  -59.936; -920.080; -633.855
694.900;  759.566; 4367.920; -114.856
695.167;  366.943; -214.080; -380.856
695.434;   70.145; -646.080; -623.856
695.701;  197.196;  121.921;  -61.857
695.968;  413.548; -365.079; -361.857
696.234; 1000.050; -415.079; -646.858
696.501;10326.502; -776.079; -614.858
696.768; 5114.978; -554.079; -617.858
697.035;  316.955; -632.078; -667.859
697.302;   19.557; -448.078; -552.859
697.568;   12.909; -458.078; -497.859
697.835;  -47.764; -683.078; -624.860
698.102;  -35.813; -498.078; -407.860
698.368;   76.564;  384.923;  396.139
698.635;  -39.059;  -47.077; -424.861
698.901;  -26.582; -240.077; -348.861
699.168;   44.394; -534.077; -456.862
699.435;   57.246;  -72.077;  -13.862
699.701; -105.277; -868.076; -764.862
699.968;  -56.575;  144.924; -441.863
700.234; -106.573; -783.076; -822.863
700.500;  -50.497; -448.076; -539.864
700.767;   11.730;   -1.075;   26.136
701.033; -145.093;-1015.075; -963.864
701.299;  -45.391; -450.075; -483.865
701.566;  110.435;  950.925;  763.135
701.832;   31.237;  -31.075;  -76.865
702.098; -100.936;-1054.074;-1034.866
702.365; -102.809;-1098.074;-1030.866
702.631;  -45.407;-1038.074;-1063.867
702.897; 1248.144; -765.074; -676.867
703.163; 1992.621;  348.926;  254.133
703.429;  154.173; -256.073; -273.868
703.695;  -36.200; -796.073; -792.868
703.961;   12.226; -214.073; -210.868
704.227;  -74.322; -630.073; -725.869
704.493;  128.205;  613.927;  510.131
704.759;  -33.943; -565.072; -540.870
705.025;   30.334; -203.072; -194.870
705.291;   -3.915; -666.072; -562.870
705.557;  194.512;  719.928;   34.129
705.823;   36.114; -742.072; -694.871
706.089;  129.791; -307.071; -326.871
706.355;  366.767; -315.071; -244.872
706.620; 6043.069; -776.071; -729.872
706.886; 7867.121; -309.071; -362.873
707.152;  692.873; -818.070; -973.873
707.418;  -16.350;-1153.070;-1186.873
707.683;   -6.299; -550.070; -530.874
707.949;  -46.047; -547.070; -578.874
708.215;    2.780; -129.070; -207.874
708.480;  -28.293; -520.069; -420.875
708.746;   88.508;   68.931;   28.125
709.011;  -73.615; -578.069; -612.876
709.277;  -71.638; -538.069; -543.876
709.542;  -50.236; -428.069; -387.876
709.808;   -7.259;  -59.068;   89.123
710.073;  -86.333; -577.068; -695.877
710.339;  -26.656; -242.068; -228.877
710.604;   54.346; -780.068; -845.878
710.869;  276.598; -277.068; -366.878
711.135;  -75.551; -715.067; -628.879
711.400;  -73.399; -507.067; -608.879
711.665;  -57.697; -404.067; -479.879
711.931; -100.545; -661.067; -677.880
712.196; -125.268; -876.067; -954.880
712.461;   78.058; -402.066; -490.880
712.726;   96.660; -727.066; -771.881
712.991;  -85.188; -647.066; -664.881
713.256;  -42.736; -350.066; -332.882
713.521;  -63.310; -417.065; -381.882
713.787;  -72.683; -454.065; -472.882
714.052;  -37.506; -214.065; -400.883
714.317;  -90.054;-1045.065; -981.883
714.581; 1138.673; -374.065; -268.883
714.846; 1439.999; -822.064; -888.884
715.111;  144.926;  261.936;  257.116
715.376;  -27.397;  -86.064; -223.885
715.641;  -29.870; -365.064; -367.885
715.906;  235.656;   15.936; -551.885
716.171;  112.558;  221.937;  209.114
716.436;   27.610;  -78.063; -104.886
716.700; -116.538; -818.063; -692.886
716.965; -124.487; -794.063; -807.887
717.230;  -70.060; -339.063; -392.887
717.494;  -37.533;  -40.062; -134.888
717.759;  -93.756; -784.062; -640.888
718.024;    3.196;  269.938;  250.112
718.288;   60.597;  685.938;  395.111
718.553; -160.576; -803.062; -977.889
718.817; -142.124; -883.061; -899.889
719.082;  -34.822; -115.061; -125.890
719.346; -153.921;-1000.061; -947.890
719.611;  -62.419; -300.061; -255.891
719.875; -107.967; -568.060; -537.891
720.140;  -62.865; -453.060; -603.891
720.404;   20.662; -136.060; -249.892
720.668;  726.588; -475.060; -411.892
720.933;  258.890;  146.940;  137.108
721.197; -105.733; -667.059; -600.893
721.461; -135.056; -851.059; -826.893
721.725;  -14.730;  -21.059; -250.894
721.990;  -62.728; -284.059; -204.894
722.254;  -25.476;  -26.059; -108.894
722.518;  -77.624; -286.058; -442.895
722.782;  -95.997; -743.058; -594.895
723.046;  113.654;  614.942;  570.105
723.310;   29.256;  374.942;  210.104
723.574;  -99.292; -654.058; -614.896
723.838; -104.390; -576.057; -642.897
724.102;  -52.689; -226.057; -239.897
724.366; -154.362;-1032.057; -978.897
724.630; -108.935; -749.057; -571.898
724.894;  -82.658; -722.057; -514.898
725.158;  -21.456;   38.944; -295.898
725.422;  -51.280; -394.056; -327.899
725.685;  -60.903; -441.056; -349.899
725.949;  -81.426; -566.056; -519.900
726.213;  -80.074; -732.056; -811.900
726.477;  109.227;-1020.055; -933.900
726.740;  115.154; -274.055; -104.901
727.004;  342.781; -384.055; -510.901
727.268; 3462.608; -442.055; -400.901
727.531;  903.660; -961.055; -775.902
727.795;  -42.389; -713.054; -673.902
728.059;  -56.537; -552.054; -557.903
728.322;  -79.685; -841.054; -669.903
728.586;    0.717; -692.054; -701.903
728.849; -109.107; -695.053; -756.904
729.112; -134.180; -812.053; -912.904
729.376; -129.278; -959.053; -905.904
729.639;  -86.551; -536.053; -536.905
729.903; -114.724; -733.053; -699.905
730.166;  -51.923; -437.052; -399.906
730.429;  -27.271; -317.052; -468.906
730.693;  -78.469; -355.052; -894.906
730.956;  217.633;  810.948;  651.093
731.219;  611.659; -310.052; -103.907
731.482;   91.386;-1003.051; -894.907
731.745;   47.238; -794.051; -935.908
732.009;   15.290;  -30.051;   50.092
732.272;  -98.558; -904.051; -771.909
732.535;  -51.332; -300.051; -310.909
732.798; -153.630;-1083.050;-1166.909
733.061;  -62.978; -430.050; -456.910
733.324;    5.324;   31.950; -180.910
733.587;   63.025;  290.950;  365.090
733.850;  -74.173; -973.049;-1050.911
734.113;   35.004;   33.951;   32.089
734.376;    2.881; -328.049; -447.912
734.639;  205.233; 1188.951; 1011.088
734.901;   46.834; -180.049; -402.912
735.164;  451.911; -883.048; -837.913
735.427; 1105.088; -166.048; -355.913
735.690;  114.815; -205.048; -234.913
735.952;  -55.209; -923.048; -925.914
736.215;  -55.507;-1113.048;-1009.914
736.478;    8.145; -771.047; -774.915
736.740;  201.672;   33.953;  129.085
737.003;  615.924; -658.047; -672.915
737.266; 3457.325;  -94.047;   46.084
737.528;  375.252; -682.047; -660.916
737.791;  296.904; -316.046; -327.916
738.053;  796.506;  465.954;  649.083
738.316;10878.707; -162.046; -136.917
738.578; 7166.034; -770.046; -736.918
738.841;  411.411; -382.046; -446.918
739.103;  147.163; -875.045; -777.918
739.365;  453.989;   79.955;  -69.919
739.628;   -9.284; -884.045; -805.919
739.890;  -27.682; -758.045; -710.919
740.152;  -58.980; -692.044; -754.920
740.414;  -19.853; -408.044; -359.920
740.677;  -57.952; -785.044; -634.921
740.939;  -61.875; -587.044; -487.921
741.201;  198.077; -432.044; -572.921
741.463;   14.479; -689.043; -745.922
741.725;    4.655;  -21.043; -199.922
741.987;   32.507;  220.957;  116.078
742.249;  -18.141; -751.043; -859.923
742.511;  168.186; -703.043; -794.923
742.773;  -14.337; -546.042; -546.924
743.035;  138.689;  796.958;  533.076
743.297;  -50.684; -963.042;-1013.924
743.559;  651.893; -278.042; -262.925
743.821;   47.170; -735.042; -744.925
744.083;    8.471;  -44.041; -149.925
744.345; -102.227; -869.041; -892.926
744.607;   32.825;   75.959;  122.074
744.868;  -60.548; -490.041; -554.927
745.130; -101.671; -994.041;-1008.927
745.392;   36.955;   -1.040;  -44.927
745.653;  -17.018; -411.040; -378.928
745.915;  154.334;  896.960;  631.072
746.177;   45.561;   35.960;  -43.928
746.438;  -19.413; -428.040; -543.929
746.700;  -47.161; -947.039; -988.929
746.961;   -3.659; -659.039; -740.930
747.223;  124.668; -190.039;  -74.930
747.484;   61.445; -391.039; -471.930
747.746;  121.471;  -23.038; -106.931
748.007;   99.748; -647.038; -689.931
748.269;  273.125; -468.038; -440.931
748.530;  400.377; -852.038; -638.932
748.791;  221.778; -354.038; -420.932
749.053;  387.205;  286.963;  163.067
749.314;  424.982; -236.037; -169.933
749.575;  471.209; -945.037; -905.933
749.836;  785.961; -217.037;   86.066
750.098; 2408.762;  -60.037;  -21.934
750.359;34072.064;  414.964;  555.066
750.620; 8145.716; -121.036; -220.935
750.881;  947.318; -585.036; -513.935
751.142; 1268.219; -950.036; -938.936
751.403;16523.346; -789.036; -705.936
751.664; 6754.048;-1034.035; -999.936
751.925;  444.675; -175.035; -262.937
752.186;  264.102; -298.035; -278.937
752.447;  128.928; -590.035; -445.937
752.708;   26.130; -532.035; -648.938
752.969;   -3.343; -566.034; -576.938
753.230;  -14.091; -777.034; -672.939
753.491;   -7.840; -650.034; -631.939
753.751;   53.837;  109.966;   19.061
754.012;   84.264;  258.967;  181.060
754.273;   45.016; -174.033;  -71.940
754.534;  -10.932; -487.033; -580.940
754.794; -103.356; -926.033; -911.941
755.055;  140.696; 1051.967;  881.059
755.316;  -49.352; -700.032; -566.942
755.576;  -30.200; -606.032; -576.942
755.837;  -59.749; -527.032; -695.942
756.097;  -37.097; -530.032; -564.943
756.358;  -79.970; -725.032; -770.943
756.618;  -47.443; -705.031; -641.943
756.879;    6.634; -254.031; -349.944
757.139; -122.315;-1098.031;-1116.944
757.400;  -68.288; -538.031; -553.945
757.660;  -18.136; -365.031; -401.945
757.920;   -3.759; -266.030; -228.945
758.181;  -20.958; -468.030; -351.946
758.441;  -88.356; -870.030; -809.946
758.701;  -25.179; -308.030; -215.946
758.961;  -20.377; -220.030; -278.947
759.222;  -54.750; -574.029; -502.947
759.482;  -73.874; -683.029; -723.948
759.742;  -92.372; -706.029; -547.948
760.002;    8.105;  -83.029; -143.948
760.262;   13.807;   50.972;  182.051
760.522;  -50.817; -498.028; -574.949
760.782;  -44.240; -738.028; -612.949
761.042;  -42.113; -618.028; -573.950
761.302;   46.889;   55.972;  -18.950
761.562;   39.815; -164.027; -154.951
761.822;   72.942; -710.027; -551.951
762.082;  -66.706;-1104.027;-1093.951
762.342;   48.296; -328.027; -403.952
762.601;   74.848; -567.027; -506.952
762.861;  320.099; -281.026; -207.952
763.121;  413.776; -406.026; -411.953
763.381; 7447.478; -499.026; -485.953
763.640; 7552.930; -139.026; -307.954
763.900;  346.331; -242.026; -203.954
764.160;   80.308; -458.025; -491.954
764.419;  -18.015; -726.025; -782.955
764.679;  -72.988; -795.025; -726.955
764.939;  -18.486; -124.025; -210.955
765.198;  -83.510; -608.025; -563.956
765.458;  -76.433; -710.024; -612.956
765.717;  -79.206; -454.024; -590.957
765.976;  -62.504; -428.024; -411.957
766.236;  -82.053; -475.024; -610.957
766.495;   13.474;  260.977;   73.042
766.755; -120.924;-1090.023; -987.958
767.014;  -16.472; -594.023; -665.958
767.273;  -55.395; -373.023; -397.959
767.533;  -56.719; -228.023; -307.959
767.792;  -31.992; -151.022; -188.960
768.051;  -65.290; -228.022; -276.960
768.310;  -89.888; -546.022; -650.960
768.569;  -13.962; -161.022;    4.039
768.828;  -24.760; -285.022; -363.961
769.088; -120.883;-1050.021; -942.961
769.347;  -90.356; -755.021; -599.962
769.606;  -94.854; -876.021; -857.962
769.865; -137.253;-1016.021;-1033.963
770.124;   -4.051; -411.021; -336.963
770.383;  -43.449; -778.020; -910.963
770.641;   -9.847; -398.020; -400.964
770.900;  -71.471; -953.020; -846.964
771.159;  -40.594; -851.020; -951.964
771.418;  -19.542; -917.020; -779.965
771.677;  145.460; -224.019; -293.965
771.936;  152.112; -794.019; -865.966
772.194; 2635.588; -465.019; -437.966
772.453;11345.915; -213.019; -391.966
772.712;  775.292;  416.982;  329.033
772.970;  129.669;   32.982;   63.033
773.229;   88.170;  -22.018;  102.033
773.488;  -80.228; -814.018; -770.968
773.746;   43.924;  296.982;  335.032
774.005;   13.076;  190.983;  -22.969
774.263;   10.053;  243.983;  177.031
774.522; -101.871; -422.017; -548.969
774.780;  -89.669; -484.017; -417.970
775.039;  -96.642; -551.017; -531.970
775.297;  -15.065; -135.016; -351.970
775.555; -121.314; -489.016; -612.971
775.814; -116.362; -618.016; -570.971
776.072; -122.585; -749.016; -740.971
776.330; -102.558; -630.016; -520.972
776.589; -120.556; -703.015; -721.972
776.847; -127.805; -645.015; -624.973
777.105; -176.678;-1016.015;-1032.973
777.363;  -79.526; -459.015; -454.973
777.621; -141.724; -660.015; -717.974
777.879;  -23.773;  -42.014;   32.026
778.138;  -99.771; -554.014; -717.974
778.396; -111.669; -585.014; -526.975
778.654; -159.942;-1015.014; -970.975
778.912;  -74.390; -269.014; -371.976
779.170; -137.789; -880.013; -803.976
779.427; -147.387; -922.013; -897.976
779.685; -136.010; -880.013; -832.977
779.943;  -94.458; -654.013; -593.977
780.201; -158.157; -964.012; -883.978
780.459; -114.080; -651.012; -610.978
780.717;  -96.403; -440.012; -390.978
780.974; -103.076; -449.012; -490.979
781.232;  -76.699; -358.012; -338.979
781.490;  -86.398; -551.011; -472.979
781.747; -100.071; -555.011; -476.980
782.005;   24.131;  462.989;  254.020
782.263; -167.442; -542.011;-1004.981
782.520;  -82.591; -326.011; -501.981
782.778; -169.764;-1013.010;-1051.981
783.035; -169.687; -962.010; -938.982
783.293;  -80.910; -248.010; -206.982
783.550;  -56.658; -134.010; -198.982
783.808; -129.982; -764.010; -776.983
784.065; -167.205; -745.009; -874.983
784.322;  -47.303;   25.991;  -86.984
784.580; -148.176; -915.009; -771.984
784.837;  -91.900; -392.009; -466.984
785.094; -129.048; -783.009; -762.985
785.352;  -82.646; -304.008; -404.985
785.609; -113.319; -934.008; -839.985
785.866;  -88.543; -345.008; -401.986
786.123;  -77.866; -639.008; -583.986
786.380;  -94.114; -665.008; -604.987
786.637;  -51.562; -225.007; -380.987
786.895;  -35.185; -456.007; -543.987
787.152;  -40.334; -135.007; -267.988
787.409;  -50.557; -123.007; -225.988
787.666;  -87.155; -299.006; -378.988
787.923; -123.503; -616.006; -695.989
788.179; -107.002; -551.006; -584.989
788.436; -114.350; -585.006; -585.990
788.693;  -42.773;  -92.006;  -87.990
788.950;  129.779; -125.005; -112.990
789.207;  165.081; -381.005; -372.991
789.464;  -57.993; -161.005; -301.991
789.720;   -8.416;  150.995;  110.009
789.977; -180.789;-1003.005; -671.992
790.234;  -23.862;   44.996;  -66.992
790.490; -150.336; -884.004;-1031.993
790.747;  -29.109;  -85.004;   22.007
791.004;  -43.957; -426.004; -348.993
791.260;  -82.680; -430.004; -560.994
791.517; -110.178; -843.003; -788.994
791.773;  -50.277; -379.003; -342.994
792.030; -109.275; -596.003; -660.995
792.286; -106.773; -686.003; -636.995
792.543;  -17.296;  -74.002; -159.995
792.799;  -57.920; -584.002; -382.996
793.055; -178.818;-1179.002;-1210.996
793.312; -103.566; -827.002; -816.997
793.568;  -61.639; -746.002; -599.997
793.824;    4.413; -226.001; -284.997
794.081;   -4.811; -447.001; -508.998
794.337;   61.941; -664.001; -561.998
794.593; 1362.068; -319.001; -271.999
794.849; 6116.795; -746.001; -772.999
795.105;  290.521; -270.000; -261.999
795.361;    8.623; -490.000; -457.000
795.617;  -71.225; -875.000; -945.000
795.873;  -55.800; -360.000; -407.000
796.129;  -45.875; -368.000; -306.000
796.385;  -30.150; -124.000; -156.000
796.641;   57.550;  412.000;  550.000
796.897;  -88.275; -666.000; -635.000
797.153;   57.625;  453.000;  357.000
797.409; -105.800; -785.000; -868.000
797.665;  -72.950; -625.000; -732.000
797.921;  -77.775; -775.000; -762.000
798.176;  -68.225; -744.000; -747.000
798.432;  -58.925; -824.000; -596.000
798.688;  -83.400;-1174.000;-1078.000
798.943;   76.150; -165.000; -147.000
799.199;  -19.375;-1005.000; -959.000
799.455;  243.250;  369.000;  316.000
799.710;  118.400; -813.000; -380.000
799.966;  296.200; -162.000; -160.000
800.221;  467.900; -638.000; -721.000
800.477;10849.475; -743.000; -710.000
800.732; 8776.725; -773.000; -800.000
800.988;  664.175;  205.000;  -19.000
801.243; 2198.375; -454.000; -344.000
801.498; 8695.100; -814.000; -739.000
801.754;  462.750; -289.000; -163.000
802.009;   89.800; -257.000; -335.000
802.264;  -49.450; -967.000;-1033.000
802.520;   29.875;  222.000;   -3.000
802.775;  -36.825; -524.000; -359.000
803.030;   58.275;  395.000;  356.000
803.285; -110.125; -840.000; -903.000
803.540;  -70.225; -686.000; -699.000
803.795;  -49.675; -648.000; -583.000
804.051;  -47.850; -279.000; -346.000
804.306;   35.125;  168.000;  128.000
804.561;  121.950;  451.000;  362.000
804.816;  123.800;  714.000;  861.000
805.071;   -1.475; -185.000; -280.000
805.325;  174.450; -257.000; -427.000
805.580; -105.750; -841.000; -877.000
805.835;  -34.300; -204.000; -297.000
806.090;  -92.750; -760.000; -676.000
806.345;  -32.125; -344.000; -264.000
806.600;  -35.750; -549.000; -632.000
806.854;  -45.900; -408.000; -538.000
807.109;  -19.750; -493.000; -577.000
807.364;   -5.225; -407.000; -328.000
807.618;  -19.750; -415.000; -381.000
807.873;   23.250; -470.000; -494.000
808.128;   69.750; -257.000; -518.000
808.382;   85.125; -224.000; -332.000
808.637;   59.100; -440.000; -511.000
808.891;  158.600; -257.000; -180.000
809.146;   69.825; -902.000; -794.000
809.400;  217.850; -848.000; -923.000
809.654;  287.000; -779.000; -551.000
809.909;  460.850; -841.000; -927.000
810.163; 6419.450; -813.000; -651.000
810.418;15034.700; -940.000; -861.000
810.672;  935.525; -685.000; -690.000
810.926;  676.000; -993.000; -973.000
811.180; 1425.525; -439.000; -372.000
811.434;32543.425;  240.000;  135.000
811.689;11739.575; -231.000; -365.000
811.943;  576.525; -936.000; -953.000
812.197;  299.025; -893.000; -671.000
812.451;  105.400; -379.000; -514.000
812.705;  -21.150; -809.000; -619.000
812.959;   -5.325; -263.000; -388.000
813.213;   -9.475; -283.000; -209.000
813.467;   68.100;  470.000;  253.000
813.721; -102.800; -764.000; -792.000
813.975; -126.475; -826.000; -877.000
814.229;   33.325;  430.000;  353.000
814.482;  -92.800; -517.000; -566.000
814.736; -138.125; -766.000; -744.000
814.990; -131.400; -779.000; -872.000
815.244;  -47.825; -228.000; -285.000
815.497; -105.875; -636.000; -601.000
815.751;  -19.875; -141.000;   82.000
816.005;  -94.900; -470.000; -586.000
816.258;  -80.450; -510.000; -363.000
816.512; -109.150; -693.000; -610.000
816.766;   -3.350;  121.000;  157.000
817.019;   16.100;  148.000;  149.000
817.273; -132.450;-1000.000; -802.000
817.526;  -38.800; -206.000; -173.000
817.779;  -70.825;-1049.000; -960.000
818.033;  -91.575; -693.000; -807.000
818.286; -126.900; -725.000; -792.000
818.540;  -94.550; -403.000; -403.000
818.793;  -97.250; -402.000; -489.000
819.046; -111.050; -582.000; -520.000
819.299;  -37.800; -157.000; -166.000
819.553; -123.450; -552.000; -592.000
819.806; -168.950;-1016.000; -838.000
820.059;  -59.200; -334.000; -354.000
820.312;    5.225;  152.000;  185.000
820.565;  -28.125;  110.000;  -27.000
820.818;  -54.800;  -59.000; -173.000
821.071; -167.100;-1041.000; -957.000
821.324; -100.550; -536.000; -540.000
821.577; -110.425; -457.000; -483.000
821.830;  -74.250; -270.000; -172.000
822.083; -135.025; -733.000; -288.000
822.336;  -45.675; -261.000; -167.000
822.589; -150.500; -805.000; -688.000
822.842; -149.875; -875.000; -770.000
823.094; -185.100;-1076.000;-1114.000
823.347; -139.800; -925.000; -729.000
823.600;   20.125;  402.000;  187.000
823.853;  -60.075; -311.000; -267.000
824.105;  -79.625; -331.000; -575.000
824.358; -124.150; -617.000; -716.000
824.611;    1.700;  234.000;   40.000
824.863;  -52.625; -612.000; -591.000
825.116;   27.850;  -33.000;   27.000
825.368;   66.375; -366.000; -372.000
825.621;  146.400; -186.000; -240.000
825.873;   89.200; -704.000; -737.000
826.126;  606.975; -669.000; -641.000
826.378;11635.325; -389.000; -505.000
826.630; 2513.175; -890.000; -898.000
826.883;   25.550; -754.000; -693.000
827.135;   48.125; -279.000; -270.000
827.387; -117.725; -893.000; -839.000
827.639;  -35.275;  -86.000;   32.000
827.892; -129.575; -742.000; -582.000
828.144; -153.000; -848.000; -804.000
828.396;  -36.225;  104.000;  -80.000
828.648; -107.975; -440.000; -333.000
828.900; -151.725; -702.000; -795.000
829.152; -138.850; -684.000; -683.000
829.404;  -72.700; -215.000; -267.000
829.656;  -63.475;  321.000;  214.000
829.908;   -9.950;  393.000;  229.000
830.160; -175.525;-1064.000;-1047.000
830.412;  -98.975; -481.000; -430.000
830.664; -129.750; -557.000; -665.000
830.916;  -80.550; -268.000; -206.000
831.167; -187.675;-1073.000; -951.000
831.419;  -96.675; -623.000; -566.000
831.671; -151.300; -764.000; -809.000
831.923;  -91.300; -311.000; -447.000
832.174;  -83.875; -273.000; -331.000
832.426; -128.750; -493.000; -582.000
832.678; -187.100;-1043.000;-1091.000
832.929; -166.675; -947.000; -935.000
833.181;  -83.875; -575.000; -677.000
833.432;  -63.975;  -59.000; -186.000
833.684;  -17.825;  112.000;  -27.000
833.935; -130.075; -610.000; -566.000
834.187; -138.850; -829.000; -823.000
834.438;  -47.500;  -58.000;  -25.000
834.689;  -62.925; -255.000; -123.000
834.941;  -60.850; -343.000; -244.000
835.192; -105.800; -590.000; -533.000
835.443; -107.825; -419.000; -506.000
835.695;  -18.475;  138.000;  -16.000
835.946; -101.625; -608.000; -378.000
836.197; -120.300; -599.000; -622.000
836.448;  -79.700; -528.000; -395.000
836.699;  -65.350; -253.000; -341.000
836.950;  -19.800;   72.000;    7.000
837.201; -141.950;-1003.000; -987.000
837.452;  -47.750; -356.000; -170.000
837.703; -119.200; -791.000; -737.000
837.954;  -39.325; -205.000; -365.000
838.205; -102.600;-1029.000;-1008.000
838.456;  137.675; -196.000; -282.000
838.707;  -21.525; -423.000; -519.000
838.958;    2.800; -634.000; -647.000
839.209;  221.950;   18.000;   40.000
839.460;  115.025; -439.000; -201.000
839.710;  146.675; -135.000; -297.000
839.961;  391.050;  730.000;  612.000
840.212;  317.700; -382.000; -497.000
840.462; 1164.775; -328.000; -277.000
840.713;18210.950; -571.000; -536.000
840.964; 6605.925;  -62.000; -143.000
841.214;  450.875; -384.000; -624.000
841.465;  491.750; -214.000; -141.000
841.715;  454.075; -417.000; -380.000
841.966;  578.900; -746.000; -685.000
842.216; 8566.475; -330.000; -431.000
842.466;29762.425; -169.000; -313.000
842.717; 1452.300; -964.000; -952.000
842.967;  257.925; -635.000; -641.000
843.217;  218.000;   20.000;   28.000
843.468;   62.650; -104.000; -132.000
843.718;  -56.300; -718.000; -726.000
843.968; -115.100; -837.000; -765.000
844.218;   -7.750; -315.000; -262.000
844.469;  -64.225; -577.000; -561.000
844.719; -109.725; -537.000; -682.000
844.969; -103.475; -550.000; -580.000
845.219; -145.325; -814.000; -862.000
845.469;  -88.825; -392.000; -342.000
845.719; -142.225; -792.000; -884.000
845.969;  -18.325;  119.000;  174.000
846.219; -124.250; -738.000; -720.000
846.469;   24.350;  464.000;  432.000
846.718;  -53.150; -115.000;   31.000
846.968; -143.075; -827.000; -827.000
847.218;  -59.550; -224.000; -371.000
847.468;    2.150; -586.000; -555.000
847.718; -149.625; -827.000; -798.000
847.967; -136.975; -826.000; -915.000
848.217;  -92.050; -449.000; -569.000
848.467;  -57.025; -405.000; -376.000
848.716; -108.025; -708.000; -725.000
848.966;  -13.725; -372.000; -358.000
849.215;  -70.475; -428.000; -419.000
849.465; -103.125; -785.000; -615.000
849.714; -164.300;-1132.000;-1150.000
849.964;  -69.500; -551.000; -613.000
850.213;  -23.375; -393.000; -355.000
850.463;   55.100;  137.000;  340.000
850.712;  -17.550; -542.000; -567.000
850.961;    6.125; -739.000; -678.000
851.211;   92.600; -513.000; -504.000
851.460;  136.825; -635.000; -650.000
851.709;  570.275;  -25.000;   18.000
851.958;10747.300; -912.000; -750.000
852.208;11932.325; -859.000; -879.000
852.457;  431.500; -181.000;  -13.000
852.706;   56.550; -791.000; -823.000
852.955;    6.175; -507.000; -528.000
853.204;  -81.700; -521.000; -461.000
853.453;  -80.350; -418.000; -458.000
853.702; -135.800; -660.000; -750.000
853.951; -113.275; -532.000; -520.000
854.200; -116.900; -613.000; -562.000
854.449; -148.100; -695.000; -661.000
854.698;  -96.400; -340.000; -279.000
854.946;  -73.425; -181.000; -284.000
855.195; -156.325; -843.000; -868.000
855.444;  -99.300; -395.000; -420.000
855.693; -129.050; -345.000; -432.000
855.941; -102.275; -387.000; -516.000
856.190;  -61.900; -256.000; -382.000
856.439; -135.125; -652.000; -703.000
856.687;  -60.500;  -99.000;  -72.000
856.936; -127.950; -621.000; -323.000
857.184; -192.250;-1067.000;-1020.000
857.433; -108.075; -423.000; -512.000
857.681; -163.300; -989.000; -953.000
857.930;  -75.050; -282.000; -433.000
858.178; -174.150; -856.000; -929.000
858.427; -145.625; -802.000; -781.000
858.675; -110.600; -377.000; -544.000
858.923; -116.725; -527.000; -819.000
859.172; -173.875;-1094.000;-1070.000
859.420;  -84.950; -339.000; -239.000
859.668; -129.450; -624.000; -628.000
859.916;  -23.425;  109.000;  115.000
860.164; -132.475; -699.000; -603.000
860.413;  211.300; -878.000; -696.000
860.661;  133.375; -709.000; -577.000
860.909;  -91.075; -339.000; -325.000
861.157;  -79.175; -277.000; -444.000
861.405; -130.375; -534.000; -670.000
861.653;   11.600;  310.000;  310.000
861.901;  131.800; -543.000; -613.000
862.149;  -42.925; -801.000; -824.000
862.396;  -90.025; -297.000; -187.000
862.644;  -96.125; -368.000; -347.000
862.892;  -42.450;   98.000;  138.000
863.140; -119.100; -549.000; -530.000
863.388; -155.675; -815.000; -759.000
863.635; -134.075; -642.000; -601.000
863.883;  -11.100;  231.000;  190.000
864.131; -113.900; -288.000; -357.000
864.378; -127.550; -675.000; -540.000
864.626; -109.800; -347.000; -415.000
864.873; -121.125; -556.000; -505.000
865.121; -137.775; -714.000; -799.000
865.368;  -44.875; -173.000;   75.000
865.616;  -40.075;  -33.000;  -40.000
865.863;  -70.125; -462.000; -506.000
866.111;  -94.700; -795.000; -824.000
866.358;   47.475; -426.000; -420.000
866.605; 2764.275;  -64.000; -804.000
866.853; 2555.975; -621.000; -537.000
867.100;  -36.075; -728.000; -775.000
867.347; -110.700; -672.000; -611.000
867.594;  -94.550; -740.000; -714.000
867.841;   53.550;   97.000;   17.000
868.089; -152.875; -746.000; -698.000
868.336; -113.150; -477.000; -420.000
868.583; -150.175; -637.000; -741.000
868.830;  -53.575; -131.000; -170.000
869.077; -165.875; -859.000; -787.000
869.324; -134.475; -502.000; -458.000
869.571; -123.175; -398.000; -430.000
869.818; -124.450; -485.000; -439.000
870.065; -116.150; -439.000; -513.000
870.311; -119.350; -456.000; -542.000
870.558; -100.375; -332.000; -311.000
870.805;  -93.100; -320.000; -384.000
871.052; -119.750; -494.000; -369.000
871.298;  -71.175; -204.000; -131.000
871.545;  -82.575; -151.000; -185.000
871.792;  -81.625; -173.000; -222.000
872.038;  -75.600;   43.000; -126.000
872.285; -137.850; -496.000; -387.000
872.532; -108.000; -357.000; -387.000
872.778;   18.400;  556.000;  403.000
873.025;  -91.875; -384.000; -359.000
873.271;   22.150;  501.000;  578.000
873.517;  -46.925; -133.000; -209.000
873.764;  -51.675; -193.000;  -80.000
874.010;  -78.375; -143.000; -230.000
874.257;  -46.125;  123.000;   90.000
874.503; -130.525; -579.000; -479.000
874.749;  -83.525;   31.000;  275.000
874.995;  -77.000;  -80.000;  -20.000
875.242; -136.200; -540.000; -478.000
875.488; -115.925; -414.000; -439.000
875.734;  -58.000; -106.000; -234.000
875.980;  115.175; -872.000;-1032.000
876.226;  261.525; -157.000; -255.000
876.472;  -26.600;  343.000;  237.000
876.718;  -53.475;  184.000;  158.000
876.964;  -43.425;   56.000;   55.000
877.210; -171.650; -547.000; -677.000
877.456; -140.925; -630.000; -557.000
877.702; -194.900; -821.000; -832.000
877.948; -128.325; -377.000; -497.000
878.193;  -33.975;  361.000;  255.000
878.439; -110.975; -487.000; -472.000
878.685; -119.075; -272.000; -343.000
878.931; -143.175; -618.000; -676.000
879.176;  -82.675; -201.000; -201.000
879.422; -185.375; -933.000; -820.000
879.668;   16.975;   10.000;   79.000
879.913;  111.300;   53.000;  137.000
880.159;  -75.775; -112.000;  -17.000
880.404;  -69.475; -152.000; -162.000
880.650;  -55.750;   91.000;  141.000
880.895; -165.750; -670.000; -710.000
881.141; -133.575; -454.000; -428.000
881.386; -151.475; -503.000; -658.000
881.631;  -83.275; -311.000; -166.000
881.877;  -40.350;  112.000;  -13.000
882.122; -130.975; -684.000; -600.000
882.367;  -91.100; -136.000; -186.000
882.612;  -82.775;  -80.000; -176.000
882.858; -195.300; -877.000; -823.000
883.103; -101.950; -297.000; -267.000
883.348; -160.575; -759.000; -852.000
883.593; -157.225; -677.000; -602.000
883.838;  -67.625; -311.000;  -24.000
884.083;    8.725;  353.000;  288.000
884.328; -116.500; -564.000; -545.000
884.573;  -68.225; -196.000; -143.000
884.818;  138.550; -694.000; -531.000
885.063;  109.475; -348.000; -315.000
885.308; -117.775; -475.000; -398.000
885.553;  -17.325;  245.000;  325.000
885.797; -139.350; -545.000; -615.000
886.042;  -52.175;    8.000;   58.000
886.287;  -90.875; -253.000; -211.000
886.532;  -56.275;   26.000;  204.000
886.776; -108.475; -407.000; -525.000
887.021; -143.900; -621.000; -574.000
887.265; -154.725; -685.000; -689.000
887.510; -139.625; -557.000; -496.000
887.755;  -92.525; -194.000; -164.000
887.999; -148.050; -552.000; -575.000
888.244;  -66.925;  -58.000;  161.000
888.488;   -7.025;  371.000;  393.000
888.732; -141.350; -368.000; -520.000
888.977; -125.950; -622.000; -567.000
889.221; -163.475; -683.000; -659.000
889.465; -131.025; -422.000; -566.000
889.710;  -91.775;  -56.000; -299.000
889.954;    0.275;  579.000;  467.000
890.198; -143.675; -584.000; -707.000
890.442; -164.750; -716.000; -712.000
890.687; -173.850; -800.000; -753.000
890.931; -102.650; -273.000; -210.000
891.175; -140.175; -502.000; -500.000
891.419;  -78.575; -105.000; -110.000
891.663;  -91.250; -239.000; -112.000
891.907; -165.350; -801.000; -545.000
892.151; -185.100; -920.000; -815.000
892.395; -116.050; -274.000; -387.000
892.638;  -13.650;  408.000;  291.000
892.882; -180.275; -780.000; -867.000
893.126;    9.675;  758.000;  558.000
893.370;  -97.800; -167.000; -168.000
893.614; -147.850; -714.000; -715.000
893.857;  -98.575; -183.000; -197.000
894.101; -136.950; -527.000; -631.000
894.345;  -58.950;  300.000;  150.000
894.588;   13.950;  569.000;  380.000
894.832; -102.150; -178.000;  -84.000
895.075;  -80.225;   15.000;  -92.000
895.319; -140.125; -552.000; -420.000
895.563; -124.550; -413.000; -353.000
895.806; -152.250; -628.000; -741.000
896.049;  -87.825; -576.000; -368.000
896.293;   83.700;  527.000;  405.000
896.536;  -99.975; -465.000; -468.000
896.779;  -67.050; -149.000;   -1.000
897.023; -152.650; -751.000; -714.000
897.266;  -33.200;  325.000;  269.000
897.509; -187.275; -900.000; -901.000
897.752;  -51.025;  149.000;  171.000
897.996; -200.050; -972.000; -864.000
898.239;  -37.750;  168.000;  102.000
898.482; -130.075; -431.000; -453.000
898.725;  -35.375;  101.000;   53.000
898.968; -182.075; -609.000; -744.000
899.211; -119.125; -513.000; -361.000
899.454; -137.250; -633.000; -539.000
899.697;  -82.775;   90.000;  -43.000
899.940; -172.225; -761.000; -757.000
900.182; -117.975; -335.000; -405.000
900.425; -102.775; -150.000; -298.000
900.668;  -32.100;  491.000;  350.000
900.911; -115.950; -292.000; -345.000
901.154;  -56.600;  141.000;   -3.000
901.396; -143.050; -407.000; -412.000
901.639; -142.975; -430.000; -496.000
901.882; -175.075; -790.000; -809.000
902.124;  -98.400;  -29.000; -143.000
902.367; -126.950; -315.000; -361.000
902.609; -146.850; -476.000; -453.000
902.852; -103.525; -108.000; -260.000
903.094; -125.850; -458.000; -337.000
903.337;  -66.000;  -26.000;   53.000
903.579; -108.150; -228.000; -441.000
903.821; -160.600; -597.000; -744.000
904.064;  -65.300;   85.000;  127.000
904.306;  -83.225; -126.000; -166.000
904.548; -109.875; -152.000; -366.000
904.790; -112.725; -195.000; -340.000
905.033; -131.875; -625.000; -577.000
905.275; -139.900; -513.000; -524.000
905.517;   37.550;  468.000;  256.000
905.759;  -97.000; -667.000; -761.000
906.001; -122.900; -322.000; -369.000
906.243;  -83.625; -162.000; -224.000
906.485;   87.600; -265.000; -207.000
906.727;   34.900; -499.000; -542.000
906.969;  -54.800;  -30.000; -135.000
907.211;   62.975; -316.000; -382.000
907.453;  211.075; -188.000; -237.000
907.695;  -34.775; -158.000; -385.000
907.936;   45.400;  818.000;  706.000
908.178;  -62.125;   92.000; -135.000
908.420;  -69.125; -111.000; -162.000
908.662; -136.800; -633.000; -682.000
908.903;  -82.450; -208.000; -123.000
909.145;  -67.350; -240.000; -305.000
909.386;  -11.275;  315.000;  280.000
909.628;   33.775;  363.000;  397.000
909.870;  -13.550;   29.000;  264.000
910.111; -118.575; -809.000; -949.000
910.353;   -7.075; -123.000; -161.000
910.594;  -22.575; -574.000; -606.000
910.835;   78.650; -265.000; -326.000
911.077;  132.225; -503.000; -604.000
911.318;  280.775; -505.000; -471.000
911.559;  441.725; -577.000; -880.000
911.801; 1361.175; -284.000; -280.000
912.042;10825.950;  -50.000; -159.000
912.283;25947.200;  404.000;  371.000
912.524; 3574.625; -396.000; -457.000
912.765;  434.600; -193.000;   79.000
913.006;  216.075; -307.000; -338.000
913.247;   33.700; -270.000; -290.000
913.488;  -17.250;  -43.000;   30.000
913.729; -101.875; -373.000; -373.000
913.970;  -71.500;  -96.000; -292.000
914.211;  -70.300; -160.000; -198.000
914.452;  -81.325; -118.000;  -11.000
914.693;   -5.200;  510.000;  592.000
914.934;   12.375;  510.000;  440.000
915.175;  -74.775;   53.000;  -95.000
915.415;  -81.500; -137.000;   27.000
915.656;  -83.675;  -28.000;  192.000
915.897; -101.675; -252.000;  -82.000
916.137;  -67.150;   74.000;   -9.000
916.378; -141.050; -573.000; -517.000
916.619; -100.525; -159.000;  -63.000
916.859;  -42.225;  303.000;  330.000
917.100;  120.925; 1655.000; 1070.000
917.340;   46.475;  930.000;  728.000
917.581;   50.350;  965.000;  789.000
917.821;  -36.300; -171.000;  143.000
918.061;  -25.025; -199.000;  -72.000
918.302;  -75.475; -152.000; -211.000
918.542;  -27.150;  -22.000;    3.000
918.782;   24.300;  369.000;  377.000
919.023;  126.675;  360.000;  427.000
919.263; 1324.450; 8131.000;  202.000
919.503;  992.975; -137.000;  -54.000
919.743;  514.200;  390.000;  266.000
919.983;  196.125; -134.000;  -26.000
920.223;   61.075;  135.000;   14.000
920.463;  142.775;  631.000;  554.000
920.703;  135.550;   84.000;   39.000
920.943;  173.675; -110.000;   90.000
921.183;  223.500; -414.000; -405.000
921.423;  521.825;  307.000;  546.000
921.663;  748.775; -174.000; -257.000
921.903; 1680.625;  237.000;  173.000
922.143; 9477.575;  372.000;  389.000
922.383;35195.900;  158.000;  115.000
922.622;10746.800; -120.000;  -15.000
922.862; 1177.250;  796.000;  785.000
923.102;  453.825;  -51.000;   33.000
923.341;  170.725;   59.000;   74.000
923.581;   92.875;  450.000;  360.000
923.821;   14.975;  301.000;  398.000
924.060;   20.875;  351.000;  193.000
924.300;  -52.725;  -16.000; -128.000
924.539;  -19.750;  584.000;  473.000
924.779;   -0.350;  812.000;  597.000
925.018;  -39.225;  247.000;  353.000
925.257;  -13.800;  595.000;  666.000
925.497;  -33.750;  447.000;  412.000
925.736;  -82.250;  -35.000;  102.000
925.975;   -6.925;  687.000;  669.000
926.214;   24.525;  907.000;  850.000
926.454;    9.975;  706.000;  757.000
926.693;  -47.300;  419.000;  543.000
926.932;   34.300; 1021.000;  825.000
927.171;   66.650; 1107.000; 1044.000
927.410;   66.550; 1144.000;  967.000
927.649;   15.750;  924.000;  742.000
927.888;  -17.075;  590.000;  564.000
928.127;  -10.350;  680.000;  678.000
928.366;   26.925;  842.000;  826.000
928.605;   32.250;  831.000;  737.000
928.844;  223.225; 1451.000; 1393.000
929.083;  564.125;  770.000;  613.000
929.321;  300.950; 1335.000; 1359.000
929.560;   59.225; 1158.000; 1122.000
929.799;  -40.325;  574.000;  475.000
930.038;   79.850; 1025.000; 1394.000
930.276;  -56.150;  334.000;  397.000
930.515;    4.775;  827.000;  681.000
930.753;  -30.500;  614.000;  589.000
930.992;  -17.950;  664.000;  717.000
931.230;  -12.825;  847.000;  847.000
931.469;  185.900; 2162.000;  892.000
931.707;   55.025;  840.000;  751.000
931.946;   71.250; 1278.000; 1344.000
932.184;   73.675; 1437.000; 1175.000
932.423;   53.300; 1265.000;  963.000
932.661;   77.250; 1296.000; 1428.000
932.899;    5.175;  987.000;  821.000
933.137;   -4.975;  754.000;  564.000
933.376;  129.825; 1664.000; 1335.000
933.614;  148.025; 1759.000; 1196.000
933.852;   57.750; 1357.000; 1171.000
934.090;  144.975; 1722.000; 1747.000
934.328;  105.575; 1252.000; 1457.000
934.566;   94.300; 1431.000; 1110.000
934.804;  149.775; 1263.000; 1309.000
935.042;  540.850; 1861.000; 1850.000
935.280; 2250.675; 2088.000; 2063.000
935.518; 1928.375; 2113.000; 2007.000
935.756;  395.125; 2481.000; 2316.000
935.994;  164.900; 1808.000; 1751.000
936.231;  336.025; 2890.000; 2950.000
936.469;  193.150; 2367.000; 2378.000
936.707;  161.675; 2220.000; 2167.000
936.945;  232.525; 2825.000; 2882.000
937.182;  205.850; 2679.000; 2741.000
937.420;  286.875; 3602.000; 3031.000
937.657;  388.000; 3365.000; 3478.000
937.895;  346.000; 3331.000; 3488.000
938.133;  313.275; 3540.000; 3528.000
938.370;  333.775; 3896.000; 4191.000
938.607;  398.200; 4488.000; 4205.000
938.845;  545.850; 5587.000; 5549.000
939.082;  472.150; 5387.000; 5177.000
939.320;  535.650; 5799.000; 5728.000
939.557;  651.075; 6549.000; 6491.000
939.794;  722.400; 7285.000; 7097.000
940.031;  894.875; 8421.000; 8368.000
940.269; 1091.725; 9552.000; 9107.000
940.506; 1133.150;10901.000;10507.000

