
Integration time [ms]: 100.000
Averaging Nr. [scans]: 40
Smoothing Nr. [pixels]: 0
Data measured with spectrometer [name]: 2101013U2
Wave   ;Sample   ;Dark     ;Reference
[nm]   ;[counts] ;[counts] ;[counts] 

394.013;   37.906; -450.257; -315.536
394.305;  210.554; -461.258; -419.536
394.596; 1152.350; -676.269; -527.514
394.887; 2902.917; -796.268; -654.518
395.178; 1098.897;  145.736;   11.476
395.470;   59.734; -210.263; -356.526
395.761;  205.332;  305.734;  394.479
396.052;  309.699; -545.284; -306.489
396.343;  308.169; -557.276; -454.503
396.634;  100.063; -200.279; -290.497
396.926;  101.264; -618.268; -565.517
397.217;  109.199;   11.725;  -17.504
397.508;   45.215; -366.273; -154.507
397.799;   40.113; -555.279; -571.497
398.090;   -5.693; -973.280; -902.495
398.381;  110.448;   11.708;  -11.473
398.672;   -8.075; -585.292; -742.473
398.963;   33.819; -348.279; -373.498
399.254;   96.634;   54.709; -209.475
399.545;  -36.172;-1017.266; -883.520
399.836;   59.708; -407.277; -343.501
400.127;   39.099; -205.295; -209.468
400.418;   40.534; -423.274; -392.506
400.709;   45.369; -359.281; -333.493
401.000;   41.838; -268.291; -309.476
401.290;   97.611;  225.698;  115.545
401.581;   59.807; -166.286; -228.485
401.872;   18.371; -542.298; -486.462
402.163;   33.217; -313.296; -252.467
402.454;   90.434; -123.291; -163.475
402.744;   58.608; -844.297; -813.465
403.035;  398.390; -226.293;  -86.471
403.326;  527.477; -366.292; -384.474
403.617;  349.066;  204.701;  165.539
403.907;  242.680; -593.283; -679.490
404.198; 2544.364; -545.307; -599.446
404.489; 6516.435; -618.283; -588.491
404.779; 2104.764; -618.302; -660.456
405.070;  217.068;  -67.304; -174.451
405.360;  358.292; -259.293; -238.472
405.651;  370.850;  125.699;   98.542
405.942;  153.527;  209.714;  127.516
406.232;  222.741; -432.285; -413.487
406.523;  425.534;  641.706;  758.530
406.813;   54.579; -579.286; -644.484
407.104;  310.547;  261.708;  144.527
407.394;  140.442; -604.299; -591.462
407.685;  137.891;  336.715;  222.513
407.975;   47.858; -400.283; -382.490
408.265;  103.574; -134.289; -190.478
408.556;   57.806; -472.291; -459.475
408.846;  169.010;  474.706;  429.530
409.137;   82.507;   -1.288; -216.480
409.427;   49.366; -193.285; -271.487
409.717;   21.618; -776.273; -692.508
410.007;  131.435;    4.715; -170.486
410.298;   60.077; -360.295; -342.469
410.588;   61.138; -495.285; -510.486
410.878;   35.768; -792.287; -873.482
411.168;   96.499; -481.298; -478.463
411.459;  111.253; -295.283; -242.489
411.749;   59.655; -609.292; -507.474
412.039;   41.806; -755.289; -386.480
412.329;  190.476;   40.722;  132.501
412.619;  205.079;  -62.286; -148.485
412.909;  349.352;  639.711;  594.521
413.199;  316.157; -130.280; -251.495
413.490;  379.442;  521.710;  352.523
413.780;  137.261;-1013.279; -913.496
414.070;  311.845;  -46.276;  235.497
414.360;  345.597; -729.278; -666.498
414.650;  414.089; -726.288; -688.482
414.940;  538.786; -538.280; -441.496
415.230;  933.786;   50.712;   74.519
415.520; 6265.374;  155.730;   66.486
415.809;24896.644; -305.281; -125.493
416.099;19047.110; -388.277; -229.501
416.389; 5455.907;  435.726;  236.494
416.679; 3186.962;   91.738;   85.473
416.969;  550.223; -527.287; -503.483
417.259;  477.563;  341.721;  171.503
417.549;  696.542;  522.718;  318.508
417.838; 1710.216; -205.268; -147.518
418.128; 5782.398;  650.710;  492.522
418.418; 4756.049; -491.272; -579.509
418.708; 3244.882;    9.726;  -48.506
418.997;12249.178; -474.275; -480.505
419.287;12744.364; -733.273; -790.507
419.577;12232.377; -160.283; -123.489
419.866;40174.833; -588.277; -498.501
420.156;40729.020; -242.270;  -55.513
420.446; 7188.455; -112.263;  -26.526
420.735;  839.489; -376.271; -446.512
421.025;  809.621; 1830.722;  315.502
421.314;  645.962; -203.271; -226.512
421.604; 1229.034;   89.732;  233.484
421.893;  724.758; -705.271; -602.511
422.183;  226.430; -487.263; -461.526
422.472;  384.910;  -36.271; -107.511
422.762;  444.859; -416.266; -379.521
423.051;  250.546; -916.276; -916.503
423.341;  307.966; -491.273; -439.507
423.630;  411.840; -121.265;   15.477
423.919;  391.502;   58.725;   49.495
424.209;  366.185;  -31.263;   56.473
424.498;  510.339;   68.732;  161.483
424.787; 1115.245; -535.267; -601.518
425.077; 3462.564;   34.735;   29.478
425.366; 4721.316; -734.262; -744.528
425.655;10404.341;  639.727;  259.493
425.945;23419.721; -313.247; -268.554
426.234;12798.114;  117.741;  300.467
426.523; 5219.769;  -86.259; -350.534
426.812; 7200.080;  107.734;  159.480
427.101;10755.005; -127.269; -323.515
427.390;13446.874;  -55.270;  -86.514
427.680; 2848.189; -624.257; -411.538
427.969;  484.700; -330.255; -301.540
428.258;  309.280; -385.257; -477.536
428.547;  521.528;  449.728;  397.490
428.836; 1191.191; -421.253; -398.543
429.125; 1689.746; -199.259;  -72.534
429.414;  803.089; -330.251; -294.548
429.703; 3252.789; -231.251; -213.548
429.992; 9857.142; -938.250; -828.549
430.281; 6335.848; -397.264; -331.524
430.570;  562.629;  -21.252;   32.454
430.859;  529.819;  279.741;  352.466
431.148;  419.417;  636.752;  631.446
431.437;  262.154;  391.748;  367.454
431.725;  136.032; -544.257; -481.536
432.014;  139.348; -845.253; -756.545
432.303;  370.818; -149.239; -105.569
432.592;  581.429; -460.263; -178.525
432.881; 1062.993; -601.248; -437.554
433.169; 6511.151; -343.255;  -61.540
433.458;13272.827;  445.765;  540.424
433.747; 5463.122; -397.261; -289.529
434.036;  846.169; -275.242; -280.564
434.324; 2125.005; -395.249; -379.551
434.613; 3777.187;   40.757;  159.437
434.902; 1199.333;  333.760;  439.433
435.190;  488.942;   75.761;  295.431
435.479;  269.544;  -52.245;   83.441
435.767;   84.152; -411.244; -427.561
436.056;  203.014; -340.242; -294.563
436.345;  381.885; -372.240; -223.568
436.633;  377.050;   60.750;  383.450
436.922;  231.513;  208.760;  414.432
437.210;  496.642; -194.236;    1.426
437.499; 1561.825; -583.235; -432.576
437.787; 1727.966; -339.236;  -10.574
438.075;  451.322;   56.761;  162.430
438.364;  614.050;  -44.238;  250.429
438.652;  356.130; -286.226; -138.592
438.941;  110.144;    3.770;  269.415
439.229;   -7.249; -665.252; -466.545
439.517;   23.783; -160.234;  -85.577
439.806;  -17.154; -501.225; -290.595
440.094;  165.666;  377.766;  650.421
440.382;  145.570; -653.233; -302.580
440.670;  170.899; -361.235; -285.576
440.959;   15.813; -347.223; -170.599
441.247;   46.905; -151.229; -109.587
441.535;   69.907; -266.235;   31.423
441.823;   15.938; -497.234; -305.578
442.111;  177.360;  173.771;  327.412
442.400;  444.918; -628.245; -335.559
442.688; 1188.616; -111.234; -620.579
442.976;  796.002; -786.213; -450.617
443.264;   75.378; -324.224; -364.597
443.552;   86.606; -258.226;   51.408
443.840;  152.255;  602.765;  876.423
444.128;   96.844;  265.767;  269.420
444.416;  -11.988; -694.228; -312.588
444.704;   24.743; -465.219;  -92.605
444.992;   55.909;   -0.226;  240.407
445.280;   32.795; -517.230;  -94.585
445.568;   27.930; -694.212; -396.618
445.856;  300.152; -174.221;  357.398
446.143;  676.489;  -54.220;   -7.604
446.431;  548.066;  -25.228;  625.411
446.719;  224.537;  489.783;  675.391
447.007;  166.439;  481.769;  705.416
447.295;  173.160;  597.777;  871.402
447.583;   85.453; -464.229;  -34.587
447.870;  122.624; -434.221; -202.601
448.158;  364.268; -104.230;  129.415
448.446;  277.240; -800.219; -338.604
448.733;  164.804;   13.776;  269.403
449.021;  233.680;   60.788;  341.382
449.309;  168.320; -296.210;  208.379
449.596;  212.784;  128.783;   59.392
449.884;  147.442; -571.222; -325.600
450.172;  163.471; -756.227; -406.590
450.459;  448.535;  645.786;  780.387
450.747; 2564.032; -411.218; -147.608
451.034; 8138.217;  493.772;  889.411
451.322; 6693.638; -413.214; -170.614
451.609;  544.355;  292.777;  508.403
451.897;  627.008; -550.203; -183.634
452.184; 1897.911; -622.223; -400.598
452.472; 1755.441;   97.792;  269.375
452.759;  325.616;  512.781;  864.395
453.047;  101.802; -407.212; -125.617
453.334;   65.299; -732.219; -216.606
453.621;   63.490; -438.214; -161.615
453.909;   93.150;   13.796;  384.368
454.196;   89.121; -299.199; -123.641
454.483;  198.021;  317.798;  540.364
454.771;  129.944; -215.208;  196.374
455.058;   14.098; -316.207;  102.374
455.345;  122.426;   71.807;  344.347
455.632;   87.951; -128.207;  235.373
455.919;   37.268;  -82.196;  182.354
456.207;  -60.275; -774.198; -450.642
456.494;  -25.792; -475.200;  -66.639
456.781;   -0.733; -399.202; -198.635
457.068;   52.658; -253.206;  -29.628
457.355;  -10.891; -698.206; -401.629
457.642;   -6.436; -552.205; -290.630
457.929;  -11.408; -778.194; -417.651
458.216;   76.728; -575.212; -354.617
458.503;  241.622; -173.193;  -19.652
458.790;  248.042; -864.208; -630.625
459.077;  261.497;  -77.202;  110.364
459.364;  821.710; -350.195; -210.649
459.651; 1764.205;  -46.206;  220.372
459.938;  802.758; -864.209; -665.623
460.225;  145.975;  132.799;  276.363
460.512;  -62.610; -836.197; -688.645
460.799;   85.931;  -32.218;  320.392
461.086;   53.738; -370.200; -251.640
461.372;   14.976; -509.198; -279.642
461.659;   90.670; -165.196;  108.354
461.946;   55.520; -445.193;  -54.651
462.233;  228.486;  842.800;  888.361
462.519;  349.807; -814.201; -464.639
462.806; 1038.041; -768.197; -497.645
463.093;  900.341; -445.191;  -66.656
463.380;  -23.717; -920.186; -824.664
463.666;   41.043; -259.197;  -18.646
463.953;   99.230; -406.195; -243.648
464.239;  189.580; -173.195;  -77.648
464.526;  398.541;  413.806;  743.350
464.813;  321.603; -565.190; -304.658
465.099;  346.296;  606.807;  607.348
465.386;  305.000;  903.807;  921.348
465.672;   14.141; -694.197; -522.645
465.959;    2.871; -598.188; -520.662
466.245;   19.950; -468.193; -359.652
466.532;   80.128; -109.195;   63.352
466.818;   53.382; -357.186; -216.664
467.104;  -22.977; -488.182; -415.672
467.391;  -25.695; -628.189; -459.658
467.677;   31.636; -289.186;    9.335
467.964;   -9.189; -682.189; -471.660
468.250;   61.114; -331.186; -160.665
468.536;   70.231;   90.811;  180.341
468.822;  -47.824; -821.184; -574.668
469.109;  122.404;  351.827;  471.311
469.395;  186.360;  729.808;  787.346
469.681;  184.009;   46.811;  156.341
469.967; 1292.164; -699.188; -382.660
470.254; 2833.747; -494.188; -306.662
470.540; 1802.568; -601.196; -476.646
470.826;  254.759; -488.181; -397.675
471.112;  302.629;  288.816;  113.331
471.398;   71.859; -253.183;  -58.670
471.684;   19.312; -626.177; -447.680
471.970;   -4.812; -918.180; -981.675
472.256;   13.609; -521.192; -441.654
472.542;   -1.285; -499.171; -434.691
472.828;   -3.606; -743.182; -607.672
473.114;    6.559; -380.166; -283.700
473.400;   -2.146; -504.175; -293.684
473.686;   21.840; -452.166; -400.701
473.972;   47.794; -230.174; -131.687
474.258;  -44.446; -925.173; -843.689
474.544;  206.529; -183.178;   -2.679
474.830;  341.406;  -65.175;   45.316
475.116;  529.279; -123.190; -196.658
475.401;  714.015; -558.180; -467.676
475.687;  198.389; -725.180; -718.676
475.973;  -12.248; -673.181; -770.673
476.259;  232.933;  736.825;  764.315
476.544;  388.220; -539.176; -437.682
476.830;  910.736; -398.172; -322.690
477.116;  769.594; -430.177; -336.682
477.401;  135.339;  346.820;  358.324
477.687;  -16.596; -289.175; -405.684
477.973;   27.805;   21.819;   28.326
478.258;  -12.190; -448.163; -348.706
478.544;   39.269;   21.815;   61.334
478.829;  -69.530; -818.171; -738.692
479.115;  -45.665; -749.172; -651.690
479.401;  -13.886; -444.174; -449.686
479.686;   18.963; -253.180;  -74.676
479.972;  -26.241; -886.178; -776.680
480.257;   31.910; -258.166;  -65.700
480.542;   -6.901; -614.170; -469.693
480.828;  228.927; 1288.824; 1392.317
481.113;  -37.350; -464.176; -426.683
481.399;  -19.766; -236.161; -202.711
481.684;  -63.641; -620.166; -462.700
481.969;   15.548; -158.159;  -73.713
482.255;   -9.415; -439.169; -285.695
482.540;   -4.916; -569.178; -441.680
482.825;   -7.272; -395.187; -404.663
483.110;  100.638;  -85.169; -105.696
483.396;  206.819; -840.157; -652.718
483.681;  521.494;  543.826;  730.313
483.966;  171.317; -696.160; -700.712
484.251;   -6.157; -404.174; -310.687
484.536;  -13.305; -356.165; -378.703
484.822;    5.296; -205.173; -218.687
485.107;  -35.242; -599.152; -502.726
485.392;  123.676;  662.836;  541.296
485.677;   59.398;  354.832;  163.302
485.962;   91.267;  160.843;  270.283
486.247;   71.968;  -14.162;   -8.707
486.532;   27.336; -178.166; -325.701
486.817;  145.154;  381.839;  431.291
487.102;  124.216; -453.154; -514.722
487.387;  708.071; -637.156; -652.718
487.672; 1272.431; -154.164;  -38.705
487.957;  789.361; -394.160; -286.711
488.241;  201.050; -290.150; -314.729
488.526;  791.559; -280.152; -148.726
488.811; 1313.186; -881.177; -818.680
489.096;  946.193; -666.154; -702.723
489.381;  516.080;    3.847;  162.275
489.666;  405.009; -428.161; -510.710
489.950;  154.221;  558.846;  627.277
490.235;  -39.205; -480.151; -458.728
490.520;  -49.567; -756.161; -723.710
490.804;  -69.527; -827.156; -736.719
491.089;   -0.985; -469.149; -299.732
491.374;   57.505; -132.164;  -75.704
491.658;  -18.148; -817.147; -717.735
491.943;  154.038; -657.152; -609.727
492.227;  246.112; -178.155;  -38.721
492.512;   37.217; -294.157; -341.717
492.797;  -60.716; -713.149; -716.731
493.081;  -60.745; -588.147; -598.735
493.366;  -37.265; -751.161; -635.711
493.650;  198.183;  831.859;  917.254
493.935;   31.726; -648.147; -447.734
494.219;  -40.180; -778.142; -687.743
494.503;  -52.721; -585.150; -487.730
494.788;   44.058;   46.842;   74.285
495.072;   99.276;  184.850;  434.271
495.356;  179.844; -463.148; -343.733
495.641;  483.611; -812.146; -736.736
495.925;  434.578; -976.156; -903.719
496.209;   34.590; -599.149; -451.732
496.494;  -43.429; -763.142; -544.744
496.778;   -7.059; -364.154; -360.722
497.062;  -52.622; -819.156; -627.719
497.346;  -29.037; -869.160; -640.711
497.631;  152.872;  580.852;  560.266
497.915;   69.947;  -64.145;  175.261
498.199;   37.094; -341.157; -277.718
498.483;   32.957; -562.152; -508.725
498.767;  203.102;  301.850;  300.271
499.051;  183.987; -126.149; -100.732
499.335;   14.636; -693.149; -739.731
499.619;  -38.315; -381.129; -423.767
499.903;   18.885; -272.155;  -65.721
500.187;   19.248; -588.153; -316.724
500.471;   13.363; -796.152; -595.727
500.755;  107.733;   62.839;  -96.710
501.039;    7.886; -270.155; -357.721
501.323;   63.410;  -21.141;  264.254
501.607;   24.236; -447.163; -503.706
501.891;  -11.054; -607.156; -512.718
502.174;  -53.942; -726.144; -585.741
502.458;   68.892;   89.849;  370.273
502.742;   41.484; -180.138; -191.751
503.026;  125.026; -412.147; -254.734
503.310;  193.422; -437.159; -375.713
503.593;  134.878; -464.147; -325.735
503.877;  108.574; -232.133; -156.760
504.161;  171.700;    2.847;  -50.724
504.444;  138.385; -841.158; -710.716
504.728;  491.454; -487.164; -522.704
505.012;  762.499; -257.150;  -76.729
505.295;  571.334; -417.161; -212.711
505.579;  571.603; -256.156; -496.719
505.862;  822.643; -555.145; -333.738
506.146;  814.474; -681.159; -758.714
506.429;  426.475;  568.841;  461.286
506.713;   75.721; -732.151; -667.728
506.996;  331.565;   90.846;  295.278
507.280;  374.724; -633.165; -474.703
507.563;  258.209; -469.155; -261.721
507.847;  100.499; -423.153; -112.724
508.130;   99.735; -665.161; -456.711
508.413;  114.581; -758.167; -577.700
508.697;  259.556; -151.167;   12.300
508.980;  161.400; -422.153; -312.724
509.263;   -6.045; -466.155; -450.720
509.547;   32.799; -124.150;   82.271
509.830;   38.537; -172.160;  140.289
510.113;   85.377;  128.844;  298.281
510.396;   25.056; -530.152; -300.725
510.680;  131.345; -818.145; -812.738
510.963;  508.920;  184.846;  180.277
511.246;  431.581; -493.150; -357.730
511.529;  241.374; -482.145;  -83.739
511.812;  389.921; -250.134;   10.241
512.095;  306.093; -740.151; -396.728
512.378;   70.857; -317.147; -245.736
512.661;   21.666; -703.137; -623.753
512.944;   37.297; -750.142; -637.744
513.227;   64.414; -170.137; -171.752
513.510;   21.408; -479.144; -671.741
513.793;   43.264; -485.140; -435.747
514.076;  144.730;  -43.127;  -39.771
514.359;  107.541; -294.149; -135.732
514.642;   82.900; -442.142; -567.744
514.925;  794.863;  581.860;  561.253
515.208; 1096.892; -498.134; -443.758
515.491;  702.431; -276.133; -182.761
515.773;  385.912; -410.143; -337.742
516.056; 2249.723;  249.864;  409.246
516.339; 3017.202; -754.136; -652.755
516.622; 1918.629; -518.150; -488.730
516.904; 1134.194;  882.857;  975.257
517.187;  520.337; -730.138; -523.752
517.470;  412.068; -568.143; -510.743
517.752;  477.705; -624.136; -470.756
518.035;  373.325; -708.139; -725.749
518.318;  391.902; -799.136; -744.755
518.600; 2680.660; -300.132; -325.762
518.883; 3653.750;  310.858;   88.256
519.165; 1726.630; -585.138; -426.751
519.448;  392.784;  -61.132;  -19.762
519.730;  193.213; -573.126; -415.773
520.013;  307.552;  588.867;  664.240
520.295;  720.072;  -94.134;  -15.759
520.578; 1653.597; -335.131; -305.764
520.860; 1861.309; -254.132;   56.238
521.143; 1016.432; -763.135; -584.756
521.425;  495.151; -251.125; -279.775
521.707;  715.306; -622.127; -380.771
521.990; 1935.481; -199.127;  167.229
522.272; 2191.741; -116.140;   -4.748
522.554;  965.362; -237.143; -157.742
522.836;  333.320;  -24.134;   99.241
523.119;  220.800; -496.148; -189.734
523.401;  165.429; -448.130; -314.766
523.683;  113.242; -865.137; -693.753
523.965;  285.260;  408.862;  260.248
524.247;  301.497;   54.878;  170.220
524.529;  207.472; -451.134; -367.759
524.812;  372.206;   -3.130;  191.234
525.094;  909.660; -773.138; -631.751
525.376; 1477.635; -143.124;   78.223
525.658;  901.999; -441.136; -339.754
525.940;   43.494; -805.131; -671.764
526.222;   32.803; -188.136;  -88.755
526.504;   96.167; -190.131;   32.237
526.786;  159.075; -960.133; -647.760
527.068;  286.191; -124.123;  -67.778
527.349;  110.346; -865.137; -774.754
527.631;  133.559; -137.132;   22.238
527.913;  145.505; -664.127; -450.771
528.195;  184.494; -761.125; -639.774
528.477;  262.717;  -93.134;  -30.758
528.759;  136.681; -648.130; -522.766
529.040;   61.089; -569.123; -293.778
529.322;   62.497; -235.125;  -10.774
529.604;  136.033;  -47.130;   93.233
529.886;  115.813; -546.126; -302.773
530.167;  115.450;  232.870;  192.235
530.449;   44.831;    1.853;   63.265
530.731;   14.496; -572.122; -459.779
531.012;  100.242; -513.120; -216.784
531.294;   86.656; -118.116;  -43.792
531.575;  159.701;  290.875;  538.225
531.857;   65.387; -548.135; -266.757
532.138;   97.258; -113.141;   40.254
532.420;  165.558;  294.865;  403.244
532.701;  201.177; -722.133; -751.760
532.983;  320.205;  232.867;  182.239
533.264;  115.636; -243.126;  175.228
533.546;  -44.498; -491.136; -508.755
533.827;   32.024;  173.867;   -1.759
534.109;   36.287; -352.135;  -80.757
534.390;   86.213; -725.132; -582.762
534.671;  254.358; -270.135;  -82.756
534.953;  157.042; -751.123; -611.779
535.234;   17.316; -426.117; -255.789
535.515;  -67.374; -891.119; -735.785
535.796;  -17.849; -431.128; -193.770
536.078; -117.715;-1050.124; -904.777
536.359;   -1.707;  -22.123;    3.221
536.640;  -18.080; -480.125; -197.774
536.921;  135.189;  225.871;  143.232
537.202;  387.156;  -87.138;  -16.751
537.483;  506.122;  251.869;  377.236
537.764;  189.000;   17.870;   98.235
538.045;  -52.334; -543.134; -371.758
538.326;  -32.335; -596.129; -447.768
538.607;    7.107; -686.127; -476.771
538.888;  174.283;   98.879;    5.218
539.169;  203.578; -704.122; -535.781
539.450;  329.687;  236.871;   16.233
539.731;  227.912; -361.121; -182.783
540.012;  127.492;  199.880;  412.216
540.293;   84.704;   82.876;  158.224
540.574;    0.902; -895.113; -717.796
540.855;  446.961;  435.879;  377.218
541.136;  529.900;   47.878;  139.220
541.416;  292.057; -161.130; -220.766
541.697;  191.692; -274.131; -170.763
541.978; 1090.185; -270.135; -315.757
542.259; 1403.282; -211.127; -236.771
542.539;  687.700; -191.116; -186.790
542.820;  186.276;  461.875;  480.225
543.101;  116.646;  -52.145;  -77.738
543.381;   32.206; -638.127; -591.771
543.662;  269.104;  159.873; -254.771
543.942;  611.877; -751.127; -830.770
544.223; 1114.277;  193.878;  161.219
544.504;  729.059; -275.124; -182.777
544.784;  619.788; -592.126; -408.773
545.065; 1727.304;  104.884; -254.791
545.345; 2079.376;  227.881;   14.215
545.626; 1361.526;  -14.113; -108.796
545.906;  956.899;   77.869;   98.235
546.186;  394.617;   92.874;  -95.773
546.467;  203.812;   99.877;  -95.778
546.747;  348.625;  264.884;  327.210
547.027;  386.558;   91.876;  111.223
547.308;  357.726; -376.127; -530.770
547.588;  412.641;  299.871;  371.232
547.868;  199.401;  458.870;  588.235
548.149;  194.711;  609.885;  593.207
548.429;  144.055; -347.127; -299.771
548.709;  201.842; -645.120; -461.784
548.989;  516.285;   84.882;   88.213
549.269; 2281.033;   10.868;  139.239
549.550; 5265.941;  215.877;  117.222
549.830; 4714.394; -758.111; -556.799
550.110;  905.227; -468.110; -320.801
550.390;  882.072; -128.122;  -56.779
550.670; 1228.897; -868.114; -783.795
550.950;  865.760; -509.121; -471.782
551.230;  198.982;  549.879;  460.218
551.510;   -4.366; -381.121; -326.782
551.790;   30.185; -173.109; -127.803
552.070;  261.812;  940.877; 1181.223
552.350;  456.380; -492.119; -377.786
552.630;  642.679;   -2.121;   77.219
552.909;  398.055;  181.884;   73.209
553.189;  247.289;  -49.132;   33.237
553.469;  205.229; -703.119; -514.786
553.749;  211.383; -469.127; -357.772
554.029;  180.346;   33.883;  -24.790
554.308;  161.991; -154.115;  -37.794
554.588;   73.450; -196.128; -204.770
554.868;   68.711; -366.121;  -47.782
555.147;  158.463; -114.115;  -46.793
555.427;  652.482; -260.116; -250.792
555.707; 4232.786; -284.115; -200.793
555.986; 5126.348; -719.111; -538.800
556.266; 2683.099;   23.884;   72.210
556.546;  122.134; -888.121; -675.782
556.825;  272.595; -657.114; -556.794
557.105; 1930.123; -125.128;   17.230
557.384; 2284.453;  122.884;  187.209
557.664;  854.606; -717.116; -508.792
557.943;  129.035; -557.121; -411.782
558.222;  201.938; -345.118; -344.788
558.502;  290.139; -116.115;  -76.793
558.781;  515.960;  194.885;  499.208
559.061;  434.713; -232.118; -227.788
559.340;  309.868;  302.883;  353.211
559.619;  781.274;   93.884;  148.210
559.899; 1136.870; -239.117; -266.789
560.178; 1022.239; -778.115; -593.793
560.457; 3408.222; -623.117; -562.790
560.736; 4790.374; -472.111; -482.800
561.015; 3167.846; -500.128; -502.769
561.295;  399.055;  180.893;  215.193
561.574;  363.936;  119.885;  116.207
561.853;  515.639;  274.891;  303.197
562.132;  542.416;  -45.114;  182.206
562.411;  458.030;  396.879;  553.219
562.690;  158.109; -592.115; -458.792
562.969;  144.209;  472.888;  630.203
563.248;  477.677; 2966.878; 2487.219
563.527;  296.823; -290.111; -408.800
563.806;  428.180; -650.127; -521.771
564.085;  476.045; -297.105; -206.810
564.364;  265.348; -594.117; -405.790
564.643;  539.230; -276.121; -223.781
564.922; 2022.283;  221.890;  397.198
565.201; 2075.187; -640.109; -700.803
565.479;  892.708; -297.115; -219.792
565.758;  363.573; -810.128; -712.770
566.037;  516.713; -155.109; -100.803
566.316;  242.854; -286.116;  -28.791
566.595;   41.911;  -17.115;  -12.793
566.873;   95.700; -166.111;  -79.801
567.152;  -59.942; -490.113; -590.797
567.431;   12.700; -113.116;    6.210
567.709;   18.980; -344.107; -212.807
567.988;  302.545; -810.114; -769.794
568.266;  576.186; -160.115;  -68.793
568.545;  414.592; -644.100; -514.819
568.824;  634.932;  160.885;  356.208
569.102;  633.344; -351.114; -235.794
569.381;  249.757; -492.116; -407.792
569.659;  -51.896; -553.113; -553.796
569.938;   38.351; -743.122; -465.780
570.216;  131.440; -225.109; -225.804
570.494;  -20.402; -632.114; -572.795
570.773;   37.309;  202.879;  114.218
571.051;    9.565; -373.123; -357.778
571.330;   58.752; -221.113; -174.796
571.608;   44.135; -181.098; -173.823
571.886;  -64.507; -671.111; -581.799
572.164;  -62.064; -739.121; -621.782
572.443;  -54.801; -562.105; -512.811
572.721;  -35.178; -399.117; -289.790
572.999;  -30.710; -280.117; -168.788
573.277;   94.567;  379.894;  620.191
573.555;  304.744;   94.894;   37.190
573.834; 1469.940;  -86.117; -114.788
574.112; 1697.032;  880.893;  811.193
574.390;  507.774; -143.111;  -96.801
574.668;    4.934;  -91.112;  -61.797
574.946;   -8.056; -165.106; -187.810
575.224;    2.211;   71.891;  -16.803
575.502;  -21.749; -200.116; -204.791
575.780;  -83.365; -767.112; -829.798
576.058;  141.573; 1589.889; 1004.200
576.336;  -36.621; -210.110; -129.801
576.614;  -59.464; -511.112; -340.798
576.891;   64.965; -711.115; -823.794
577.169;  541.523; -158.108; -285.805
577.447;  623.782;  169.893;  202.193
577.725;  278.165;  629.888;  854.201
578.003;   10.913;  -71.112; -371.798
578.280;   94.258; -208.104; -242.812
578.558;   62.489; -450.115; -422.793
578.836;  130.847; -210.114; -145.795
579.114;   51.209; -630.112; -670.797
579.391;   63.667;   -6.117;  -18.789
579.669;  -79.909; -595.114; -704.794
579.947;  174.579; -326.107; -127.806
580.224;  352.203; -692.107; -524.806
580.502;  329.858;  127.893;   76.193
580.779;   24.048;  -42.117;   75.210
581.057;  -62.034; -584.109; -470.804
581.334;  -95.202; -726.102; -695.815
581.612;   27.845;   54.895;  511.190
581.889;  -26.214;  -83.101; -129.818
582.167;  -33.475; -298.099; -190.821
582.444;  -93.195; -845.102; -814.817
582.721;   94.631;  657.899;  715.183
582.999;   56.322; -326.100; -167.821
583.276;  573.569; -812.123; -713.779
583.553;  767.826; -364.102; -294.816
583.831;  278.029; -607.104; -631.812
584.108;   42.746;  349.892;  174.195
584.385;   13.172; -122.102;  -98.815
584.662;  -62.449; -651.111; -828.801
584.940;   16.350;  204.889;  204.199
585.217;  -21.446;  -73.113; -303.796
585.494;   32.759;   71.890;  118.198
585.771;  211.866; -250.109; -354.804
586.048;  524.254; -196.113;  -76.796
586.325;  339.203; -721.110; -773.801
586.602;   81.708;  230.896;  213.188
586.879;  -14.956; -499.100; -580.820
587.156;   57.671; -156.105; -331.810
587.433;  -33.672; -701.102; -667.817
587.710;   62.036;  152.888;  234.202
587.987;  305.401; -264.105; -236.811
588.264;  815.038;  315.888;  387.202
588.541; 1415.185;  -61.104;   26.187
588.818; 2855.119;   72.892;  171.196
589.095; 2436.856; -163.104; -174.812
589.371;  384.014; -459.109; -414.804
589.648;   22.132; -581.107; -437.807
589.925;   31.123; -517.114; -621.795
590.202;   27.936; -741.112; -607.798
590.478;   89.903; -166.105;  -73.811
590.755;  274.000; -241.108; -132.806
591.032; 2644.780; -741.110; -699.802
591.308; 3715.225; -732.094; -790.831
591.585; 1931.105; -573.110; -560.802
591.862;  159.080;-1056.102; -950.817
592.138;   58.172; -475.108; -474.805
592.415;  159.109; -486.104; -495.813
592.691; 1512.007;  460.896;  518.188
592.968; 1965.737; -208.098; -123.824
593.244;  960.525; -695.116; -595.790
593.521;   79.530; -105.102;  -42.817
593.797;  -18.202; -810.122; -720.780
594.074;  343.500; -611.096; -588.826
594.350;  699.936;  828.905;  729.172
594.626;  323.576; -303.111; -283.801
594.903;  128.331; -643.101; -645.817
595.179;  178.813;  243.896;  418.187
595.455;    4.559; -136.107; -150.807
595.731;    4.814;  -19.103;  -38.814
596.008;  -24.005; -464.111; -434.800
596.284;   38.396; -187.100; -242.820
596.560;   62.557; -501.093; -493.833
596.836;  213.623; -173.105;  -70.810
597.112;  353.348; -582.108; -437.805
597.388;  288.097;  -49.097;  -48.826
597.665;  115.057;  437.887;  530.203
597.941;  -50.639; -572.089; -658.839
598.217;   10.983; -323.110; -293.802
598.493;  276.818;   61.891; -204.804
598.769;  539.391; -175.100;  -50.819
599.045;  311.201; -490.108; -562.806
599.321;   56.270; -193.100; -261.820
599.597;  151.517; -355.109; -476.804
599.872;  502.935;  409.896;  429.187
600.148;  382.774;  -61.097; -172.826
600.424;  313.781;   91.893;  202.193
600.700;  248.508; -170.107; -280.807
600.976;  122.693; -442.097; -464.825
601.252;  251.264; -226.109; -272.803
601.527;  249.411; -833.104; -840.813
601.803;  152.404; -453.105; -404.812
602.079;  173.441; -124.100; -118.819
602.354;  603.891; -620.092; -531.835
602.630;  875.479; -140.113; -482.796
602.906; 2462.461; -910.101; -863.818
603.181; 7241.855; -627.119; -534.786
603.457; 6083.447;   98.903; -278.826
603.733;  877.613; -605.120; -626.783
604.008; 1034.045; -245.106; -164.810
604.284; 3240.932; -636.101; -580.817
604.559; 2826.115;   -3.112;  -42.799
604.835;  509.473; -163.105; -225.810
605.110;  444.551; -732.099; -892.821
605.385;  731.284;  224.907;  267.167
605.661;  713.438; -625.095; -729.829
605.936; 1284.526; -664.108; -737.806
606.211; 1066.746;  -17.103; -170.815
606.487;  224.418; -329.114; -376.794
606.762;   39.930; -791.119; -745.786
607.037;  -19.927; -501.105; -433.810
607.313;  -49.618; -589.096; -574.828
607.588;   -9.930; -375.106; -137.810
607.863;   40.810;  -28.101; -143.818
608.138;  169.457;  513.890;  516.198
608.413;   58.079; -576.099; -592.822
608.688;   60.173; -203.108; -267.805
608.964;  216.964; -509.106; -218.809
609.239;  273.645; -107.105; -212.810
609.514;  267.378;  281.895;  240.188
609.789;  709.833; -187.104; -716.812
610.064;  916.955; -435.096; -609.827
610.339;  922.889; -855.109; -799.804
610.614; 1275.221; -131.100; -315.820
610.889;  704.129;  215.895;  107.188
611.163;   58.554; -407.104; -591.812
611.438;   74.619;   81.886; -167.794
611.713;   14.707; -467.101; -499.817
611.988;   59.284; -144.101; -328.818
612.263;  -12.677; -771.102; -717.815
612.538;  224.678;  385.887;  251.204
612.812;  180.647; -832.100; -911.820
613.087;  137.460; -358.098; -338.823
613.362;  -49.117; -497.107; -557.807
613.637;   49.642;  261.897;  138.186
613.911;   -5.283; -256.092; -345.835
614.186;  138.382; -249.107; -292.807
614.460;  767.811; -842.081; -758.854
614.735;  834.934;  -55.087;  -17.843
615.010;  198.374;   43.912;  -82.841
615.284;  257.947;  360.892;  246.195
615.559;  397.541; -792.092; -955.835
615.833;  314.803;  -76.099;  -87.822
616.108;   -4.097; -225.090; -390.837
616.382;  150.711;  274.913;  402.156
616.656;  173.928; -241.090; -232.837
616.931;  539.103; -785.099; -700.822
617.205; 1147.737; -973.104; -979.813
617.480; 1030.699;  -91.125;    6.225
617.754;  187.171; -396.125; -128.774
618.028;   11.392; -369.129; -382.768
618.302;   61.421;   73.892;  -25.805
618.577;  -40.857; -371.103; -518.815
618.851;  -61.539; -399.109; -600.803
619.125;  -53.953; -335.134; -378.759
619.399;  -26.238; -244.104; -374.813
619.673;  -35.467; -330.115; -515.792
619.947;  -38.128; -333.114; -448.795
620.222;  -15.948; -198.110; -204.801
620.496;   -6.914;  -47.121;  -96.782
620.770;    2.227; -187.122;  -93.781
621.044;  221.221;  323.895;  346.190
621.318;  763.739; -653.120; -614.783
621.592;  699.861; -430.121; -409.783
621.866;  403.516; -476.112; -572.799
622.140;   26.401; -207.116; -356.791
622.413;   50.320;  138.889;  112.200
622.687;  -37.818; -746.101; -492.817
622.961;   18.546; -130.108; -143.805
623.235;  -48.929; -633.111; -661.800
623.509; -102.872; -816.105; -848.811
623.783;   14.829;  -12.107;   48.193
624.056;  -29.910; -254.120; -280.783
624.330;   56.259;   63.888;   -3.797
624.604;   60.423; -271.116; -355.790
624.877;   75.756;  180.890;   26.198
625.151;   35.117; -249.114; -238.794
625.425;  -34.111; -150.103; -283.814
625.698;  -46.651; -367.119; -374.785
625.972;  -97.691; -799.110; -765.802
626.245;   68.650;  685.884;  484.210
626.519;  -51.531; -426.120; -340.784
626.792;  -30.292; -192.107; -380.807
627.066;  -80.780; -485.122; -662.779
627.339;  -98.245; -736.110; -663.802
627.613;   31.842;  351.880;  148.216
627.886;   52.960;  187.891; -612.803
628.160;  -18.512;  312.880; -161.783
628.433;  -99.848; -695.125; -703.775
628.706;  -88.606; -517.120; -615.784
628.979;   35.508;  296.876;  117.223
629.253;  -92.871; -785.119; -833.786
629.526;  386.286; -334.126; -253.772
629.799;  388.815; -641.123; -479.778
630.072;  187.043; -497.128; -516.769
630.346;  -52.900;-1115.116;-1080.790
630.619;  491.359; -467.107; -545.808
630.892;  664.171;  709.889;  593.200
631.165;  342.737;  790.896;  679.187
631.438;  -76.212;-1092.112;-1055.798
631.711;   39.768;  453.877;  257.221
631.984;  -60.255; -523.117; -624.789
632.257;  -80.383; -636.117; -681.789
632.530;  -52.701; -412.119; -433.785
632.803;   12.790; -109.115;    7.207
633.076;  -79.938; -360.123; -422.777
633.349;   -1.803;  173.872;  121.231
633.622;  -38.277; -187.119; -240.785
633.895; -113.860; -903.120; -823.783
634.167;  -67.662; -496.126; -525.773
634.440;   -9.494;  -19.116; -137.792
634.713;  -14.647;  -22.119; -120.786
634.986;   76.537;  593.871;  453.233
635.258;  -62.462; -507.115; -597.793
635.531;   90.088;  742.882; -343.788
635.804;  -34.856; -303.117; -318.789
636.077;  -90.898; -830.116; -852.791
636.349;    7.887; -586.115; -474.793
636.622;  403.710; 1695.874; 1392.228
636.894;  268.594; -474.120; -909.784
637.167;  172.979; -836.127; -789.771
637.439;   27.026; -278.128; -213.770
637.712;  -49.938; -312.126; -293.772
637.984;  -90.472; -635.116; -707.791
638.257;  390.512;  515.877;  488.222
638.529;  582.828; -881.125; -924.776
638.802;  257.868; -508.128; -449.769
639.074; -111.648; -927.122; -952.781
639.346; -121.236; -942.135; -930.757
639.619;    6.049;  -79.142; -319.744
639.891;  -13.055;  -83.122; -168.779
640.163;  -87.428; -689.122; -756.780
640.435;   28.499;  273.878;  103.220
640.708;    9.001;  -72.122; -132.780
640.980;  -31.772; -366.122; -362.781
641.252;  190.430;  -25.121;  -71.781
641.524; 1827.181;  580.879;  573.219
641.796; 1874.008;-1094.121; -907.782
642.068;  336.385; -191.121; -300.782
642.340;  -57.413; -486.121; -566.783
642.613;   39.264;  294.880;  323.217
642.885; -105.109; -787.120; -878.783
643.157;  -42.383; -810.120; -658.784
643.428;   56.444;  170.880;  218.216
643.700;  -70.504; -498.120; -425.784
643.972;  -27.627;  -16.119; -133.785
644.244;  -91.675; -474.119; -559.785
644.516;  -60.873; -250.119; -114.786
644.788;   51.528;  662.881;  548.214
645.060;  -23.395;  -12.119; -124.786
645.332; -101.993; -525.118; -535.787
645.603;   43.334;  479.882;  342.213
645.875;  -72.664; -334.118; -369.787
646.147;  155.488; 1487.882; 1242.212
646.418;  -51.186; -931.117; -918.788
646.690;  183.791; -714.117; -715.789
646.962;   59.293; -413.117; -451.789
647.233;  -12.330;   15.883;   11.211
647.505; -101.378; -595.117; -475.790
647.776;    3.474;  328.884;  229.210
648.048;    1.750; -248.116; -418.790
648.320;  -92.748; -752.116; -679.791
648.591; -154.846;-1055.116; -958.791
648.862;  -96.644; -505.116; -577.792
649.134;    6.283;  115.885;  198.208
649.405;  -36.615; -661.115; -618.792
649.677;  -50.989; -475.115; -598.793
649.948;   -5.237; -181.115; -296.793
650.219;   -9.110;  -37.115; -147.793
650.491;  -73.758; -431.114; -520.794
650.762; -117.931; -705.114; -731.794
651.033;  -88.304; -437.114; -424.795
651.304;  -93.503; -743.114; -728.795
651.576;  -63.526; -680.114; -645.795
651.847;  -43.499; -250.113; -140.796
652.118;  -20.847;  -32.113; -189.796
652.389; -111.695; -639.113; -722.796
652.660;  -31.968; -147.113;  -89.797
652.931; -130.717; -897.112; -871.797
653.202;  -94.015; -382.112; -541.798
653.473;  -71.338; -633.112; -533.798
653.744;  163.614; -595.112; -590.798
654.015;  148.366; -356.112; -303.799
654.286;  -72.382; -642.111; -663.799
654.557;  -53.881; -586.111; -521.799
654.828; -161.354;-1114.111;-1088.800
655.099;  -71.777; -404.111; -291.800
655.370;  -91.125; -427.111; -543.801
655.641; -127.848; -656.110; -714.801
655.911; -106.271; -618.110; -638.801
656.182;   34.905;  437.890;  387.198
656.453;   78.882;  830.890;  746.198
656.724;  -70.591; -466.110; -426.802
656.994;  -74.989; -553.109; -568.803
657.265; -117.187; -862.109; -873.803
657.536;  -97.535; -500.109; -377.804
657.806; -104.984; -561.109; -593.804
658.077; -149.632; -866.109; -950.804
658.347;  -94.405; -523.108; -598.805
658.618; -121.203; -646.108; -694.805
658.888;  -24.201;  -41.108;  112.195
659.159;  -77.599; -432.108; -548.806
659.429;   -2.198; -292.108; -349.806
659.700;   18.054; -435.107; -390.807
659.970;  -13.344; -370.107; -359.807
660.241;   11.333; -754.107; -921.807
660.511;  517.285; -147.107; -174.808
660.781;  100.912; -793.106; -748.808
661.052;  -52.662; -222.106; -381.808
661.322;  -21.010;   21.894;   -9.809
661.592;   -0.158;  257.894;  148.191
661.862;  -82.056; -369.106; -382.810
662.133;  -93.079; -551.105; -502.810
662.403; -109.828; -770.105; -676.810
662.673;  -61.526; -256.105; -213.811
662.943; -102.549; -612.105; -551.811
663.213;   -5.872;  -85.105;  -81.811
663.483;  -76.495; -593.104; -568.812
663.753;  -49.643; -194.104; -152.812
664.023;  -27.092;   68.896;  -32.813
664.293;  -66.415; -319.104; -126.813
664.563; -113.113; -694.104; -648.813
664.833; -121.161; -743.103; -608.814
665.103; -125.284; -730.103; -793.814
665.373; -121.932; -766.103; -806.814
665.643;  -94.381; -863.103; -918.815
665.913;   43.721; -534.103; -714.815
666.182;  157.948; -685.102; -719.816
666.452;  281.400;  -22.102;  -89.816
666.722;  -24.573; -724.102; -784.816
666.992; -125.471; -948.102; -921.817
667.261;  -87.520; -824.102; -808.817
667.531;  184.507;  134.899;   45.183
667.801;  543.534; -440.101; -412.818
668.070;  229.861;  714.899;  697.182
668.340;  -89.587; -883.101; -840.819
668.609;   83.765;  588.900;  301.181
668.879;  -79.984; -490.100; -558.819
669.149;  -65.607; -539.100; -516.820
669.418;  -96.530; -698.100; -726.820
669.688;  -30.703; -482.100; -666.820
669.957;   78.424; -423.099; -546.821
670.226;  -27.274; -268.099; -331.821
670.496;  -99.323; -431.099; -635.822
670.765;  -77.521; -418.099; -501.822
671.034; -129.169; -872.099; -828.822
671.304;  -16.667;   55.902; -111.823
671.573; -143.515;-1085.098; -957.823
671.842;   85.712; -380.098; -294.823
672.112;   40.238; -692.098; -586.824
672.381;    9.590; -239.098; -214.824
672.650; -142.533;-1005.097;-1021.825
672.919; -103.006; -631.097; -507.825
673.188;  -92.554; -681.097; -878.825
673.457; -159.502;-1101.097;-1143.826
673.726;  -79.326; -579.096; -646.826
673.995;  -39.849; -533.096; -479.826
674.265;  -24.722; -263.096; -333.827
674.534;    3.905; -183.096; -235.827
674.802;    3.132; -618.096; -703.828
675.071; 1022.409; -886.095; -801.828
675.340; 4165.735; -464.095; -339.828
675.609; 1384.912;  103.905;   82.171
675.878;   91.164; -949.095; -893.829
676.147;   25.041;  -26.095;   -8.829
676.416;   80.968; -210.094; -294.830
676.685;  756.845; 1000.906; -622.830
676.953;  130.396; -603.094; -452.831
677.222;  -41.402; -193.094; -273.831
677.491;  -16.800;  -24.094; -127.831
677.759;   -6.723;   11.907;  172.168
678.028;  -14.746; -279.093; -222.832
678.297;   -2.794;   71.907;  197.168
678.565; -132.293; -898.093; -944.833
678.834;  -60.291; -311.093; -268.833
679.102;  -80.939; -411.092; -391.834
679.371; -150.462; -898.092; -727.834
679.639; -140.410; -797.092; -786.834
679.908; -118.833; -794.092; -724.835
680.176; -154.757; -895.091; -941.835
680.445;  -72.905; -346.091; -352.835
680.713;  -27.603;  -58.091;  -23.836
680.982;  -96.251; -523.091; -525.836
681.250; -119.599; -578.091; -507.837
681.518;  -89.197; -534.090; -751.837
681.787;  -16.421; -204.090; -167.837
682.055;  -66.269; -490.090; -422.838
682.323; -144.417; -993.090; -992.838
682.591;   55.210; -216.090; -538.838
682.859;   93.537;    9.911;  -35.839
683.128;    7.914;  232.911;  497.161
683.396; -151.960;-1102.089;-1122.840
683.664;  -33.533; -241.089;   21.160
683.932;  -16.256;  144.911;  -76.840
684.200;  -87.154; -576.088; -320.841
684.468;  -22.577;  -73.088; -124.841
684.736;  -28.800; -214.088; -175.841
685.004; -131.999;-1024.088; -982.842
685.272;  -33.422; -880.088; -774.842
685.540;  -65.870; -499.087; -557.843
685.808;  -86.493; -651.087; -682.843
686.076; -101.791; -894.087; -969.843
686.343;  -53.689; -601.087; -815.844
686.611;   34.487; -195.087; -224.844
686.879;  452.114; -530.086; -553.844
687.147; 3501.066; -483.086; -480.845
687.414; 1010.668;  -12.086; -169.845
687.682;   11.195; -658.086; -757.846
687.950;  330.947;  259.915;  263.154
688.217;   21.898; -792.085; -760.846
688.485;  -11.050; -632.085; -636.847
688.753;  561.127;  -11.085; -102.847
689.020;  187.204; -820.085; -851.847
689.288;  -89.694; -853.084; -787.848
689.555;  -37.792; -195.084; -148.848
689.823;  -50.741; -241.084; -345.849
690.090;  -80.964; -546.084; -651.849
690.358; -158.212; -877.084; -897.849
690.625;   -2.860;  120.917;   45.150
690.892;  -67.658; -403.083; -369.850
691.160;  -32.706;   72.917;  -35.850
691.427;    0.470;  141.917;  130.149
691.694; -126.203; -855.083; -929.851
691.962; -138.776;-1177.082;-1060.852
692.229;   28.126;  127.918;   56.148
692.496;   83.528;  130.918;  -49.852
692.763;   16.755; -164.082; -201.853
693.031;  -48.244; -739.082; -716.853
693.298;  -42.717; -509.081; -368.853
693.565;  313.685; -155.081; -163.854
693.832; 1352.837;   -5.081;   -9.854
694.099;  160.839; -643.081; -642.855
694.366;  -61.684; -882.081; -896.855
694.633;  -45.608; -920.080; -633.855
694.900;  719.169; 4367.920; -114.856
695.167;  432.571; -214.080; -380.856
695.434;  109.948; -646.080; -623.856
695.701;  188.825;  121.921;  -61.857
695.968;  480.502; -365.079; -361.857
696.234;  951.303; -415.079; -646.858
696.501;10126.655; -776.079; -614.858
696.768; 5302.032; -554.079; -617.858
697.035;  318.384; -632.078; -667.859
697.302;   28.211; -448.078; -552.859
697.568;   -0.162; -458.078; -497.859
697.835;  -47.436; -683.078; -624.860
698.102;  -22.609; -498.078; -407.860
698.368;   65.668;  384.923;  396.139
698.635;  -46.380;  -47.077; -424.861
698.901;  -32.878; -240.077; -348.861
699.168;   78.199; -534.077; -456.862
699.435;   77.475;  -72.077;  -13.862
699.701; -107.273; -868.076; -764.862
699.968;    8.404;  144.924; -441.863
700.234; -106.619; -783.076; -822.863
700.500;  -55.142; -448.076; -539.864
700.767;  -15.615;   -1.075;   26.136
701.033; -129.539;-1015.075; -963.864
701.299;  -53.137; -450.075; -483.865
701.566;  104.015;  950.925;  763.135
701.832;   23.242;  -31.075;  -76.865
702.098;  -95.731;-1054.074;-1034.866
702.365;  -86.654;-1098.074;-1030.866
702.631;  -21.153;-1038.074;-1063.867
702.897; 1361.149; -765.074; -676.867
703.163; 2379.326;  348.926;  254.133
703.429;  174.878; -256.073; -273.868
703.695;  -30.945; -796.073; -792.868
703.961;    3.207; -214.073; -210.868
704.227;  -49.842; -630.073; -725.869
704.493;  126.285;  613.927;  510.131
704.759;  -20.338; -565.072; -540.870
705.025;   22.864; -203.072; -194.870
705.291;  -29.059; -666.072; -562.870
705.557;  172.643;  719.928;   34.129
705.823;   33.094; -742.072; -694.871
706.089;  141.996; -307.071; -326.871
706.355;  337.123; -315.071; -244.872
706.620; 5197.775; -776.071; -729.872
706.886; 7683.777; -309.071; -362.873
707.152;  745.104; -818.070; -973.873
707.418;  -14.870;-1153.070;-1186.873
707.683;    8.582; -550.070; -530.874
707.949;  -47.441; -547.070; -578.874
708.215;    1.686; -129.070; -207.874
708.480;  -20.737; -520.069; -420.875
708.746;   94.390;   68.931;   28.125
709.011;  -63.909; -578.069; -612.876
709.277;  -79.957; -538.069; -543.876
709.542;  -49.780; -428.069; -387.876
709.808;   -1.103;  -59.068;   89.123
710.073;  -81.801; -577.068; -695.877
710.339;  -16.549; -242.068; -228.877
710.604;   74.577; -780.068; -845.878
710.869;  330.179; -277.068; -366.878
711.135;  -75.019; -715.067; -628.879
711.400;  -83.292; -507.067; -608.879
711.665;  -53.640; -404.067; -479.879
711.931; -104.813; -661.067; -677.880
712.196; -114.537; -876.067; -954.880
712.461;  114.615; -402.066; -490.880
712.726;  157.667; -727.066; -771.881
712.991;  -71.931; -647.066; -664.881
713.256;  -41.104; -350.066; -332.882
713.521;  -57.502; -417.065; -381.882
713.787;  -69.351; -454.065; -472.882
714.052;  -41.549; -214.065; -400.883
714.317;  -84.122;-1045.065; -981.883
714.581;  929.430; -374.065; -268.883
714.846; 1356.607; -822.064; -888.884
715.111;  123.434;  261.936;  257.116
715.376;  -37.415;  -86.064; -223.885
715.641;  -17.938; -365.064; -367.885
715.906;  303.564;   15.936; -551.885
716.171;  127.741;  221.937;  209.114
716.436;   32.243;  -78.063; -104.886
716.700; -116.805; -818.063; -692.886
716.965; -120.854; -794.063; -807.887
717.230;  -72.352; -339.063; -392.887
717.494;  -35.400;  -40.062; -134.888
717.759;  -83.323; -784.062; -640.888
718.024;   -1.671;  269.938;  250.112
718.288;   90.431;  685.938;  395.111
718.553; -143.443; -803.062; -977.889
718.817; -142.916; -883.061; -899.889
719.082;  -36.739; -115.061; -125.890
719.346; -146.187;-1000.061; -947.890
719.611;  -57.835; -300.061; -255.891
719.875; -112.708; -568.060; -537.891
720.140;  -64.632; -453.060; -603.891
720.404;   50.570; -136.060; -249.892
720.668;  883.197; -475.060; -411.892
720.933;  347.749;  146.940;  137.108
721.197; -110.249; -667.059; -600.893
721.461; -127.297; -851.059; -826.893
721.725;  -10.821;  -21.059; -250.894
721.990;  -67.344; -284.059; -204.894
722.254;  -23.967;  -26.059; -108.894
722.518;  -78.965; -286.058; -442.895
722.782;  -93.738; -743.058; -594.895
723.046;  116.914;  614.942;  570.105
723.310;   15.015;  374.942;  210.104
723.574; -100.108; -654.058; -614.896
723.838; -104.556; -576.057; -642.897
724.102;  -44.254; -226.057; -239.897
724.366; -133.102;-1032.057; -978.897
724.630;  -94.825; -749.057; -571.898
724.894;  -72.849; -722.057; -514.898
725.158;   -6.622;   38.944; -295.898
725.422;  -66.795; -394.056; -327.899
725.685;  -69.593; -441.056; -349.899
725.949;  -81.666; -566.056; -519.900
726.213;  -78.864; -732.056; -811.900
726.477;  183.337;-1020.055; -933.900
726.740;  153.664; -274.055; -104.901
727.004;  325.616; -384.055; -510.901
727.268; 3222.243; -442.055; -400.901
727.531;  931.870; -961.055; -775.902
727.795;  -45.753; -713.054; -673.902
728.059;  -57.827; -552.054; -557.903
728.322;  -83.950; -841.054; -669.903
728.586;   37.052; -692.054; -701.903
728.849;  -95.521; -695.053; -756.904
729.112; -108.919; -812.053; -912.904
729.376; -134.767; -959.053; -905.904
729.639;  -79.216; -536.053; -536.905
729.903; -112.264; -733.053; -699.905
730.166;  -48.187; -437.052; -399.906
730.429;  -39.210; -317.052; -468.906
730.693;  -64.583; -355.052; -894.906
730.956;  192.344;  810.948;  651.093
731.219;  732.645; -310.052; -103.907
731.482;  144.372;-1003.051; -894.907
731.745;  113.124; -794.051; -935.908
732.009;   10.801;  -30.051;   50.092
732.272;  -86.197; -904.051; -771.909
732.535;  -47.395; -300.051; -310.909
732.798; -155.344;-1083.050;-1166.909
733.061;  -66.117; -430.050; -456.910
733.324;   -7.915;   31.950; -180.910
733.587;   61.862;  290.950;  365.090
733.850;  -84.186; -973.049;-1050.911
734.113;   31.966;   33.951;   32.089
734.376;   -4.158; -328.049; -447.912
734.639;  222.694; 1188.951; 1011.088
734.901;   54.221; -180.049; -402.912
735.164;  502.023; -883.048; -837.913
735.427; 1390.050; -166.048; -355.913
735.690;  125.752; -205.048; -234.913
735.952;  -29.622; -923.048; -925.914
736.215;  -14.695;-1113.048;-1009.914
736.478;   43.832; -771.047; -774.915
736.740;  212.134;   33.953;  129.085
737.003;  674.611; -658.047; -672.915
737.266; 4321.663;  -94.047;   46.084
737.528;  467.739; -682.047; -660.916
737.791;  321.566; -316.046; -327.916
738.053;  791.043;  465.954;  649.083
738.316;10506.445; -162.046; -136.917
738.578; 7797.372; -770.046; -736.918
738.841;  445.749; -382.046; -446.918
739.103;  174.500; -875.045; -777.918
739.365;  516.877;   79.955;  -69.919
739.628;   -9.046; -884.045; -805.919
739.890;  -31.194; -758.045; -710.919
740.152;  -53.392; -692.044; -754.920
740.414;  -10.490; -408.044; -359.920
740.677;  -53.664; -785.044; -634.921
740.939;  -42.537; -587.044; -487.921
741.201;  280.890; -432.044; -572.921
741.463;   55.567; -689.043; -745.922
741.725;    9.194;  -21.043; -199.922
741.987;   58.496;  220.957;  116.078
742.249;   11.022; -751.043; -859.923
742.511;  201.399; -703.043; -794.923
742.773;   21.201; -546.042; -546.924
743.035;  118.728;  796.958;  533.076
743.297;  -48.845; -963.042;-1013.924
743.559;  765.157; -278.042; -262.925
743.821;   72.483; -735.042; -744.925
744.083;   13.210;  -44.041; -149.925
744.345;  -91.938; -869.041; -892.926
744.607;   40.814;   75.959;  122.074
744.868;  -59.684; -490.041; -554.927
745.130; -106.832; -994.041;-1008.927
745.392;   42.369;   -1.040;  -44.927
745.653;   -6.279; -411.040; -378.928
745.915;  156.998;  896.960;  631.072
746.177;   50.225;   35.960;  -43.928
746.438;   -9.498; -428.040; -543.929
746.700;  -36.021; -947.039; -988.929
746.961;   12.155; -659.039; -740.930
747.223;  141.907; -190.039;  -74.930
747.484;   77.709; -391.039; -471.930
747.746;  153.136;  -23.038; -106.931
748.007;  128.038; -647.038; -689.931
748.269;  304.890; -468.038; -440.931
748.530;  509.241; -852.038; -638.932
748.791;  279.093; -354.038; -420.932
749.053;  443.895;  286.963;  163.067
749.314;  476.147; -236.037; -169.933
749.575;  531.799; -945.037; -905.933
749.836;  872.701; -217.037;   86.066
750.098; 2401.202;  -60.037;  -21.934
750.359;37168.679;  414.964;  555.066
750.620;10143.656; -121.036; -220.935
750.881; 1077.908; -585.036; -513.935
751.142; 1373.610; -950.036; -938.936
751.403;16512.312; -789.036; -705.936
751.664; 7804.838;-1034.035; -999.936
751.925;  517.515; -175.035; -262.937
752.186;  292.692; -298.035; -278.937
752.447;  139.394; -590.035; -445.937
752.708;   51.546; -532.035; -648.938
752.969;   14.073; -566.034; -576.938
753.230;   -2.501; -777.034; -672.939
753.491;   -4.149; -650.034; -631.939
753.751;   58.653;  109.966;   19.061
754.012;   92.505;  258.967;  181.060
754.273;   55.782; -174.033;  -71.940
754.534;    2.784; -487.033; -580.940
754.794;  -81.515; -926.033; -911.941
755.055;  132.987; 1051.967;  881.059
755.316;  -34.961; -700.032; -566.942
755.576;  -33.959; -606.032; -576.942
755.837;  -31.457; -527.032; -695.942
756.097;  -32.630; -530.032; -564.943
756.358;  -74.554; -725.032; -770.943
756.618;  -49.252; -705.031; -641.943
756.879;   -1.675; -254.031; -349.944
757.139; -115.548;-1098.031;-1116.944
757.400;  -45.721; -538.031; -553.945
757.660;  -12.894; -365.031; -401.945
757.920;    7.382; -266.030; -228.945
758.181;  -18.691; -468.030; -351.946
758.441;  -95.214; -870.030; -809.946
758.701;  -31.512; -308.030; -215.946
758.961;  -22.435; -220.030; -278.947
759.222;  -42.133; -574.029; -502.947
759.482;  -82.607; -683.029; -723.948
759.742;  -75.530; -706.029; -547.948
760.002;   -1.103;  -83.029; -143.948
760.262;    5.499;   50.972;  182.051
760.522;  -39.249; -498.028; -574.949
760.782;  -46.122; -738.028; -612.949
761.042;  -28.071; -618.028; -573.950
761.302;   41.981;   55.972;  -18.950
761.562;   48.933; -164.027; -154.951
761.822;   95.910; -710.027; -551.951
762.082;  -27.813;-1104.027;-1093.951
762.342;   61.539; -328.027; -403.952
762.601;   75.640; -567.027; -506.952
762.861;  374.342; -281.026; -207.952
763.121;  422.569; -406.026; -411.953
763.381; 7097.321; -499.026; -485.953
763.640; 8426.823; -139.026; -307.954
763.900;  364.775; -242.026; -203.954
764.160;   88.826; -458.025; -491.954
764.419;  -15.597; -726.025; -782.955
764.679;  -69.895; -795.025; -726.955
764.939;  -23.618; -124.025; -210.955
765.198;  -88.541; -608.025; -563.956
765.458;  -89.889; -710.024; -612.956
765.717;  -84.263; -454.024; -590.957
765.976;  -63.886; -428.024; -411.957
766.236;  -77.009; -475.024; -610.957
766.495;   18.343;  260.977;   73.042
766.755;  -90.205;-1090.023; -987.958
767.014;   -1.503; -594.023; -665.958
767.273;  -62.027; -373.023; -397.959
767.533;  -43.100; -228.023; -307.959
767.792;  -37.123; -151.022; -188.960
768.051;  -58.421; -228.022; -276.960
768.310;  -86.544; -546.022; -650.960
768.569;  -23.767; -161.022;    4.039
768.828;  -43.191; -285.022; -363.961
769.088; -113.889;-1050.021; -942.961
769.347;  -88.987; -755.021; -599.962
769.606;  -98.010; -876.021; -857.962
769.865; -120.458;-1016.021;-1033.963
770.124;    4.069; -411.021; -336.963
770.383;  -43.380; -778.020; -910.963
770.641;   -4.653; -398.020; -400.964
770.900;  -70.451; -953.020; -846.964
771.159;  -44.449; -851.020; -951.964
771.418;  -20.197; -917.020; -779.965
771.677;  126.105; -224.019; -293.965
771.936;  135.631; -794.019; -865.966
772.194; 1919.658; -465.019; -437.966
772.453;10884.535; -213.019; -391.966
772.712;  788.562;  416.982;  329.033
772.970;  121.389;   32.982;   63.033
773.229;   81.766;  -22.018;  102.033
773.488;  -99.708; -814.018; -770.968
773.746;   35.969;  296.982;  335.032
774.005;  -10.229;  190.983;  -22.969
774.263;   12.423;  243.983;  177.031
774.522;  -50.850; -422.017; -548.969
774.780;  -83.723; -484.017; -417.970
775.039;  -91.747; -551.017; -531.970
775.297;  -22.395; -135.016; -351.970
775.555; -111.243; -489.016; -612.971
775.814; -107.416; -618.016; -570.971
776.072; -132.089; -749.016; -740.971
776.330; -104.862; -630.016; -520.972
776.589; -120.236; -703.015; -721.972
776.847; -127.684; -645.015; -624.973
777.105; -166.157;-1016.015;-1032.973
777.363; -102.205; -459.015; -454.973
777.621; -139.728; -660.015; -717.974
777.879;  -28.551;  -42.014;   32.026
778.138; -114.875; -554.014; -717.974
778.396; -107.073; -585.014; -526.975
778.654; -155.771;-1015.014; -970.975
778.912;  -73.319; -269.014; -371.976
779.170; -147.667; -880.013; -803.976
779.427; -161.115; -922.013; -897.976
779.685; -142.689; -880.013; -832.977
779.943;  -84.712; -654.013; -593.977
780.201; -160.010; -964.012; -883.978
780.459; -118.533; -651.012; -610.978
780.717;  -92.956; -440.012; -390.978
780.974; -108.629; -449.012; -490.979
781.232;  -87.503; -358.012; -338.979
781.490;  -87.851; -551.011; -472.979
781.747;  -94.724; -555.011; -476.980
782.005;   13.003;  462.989;  254.020
782.263; -157.845; -542.011;-1004.981
782.520;  -89.718; -326.011; -501.981
782.778; -167.517;-1013.010;-1051.981
783.035; -165.390; -962.010; -938.982
783.293;  -68.363; -248.010; -206.982
783.550;  -63.561; -134.010; -198.982
783.808; -129.684; -764.010; -776.983
784.065; -151.857; -745.009; -874.983
784.322;  -57.631;   25.991;  -86.984
784.580; -133.054; -915.009; -771.984
784.837; -110.152; -392.009; -466.984
785.094; -134.400; -783.009; -762.985
785.352;  -60.773; -304.008; -404.985
785.609; -114.396; -934.008; -839.985
785.866;  -93.695; -345.008; -401.986
786.123;  -71.343; -639.008; -583.986
786.380; -107.441; -665.008; -604.987
786.637;  -36.764; -225.007; -380.987
786.895;  -23.212; -456.007; -543.987
787.152;  -55.885; -135.007; -267.988
787.409;  -46.584; -123.007; -225.988
787.666;  -92.632; -299.006; -378.988
787.923; -108.030; -616.006; -695.989
788.179; -106.178; -551.006; -584.989
788.436; -114.001; -585.006; -585.990
788.693;  -50.124;  -92.006;  -87.990
788.950;  154.327; -125.005; -112.990
789.207;  241.429; -381.005; -372.991
789.464;  -55.169; -161.005; -301.991
789.720;   -3.817;  150.995;  110.009
789.977; -164.090;-1003.005; -671.992
790.234;  -46.688;   44.996;  -66.992
790.490; -145.862; -884.004;-1031.993
790.747;  -28.635;  -85.004;   22.007
791.004;  -16.233; -426.004; -348.993
791.260;  -83.856; -430.004; -560.994
791.517;  -94.804; -843.003; -788.994
791.773;  -49.427; -379.003; -342.994
792.030; -104.101; -596.003; -660.995
792.286; -118.274; -686.003; -636.995
792.543;  -38.222;  -74.002; -159.995
792.799;  -59.695; -584.002; -382.996
793.055; -165.268;-1179.002;-1210.996
793.312; -102.966; -827.002; -816.997
793.568;  -58.440; -746.002; -599.997
793.824;    2.812; -226.001; -284.997
794.081;   12.289; -447.001; -508.998
794.337;   59.966; -664.001; -561.998
794.593; 1216.818; -319.001; -271.999
794.849; 6662.245; -746.001; -772.999
795.105;  351.821; -270.000; -261.999
795.361;   29.423; -490.000; -457.000
795.617;  -54.400; -875.000; -945.000
795.873;  -38.250; -360.000; -407.000
796.129;  -44.825; -368.000; -306.000
796.385;  -24.975; -124.000; -156.000
796.641;   49.625;  412.000;  550.000
796.897;  -72.375; -666.000; -635.000
797.153;   59.100;  453.000;  357.000
797.409; -103.175; -785.000; -868.000
797.665;  -80.575; -625.000; -732.000
797.921;  -93.000; -775.000; -762.000
798.176;  -58.375; -744.000; -747.000
798.432;  -50.225; -824.000; -596.000
798.688;  -72.975;-1174.000;-1078.000
798.943;   80.375; -165.000; -147.000
799.199;  -10.675;-1005.000; -959.000
799.455;  231.450;  369.000;  316.000
799.710;  128.575; -813.000; -380.000
799.966;  290.975; -162.000; -160.000
800.221;  464.825; -638.000; -721.000
800.477; 9839.575; -743.000; -710.000
800.732; 9697.375; -773.000; -800.000
800.988;  610.775;  205.000;  -19.000
801.243; 1539.775; -454.000; -344.000
801.498; 7329.850; -814.000; -739.000
801.754;  445.075; -289.000; -163.000
802.009;   77.950; -257.000; -335.000
802.264;  -62.650; -967.000;-1033.000
802.520;   38.775;  222.000;   -3.000
802.775;  -54.750; -524.000; -359.000
803.030;   47.275;  395.000;  356.000
803.285; -119.875; -840.000; -903.000
803.540;  -62.325; -686.000; -699.000
803.795;  -42.075; -648.000; -583.000
804.051;  -51.575; -279.000; -346.000
804.306;    9.000;  168.000;  128.000
804.561;  158.275;  451.000;  362.000
804.816;  134.175;  714.000;  861.000
805.071;   -0.100; -185.000; -280.000
805.325;  227.025; -257.000; -427.000
805.580; -103.125; -841.000; -877.000
805.835;  -16.550; -204.000; -297.000
806.090;  -78.625; -760.000; -676.000
806.345;  -27.175; -344.000; -264.000
806.600;  -17.625; -549.000; -632.000
806.854;  -28.125; -408.000; -538.000
807.109;  -19.250; -493.000; -577.000
807.364;    5.725; -407.000; -328.000
807.618;   17.700; -415.000; -381.000
807.873;   54.125; -470.000; -494.000
808.128;  101.175; -257.000; -518.000
808.382;  112.075; -224.000; -332.000
808.637;   87.100; -440.000; -511.000
808.891;  172.025; -257.000; -180.000
809.146;   98.500; -902.000; -794.000
809.400;  253.275; -848.000; -923.000
809.654;  349.575; -779.000; -551.000
809.909;  494.200; -841.000; -927.000
810.163; 6357.525; -813.000; -651.000
810.418;18226.525; -940.000; -861.000
810.672; 1116.025; -685.000; -690.000
810.926;  731.125; -993.000; -973.000
811.180; 1322.575; -439.000; -372.000
811.434;29970.025;  240.000;  135.000
811.689;13524.725; -231.000; -365.000
811.943;  653.025; -936.000; -953.000
812.197;  316.650; -893.000; -671.000
812.451;  122.425; -379.000; -514.000
812.705;  -24.600; -809.000; -619.000
812.959;    2.125; -263.000; -388.000
813.213;  -10.900; -283.000; -209.000
813.467;   77.050;  470.000;  253.000
813.721;  -99.075; -764.000; -792.000
813.975; -115.050; -826.000; -877.000
814.229;   40.200;  430.000;  353.000
814.482;  -75.475; -517.000; -566.000
814.736; -132.950; -766.000; -744.000
814.990; -122.400; -779.000; -872.000
815.244;  -50.925; -228.000; -285.000
815.497;  -85.075; -636.000; -601.000
815.751;  -18.075; -141.000;   82.000
816.005;  -79.875; -470.000; -586.000
816.258;  -69.500; -510.000; -363.000
816.512; -110.475; -693.000; -610.000
816.766;   -1.475;  121.000;  157.000
817.019;   28.575;  148.000;  149.000
817.273; -122.825;-1000.000; -802.000
817.526;  -53.825; -206.000; -173.000
817.779;  -39.300;-1049.000; -960.000
818.033;  -50.825; -693.000; -807.000
818.286; -122.250; -725.000; -792.000
818.540;  -83.450; -403.000; -403.000
818.793;  -65.750; -402.000; -489.000
819.046; -102.425; -582.000; -520.000
819.299;  -40.475; -157.000; -166.000
819.553; -114.925; -552.000; -592.000
819.806; -160.325;-1016.000; -838.000
820.059;  -49.125; -334.000; -354.000
820.312;    9.025;  152.000;  185.000
820.565;    0.575;  110.000;  -27.000
820.818;  -41.875;  -59.000; -173.000
821.071; -160.700;-1041.000; -957.000
821.324;  -99.400; -536.000; -540.000
821.577; -109.775; -457.000; -483.000
821.830;  -66.500; -270.000; -172.000
822.083; -133.975; -733.000; -288.000
822.336;  -47.775; -261.000; -167.000
822.589; -125.550; -805.000; -688.000
822.842; -139.675; -875.000; -770.000
823.094; -176.325;-1076.000;-1114.000
823.347; -135.900; -925.000; -729.000
823.600;   10.075;  402.000;  187.000
823.853;  -67.400; -311.000; -267.000
824.105;  -69.225; -331.000; -575.000
824.358; -117.100; -617.000; -716.000
824.611;   29.800;  234.000;   40.000
824.863;  -41.900; -612.000; -591.000
825.116;   37.750;  -33.000;   27.000
825.368;   84.475; -366.000; -372.000
825.621;  167.275; -186.000; -240.000
825.873;   79.875; -704.000; -737.000
826.126;  527.925; -669.000; -641.000
826.378;11370.275; -389.000; -505.000
826.630; 3148.100; -890.000; -898.000
826.883;   62.200; -754.000; -693.000
827.135;   46.675; -279.000; -270.000
827.387; -115.375; -893.000; -839.000
827.639;  -36.100;  -86.000;   32.000
827.892; -129.925; -742.000; -582.000
828.144; -135.175; -848.000; -804.000
828.396;  -28.525;  104.000;  -80.000
828.648;  -89.025; -440.000; -333.000
828.900; -159.925; -702.000; -795.000
829.152; -112.175; -684.000; -683.000
829.404;  -73.950; -215.000; -267.000
829.656;    1.000;  321.000;  214.000
829.908;  -11.150;  393.000;  229.000
830.160; -159.625;-1064.000;-1047.000
830.412;  -92.050; -481.000; -430.000
830.664; -134.925; -557.000; -665.000
830.916;  -81.900; -268.000; -206.000
831.167; -172.000;-1073.000; -951.000
831.419; -126.400; -623.000; -566.000
831.671; -156.975; -764.000; -809.000
831.923; -105.875; -311.000; -447.000
832.174;  -77.300; -273.000; -331.000
832.426; -121.550; -493.000; -582.000
832.678; -185.675;-1043.000;-1091.000
832.929; -160.000; -947.000; -935.000
833.181;  -72.375; -575.000; -677.000
833.432;  -47.625;  -59.000; -186.000
833.684;  -26.525;  112.000;  -27.000
833.935; -126.900; -610.000; -566.000
834.187; -121.925; -829.000; -823.000
834.438;  -56.775;  -58.000;  -25.000
834.689;  -66.325; -255.000; -123.000
834.941;  -62.150; -343.000; -244.000
835.192; -112.350; -590.000; -533.000
835.443; -104.100; -419.000; -506.000
835.695;  -12.150;  138.000;  -16.000
835.946;  -98.725; -608.000; -378.000
836.197; -112.750; -599.000; -622.000
836.448;  -86.450; -528.000; -395.000
836.699;  -60.825; -253.000; -341.000
836.950;   -7.550;   72.000;    7.000
837.201; -151.700;-1003.000; -987.000
837.452;  -65.750; -356.000; -170.000
837.703; -114.725; -791.000; -737.000
837.954;  -38.950; -205.000; -365.000
838.205;  -79.325;-1029.000;-1008.000
838.456;  175.475; -196.000; -282.000
838.707;    4.250; -423.000; -519.000
838.958;    6.925; -634.000; -647.000
839.209;  291.750;   18.000;   40.000
839.460;  119.650; -439.000; -201.000
839.710;  170.375; -135.000; -297.000
839.961;  423.875;  730.000;  612.000
840.212;  349.200; -382.000; -497.000
840.462; 1109.600; -328.000; -277.000
840.713;17364.850; -571.000; -536.000
840.964; 7926.250;  -62.000; -143.000
841.214;  517.775; -384.000; -624.000
841.465;  583.300; -214.000; -141.000
841.715;  539.075; -417.000; -380.000
841.966;  676.075; -746.000; -685.000
842.216; 8760.575; -330.000; -431.000
842.466;36935.325; -169.000; -313.000
842.717; 2329.925; -964.000; -952.000
842.967;  330.150; -635.000; -641.000
843.217;  286.450;   20.000;   28.000
843.468;   80.825; -104.000; -132.000
843.718;  -30.600; -718.000; -726.000
843.968;  -94.925; -837.000; -765.000
844.218;   13.675; -315.000; -262.000
844.469;  -32.225; -577.000; -561.000
844.719; -102.850; -537.000; -682.000
844.969;  -93.725; -550.000; -580.000
845.219; -143.325; -814.000; -862.000
845.469;  -90.550; -392.000; -342.000
845.719; -130.625; -792.000; -884.000
845.969;  -20.500;  119.000;  174.000
846.219; -123.850; -738.000; -720.000
846.469;    2.275;  464.000;  432.000
846.718;  -52.450; -115.000;   31.000
846.968; -136.725; -827.000; -827.000
847.218;  -42.800; -224.000; -371.000
847.468; -103.725; -586.000; -555.000
847.718; -145.350; -827.000; -798.000
847.967; -126.025; -826.000; -915.000
848.217;  -77.625; -449.000; -569.000
848.467;  -80.900; -405.000; -376.000
848.716; -124.300; -708.000; -725.000
848.966;    0.975; -372.000; -358.000
849.215;  -65.675; -428.000; -419.000
849.465; -100.550; -785.000; -615.000
849.714; -135.225;-1132.000;-1150.000
849.964;  -64.750; -551.000; -613.000
850.213;  -21.150; -393.000; -355.000
850.463;   69.975;  137.000;  340.000
850.712;    7.725; -542.000; -567.000
850.961;   19.425; -739.000; -678.000
851.211;  109.225; -513.000; -504.000
851.460;  167.650; -635.000; -650.000
851.709;  547.975;  -25.000;   18.000
851.958; 9725.725; -912.000; -750.000
852.208;13460.825; -859.000; -879.000
852.457;  515.300; -181.000;  -13.000
852.706;   67.550; -791.000; -823.000
852.955;   15.900; -507.000; -528.000
853.204;  -63.700; -521.000; -461.000
853.453;  -91.300; -418.000; -458.000
853.702; -134.525; -660.000; -750.000
853.951; -109.475; -532.000; -520.000
854.200; -121.750; -613.000; -562.000
854.449; -133.625; -695.000; -661.000
854.698;  -93.850; -340.000; -279.000
854.946;  -80.575; -181.000; -284.000
855.195; -148.625; -843.000; -868.000
855.444; -104.100; -395.000; -420.000
855.693; -130.825; -345.000; -432.000
855.941; -106.225; -387.000; -516.000
856.190;  -54.650; -256.000; -382.000
856.439; -132.300; -652.000; -703.000
856.687;  -74.325;  -99.000;  -72.000
856.936; -121.100; -621.000; -323.000
857.184; -170.275;-1067.000;-1020.000
857.433; -103.025; -423.000; -512.000
857.681; -162.250; -989.000; -953.000
857.930;  -86.400; -282.000; -433.000
858.178; -178.000; -856.000; -929.000
858.427; -149.900; -802.000; -781.000
858.675; -118.375; -377.000; -544.000
858.923; -118.625; -527.000; -819.000
859.172; -174.150;-1094.000;-1070.000
859.420;  -93.800; -339.000; -239.000
859.668; -128.075; -624.000; -628.000
859.916;  -27.775;  109.000;  115.000
860.164; -114.750; -699.000; -603.000
860.413;  284.750; -878.000; -696.000
860.661;  272.375; -709.000; -577.000
860.909;  -87.475; -339.000; -325.000
861.157;  -78.525; -277.000; -444.000
861.405; -128.375; -534.000; -670.000
861.653;    2.625;  310.000;  310.000
861.901;  161.850; -543.000; -613.000
862.149;   22.325; -801.000; -824.000
862.396;  -80.925; -297.000; -187.000
862.644;  -94.500; -368.000; -347.000
862.892;  -31.775;   98.000;  138.000
863.140; -128.075; -549.000; -530.000
863.388; -165.450; -815.000; -759.000
863.635; -118.700; -642.000; -601.000
863.883;  -19.825;  231.000;  190.000
864.131;  -99.150; -288.000; -357.000
864.378; -135.650; -675.000; -540.000
864.626;  -97.325; -347.000; -415.000
864.873; -124.500; -556.000; -505.000
865.121; -150.525; -714.000; -799.000
865.368;  -58.500; -173.000;   75.000
865.616;  -30.875;  -33.000;  -40.000
865.863;  -73.100; -462.000; -506.000
866.111; -111.575; -795.000; -824.000
866.358;   26.400; -426.000; -420.000
866.605; 1967.950;  -64.000; -804.000
866.853; 2302.175; -621.000; -537.000
867.100;  -35.625; -728.000; -775.000
867.347; -104.700; -672.000; -611.000
867.594;  -84.475; -740.000; -714.000
867.841;   82.925;   97.000;   17.000
868.089; -157.875; -746.000; -698.000
868.336; -109.775; -477.000; -420.000
868.583; -149.275; -637.000; -741.000
868.830;  -63.525; -131.000; -170.000
869.077; -169.650; -859.000; -787.000
869.324; -142.375; -502.000; -458.000
869.571; -128.575; -398.000; -430.000
869.818; -145.275; -485.000; -439.000
870.065;  -97.875; -439.000; -513.000
870.311; -112.675; -456.000; -542.000
870.558; -106.950; -332.000; -311.000
870.805;  -91.850; -320.000; -384.000
871.052; -102.950; -494.000; -369.000
871.298;  -55.600; -204.000; -131.000
871.545;  -65.600; -151.000; -185.000
871.792; -109.050; -173.000; -222.000
872.038;  -90.275;   43.000; -126.000
872.285; -123.075; -496.000; -387.000
872.532; -105.100; -357.000; -387.000
872.778;   10.725;  556.000;  403.000
873.025; -109.675; -384.000; -359.000
873.271;   14.025;  501.000;  578.000
873.517;  -34.800; -133.000; -209.000
873.764;  -31.675; -193.000;  -80.000
874.010;  -60.775; -143.000; -230.000
874.257;  -45.175;  123.000;   90.000
874.503; -125.650; -579.000; -479.000
874.749;  -76.425;   31.000;  275.000
874.995;  -72.075;  -80.000;  -20.000
875.242; -122.200; -540.000; -478.000
875.488; -112.325; -414.000; -439.000
875.734;  -50.975; -106.000; -234.000
875.980;  188.100; -872.000;-1032.000
876.226;  421.150; -157.000; -255.000
876.472;    2.250;  343.000;  237.000
876.718;  -38.925;  184.000;  158.000
876.964;  -39.225;   56.000;   55.000
877.210; -124.925; -547.000; -677.000
877.456; -137.950; -630.000; -557.000
877.702; -177.450; -821.000; -832.000
877.948; -117.075; -377.000; -497.000
878.193;   14.425;  361.000;  255.000
878.439;  -83.625; -487.000; -472.000
878.685; -108.050; -272.000; -343.000
878.931; -135.550; -618.000; -676.000
879.176;  -73.925; -201.000; -201.000
879.422; -182.775; -933.000; -820.000
879.668;   49.100;   10.000;   79.000
879.913;  154.950;   53.000;  137.000
880.159;  -73.275; -112.000;  -17.000
880.404;  -70.725; -152.000; -162.000
880.650;  -54.525;   91.000;  141.000
880.895; -167.525; -670.000; -710.000
881.141; -118.975; -454.000; -428.000
881.386; -156.775; -503.000; -658.000
881.631;  -94.650; -311.000; -166.000
881.877;  -36.800;  112.000;  -13.000
882.122; -142.050; -684.000; -600.000
882.367;  -86.200; -136.000; -186.000
882.612;  -74.050;  -80.000; -176.000
882.858; -177.400; -877.000; -823.000
883.103; -102.800; -297.000; -267.000
883.348; -157.525; -759.000; -852.000
883.593; -150.450; -677.000; -602.000
883.838;  -50.500; -311.000;  -24.000
884.083;   29.050;  353.000;  288.000
884.328; -100.800; -564.000; -545.000
884.573;  -56.275; -196.000; -143.000
884.818;  194.200; -694.000; -531.000
885.063;  221.425; -348.000; -315.000
885.308;  -92.950; -475.000; -398.000
885.553;  -34.675;  245.000;  325.000
885.797; -143.700; -545.000; -615.000
886.042;  -63.200;    8.000;   58.000
886.287; -102.175; -253.000; -211.000
886.532;  -48.525;   26.000;  204.000
886.776; -118.025; -407.000; -525.000
887.021; -162.400; -621.000; -574.000
887.265; -150.750; -685.000; -689.000
887.510; -152.500; -557.000; -496.000
887.755;  -87.875; -194.000; -164.000
887.999; -146.025; -552.000; -575.000
888.244;  -55.325;  -58.000;  161.000
888.488;  -14.025;  371.000;  393.000
888.732; -129.700; -368.000; -520.000
888.977; -137.875; -622.000; -567.000
889.221; -151.275; -683.000; -659.000
889.465; -135.950; -422.000; -566.000
889.710;  -88.075;  -56.000; -299.000
889.954;    1.000;  579.000;  467.000
890.198; -149.025; -584.000; -707.000
890.442; -160.000; -716.000; -712.000
890.687; -170.300; -800.000; -753.000
890.931; -101.850; -273.000; -210.000
891.175; -144.050; -502.000; -500.000
891.419;  -85.425; -105.000; -110.000
891.663;  -96.775; -239.000; -112.000
891.907; -175.500; -801.000; -545.000
892.151; -179.850; -920.000; -815.000
892.395; -123.650; -274.000; -387.000
892.638;  -21.000;  408.000;  291.000
892.882; -171.000; -780.000; -867.000
893.126;   14.500;  758.000;  558.000
893.370; -104.000; -167.000; -168.000
893.614; -156.500; -714.000; -715.000
893.857; -103.875; -183.000; -197.000
894.101; -142.300; -527.000; -631.000
894.345;  -65.125;  300.000;  150.000
894.588;   11.025;  569.000;  380.000
894.832;  -87.975; -178.000;  -84.000
895.075;  -84.925;   15.000;  -92.000
895.319; -131.850; -552.000; -420.000
895.563; -112.850; -413.000; -353.000
895.806; -146.150; -628.000; -741.000
896.049;  -68.875; -576.000; -368.000
896.293;   91.850;  527.000;  405.000
896.536;  -64.475; -465.000; -468.000
896.779;  -75.900; -149.000;   -1.000
897.023; -137.000; -751.000; -714.000
897.266;  -42.875;  325.000;  269.000
897.509; -178.150; -900.000; -901.000
897.752;  -50.400;  149.000;  171.000
897.996; -188.475; -972.000; -864.000
898.239;  -49.675;  168.000;  102.000
898.482; -134.675; -431.000; -453.000
898.725;  -47.925;  101.000;   53.000
898.968; -147.825; -609.000; -744.000
899.211; -120.700; -513.000; -361.000
899.454; -120.625; -633.000; -539.000
899.697;  -78.050;   90.000;  -43.000
899.940; -168.975; -761.000; -757.000
900.182; -104.400; -335.000; -405.000
900.425;  -97.475; -150.000; -298.000
900.668;  -30.550;  491.000;  350.000
900.911;  -98.200; -292.000; -345.000
901.154;  -49.200;  141.000;   -3.000
901.396; -145.950; -407.000; -412.000
901.639; -143.025; -430.000; -496.000
901.882; -179.550; -790.000; -809.000
902.124;  -98.450;  -29.000; -143.000
902.367; -123.075; -315.000; -361.000
902.609; -133.525; -476.000; -453.000
902.852;  -94.025; -108.000; -260.000
903.094; -136.325; -458.000; -337.000
903.337;  -66.775;  -26.000;   53.000
903.579; -104.950; -228.000; -441.000
903.821; -155.500; -597.000; -744.000
904.064;  -61.525;   85.000;  127.000
904.306;  -81.675; -126.000; -166.000
904.548;  -99.200; -152.000; -366.000
904.790; -115.625; -195.000; -340.000
905.033; -138.850; -625.000; -577.000
905.275; -133.750; -513.000; -524.000
905.517;   25.450;  468.000;  256.000
905.759;  -67.850; -667.000; -761.000
906.001;  -93.000; -322.000; -369.000
906.243;  -61.775; -162.000; -224.000
906.485;  117.300; -265.000; -207.000
906.727;  133.325; -499.000; -542.000
906.969;  -35.700;  -30.000; -135.000
907.211;  108.825; -316.000; -382.000
907.453;  294.325; -188.000; -237.000
907.695;   22.075; -158.000; -385.000
907.936;   26.200;  818.000;  706.000
908.178;  -59.550;   92.000; -135.000
908.420;  -90.875; -111.000; -162.000
908.662; -127.925; -633.000; -682.000
908.903;  -85.000; -208.000; -123.000
909.145;  -68.650; -240.000; -305.000
909.386;   -0.425;  315.000;  280.000
909.628;   31.750;  363.000;  397.000
909.870;   -5.175;   29.000;  264.000
910.111; -109.475; -809.000; -949.000
910.353;    0.500; -123.000; -161.000
910.594;   -3.375; -574.000; -606.000
910.835;   74.950; -265.000; -326.000
911.077;  158.575; -503.000; -604.000
911.318;  279.075; -505.000; -471.000
911.559;  460.850; -577.000; -880.000
911.801; 1295.425; -284.000; -280.000
912.042; 9677.650;  -50.000; -159.000
912.283;27309.700;  404.000;  371.000
912.524; 4607.300; -396.000; -457.000
912.765;  500.125; -193.000;   79.000
913.006;  239.200; -307.000; -338.000
913.247;   45.050; -270.000; -290.000
913.488;  -15.800;  -43.000;   30.000
913.729;  -86.675; -373.000; -373.000
913.970;  -69.200;  -96.000; -292.000
914.211;  -83.525; -160.000; -198.000
914.452;  -76.350; -118.000;  -11.000
914.693;    1.725;  510.000;  592.000
914.934;   13.375;  510.000;  440.000
915.175;  -67.950;   53.000;  -95.000
915.415;  -84.975; -137.000;   27.000
915.656;  -68.675;  -28.000;  192.000
915.897;  -87.025; -252.000;  -82.000
916.137;  -73.050;   74.000;   -9.000
916.378; -142.550; -573.000; -517.000
916.619;  -93.125; -159.000;  -63.000
916.859;  -31.425;  303.000;  330.000
917.100;  113.625; 1655.000; 1070.000
917.340;   50.200;  930.000;  728.000
917.581;   38.625;  965.000;  789.000
917.821;  -36.750; -171.000;  143.000
918.061;   23.450; -199.000;  -72.000
918.302;  -66.725; -152.000; -211.000
918.542;  -30.375;  -22.000;    3.000
918.782;   45.750;  369.000;  377.000
919.023;  118.050;  360.000;  427.000
919.263; 1295.425; 8131.000;  202.000
919.503; 1174.550; -137.000;  -54.000
919.743;  671.800;  390.000;  266.000
919.983;  302.100; -134.000;  -26.000
920.223;   64.575;  135.000;   14.000
920.463;  135.725;  631.000;  554.000
920.703;  126.475;   84.000;   39.000
920.943;  173.575; -110.000;   90.000
921.183;  217.000; -414.000; -405.000
921.423;  488.700;  307.000;  546.000
921.663;  711.950; -174.000; -257.000
921.903; 1518.125;  237.000;  173.000
922.143; 8136.450;  372.000;  389.000
922.383;32734.650;  158.000;  115.000
922.622;12203.250; -120.000;  -15.000
922.862; 1260.575;  796.000;  785.000
923.102;  474.250;  -51.000;   33.000
923.341;  191.375;   59.000;   74.000
923.581;   81.575;  450.000;  360.000
923.821;   11.400;  301.000;  398.000
924.060;    6.975;  351.000;  193.000
924.300;  -57.550;  -16.000; -128.000
924.539;  -14.475;  584.000;  473.000
924.779;   11.675;  812.000;  597.000
925.018;  -60.275;  247.000;  353.000
925.257;   -1.100;  595.000;  666.000
925.497;  -33.250;  447.000;  412.000
925.736;  -79.050;  -35.000;  102.000
925.975;    2.000;  687.000;  669.000
926.214;   24.825;  907.000;  850.000
926.454;   11.450;  706.000;  757.000
926.693;  -44.400;  419.000;  543.000
926.932;   34.100; 1021.000;  825.000
927.171;   64.800; 1107.000; 1044.000
927.410;   52.425; 1144.000;  967.000
927.649;   11.375;  924.000;  742.000
927.888;  -18.250;  590.000;  564.000
928.127;   -8.500;  680.000;  678.000
928.366;    5.425;  842.000;  826.000
928.605;   33.800;  831.000;  737.000
928.844;  232.275; 1451.000; 1393.000
929.083;  603.525;  770.000;  613.000
929.321;  353.925; 1335.000; 1359.000
929.560;   97.650; 1158.000; 1122.000
929.799;  -22.150;  574.000;  475.000
930.038;   86.125; 1025.000; 1394.000
930.276;  -46.050;  334.000;  397.000
930.515;  -12.350;  827.000;  681.000
930.753;  -14.500;  614.000;  589.000
930.992;  -16.000;  664.000;  717.000
931.230;    1.575;  847.000;  847.000
931.469;  154.400; 2162.000;  892.000
931.707;   78.175;  840.000;  751.000
931.946;   65.725; 1278.000; 1344.000
932.184;   71.550; 1437.000; 1175.000
932.423;   47.575; 1265.000;  963.000
932.661;   88.900; 1296.000; 1428.000
932.899;   23.350;  987.000;  821.000
933.137;   16.975;  754.000;  564.000
933.376;  146.050; 1664.000; 1335.000
933.614;  172.975; 1759.000; 1196.000
933.852;   34.925; 1357.000; 1171.000
934.090;  121.750; 1722.000; 1747.000
934.328;   96.475; 1252.000; 1457.000
934.566;   84.300; 1431.000; 1110.000
934.804;  127.650; 1263.000; 1309.000
935.042;  408.100; 1861.000; 1850.000
935.280; 1652.775; 2088.000; 2063.000
935.518; 1672.575; 2113.000; 2007.000
935.756;  366.175; 2481.000; 2316.000
935.994;  160.700; 1808.000; 1751.000
936.231;  337.575; 2890.000; 2950.000
936.469;  192.950; 2367.000; 2378.000
936.707;  171.825; 2220.000; 2167.000
936.945;  224.500; 2825.000; 2882.000
937.182;  201.775; 2679.000; 2741.000
937.420;  313.225; 3602.000; 3031.000
937.657;  413.325; 3365.000; 3478.000
937.895;  354.300; 3331.000; 3488.000
938.133;  308.775; 3540.000; 3528.000
938.370;  334.325; 3896.000; 4191.000
938.607;  401.975; 4488.000; 4205.000
938.845;  535.200; 5587.000; 5549.000
939.082;  491.625; 5387.000; 5177.000
939.320;  545.175; 5799.000; 5728.000
939.557;  638.325; 6549.000; 6491.000
939.794;  731.750; 7285.000; 7097.000
940.031;  910.325; 8421.000; 8368.000
940.269; 1120.050; 9552.000; 9107.000
940.506; 1128.450;10901.000;10507.000

