
Integration time [ms]: 100.000
Averaging Nr. [scans]: 40
Smoothing Nr. [pixels]: 0
Data measured with spectrometer [name]: 2101013U2
Wave   ;Sample   ;Dark     ;Reference
[nm]   ;[counts] ;[counts] ;[counts] 

394.013;   55.297; -450.257; -315.536
394.305;  181.220; -461.258; -419.536
394.596; 1095.817; -676.269; -527.514
394.887; 2698.208; -796.268; -654.518
395.178; 1047.164;  145.736;   11.476
395.470;   81.550; -210.263; -356.526
395.761;  193.973;  305.734;  394.479
396.052;  271.466; -545.284; -306.489
396.343;  293.136; -557.276; -454.503
396.634;   99.930; -200.279; -290.497
396.926;  105.306; -618.268; -565.517
397.217;  117.691;   11.725;  -17.504
397.508;   54.007; -366.273; -154.507
397.799;   40.280; -555.279; -571.497
398.090;   -1.876; -973.280; -902.495
398.381;  121.441;   11.708;  -11.473
398.672;   -6.757; -585.292; -742.473
398.963;   55.786; -348.279; -373.498
399.254;  129.552;   54.709; -209.475
399.545;  -31.230;-1017.266; -883.520
399.836;   79.775; -407.277; -343.501
400.127;   52.068; -205.295; -209.468
400.418;   57.176; -423.274; -392.506
400.709;   55.436; -359.281; -333.493
401.000;   36.606; -268.291; -309.476
401.290;  103.779;  225.698;  115.545
401.581;   67.949; -166.286; -228.485
401.872;   31.640; -542.298; -486.462
402.163;   57.210; -313.296; -252.467
402.454;   94.502; -123.291; -163.475
402.744;   85.002; -844.297; -813.465
403.035;  435.283; -226.293;  -86.471
403.326;  562.595; -366.292; -384.474
403.617;  365.009;  204.701;  165.539
403.907;  260.597; -593.283; -679.490
404.198; 2359.258; -545.307; -599.446
404.489; 6220.552; -618.283; -588.491
404.779; 2067.183; -618.302; -660.456
405.070;  229.711;  -67.304; -174.451
405.360;  322.760; -259.293; -238.472
405.651;  379.919;  125.699;   98.542
405.942;  181.119;  209.714;  127.516
406.232;  263.684; -432.285; -413.487
406.523;  481.503;  641.706;  758.530
406.813;  104.522; -579.286; -644.484
407.104;  335.415;  261.708;  144.527
407.394;  173.035; -604.299; -591.462
407.685;  155.983;  336.715;  222.513
407.975;   67.776; -400.283; -382.490
408.265;  106.042; -134.289; -190.478
408.556;   63.224; -472.291; -459.475
408.846;  170.553;  474.706;  429.530
409.137;   93.125;   -1.288; -216.480
409.427;   42.584; -193.285; -271.487
409.717;   44.310; -776.273; -692.508
410.007;  148.152;    4.715; -170.486
410.298;   93.545; -360.295; -342.469
410.588;   57.431; -495.285; -510.486
410.878;   39.736; -792.287; -873.482
411.168;  100.967; -481.298; -478.463
411.459;  123.945; -295.283; -242.489
411.749;   56.373; -609.292; -507.474
412.039;   58.298; -755.289; -386.480
412.329;  180.343;   40.722;  132.501
412.619;  196.797;  -62.286; -148.485
412.909;  347.570;  639.711;  594.521
413.199;  331.250; -130.280; -251.495
413.490;  393.935;  521.710;  352.523
413.780;  141.429;-1013.279; -913.496
414.070;  316.912;  -46.276;  235.497
414.360;  371.939; -729.278; -666.498
414.650;  400.682; -726.288; -688.482
414.940;  549.203; -538.280; -441.496
415.230;  924.729;   50.712;   74.519
415.520; 6079.816;  155.730;   66.486
415.809;23909.611; -305.281; -125.493
416.099;18505.953; -388.277; -229.501
416.389; 5129.924;  435.726;  236.494
416.679; 3024.504;   91.738;   85.473
416.969;  531.841; -527.287; -503.483
417.259;  468.055;  341.721;  171.503
417.549;  701.960;  522.718;  318.508
417.838; 1663.608; -205.268; -147.518
418.128; 5463.915;  650.710;  492.522
418.418; 4563.916; -491.272; -579.509
418.708; 3069.724;    9.726;  -48.506
418.997;11507.270; -474.275; -480.505
419.287;12067.706; -733.273; -790.507
419.577;11411.695; -160.283; -123.489
419.866;37662.775; -588.277; -498.501
420.156;38826.062; -242.270;  -55.513
420.446; 6915.396; -112.263;  -26.526
420.735;  863.381; -376.271; -446.512
421.025;  827.114; 1830.722;  315.502
421.314;  673.004; -203.271; -226.512
421.604; 1366.300;   89.732;  233.484
421.893;  796.900; -705.271; -602.511
422.183;  229.346; -487.263; -461.526
422.472;  389.152;  -36.271; -107.511
422.762;  432.751; -416.266; -379.521
423.051;  240.113; -916.276; -916.503
423.341;  300.608; -491.273; -439.507
423.630;  405.857; -121.265;   15.477
423.919;  390.244;   58.725;   49.495
424.209;  367.152;  -31.263;   56.473
424.498;  486.830;   68.732;  161.483
424.787; 1100.736; -535.267; -601.518
425.077; 3317.180;   34.735;   29.478
425.366; 4649.982; -734.262; -744.528
425.655; 9825.133;  639.727;  259.493
425.945;21464.736; -313.247; -268.554
426.234;11941.330;  117.741;  300.467
426.523; 5072.210;  -86.259; -350.534
426.812; 6895.871;  107.734;  159.480
427.101;10171.297; -127.269; -323.515
427.390;12770.841;  -55.270;  -86.514
427.680; 2828.480; -624.257; -411.538
427.969;  486.091; -330.255; -301.540
428.258;  321.021; -385.257; -477.536
428.547;  520.320;  449.728;  397.490
428.836; 1196.657; -421.253; -398.543
429.125; 1720.612; -199.259;  -72.534
429.414;  834.979; -330.251; -294.548
429.703; 3120.304; -231.251; -213.548
429.992; 9311.108; -938.250; -828.549
430.281; 6093.189; -397.264; -331.524
430.570;  602.545;  -21.252;   32.454
430.859;  551.560;  279.741;  352.466
431.148;  443.757;  636.752;  631.446
431.437;  286.019;  391.748;  367.454
431.725;  155.298; -544.257; -481.536
432.014;  112.864; -845.253; -756.545
432.303;  369.458; -149.239; -105.569
432.592;  603.346; -460.263; -178.525
432.881; 1052.533; -601.248; -437.554
433.169; 6123.841; -343.255;  -61.540
433.458;12556.541;  445.765;  540.424
433.747; 5213.463; -397.261; -289.529
434.036;  889.908; -275.242; -280.564
434.324; 2054.670; -395.249; -379.551
434.613; 3665.802;   40.757;  159.437
434.902; 1196.448;  333.760;  439.433
435.190;  552.256;   75.761;  295.431
435.479;  317.884;  -52.245;   83.441
435.767;  105.642; -411.244; -427.561
436.056;  221.229; -340.242; -294.563
436.345;  383.225; -372.240; -223.568
436.633;  362.016;   60.750;  383.450
436.922;  269.052;  208.760;  414.432
437.210;  567.831; -194.236;    1.426
437.499; 1814.514; -583.235; -432.576
437.787; 1991.731; -339.236;  -10.574
438.075;  508.237;   56.761;  162.430
438.364;  694.189;  -44.238;  250.429
438.652;  410.494; -286.226; -138.592
438.941;  123.608;    3.770;  269.415
439.229;   18.017; -665.252; -466.545
439.517;   38.148; -160.234;  -85.577
439.806;   10.335; -501.225; -290.595
440.094;  175.130;  377.766;  650.421
440.382;  180.559; -653.233; -302.580
440.670;  198.764; -361.235; -285.576
440.959;   21.127; -347.223; -170.599
441.247;   67.895; -151.229; -109.587
441.535;   88.846; -266.235;   31.423
441.823;   36.978; -497.234; -305.578
442.111;  202.174;  173.771;  327.412
442.400;  505.833; -628.245; -335.559
442.688; 1340.105; -111.234; -620.579
442.976;  953.290; -786.213; -450.617
443.264;  104.091; -324.224; -364.597
443.552;   98.670; -258.226;   51.408
443.840;  174.320;  602.765;  876.423
444.128;  112.383;  265.767;  269.420
444.416;    6.876; -694.228; -312.588
444.704;   24.457; -465.219;  -92.605
444.992;   83.998;   -0.226;  240.407
445.280;   38.309; -517.230;  -94.585
445.568;   33.093; -694.212; -396.618
445.856;  345.266; -174.221;  357.398
446.143;  730.653;  -54.220;   -7.604
446.431;  608.230;  -25.228;  625.411
446.719;  253.951;  489.783;  675.391
447.007;  177.328;  481.769;  705.416
447.295;  183.999;  597.777;  871.402
447.583;   72.717; -464.229;  -34.587
447.870;  165.938; -434.221; -202.601
448.158;  399.258; -104.230;  129.415
448.446;  302.954; -800.219; -338.604
448.733;  149.143;   13.776;  269.403
449.021;  249.868;   60.788;  341.382
449.309;  159.658; -296.210;  208.379
449.596;  212.322;  128.783;   59.392
449.884;  142.631; -571.222; -325.600
450.172;  159.535; -756.227; -406.590
450.459;  428.773;  645.786;  780.387
450.747; 2388.821; -411.218; -147.608
451.034; 7565.431;  493.772;  889.411
451.322; 6268.276; -413.214; -170.614
451.609;  524.869;  292.777;  508.403
451.897;  605.946; -550.203; -183.634
452.184; 1763.399; -622.223; -400.598
452.472; 1689.829;   97.792;  269.375
452.759;  340.680;  512.781;  864.395
453.047;  112.840; -407.212; -125.617
453.334;   65.637; -732.219; -216.606
453.621;   84.503; -438.214; -161.615
453.909;  109.363;   13.796;  384.368
454.196;  108.483; -299.199; -123.641
454.483;  214.684;  317.798;  540.364
454.771;  132.632; -215.208;  196.374
455.058;   35.985; -316.207;  102.374
455.345;  121.613;   71.807;  344.347
455.632;   85.089; -128.207;  235.373
455.919;   64.255;  -82.196;  182.354
456.207;  -58.263; -774.198; -450.642
456.494;   -5.629; -475.200;  -66.639
456.781;    7.579; -399.202; -198.635
457.068;   62.195; -253.206;  -29.628
457.355;   -5.429; -698.206; -401.629
457.642;   -5.948; -552.205; -290.630
457.929;   -2.071; -778.194; -417.651
458.216;   58.791; -575.212; -354.617
458.503;  232.284; -173.193;  -19.652
458.790;  232.355; -864.208; -630.625
459.077;  249.734;  -77.202;  110.364
459.364;  798.197; -350.195; -210.649
459.651; 1665.768;  -46.206;  220.372
459.938;  784.445; -864.209; -665.623
460.225;  135.562;  132.799;  276.363
460.512;  -42.197; -836.197; -688.645
460.799;  110.544;  -32.218;  320.392
461.086;   59.500; -370.200; -251.640
461.372;   51.963; -509.198; -279.642
461.659;  117.432; -165.196;  108.354
461.946;   64.982; -445.193;  -54.651
462.233;  212.023;  842.800;  888.361
462.519;  331.795; -814.201; -464.639
462.806; 1019.253; -768.197; -497.645
463.093;  893.878; -445.191;  -66.656
463.380;  -27.056; -920.186; -824.664
463.666;   49.755; -259.197;  -18.646
463.953;   94.242; -406.195; -243.648
464.239;  184.142; -173.195;  -77.648
464.526;  374.478;  413.806;  743.350
464.813;  314.090; -565.190; -304.658
465.099;  364.408;  606.807;  607.348
465.386;  316.637;  903.807;  921.348
465.672;   18.703; -694.197; -522.645
465.959;   11.082; -598.188; -520.662
466.245;   13.237; -468.193; -359.652
466.532;  101.440; -109.195;   63.352
466.818;   60.969; -357.186; -216.664
467.104;  -15.041; -488.182; -415.672
467.391;   -6.634; -628.189; -459.658
467.677;   30.822; -289.186;    9.335
467.964;   20.648; -682.189; -471.660
468.250;   52.275; -331.186; -160.665
468.536;   78.818;   90.811;  180.341
468.822;  -27.638; -821.184; -574.668
469.109;  140.139;  351.827;  471.311
469.395;  181.672;  729.808;  787.346
469.681;  209.171;   46.811;  156.341
469.967; 1251.125; -699.188; -382.660
470.254; 2677.558; -494.188; -306.662
470.540; 1729.880; -601.196; -476.646
470.826;  243.120; -488.181; -397.675
471.112;  303.166;  288.816;  113.331
471.398;   76.945; -253.183;  -58.670
471.684;   51.173; -626.177; -447.680
471.970;   -7.051; -918.180; -981.675
472.256;   24.121; -521.192; -441.654
472.542;   24.750; -499.171; -434.691
472.828;    8.305; -743.182; -607.672
473.114;   35.669; -380.166; -283.700
473.400;    8.315; -504.175; -293.684
473.686;   43.525; -452.166; -400.701
473.972;   52.354; -230.174; -131.687
474.258;  -32.260; -925.173; -843.689
474.544;  198.040; -183.178;   -2.679
474.830;  318.791;  -65.175;   45.316
475.116;  505.791; -123.190; -196.658
475.401;  651.126; -558.180; -467.676
475.687;  180.325; -725.180; -718.676
475.973;    4.863; -673.181; -770.673
476.259;  230.969;  736.825;  764.315
476.544;  358.556; -539.176; -437.682
476.830;  805.646; -398.172; -322.690
477.116;  709.080; -430.177; -336.682
477.401;  134.926;  346.820;  358.324
477.687;   -0.085; -289.175; -405.684
477.973;   30.966;   21.819;   28.326
478.258;   -3.130; -448.163; -348.706
478.544;   54.455;   21.815;   61.334
478.829;  -53.169; -818.171; -738.692
479.115;  -49.804; -749.172; -651.690
479.401;   -6.200; -444.174; -449.686
479.686;   30.699; -253.180;  -74.676
479.972;  -21.930; -886.178; -776.680
480.257;   30.570; -258.166;  -65.700
480.542;   -3.090; -614.170; -469.693
480.828;  228.513; 1288.824; 1392.317
481.113;  -23.339; -464.176; -426.683
481.399;  -14.681; -236.161; -202.711
481.684;  -42.305; -620.166; -462.700
481.969;   23.158; -158.159;  -73.713
482.255;    1.270; -439.169; -285.695
482.540;    3.220; -569.178; -441.680
482.825;   13.114; -395.187; -404.663
483.110;   89.849;  -85.169; -105.696
483.396;  204.104; -840.157; -652.718
483.681;  484.404;  543.826;  730.313
483.966;  159.802; -696.160; -700.712
484.251;   -4.622; -404.174; -310.687
484.536;   12.655; -356.165; -378.703
484.822;    5.581; -205.173; -218.687
485.107;  -32.558; -599.152; -502.726
485.392;  130.336;  662.836;  541.296
485.677;   67.633;  354.832;  163.302
485.962;  106.602;  160.843;  270.283
486.247;   93.703;  -14.162;   -8.707
486.532;   56.521; -178.166; -325.701
486.817;  163.864;  381.839;  431.291
487.102;  108.750; -453.154; -514.722
487.387;  666.106; -637.156; -652.718
487.672; 1172.366; -154.164;  -38.705
487.957;  741.496; -394.160; -286.711
488.241;  191.309; -290.150; -314.729
488.526;  733.994; -280.152; -148.726
488.811; 1171.997; -881.177; -818.680
489.096;  890.803; -666.154; -702.723
489.381;  480.465;    3.847;  162.275
489.666;  397.694; -428.161; -510.710
489.950;  184.206;  558.846;  627.277
490.235;  -16.546; -480.151; -458.728
490.520;  -40.707; -756.161; -723.710
490.804;  -59.092; -827.156; -736.719
491.089;   -6.725; -469.149; -299.732
491.374;   37.240; -132.164;  -75.704
491.658;  -20.039; -817.147; -717.735
491.943;  186.723; -657.152; -609.727
492.227;  241.971; -178.155;  -38.721
492.512;   54.576; -294.157; -341.717
492.797;  -71.607; -713.149; -716.731
493.081;  -43.936; -588.147; -598.735
493.366;  -37.455; -751.161; -635.711
493.650;  202.217;  831.859;  917.254
493.935;   26.260; -648.147; -447.734
494.219;  -27.346; -778.142; -687.743
494.503;  -35.437; -585.150; -487.730
494.788;   51.693;   46.842;   74.285
495.072;   99.410;  184.850;  434.271
495.356;  185.128; -463.148; -343.733
495.641;  443.320; -812.146; -736.736
495.925;  431.888; -976.156; -903.719
496.209;   46.674; -599.149; -451.732
496.494;  -44.870; -763.142; -544.744
496.778;   25.975; -364.154; -360.722
497.062;  -51.038; -819.156; -627.719
497.346;  -31.027; -869.160; -640.711
497.631;  152.231;  580.852;  560.266
497.915;   51.081;  -64.145;  175.261
498.199;   55.704; -341.157; -277.718
498.483;   48.892; -562.152; -508.725
498.767;  177.486;  301.850;  300.271
499.051;  176.572; -126.149; -100.732
499.335;   33.370; -693.149; -739.731
499.619;  -26.657; -381.129; -423.767
499.903;   19.345; -272.155;  -65.721
500.187;   29.332; -588.153; -316.724
500.471;   15.322; -796.152; -595.727
500.755;  103.793;   62.839;  -96.710
501.039;   16.320; -270.155; -357.721
501.323;   79.768;  -21.141;  264.254
501.607;   43.721; -447.163; -503.706
501.891;   -3.269; -607.156; -512.718
502.174;  -19.783; -726.144; -585.741
502.458;   63.051;   89.849;  370.273
502.742;   30.517; -180.138; -191.751
503.026;  108.710; -412.147; -254.734
503.310;  177.057; -437.159; -375.713
503.593;  113.587; -464.147; -325.735
503.877;  109.082; -232.133; -156.760
504.161;  178.510;    2.847;  -50.724
504.444;  139.570; -841.158; -710.716
504.728;  446.289; -487.164; -522.704
505.012;  718.733; -257.150;  -76.729
505.295;  537.269; -417.161; -212.711
505.579;  527.937; -256.156; -496.719
505.862;  746.927; -555.145; -333.738
506.146;  734.234; -681.159; -758.714
506.429;  406.784;  568.841;  461.286
506.713;   60.355; -732.151; -667.728
506.996;  311.075;   90.846;  295.278
507.280;  326.559; -633.165; -474.703
507.563;  237.418; -469.155; -261.721
507.847;   98.308; -423.153; -112.724
508.130;   88.145; -665.161; -456.711
508.413;  124.466; -758.167; -577.700
508.697;  242.891; -151.167;   12.300
508.980;  156.235; -422.153; -312.724
509.263;   -9.360; -466.155; -450.720
509.547;   38.008; -124.150;   82.271
509.830;   45.522; -172.160;  140.289
510.113;   85.637;  128.844;  298.281
510.396;   37.140; -530.152; -300.725
510.680;  162.053; -818.145; -812.738
510.963;  605.904;  184.846;  180.277
511.246;  513.641; -493.150; -357.730
511.529;  252.283; -482.145;  -83.739
511.812;  376.304; -250.134;   10.241
512.095;  274.302; -740.151; -396.728
512.378;   70.966; -317.147; -245.736
512.661;   12.450; -703.137; -623.753
512.944;   34.881; -750.142; -637.744
513.227;   58.772; -170.137; -171.752
513.510;   23.367; -479.144; -671.741
513.793;   27.748; -485.140; -435.747
514.076;  146.163;  -43.127;  -39.771
514.359;  108.275; -294.149; -135.732
514.642;   91.459; -442.142; -567.744
514.925;  744.896;  581.860;  561.253
515.208;  994.000; -498.134; -443.758
515.491;  638.389; -276.133; -182.761
515.773;  386.221; -410.143; -337.742
516.056; 2047.281;  249.864;  409.246
516.339; 2788.010; -754.136; -652.755
516.622; 1876.213; -518.150; -488.730
516.904; 1224.603;  882.857;  975.257
517.187;  559.571; -730.138; -523.752
517.470;  390.476; -568.143; -510.743
517.752;  430.813; -624.136; -470.756
518.035;  337.108; -708.139; -725.749
518.318;  363.010; -799.136; -744.755
518.600; 2387.143; -300.132; -325.762
518.883; 3306.458;  310.858;   88.256
519.165; 1599.089; -585.138; -426.751
519.448;  387.292;  -61.132;  -19.762
519.730;  206.821; -573.126; -415.773
520.013;  298.560;  588.867;  664.240
520.295;  802.281;  -94.134;  -15.759
520.578; 1777.780; -335.131; -305.764
520.860; 2020.668; -254.132;   56.238
521.143; 1047.890; -763.135; -584.756
521.425;  471.359; -251.125; -279.775
521.707;  667.814; -622.127; -380.771
521.990; 1772.639; -199.127;  167.229
522.272; 2016.549; -116.140;   -4.748
522.554;  911.196; -237.143; -157.742
522.836;  348.604;  -24.134;   99.241
523.119;  227.134; -496.148; -189.734
523.401;  147.862; -448.130; -314.766
523.683;   83.050; -865.137; -693.753
523.965;  276.569;  408.862;  260.248
524.247;  275.380;   54.878;  170.220
524.529;  206.731; -451.134; -367.759
524.812;  363.864;   -3.130;  191.234
525.094;  856.343; -773.138; -631.751
525.376; 1351.368; -143.124;   78.223
525.658;  811.632; -441.136; -339.754
525.940;   38.077; -805.131; -671.764
526.222;   25.611; -188.136;  -88.755
526.504;  125.950; -190.131;   32.237
526.786;  166.408; -960.133; -647.760
527.068;  303.623; -124.123;  -67.778
527.349;  115.654; -865.137; -774.754
527.631;  148.617; -137.132;   22.238
527.913;  117.063; -664.127; -450.771
528.195;  171.727; -761.125; -639.774
528.477;  232.426;  -93.134;  -30.758
528.759;  146.039; -648.130; -522.766
529.040;   54.872; -569.123; -293.778
529.322;   46.204; -235.125;  -10.774
529.604;  136.841;  -47.130;   93.233
529.886;  134.270; -546.126; -302.773
530.167;  122.783;  232.870;  192.235
530.449;   58.115;    1.853;   63.265
530.731;   16.654; -572.122; -459.779
531.012;   67.925; -513.120; -216.784
531.294;   59.914; -118.116;  -43.792
531.575;  145.109;  290.875;  538.225
531.857;   52.170; -548.135; -266.757
532.138;   87.942; -113.141;   40.254
532.420;  155.592;  294.865;  403.244
532.701;  203.210; -722.133; -751.760
532.983;  351.563;  232.867;  182.239
533.264;  120.594; -243.126;  175.228
533.546;  -24.914; -491.136; -508.755
533.827;   44.332;  173.867;   -1.759
534.109;   42.620; -352.135;  -80.757
534.390;   85.671; -725.132; -582.762
534.671;  245.766; -270.135;  -82.756
534.953;  143.975; -751.123; -611.779
535.234;    9.574; -426.117; -255.789
535.515;  -66.592; -891.119; -735.785
535.796;  -25.541; -431.128; -193.770
536.078; -105.758;-1050.124; -904.777
536.359;   -2.775;  -22.123;    3.221
536.640;  -16.772; -480.125; -197.774
536.921;  154.646;  225.871;  143.232
537.202;  372.140;  -87.138;  -16.751
537.483;  457.305;  251.869;  377.236
537.764;  180.833;   17.870;   98.235
538.045;  -51.275; -543.134; -371.758
538.326;  -30.127; -596.129; -447.768
538.607;   11.840; -686.127; -476.771
538.888;  164.766;   98.879;    5.218
539.169;  170.810; -704.122; -535.781
539.450;  329.045;  236.871;   16.233
539.731;  209.770; -361.121; -182.783
540.012;  141.675;  199.880;  412.216
540.293;   79.187;   82.876;  158.224
540.574;    3.609; -895.113; -717.796
540.855;  415.918;  435.879;  377.218
541.136;  510.583;   47.878;  139.220
541.416;  265.065; -161.130; -220.766
541.697;  217.900; -274.131; -170.763
541.978; 1026.869; -270.135; -315.757
542.259; 1335.364; -211.127; -236.771
542.539;  619.407; -191.116; -186.790
542.820;  194.858;  461.875;  480.225
543.101;  120.205;  -52.145;  -77.738
543.381;   33.089; -638.127; -591.771
543.662;  260.537;  159.873; -254.771
543.942;  581.285; -751.127; -830.770
544.223; 1041.509;  193.878;  161.219
544.504;  686.267; -275.124; -182.777
544.784;  572.845; -592.126; -408.773
545.065; 1629.211;  104.884; -254.791
545.345; 1947.108;  227.881;   14.215
545.626; 1293.633;  -14.113; -108.796
545.906;  873.882;   77.869;   98.235
546.186;  375.150;   92.874;  -95.773
546.467;  196.945;   99.877;  -95.778
546.747;  313.357;  264.884;  327.210
547.027;  371.041;   91.876;  111.223
547.308;  316.459; -376.127; -530.770
547.588;  403.849;  299.871;  371.232
547.868;  205.434;  458.870;  588.235
548.149;  176.869;  609.885;  593.207
548.429;  143.363; -347.127; -299.771
548.709;  189.099; -645.120; -461.784
548.989;  461.018;   84.882;   88.213
549.269; 2119.166;   10.868;  139.239
549.550; 4785.649;  215.877;  117.222
549.830; 4276.901; -758.111; -556.799
550.110;  861.459; -468.110; -320.801
550.390;  825.729; -128.122;  -56.779
550.670; 1129.654; -868.114; -783.795
550.950;  812.618; -509.121; -471.782
551.230;  203.639;  549.879;  460.218
551.510;   -9.733; -381.121; -326.782
551.790;   37.117; -173.109; -127.803
552.070;  266.945;  940.877; 1181.223
552.350;  405.012; -492.119; -377.786
552.630;  586.262;   -2.121;   77.219
552.909;  348.637;  181.884;   73.209
553.189;  240.247;  -49.132;   33.237
553.469;  202.612; -703.119; -514.786
553.749;  202.666; -469.127; -357.772
554.029;  181.178;   33.883;  -24.790
554.308;  150.223; -154.115;  -37.794
554.588;   71.283; -196.128; -204.770
554.868;   67.444; -366.121;  -47.782
555.147;  154.620; -114.115;  -46.793
555.427;  599.814; -260.116; -250.792
555.707; 3853.818; -284.115; -200.793
555.986; 4664.730; -719.111; -538.800
556.266; 2460.781;   23.884;   72.210
556.546;  116.442; -888.121; -675.782
556.825;  256.277; -657.114; -556.794
557.105; 1748.306; -125.128;   17.230
557.384; 2061.736;  122.884;  187.209
557.664;  782.788; -717.116; -508.792
557.943;  107.393; -557.121; -411.782
558.222;  158.771; -345.118; -344.788
558.502;  277.871; -116.115;  -76.793
558.781;  476.767;  194.885;  499.208
559.061;  416.095; -232.118; -227.788
559.340;  279.700;  302.883;  353.211
559.619;  693.906;   93.884;  148.210
559.899; 1010.627; -239.117; -266.789
560.178;  925.296; -778.115; -593.793
560.457; 3139.129; -623.117; -562.790
560.736; 4359.306; -472.111; -482.800
561.015; 2890.754; -500.128; -502.769
561.295;  396.061;  180.893;  215.193
561.574;  328.643;  119.885;  116.207
561.853;  486.971;  274.891;  303.197
562.132;  487.548;  -45.114;  182.206
562.411;  443.762;  396.879;  553.219
562.690;  121.792; -592.115; -458.792
562.969;  166.591;  472.888;  630.203
563.248;  522.085; 2966.878; 2487.219
563.527;  286.480; -290.111; -408.800
563.806;  373.738; -650.127; -521.771
564.085;  403.101; -297.105; -206.810
564.364;  240.855; -594.117; -405.790
564.643;  512.263; -276.121; -223.781
564.922; 1885.290;  221.890;  397.198
565.201; 1869.268; -640.109; -700.803
565.479;  807.115; -297.115; -219.792
565.758;  332.231; -810.128; -712.770
566.037;  453.745; -155.109; -100.803
566.316;  237.561; -286.116;  -28.791
566.595;   50.443;  -17.115;  -12.793
566.873;   98.007; -166.111;  -79.801
567.152;  -57.685; -490.113; -590.797
567.431;   22.082; -113.116;    6.210
567.709;   11.362; -344.107; -212.807
567.988;  262.452; -810.114; -769.794
568.266;  512.268; -160.115;  -68.793
568.545;  389.498; -644.100; -514.819
568.824;  584.740;  160.885;  356.208
569.102;  556.676; -351.114; -235.794
569.381;  209.589; -492.116; -407.792
569.659;  -42.139; -553.113; -553.796
569.938;   21.333; -743.122; -465.780
570.216;  110.272; -225.109; -225.804
570.494;  -33.395; -632.114; -572.795
570.773;   37.716;  202.879;  114.218
571.051;    0.023; -373.123; -357.778
571.330;   59.009; -221.113; -174.796
571.608;   32.916; -181.098; -173.823
571.886;  -63.526; -671.111; -581.799
572.164;  -62.156; -739.121; -621.782
572.443;  -47.470; -562.105; -512.811
572.721;  -33.146; -399.117; -289.790
572.999;  -18.302; -280.117; -168.788
573.277;   95.174;  379.894;  620.191
573.555;  288.026;   94.894;   37.190
573.834; 1336.122;  -86.117; -114.788
574.112; 1533.214;  880.893;  811.193
574.390;  475.281; -143.111;  -96.801
574.668;    1.291;  -91.112;  -61.797
574.946;  -15.899; -165.106; -187.810
575.224;   19.343;   71.891;  -16.803
575.502;  -24.166; -200.116; -204.791
575.780;  -82.183; -767.112; -829.798
576.058;  110.130; 1589.889; 1004.200
576.336;  -12.689; -210.110; -129.801
576.614;  -73.207; -511.112; -340.798
576.891;   50.172; -711.115; -823.794
577.169;  468.505; -158.108; -285.805
577.447;  586.513;  169.893;  202.193
577.725;  274.997;  629.888;  854.201
578.003;    6.220;  -71.112; -371.798
578.280;   83.814; -208.104; -242.812
578.558;   62.421; -450.115; -422.793
578.836;  115.204; -210.114; -145.795
579.114;   61.091; -630.112; -670.797
579.391;   60.899;   -6.117;  -18.789
579.669;  -69.027; -595.114; -704.794
579.947;  157.760; -326.107; -127.806
580.224;  313.510; -692.107; -524.806
580.502;  315.889;  127.893;   76.193
580.779;   33.155;  -42.117;   75.210
581.057;  -90.553; -584.109; -470.804
581.334;  -99.346; -726.102; -695.815
581.612;   23.677;   54.895;  511.190
581.889;  -18.258;  -83.101; -129.818
582.167;  -40.894; -298.099; -190.821
582.444;  -92.913; -845.102; -814.817
582.721;   90.612;  657.899;  715.183
582.999;   59.854; -326.100; -167.821
583.276;  523.027; -812.123; -713.779
583.553;  717.682; -364.102; -294.816
583.831;  224.561; -607.104; -631.812
584.108;   67.153;  349.892;  174.195
584.385;    6.853; -122.102;  -98.815
584.662;  -64.567; -651.111; -828.801
584.940;   32.107;  204.889;  204.199
585.217;  -23.989;  -73.113; -303.796
585.494;   19.816;   71.890;  118.198
585.771;  224.273; -250.109; -354.804
586.048;  495.661; -196.113;  -76.796
586.325;  302.560; -721.110; -773.801
586.602;   85.064;  230.896;  213.188
586.879;   -9.650; -499.100; -580.820
587.156;   58.603; -156.105; -331.810
587.433;  -37.165; -701.102; -667.817
587.710;   60.418;  152.888;  234.202
587.987;  299.958; -264.105; -236.811
588.264;  772.470;  315.888;  387.202
588.541; 1338.967;  -61.104;   26.187
588.818; 2632.300;   72.892;  171.196
589.095; 2277.037; -163.104; -174.812
589.371;  373.196; -459.109; -414.804
589.648;    1.839; -581.107; -437.807
589.925;   16.930; -517.114; -621.795
590.202;    5.868; -741.112; -607.798
590.478;   86.985; -166.105;  -73.811
590.755;  275.781; -241.108; -132.806
591.032; 2430.787; -741.110; -699.802
591.308; 3402.081; -732.094; -790.831
591.585; 1743.237; -573.110; -560.802
591.862;  140.911;-1056.102; -950.817
592.138;   42.429; -475.108; -474.805
592.415;  150.540; -486.104; -495.813
592.691; 1451.913;  460.896;  518.188
592.968; 1849.868; -208.098; -123.824
593.244;  891.557; -695.116; -595.790
593.521;   86.811; -105.102;  -42.817
593.797;  -28.220; -810.122; -720.780
594.074;  337.206; -611.096; -588.826
594.350;  649.917;  828.905;  729.172
594.626;  301.308; -303.111; -283.801
594.903;  105.262; -643.101; -645.817
595.179;  187.594;  243.896;  418.187
595.455;   -3.385; -136.107; -150.807
595.731;   10.271;  -19.103;  -38.814
596.008;  -39.023; -464.111; -434.800
596.284;   38.377; -187.100; -242.820
596.560;   33.237; -501.093; -493.833
596.836;  195.680; -173.105;  -70.810
597.112;  334.080; -582.108; -437.805
597.388;  282.853;  -49.097;  -48.826
597.665;  100.813;  437.887;  530.203
597.941;  -50.483; -572.089; -658.839
598.217;    7.590; -323.110; -293.802
598.493;  271.800;   61.891; -204.804
598.769;  488.522; -175.100;  -50.819
599.045;  301.608; -490.108; -562.806
599.321;   60.226; -193.100; -261.820
599.597;  136.374; -355.109; -476.804
599.872;  464.892;  409.896;  429.187
600.148;  359.380;  -61.097; -172.826
600.424;  277.887;   91.893;  202.193
600.700;  248.990; -170.107; -280.807
600.976;  108.924; -442.097; -464.825
601.252;  249.646; -226.109; -272.803
601.527;  199.143; -833.104; -840.813
601.803;  153.960; -453.105; -404.812
602.079;  179.547; -124.100; -118.819
602.354;  581.747; -620.092; -531.835
602.630;  817.561; -140.113; -482.796
602.906; 2299.717; -910.101; -863.818
603.181; 6597.412; -627.119; -534.786
603.457; 5602.153;   98.903; -278.826
603.733;  819.120; -605.120; -626.783
604.008;  960.101; -245.106; -164.810
604.284; 3017.388; -636.101; -580.817
604.559; 2611.672;   -3.112;  -42.799
604.835;  486.554; -163.105; -225.810
605.110;  405.332; -732.099; -892.821
605.385;  674.065;  224.907;  267.167
605.661;  643.394; -625.095; -729.829
605.936; 1150.633; -664.108; -737.806
606.211;  984.827;  -17.103; -170.815
606.487;  189.625; -329.114; -376.794
606.762;   10.437; -791.119; -745.786
607.037;  -26.495; -501.105; -433.810
607.313;  -47.062; -589.096; -574.828
607.588;   -2.224; -375.106; -137.810
607.863;   24.967;  -28.101; -143.818
608.138;  173.539;  513.890;  516.198
608.413;   18.436; -576.099; -592.822
608.688;   28.404; -203.108; -267.805
608.964;  186.295; -509.106; -218.809
609.239;  221.852; -107.105; -212.810
609.514;  256.885;  281.895;  240.188
609.789;  634.339; -187.104; -716.812
610.064;  854.836; -435.096; -609.827
610.339;  866.646; -855.109; -799.804
610.614; 1146.452; -131.100; -315.820
610.889;  661.560;  215.895;  107.188
611.163;   30.361; -407.104; -591.812
611.438;   68.851;   81.886; -167.794
611.713;  -10.787; -467.101; -499.817
611.988;   67.166; -144.101; -328.818
612.263;  -21.146; -771.102; -717.815
612.538;  218.585;  385.887;  251.204
612.812;  161.628; -832.100; -911.820
613.087;  112.016; -358.098; -338.823
613.362;  -42.735; -497.107; -557.807
613.637;   36.848;  261.897;  138.186
613.911;   -3.777; -256.092; -345.835
614.186;  123.363; -249.107; -292.807
614.460;  677.291; -842.081; -758.854
614.735;  767.815;  -55.087;  -17.843
615.010;  163.555;   43.912;  -82.841
615.284;  247.654;  360.892;  246.195
615.559;  346.397; -792.092; -955.835
615.833;  286.534;  -76.099;  -87.822
616.108;   19.558; -225.090; -390.837
616.382;  142.266;  274.913;  402.156
616.656;  156.334; -241.090; -232.837
616.931;  510.009; -785.099; -700.822
617.205; 1064.718; -973.104; -979.813
617.480;  967.806;  -91.125;    6.225
617.754;  166.229; -396.125; -128.774
618.028;    5.675; -369.129; -382.768
618.302;   86.302;   73.892;  -25.805
618.577;  -62.400; -371.103; -518.815
618.851;  -61.357; -399.109; -600.803
619.125;  -41.219; -335.134; -378.759
619.399;  -28.631; -244.104; -374.813
619.673;  -53.585; -330.115; -515.792
619.947;  -45.346; -333.114; -448.795
620.222;  -28.341; -198.110; -204.801
620.496;   -3.357;  -47.121;  -96.782
620.770;   27.460; -187.122;  -93.781
621.044;  210.853;  323.895;  346.190
621.318;  712.621; -653.120; -614.783
621.592;  637.269; -430.121; -409.783
621.866;  345.223; -476.112; -572.799
622.140;   26.734; -207.116; -356.791
622.413;   52.827;  138.889;  112.200
622.687;  -39.611; -746.101; -492.817
622.961;  -13.648; -130.108; -143.805
623.235;  -58.822; -633.111; -661.800
623.509; -116.916; -816.105; -848.811
623.783;    7.661;  -12.107;   48.193
624.056;  -35.503; -254.120; -280.783
624.330;   55.266;   63.888;   -3.797
624.604;   33.280; -271.116; -355.790
624.877;   74.688;  180.890;   26.198
625.151;   38.724; -249.114; -238.794
625.425;  -31.330; -150.103; -283.814
625.698;  -64.344; -367.119; -374.785
625.972;  -93.560; -799.110; -765.802
626.245;   73.407;  685.884;  484.210
626.519;  -48.874; -426.120; -340.784
626.792;  -41.485; -192.107; -380.807
627.066;  -84.022; -485.122; -662.779
627.339; -103.664; -736.110; -663.802
627.613;   58.800;  351.880;  148.216
627.886;   43.292;  187.891; -612.803
628.160;  -18.279;  312.880; -161.783
628.433; -102.841; -695.125; -703.775
628.706;  -81.024; -517.120; -615.784
628.979;   21.391;  296.876;  117.223
629.253;  -82.289; -785.119; -833.786
629.526;  366.844; -334.126; -253.772
629.799;  331.873; -641.123; -479.778
630.072;  140.851; -497.128; -516.769
630.346;  -61.718;-1115.116;-1080.790
630.619;  433.491; -467.107; -545.808
630.892;  594.928;  709.889;  593.200
631.165;  322.643;  790.896;  679.187
631.438;  -67.405;-1092.112;-1055.798
631.711;   35.451;  453.877;  257.221
631.984;  -57.648; -523.117; -624.789
632.257;  -70.951; -636.117; -681.789
632.530;  -48.318; -412.119; -433.785
632.803;   -3.978; -109.115;    7.207
633.076;  -73.755; -360.123; -422.777
633.349;   11.530;  173.872;  121.231
633.622;  -40.995; -187.119; -240.785
633.895; -133.528; -903.120; -823.783
634.167;  -66.529; -496.126; -525.773
634.440;  -25.137;  -19.116; -137.792
634.713;    2.535;  -22.119; -120.786
634.986;   68.345;  593.871;  453.233
635.258;  -78.905; -507.115; -597.793
635.531;   84.570;  742.882; -343.788
635.804;  -34.449; -303.117; -318.789
636.077;  -98.915; -830.116; -852.791
636.349;    2.794; -586.115; -474.793
636.622;  383.293; 1695.874; 1392.228
636.894;  225.876; -474.120; -909.784
637.167;  150.012; -836.127; -789.771
637.439;   41.883; -278.128; -213.770
637.712;  -60.605; -312.126; -293.772
637.984;  -79.740; -635.116; -707.791
638.257;  384.195;  515.877;  488.222
638.529;  547.960; -881.125; -924.776
638.802;  243.401; -508.128; -449.769
639.074;  -98.166; -927.122; -952.781
639.346; -136.878; -942.135; -930.757
639.619;   11.032;  -79.142; -319.744
639.891;   -4.197;  -83.122; -168.779
640.163;  -80.145; -689.122; -756.780
640.435;   35.382;  273.878;  103.220
640.708;   15.983;  -72.122; -132.780
640.980;  -34.640; -366.122; -362.781
641.252;  193.462;  -25.121;  -71.781
641.524; 1768.789;  580.879;  573.219
641.796; 1769.441;-1094.121; -907.782
642.068;  302.117; -191.121; -300.782
642.340;  -53.306; -486.121; -566.783
642.613;   36.746;  294.880;  323.217
642.885;  -92.577; -787.120; -878.783
643.157;  -52.400; -810.120; -658.784
643.428;   64.702;  170.880;  218.216
643.700;  -81.197; -498.120; -425.784
643.972;  -44.145;  -16.119; -133.785
644.244;  -99.893; -474.119; -559.785
644.516;  -42.941; -250.119; -114.786
644.788;   45.936;  662.881;  548.214
645.060;  -27.112;  -12.119; -124.786
645.332;  -96.361; -525.118; -535.787
645.603;   27.866;  479.882;  342.213
645.875;  -83.532; -334.118; -369.787
646.147;  162.045; 1487.882; 1242.212
646.418;  -66.628; -931.117; -918.788
646.690;  138.198; -714.117; -715.789
646.962;   30.950; -413.117; -451.789
647.233;   -3.648;   15.883;   11.211
647.505; -107.796; -595.117; -475.790
647.776;   47.956;  328.884;  229.210
648.048;  -13.542; -248.116; -418.790
648.320;  -81.116; -752.116; -679.791
648.591; -160.589;-1055.116; -958.791
648.862;  -85.962; -505.116; -577.792
649.134;   -1.785;  115.885;  198.208
649.405;  -49.058; -661.115; -618.792
649.677;  -56.057; -475.115; -598.793
649.948;   -6.155; -181.115; -296.793
650.219;   -0.078;  -37.115; -147.793
650.491;  -77.801; -431.114; -520.794
650.762; -117.449; -705.114; -731.794
651.033;  -65.972; -437.114; -424.795
651.304;  -84.146; -743.114; -728.795
651.576;  -79.769; -680.114; -645.795
651.847;  -35.242; -250.113; -140.796
652.118;  -34.690;  -32.113; -189.796
652.389; -112.713; -639.113; -722.796
652.660;  -33.512; -147.113;  -89.797
652.931; -153.210; -897.112; -871.797
653.202;  -87.558; -382.112; -541.798
653.473;  -67.956; -633.112; -533.798
653.744;  141.171; -595.112; -590.798
654.015;  146.548; -356.112; -303.799
654.286;  -64.601; -642.111; -663.799
654.557;  -66.499; -586.111; -521.799
654.828; -167.747;-1114.111;-1088.800
655.099;  -89.620; -404.111; -291.800
655.370;  -95.543; -427.111; -543.801
655.641; -129.042; -656.110; -714.801
655.911; -105.440; -618.110; -638.801
656.182;   40.137;  437.890;  387.198
656.453;   94.139;  830.890;  746.198
656.724;  -77.034; -466.110; -426.802
656.994;  -80.957; -553.109; -568.803
657.265; -119.531; -862.109; -873.803
657.536;  -86.329; -500.109; -377.804
657.806; -115.252; -561.109; -593.804
658.077; -134.150; -866.109; -950.804
658.347;  -96.523; -523.108; -598.805
658.618; -110.121; -646.108; -694.805
658.888;  -24.345;  -41.108;  112.195
659.159;  -71.943; -432.108; -548.806
659.429;  -27.166; -292.108; -349.806
659.700;   16.436; -435.107; -390.807
659.970;  -14.962; -370.107; -359.807
660.241;    2.414; -754.107; -921.807
660.511;  474.016; -147.107; -174.808
660.781;   87.168; -793.106; -748.808
661.052;  -53.030; -222.106; -381.808
661.322;  -26.978;   21.894;   -9.809
661.592;   13.999;  257.894;  148.191
661.862;  -68.450; -369.106; -382.810
662.133; -102.323; -551.105; -502.810
662.403; -113.896; -770.105; -676.810
662.673;  -64.744; -256.105; -213.811
662.943;  -99.417; -612.105; -551.811
663.213;  -19.216;  -85.105;  -81.811
663.483;  -76.514; -593.104; -568.812
663.753;  -57.237; -194.104; -152.812
664.023;   -9.985;   68.896;  -32.813
664.293;  -66.983; -319.104; -126.813
664.563; -105.881; -694.104; -648.813
664.833; -125.480; -743.103; -608.814
665.103; -129.578; -730.103; -793.814
665.373; -128.726; -766.103; -806.814
665.643;  -84.174; -863.103; -918.815
665.913;   41.853; -534.103; -714.815
666.182;  135.879; -685.102; -719.816
666.452;  254.006;  -22.102;  -89.816
666.722;  -30.217; -724.102; -784.816
666.992; -136.415; -948.102; -921.817
667.261;  -93.388; -824.102; -808.817
667.531;  189.014;  134.899;   45.183
667.801;  530.490; -440.101; -412.818
668.070;  220.742;  714.899;  697.182
668.340;  -93.881; -883.101; -840.819
668.609;   88.496;  588.900;  301.181
668.879;  -65.127; -490.100; -558.819
669.149;  -91.126; -539.100; -516.820
669.418; -112.949; -698.100; -726.820
669.688;  -42.822; -482.100; -666.820
669.957;   80.055; -423.099; -546.821
670.226;  -35.268; -268.099; -331.821
670.496;  -95.116; -431.099; -635.822
670.765;  -92.440; -418.099; -501.822
671.034; -136.363; -872.099; -828.822
671.304;  -20.836;   55.902; -111.823
671.573; -155.259;-1085.098; -957.823
671.842;   76.993; -380.098; -294.823
672.112;   42.345; -692.098; -586.824
672.381;   -1.254; -239.098; -214.824
672.650; -126.177;-1005.097;-1021.825
672.919; -105.825; -631.097; -507.825
673.188; -103.298; -681.097; -878.825
673.457; -163.546;-1101.097;-1143.826
673.726;  -83.945; -579.096; -646.826
673.995;  -51.243; -533.096; -479.826
674.265;  -19.191; -263.096; -333.827
674.534;   -1.814; -183.096; -235.827
674.802;    4.338; -618.096; -703.828
675.071;  980.690; -886.095; -801.828
675.340; 3826.416; -464.095; -339.828
675.609; 1286.993;  103.905;   82.171
675.878;   60.495; -949.095; -893.829
676.147;   32.622;  -26.095;   -8.829
676.416;   82.424; -210.094; -294.830
676.685;  722.000; 1000.906; -622.830
676.953;  116.577; -603.094; -452.831
677.222;  -36.421; -193.094; -273.831
677.491;  -35.194;  -24.094; -127.831
677.759;   -3.992;   11.907;  172.168
678.028;  -19.840; -279.093; -222.832
678.297;  -15.089;   71.907;  197.168
678.565; -141.437; -898.093; -944.833
678.834;  -66.710; -311.093; -268.833
679.102;  -70.508; -411.092; -391.834
679.371; -147.756; -898.092; -727.834
679.639; -119.930; -797.092; -786.834
679.908; -123.228; -794.092; -724.835
680.176; -153.901; -895.091; -941.835
680.445;  -64.349; -346.091; -352.835
680.713;   -2.872;  -58.091;  -23.836
680.982; -101.995; -523.091; -525.836
681.250; -102.119; -578.091; -507.837
681.518; -116.967; -534.090; -751.837
681.787;  -19.990; -204.090; -167.837
682.055;  -66.663; -490.090; -422.838
682.323; -151.111; -993.090; -992.838
682.591;   17.441; -216.090; -538.838
682.859;   81.667;    9.911;  -35.839
683.128;   -1.056;  232.911;  497.161
683.396; -168.529;-1102.089;-1122.840
683.664;  -44.977; -241.089;   21.160
683.932;    2.550;  144.911;  -76.840
684.200;  -87.299; -576.088; -320.841
684.468;  -39.072;  -73.088; -124.841
684.736;  -33.870; -214.088; -175.841
685.004; -121.043;-1024.088; -982.842
685.272;  -51.466; -880.088; -774.842
685.540;  -67.689; -499.087; -557.843
685.808;  -93.163; -651.087; -682.843
686.076;  -97.861; -894.087; -969.843
686.343;  -58.259; -601.087; -815.844
686.611;   37.593; -195.087; -224.844
686.879;  458.870; -530.086; -553.844
687.147; 3296.671; -483.086; -480.845
687.414;  924.173;  -12.086; -169.845
687.682;   -8.900; -658.086; -757.846
687.950;  318.177;  259.915;  263.154
688.217;    7.354; -792.085; -760.846
688.485;  -19.544; -632.085; -636.847
688.753;  532.582;  -11.085; -102.847
689.020;  164.484; -820.085; -851.847
689.288;  -96.514; -853.084; -787.848
689.555;  -45.012; -195.084; -148.848
689.823;  -41.785; -241.084; -345.849
690.090;  -97.534; -546.084; -651.849
690.358; -149.782; -877.084; -897.849
690.625;   -4.880;  120.917;   45.150
690.892;  -78.678; -403.083; -369.850
691.160;  -10.101;   72.917;  -35.850
691.427;   -0.349;  141.917;  130.149
691.694; -147.973; -855.083; -929.851
691.962; -141.621;-1177.082;-1060.852
692.229;    4.181;  127.918;   56.148
692.496;   83.183;  130.918;  -49.852
692.763;    8.485; -164.082; -201.853
693.031;  -68.239; -739.082; -716.853
693.298;  -40.162; -509.081; -368.853
693.565;  320.565; -155.081; -163.854
693.832; 1238.517;   -5.081;   -9.854
694.099;  137.119; -643.081; -642.855
694.366;  -43.879; -882.081; -896.855
694.633;  -57.703; -920.080; -633.855
694.900;  748.799; 4367.920; -114.856
695.167;  428.326; -214.080; -380.856
695.434;   87.428; -646.080; -623.856
695.701;  196.230;  121.921;  -61.857
695.968;  460.107; -365.079; -361.857
696.234; 1006.583; -415.079; -646.858
696.501;10339.035; -776.079; -614.858
696.768; 5245.412; -554.079; -617.858
697.035;  289.114; -632.078; -667.859
697.302;   33.641; -448.078; -552.859
697.568;   22.742; -458.078; -497.859
697.835;  -35.006; -683.078; -624.860
698.102;  -26.179; -498.078; -407.860
698.368;   73.823;  384.923;  396.139
698.635;  -40.400;  -47.077; -424.861
698.901;  -16.448; -240.077; -348.861
699.168;   64.803; -534.077; -456.862
699.435;   78.005;  -72.077;  -13.862
699.701; -119.243; -868.076; -764.862
699.968;   17.709;  144.924; -441.863
700.234; -117.789; -783.076; -822.863
700.500;  -62.888; -448.076; -539.864
700.767;  -19.611;   -1.075;   26.136
701.033; -124.509;-1015.075; -963.864
701.299;  -63.407; -450.075; -483.865
701.566;  123.220;  950.925;  763.135
701.832;   15.097;  -31.075;  -76.865
702.098; -100.152;-1054.074;-1034.866
702.365;  -98.225;-1098.074;-1030.866
702.631;  -39.648;-1038.074;-1063.867
702.897; 1375.654; -765.074; -676.867
703.163; 2218.856;  348.926;  254.133
703.429;  149.107; -256.073; -273.868
703.695;  -27.916; -796.073; -792.868
703.961;   28.111; -214.073; -210.868
704.227;  -58.662; -630.073; -725.869
704.493;  115.540;  613.927;  510.131
704.759;  -20.958; -565.072; -540.870
705.025;   19.118; -203.072; -194.870
705.291;  -25.530; -666.072; -562.870
705.557;  190.947;  719.928;   34.129
705.823;   23.624; -742.072; -694.871
706.089;  133.651; -307.071; -326.871
706.355;  370.728; -315.071; -244.872
706.620; 5569.229; -776.071; -729.872
706.886; 7778.006; -309.071; -362.873
707.152;  707.583; -818.070; -973.873
707.418;  -19.840;-1153.070;-1186.873
707.683;   -1.338; -550.070; -530.874
707.949;  -30.062; -547.070; -578.874
708.215;  -16.585; -129.070; -207.874
708.480;  -29.108; -520.069; -420.875
708.746;   73.419;   68.931;   28.125
709.011;  -62.829; -578.069; -612.876
709.277;  -91.377; -538.069; -543.876
709.542;  -39.326; -428.069; -387.876
709.808;  -19.924;  -59.068;   89.123
710.073;  -77.672; -577.068; -695.877
710.339;  -44.570; -242.068; -228.877
710.604;   66.732; -780.068; -845.878
710.869;  327.308; -277.068; -366.878
711.135;  -68.415; -715.067; -628.879
711.400;  -81.463; -507.067; -608.879
711.665;  -64.186; -404.067; -479.879
711.931;  -98.734; -661.067; -677.880
712.196; -124.807; -876.067; -954.880
712.461;  108.144; -402.066; -490.880
712.726;  137.671; -727.066; -771.881
712.991;  -92.602; -647.066; -664.881
713.256;  -36.250; -350.066; -332.882
713.521;  -65.448; -417.065; -381.882
713.787;  -64.872; -454.065; -472.882
714.052;  -33.045; -214.065; -400.883
714.317;  -99.293;-1045.065; -981.883
714.581; 1021.634; -374.065; -268.883
714.846; 1397.686; -822.064; -888.884
715.111;  119.138;  261.936;  257.116
715.376;  -14.511;  -86.064; -223.885
715.641;  -26.834; -365.064; -367.885
715.906;  299.243;   15.936; -551.885
716.171;  143.320;  221.937;  209.114
716.436;   40.497;  -78.063; -104.886
716.700; -109.402; -818.063; -692.886
716.965; -113.600; -794.063; -807.887
717.230;  -78.873; -339.063; -392.887
717.494;  -18.796;  -40.062; -134.888
717.759; -107.744; -784.062; -640.888
718.024;   14.508;  269.938;  250.112
718.288;   61.709;  685.938;  395.111
718.553; -152.239; -803.062; -977.889
718.817; -144.062; -883.061; -899.889
719.082;  -24.135; -115.061; -125.890
719.346; -137.133;-1000.061; -947.890
719.611;  -37.856; -300.061; -255.891
719.875; -103.055; -568.060; -537.891
720.140;  -72.378; -453.060; -603.891
720.404;   29.399; -136.060; -249.892
720.668;  827.051; -475.060; -411.892
720.933;  318.928;  146.940;  137.108
721.197; -101.571; -667.059; -600.893
721.461; -140.769; -851.059; -826.893
721.725;  -14.067;  -21.059; -250.894
721.990;  -71.365; -284.059; -204.894
722.254;  -10.138;  -26.059; -108.894
722.518;  -78.636; -286.058; -442.895
722.782;  -79.785; -743.058; -594.895
723.046;  126.692;  614.942;  570.105
723.310;   14.394;  374.942;  210.104
723.574;  -99.129; -654.058; -614.896
723.838;  -99.827; -576.057; -642.897
724.102;  -58.626; -226.057; -239.897
724.366; -136.399;-1032.057; -978.897
724.630; -111.347; -749.057; -571.898
724.894;  -78.395; -722.057; -514.898
725.158;  -14.418;   38.944; -295.898
725.422;  -53.941; -394.056; -327.899
725.685;  -62.840; -441.056; -349.899
725.949;  -71.388; -566.056; -519.900
726.213;  -83.061; -732.056; -811.900
726.477;  168.466;-1020.055; -933.900
726.740;  141.643; -274.055; -104.901
727.004;  337.044; -384.055; -510.901
727.268; 3286.221; -442.055; -400.901
727.531;  916.773; -961.055; -775.902
727.795;  -56.900; -713.054; -673.902
728.059;  -59.148; -552.054; -557.903
728.322;  -86.971; -841.054; -669.903
728.586;   17.955; -692.054; -701.903
728.849;  -98.668; -695.053; -756.904
729.112;  -97.791; -812.053; -912.904
729.376; -134.639; -959.053; -905.904
729.639;  -71.137; -536.053; -536.905
729.903; -101.561; -733.053; -699.905
730.166;  -35.284; -437.052; -399.906
730.429;  -27.757; -317.052; -468.906
730.693;  -76.880; -355.052; -894.906
730.956;  194.097;  810.948;  651.093
731.219;  707.099; -310.052; -103.907
731.482;  105.675;-1003.051; -894.907
731.745;  103.977; -794.051; -935.908
732.009;   13.754;  -30.051;   50.092
732.272;  -86.894; -904.051; -771.909
732.535;  -44.442; -300.051; -310.909
732.798; -154.240;-1083.050;-1166.909
733.061;  -67.514; -430.050; -456.910
733.324;   11.138;   31.950; -180.910
733.587;   53.340;  290.950;  365.090
733.850;  -68.408; -973.049;-1050.911
734.113;   15.444;   33.951;   32.089
734.376;    2.320; -328.049; -447.912
734.639;  217.322; 1188.951; 1011.088
734.901;   58.999; -180.049; -402.912
735.164;  486.501; -883.048; -837.913
735.427; 1268.703; -166.048; -355.913
735.690;  128.030; -205.048; -234.913
735.952;  -27.919; -923.048; -925.914
736.215;  -50.167;-1113.048;-1009.914
736.478;   38.160; -771.047; -774.915
736.740;  204.037;   33.953;  129.085
737.003;  688.639; -658.047; -672.915
737.266; 3997.365;  -94.047;   46.084
737.528;  433.717; -682.047; -660.916
737.791;  321.419; -316.046; -327.916
738.053;  826.771;  465.954;  649.083
738.316;10954.048; -162.046; -136.917
738.578; 7524.900; -770.046; -736.918
738.841;  422.601; -382.046; -446.918
739.103;  179.228; -875.045; -777.918
739.365;  499.355;   79.955;  -69.919
739.628;    1.007; -884.045; -805.919
739.890;  -39.116; -758.045; -710.919
740.152;  -29.015; -692.044; -754.920
740.414;  -19.388; -408.044; -359.920
740.677;  -54.986; -785.044; -634.921
740.939;  -63.884; -587.044; -487.921
741.201;  266.193; -432.044; -572.921
741.463;   23.620; -689.043; -745.922
741.725;   12.446;  -21.043; -199.922
741.987;   37.323;  220.957;  116.078
742.249;   10.400; -751.043; -859.923
742.511;  205.052; -703.043; -794.923
742.773;    7.579; -546.042; -546.924
743.035;  117.156;  796.958;  533.076
743.297;  -34.993; -963.042;-1013.924
743.559;  728.384; -278.042; -262.925
743.821;   64.536; -735.042; -744.925
744.083;   -1.112;  -44.041; -149.925
744.345;  -88.135; -869.041; -892.926
744.607;   35.441;   75.959;  122.074
744.868;  -60.782; -490.041; -554.927
745.130; -116.330; -994.041;-1008.927
745.392;   30.197;   -1.040;  -44.927
745.653;  -32.476; -411.040; -378.928
745.915;  128.176;  896.960;  631.072
746.177;   41.327;   35.960;  -43.928
746.438;   -9.771; -428.040; -543.929
746.700;  -49.094; -947.039; -988.929
746.961;   13.183; -659.039; -740.930
747.223;  136.585; -190.039;  -74.930
747.484;   83.736; -391.039; -471.930
747.746;  137.813;  -23.038; -106.931
748.007;  112.590; -647.038; -689.931
748.269;  297.842; -468.038; -440.931
748.530;  479.869; -852.038; -638.932
748.791;  237.846; -354.038; -420.932
749.053;  434.022;  286.963;  163.067
749.314;  453.199; -236.037; -169.933
749.575;  512.951; -945.037; -905.933
749.836;  856.578; -217.037;   86.066
750.098; 2495.655;  -60.037;  -21.934
750.359;36697.556;  414.964;  555.066
750.620; 9152.658; -121.036; -220.935
750.881; 1018.960; -585.036; -513.935
751.142; 1356.687; -950.036; -938.936
751.403;16851.164; -789.036; -705.936
751.664; 7284.241;-1034.035; -999.936
751.925;  485.242; -175.035; -262.937
752.186;  269.544; -298.035; -278.937
752.447;  134.246; -590.035; -445.937
752.708;   55.498; -532.035; -648.938
752.969;   -9.075; -566.034; -576.938
753.230;  -12.074; -777.034; -672.939
753.491;  -15.047; -650.034; -631.939
753.751;   77.105;  109.966;   19.061
754.012;   82.632;  258.967;  181.060
754.273;   62.909; -174.033;  -71.940
754.534;   -8.064; -487.033; -580.940
754.794;  -83.213; -926.033; -911.941
755.055;  138.364; 1051.967;  881.059
755.316;  -47.884; -700.032; -566.942
755.576;  -27.007; -606.032; -576.942
755.837;  -42.180; -527.032; -695.942
756.097;  -48.703; -530.032; -564.943
756.358;  -72.652; -725.032; -770.943
756.618;  -50.400; -705.031; -641.943
756.879;   10.002; -254.031; -349.944
757.139; -131.246;-1098.031;-1116.944
757.400;  -54.744; -538.031; -553.945
757.660;  -25.343; -365.031; -401.945
757.920;   13.359; -266.030; -228.945
758.181;  -26.139; -468.030; -351.946
758.441;  -90.162; -870.030; -809.946
758.701;  -33.310; -308.030; -215.946
758.961;  -26.533; -220.030; -278.947
759.222;  -58.232; -574.029; -502.947
759.482;  -72.980; -683.029; -723.948
759.742;  -96.178; -706.029; -547.948
760.002;   11.399;  -83.029; -143.948
760.262;   18.251;   50.972;  182.051
760.522;  -46.148; -498.028; -574.949
760.782;  -57.621; -738.028; -612.949
761.042;  -15.319; -618.028; -573.950
761.302;   31.683;   55.972;  -18.950
761.562;   66.160; -164.027; -154.951
761.822;   69.312; -710.027; -551.951
762.082;  -33.837;-1104.027;-1093.951
762.342;   60.465; -328.027; -403.952
762.601;   82.367; -567.027; -506.952
762.861;  369.994; -281.026; -207.952
763.121;  413.121; -406.026; -411.953
763.381; 7486.197; -499.026; -485.953
763.640; 8116.024; -139.026; -307.954
763.900;  351.551; -242.026; -203.954
764.160;   77.953; -458.025; -491.954
764.419;  -19.920; -726.025; -782.955
764.679;  -65.068; -795.025; -726.955
764.939;  -12.767; -124.025; -210.955
765.198;  -76.490; -608.025; -563.956
765.458;  -95.488; -710.024; -612.956
765.717;  -77.286; -454.024; -590.957
765.976;  -60.359; -428.024; -411.957
766.236;  -82.382; -475.024; -610.957
766.495;    1.844;  260.977;   73.042
766.755; -102.479;-1090.023; -987.958
767.014;  -13.452; -594.023; -665.958
767.273;  -50.025; -373.023; -397.959
767.533;  -52.048; -228.023; -307.959
767.792;  -28.222; -151.022; -188.960
768.051;  -63.520; -228.022; -276.960
768.310;  -79.393; -546.022; -650.960
768.569;   -6.891; -161.022;    4.039
768.828;  -28.089; -285.022; -363.961
769.088; -122.087;-1050.021; -942.961
769.347;  -82.961; -755.021; -599.962
769.606; -114.184; -876.021; -857.962
769.865; -108.382;-1016.021;-1033.963
770.124;  -11.755; -411.021; -336.963
770.383;  -60.703; -778.020; -910.963
770.641;  -15.577; -398.020; -400.964
770.900;  -67.200; -953.020; -846.964
771.159;  -63.523; -851.020; -951.964
771.418;  -16.746; -917.020; -779.965
771.677;  113.481; -224.019; -293.965
771.936;  140.383; -794.019; -865.966
772.194; 2221.384; -465.019; -437.966
772.453;11056.811; -213.019; -391.966
772.712;  757.888;  416.982;  329.033
772.970;  122.315;   32.982;   63.033
773.229;   85.542;  -22.018;  102.033
773.488;  -86.382; -814.018; -770.968
773.746;   57.620;  296.982;  335.032
774.005;   -1.303;  190.983;  -22.969
774.263;   20.149;  243.983;  177.031
774.522;  -43.074; -422.017; -548.969
774.780;  -93.122; -484.017; -417.970
775.039;  -83.621; -551.017; -531.970
775.297;  -31.519; -135.016; -351.970
775.555;  -94.742; -489.016; -612.971
775.814; -129.315; -618.016; -570.971
776.072; -129.963; -749.016; -740.971
776.330;  -90.312; -630.016; -520.972
776.589; -123.785; -703.015; -721.972
776.847; -126.283; -645.015; -624.973
777.105; -170.056;-1016.015;-1032.973
777.363;  -89.279; -459.015; -454.973
777.621; -144.027; -660.015; -717.974
777.879;  -21.126;  -42.014;   32.026
778.138;  -98.649; -554.014; -717.974
778.396; -112.797; -585.014; -526.975
778.654; -159.695;-1015.014; -970.975
778.912;  -68.668; -269.014; -371.976
779.170; -134.491; -880.013; -803.976
779.427; -150.990; -922.013; -897.976
779.685; -126.963; -880.013; -832.977
779.943;  -96.411; -654.013; -593.977
780.201; -155.709; -964.012; -883.978
780.459; -132.757; -651.012; -610.978
780.717;  -84.031; -440.012; -390.978
780.974; -109.179; -449.012; -490.979
781.232;  -69.677; -358.012; -338.979
781.490;  -76.625; -551.011; -472.979
781.747; -100.898; -555.011; -476.980
782.005;    3.154;  462.989;  254.020
782.263; -168.020; -542.011;-1004.981
782.520;  -95.193; -326.011; -501.981
782.778; -171.941;-1013.010;-1051.981
783.035; -170.814; -962.010; -938.982
783.293;  -59.437; -248.010; -206.982
783.550;  -72.186; -134.010; -198.982
783.808; -134.059; -764.010; -776.983
784.065; -163.782; -745.009; -874.983
784.322;  -51.755;   25.991;  -86.984
784.580; -148.228; -915.009; -771.984
784.837;  -92.076; -392.009; -466.984
785.094; -136.900; -783.009; -762.985
785.352;  -68.323; -304.008; -404.985
785.609; -123.321; -934.008; -839.985
785.866;  -85.794; -345.008; -401.986
786.123;  -81.992; -639.008; -583.986
786.380;  -99.191; -665.008; -604.987
786.637;  -52.264; -225.007; -380.987
786.895;  -23.337; -456.007; -543.987
787.152;  -42.335; -135.007; -267.988
787.409;  -45.933; -123.007; -225.988
787.666;  -91.906; -299.006; -378.988
787.923; -111.155; -616.006; -695.989
788.179; -102.878; -551.006; -584.989
788.436; -109.251; -585.006; -585.990
788.693;  -41.524;  -92.006;  -87.990
788.950;  148.353; -125.005; -112.990
789.207;  199.079; -381.005; -372.991
789.464;  -48.544; -161.005; -301.991
789.720;  -15.517;  150.995;  110.009
789.977; -166.715;-1003.005; -671.992
790.234;  -45.838;   44.996;  -66.992
790.490; -137.786; -884.004;-1031.993
790.747;  -38.210;  -85.004;   22.007
791.004;  -27.533; -426.004; -348.993
791.260;  -92.606; -430.004; -560.994
791.517;  -99.329; -843.003; -788.994
791.773;  -62.527; -379.003; -342.994
792.030; -110.250; -596.003; -660.995
792.286; -113.174; -686.003; -636.995
792.543;  -20.822;  -74.002; -159.995
792.799;  -59.895; -584.002; -382.996
793.055; -157.493;-1179.002;-1210.996
793.312; -103.016; -827.002; -816.997
793.568;  -52.840; -746.002; -599.997
793.824;  -14.138; -226.001; -284.997
794.081;   10.989; -447.001; -508.998
794.337;   57.091; -664.001; -561.998
794.593; 1366.668; -319.001; -271.999
794.849; 6553.245; -746.001; -772.999
795.105;  319.921; -270.000; -261.999
795.361;    2.048; -490.000; -457.000
795.617;  -50.650; -875.000; -945.000
795.873;  -46.525; -360.000; -407.000
796.129;  -39.575; -368.000; -306.000
796.385;  -20.625; -124.000; -156.000
796.641;   62.450;  412.000;  550.000
796.897;  -94.550; -666.000; -635.000
797.153;   50.125;  453.000;  357.000
797.409; -124.125; -785.000; -868.000
797.665;  -69.000; -625.000; -732.000
797.921;  -98.075; -775.000; -762.000
798.176;  -56.200; -744.000; -747.000
798.432;  -52.625; -824.000; -596.000
798.688;  -81.325;-1174.000;-1078.000
798.943;   66.875; -165.000; -147.000
799.199;  -12.100;-1005.000; -959.000
799.455;  216.375;  369.000;  316.000
799.710;  132.150; -813.000; -380.000
799.966;  276.400; -162.000; -160.000
800.221;  490.200; -638.000; -721.000
800.477;10547.125; -743.000; -710.000
800.732; 9177.875; -773.000; -800.000
800.988;  623.000;  205.000;  -19.000
801.243; 1842.450; -454.000; -344.000
801.498; 7802.075; -814.000; -739.000
801.754;  443.025; -289.000; -163.000
802.009;   64.050; -257.000; -335.000
802.264;  -50.325; -967.000;-1033.000
802.520;    9.000;  222.000;   -3.000
802.775;  -52.450; -524.000; -359.000
803.030;   44.550;  395.000;  356.000
803.285; -112.150; -840.000; -903.000
803.540;  -72.875; -686.000; -699.000
803.795;  -42.125; -648.000; -583.000
804.051;  -50.900; -279.000; -346.000
804.306;   20.950;  168.000;  128.000
804.561;  140.800;  451.000;  362.000
804.816;  129.675;  714.000;  861.000
805.071;   -6.275; -185.000; -280.000
805.325;  223.225; -257.000; -427.000
805.580; -116.275; -841.000; -877.000
805.835;  -21.725; -204.000; -297.000
806.090;  -82.600; -760.000; -676.000
806.345;  -22.925; -344.000; -264.000
806.600;  -23.375; -549.000; -632.000
806.854;  -24.075; -408.000; -538.000
807.109;  -21.975; -493.000; -577.000
807.364;    4.225; -407.000; -328.000
807.618;   -8.025; -415.000; -381.000
807.873;   54.500; -470.000; -494.000
808.128;   89.600; -257.000; -518.000
808.382;  105.950; -224.000; -332.000
808.637;   70.200; -440.000; -511.000
808.891;  182.400; -257.000; -180.000
809.146;   91.850; -902.000; -794.000
809.400;  271.425; -848.000; -923.000
809.654;  326.725; -779.000; -551.000
809.909;  486.375; -841.000; -927.000
810.163; 6630.900; -813.000; -651.000
810.418;16960.425; -940.000; -861.000
810.672; 1019.700; -685.000; -690.000
810.926;  714.775; -993.000; -973.000
811.180; 1406.475; -439.000; -372.000
811.434;32059.800;  240.000;  135.000
811.689;12601.250; -231.000; -365.000
811.943;  629.050; -936.000; -953.000
812.197;  304.225; -893.000; -671.000
812.451;  128.375; -379.000; -514.000
812.705;  -40.075; -809.000; -619.000
812.959;  -13.350; -263.000; -388.000
813.213;   -7.475; -283.000; -209.000
813.467;   71.225;  470.000;  253.000
813.721; -110.450; -764.000; -792.000
813.975; -113.225; -826.000; -877.000
814.229;   43.675;  430.000;  353.000
814.482;  -81.300; -517.000; -566.000
814.736; -132.325; -766.000; -744.000
814.990; -131.725; -779.000; -872.000
815.244;  -51.200; -228.000; -285.000
815.497;  -90.375; -636.000; -601.000
815.751;  -31.350; -141.000;   82.000
816.005;  -93.350; -470.000; -586.000
816.258;  -65.800; -510.000; -363.000
816.512;  -97.075; -693.000; -610.000
816.766;   -1.575;  121.000;  157.000
817.019;   18.950;  148.000;  149.000
817.273; -127.150;-1000.000; -802.000
817.526;  -23.875; -206.000; -173.000
817.779;  -59.300;-1049.000; -960.000
818.033;  -71.075; -693.000; -807.000
818.286; -127.400; -725.000; -792.000
818.540;  -88.875; -403.000; -403.000
818.793;  -95.725; -402.000; -489.000
819.046;  -98.850; -582.000; -520.000
819.299;  -38.425; -157.000; -166.000
819.553; -106.900; -552.000; -592.000
819.806; -162.725;-1016.000; -838.000
820.059;  -66.700; -334.000; -354.000
820.312;   11.975;  152.000;  185.000
820.565;  -35.550;  110.000;  -27.000
820.818;  -52.675;  -59.000; -173.000
821.071; -167.450;-1041.000; -957.000
821.324; -116.350; -536.000; -540.000
821.577;  -94.200; -457.000; -483.000
821.830;  -73.950; -270.000; -172.000
822.083; -123.475; -733.000; -288.000
822.336;  -61.700; -261.000; -167.000
822.589; -148.800; -805.000; -688.000
822.842; -166.050; -875.000; -770.000
823.094; -183.100;-1076.000;-1114.000
823.347; -147.125; -925.000; -729.000
823.600;   10.275;  402.000;  187.000
823.853;  -55.600; -311.000; -267.000
824.105;  -81.925; -331.000; -575.000
824.358; -129.275; -617.000; -716.000
824.611;    8.300;  234.000;   40.000
824.863;  -51.075; -612.000; -591.000
825.116;   45.975;  -33.000;   27.000
825.368;   77.650; -366.000; -372.000
825.621;  156.075; -186.000; -240.000
825.873;   70.050; -704.000; -737.000
826.126;  580.325; -669.000; -641.000
826.378;11614.550; -389.000; -505.000
826.630; 2772.325; -890.000; -898.000
826.883;   51.925; -754.000; -693.000
827.135;   47.575; -279.000; -270.000
827.387; -130.825; -893.000; -839.000
827.639;  -50.575;  -86.000;   32.000
827.892; -123.325; -742.000; -582.000
828.144; -145.750; -848.000; -804.000
828.396;  -42.300;  104.000;  -80.000
828.648;  -90.150; -440.000; -333.000
828.900; -153.300; -702.000; -795.000
829.152; -115.975; -684.000; -683.000
829.404;  -74.725; -215.000; -267.000
829.656;  -50.550;  321.000;  214.000
829.908;  -21.725;  393.000;  229.000
830.160; -164.500;-1064.000;-1047.000
830.412; -111.025; -481.000; -430.000
830.664; -123.450; -557.000; -665.000
830.916;  -75.775; -268.000; -206.000
831.167; -181.450;-1073.000; -951.000
831.419; -123.800; -623.000; -566.000
831.671; -141.775; -764.000; -809.000
831.923; -105.950; -311.000; -447.000
832.174;  -62.875; -273.000; -331.000
832.426; -129.725; -493.000; -582.000
832.678; -167.075;-1043.000;-1091.000
832.929; -174.275; -947.000; -935.000
833.181;  -56.000; -575.000; -677.000
833.432;  -58.475;  -59.000; -186.000
833.684;  -30.575;  112.000;  -27.000
833.935; -120.150; -610.000; -566.000
834.187; -125.175; -829.000; -823.000
834.438;  -61.575;  -58.000;  -25.000
834.689;  -69.775; -255.000; -123.000
834.941;  -72.700; -343.000; -244.000
835.192;  -90.000; -590.000; -533.000
835.443; -102.575; -419.000; -506.000
835.695;  -19.425;  138.000;  -16.000
835.946;  -99.450; -608.000; -378.000
836.197; -102.175; -599.000; -622.000
836.448;  -91.750; -528.000; -395.000
836.699;  -64.825; -253.000; -341.000
836.950;   -9.975;   72.000;    7.000
837.201; -148.550;-1003.000; -987.000
837.452;  -62.525; -356.000; -170.000
837.703; -102.875; -791.000; -737.000
837.954;  -41.675; -205.000; -365.000
838.205;  -98.325;-1029.000;-1008.000
838.456;  151.325; -196.000; -282.000
838.707;    9.825; -423.000; -519.000
838.958;  -13.325; -634.000; -647.000
839.209;  282.250;   18.000;   40.000
839.460;  107.725; -439.000; -201.000
839.710;  162.250; -135.000; -297.000
839.961;  403.075;  730.000;  612.000
840.212;  327.575; -382.000; -497.000
840.462; 1137.200; -328.000; -277.000
840.713;18080.125; -571.000; -536.000
840.964; 7105.275;  -62.000; -143.000
841.214;  515.575; -384.000; -624.000
841.465;  542.575; -214.000; -141.000
841.715;  501.650; -417.000; -380.000
841.966;  657.500; -746.000; -685.000
842.216; 9126.175; -330.000; -431.000
842.466;34304.825; -169.000; -313.000
842.717; 1871.900; -964.000; -952.000
842.967;  320.225; -635.000; -641.000
843.217;  262.350;   20.000;   28.000
843.468;   52.450; -104.000; -132.000
843.718;  -48.750; -718.000; -726.000
843.968; -105.725; -837.000; -765.000
844.218;   25.850; -315.000; -262.000
844.469;  -60.725; -577.000; -561.000
844.719;  -95.625; -537.000; -682.000
844.969; -112.175; -550.000; -580.000
845.219; -150.625; -814.000; -862.000
845.469;  -89.700; -392.000; -342.000
845.719; -146.350; -792.000; -884.000
845.969;  -14.775;  119.000;  174.000
846.219; -119.950; -738.000; -720.000
846.469;   -1.925;  464.000;  432.000
846.718;  -47.675; -115.000;   31.000
846.968; -151.625; -827.000; -827.000
847.218;  -41.325; -224.000; -371.000
847.468;  -13.850; -586.000; -555.000
847.718; -140.000; -827.000; -798.000
847.967; -131.200; -826.000; -915.000
848.217;  -91.300; -449.000; -569.000
848.467;  -62.575; -405.000; -376.000
848.716; -111.025; -708.000; -725.000
848.966;   -6.825; -372.000; -358.000
849.215;  -69.525; -428.000; -419.000
849.465; -105.450; -785.000; -615.000
849.714; -132.000;-1132.000;-1150.000
849.964;  -61.450; -551.000; -613.000
850.213;   -9.700; -393.000; -355.000
850.463;   59.600;  137.000;  340.000
850.712;    1.050; -542.000; -567.000
850.961;   23.300; -739.000; -678.000
851.211;   86.425; -513.000; -504.000
851.460;  154.875; -635.000; -650.000
851.709;  573.900;  -25.000;   18.000
851.958;10380.800; -912.000; -750.000
852.208;12618.100; -859.000; -879.000
852.457;  464.900; -181.000;  -13.000
852.706;   70.100; -791.000; -823.000
852.955;    5.050; -507.000; -528.000
853.204;  -62.225; -521.000; -461.000
853.453;  -82.750; -418.000; -458.000
853.702; -127.100; -660.000; -750.000
853.951; -114.050; -532.000; -520.000
854.200; -112.275; -613.000; -562.000
854.449; -122.550; -695.000; -661.000
854.698;  -93.650; -340.000; -279.000
854.946;  -62.200; -181.000; -284.000
855.195; -154.825; -843.000; -868.000
855.444; -109.800; -395.000; -420.000
855.693; -112.000; -345.000; -432.000
855.941; -112.625; -387.000; -516.000
856.190;  -73.600; -256.000; -382.000
856.439; -130.425; -652.000; -703.000
856.687;  -45.025;  -99.000;  -72.000
856.936; -122.400; -621.000; -323.000
857.184; -191.350;-1067.000;-1020.000
857.433; -104.250; -423.000; -512.000
857.681; -175.775; -989.000; -953.000
857.930;  -99.225; -282.000; -433.000
858.178; -161.700; -856.000; -929.000
858.427; -149.275; -802.000; -781.000
858.675; -117.825; -377.000; -544.000
858.923; -113.575; -527.000; -819.000
859.172; -182.950;-1094.000;-1070.000
859.420; -109.300; -339.000; -239.000
859.668; -140.975; -624.000; -628.000
859.916;  -33.775;  109.000;  115.000
860.164; -121.500; -699.000; -603.000
860.413;  251.500; -878.000; -696.000
860.661;  208.325; -709.000; -577.000
860.909;  -98.725; -339.000; -325.000
861.157;  -77.250; -277.000; -444.000
861.405; -142.775; -534.000; -670.000
861.653;   -1.300;  310.000;  310.000
861.901;  170.550; -543.000; -613.000
862.149;   -2.850; -801.000; -824.000
862.396;  -87.075; -297.000; -187.000
862.644;  -91.125; -368.000; -347.000
862.892;  -46.650;   98.000;  138.000
863.140; -115.575; -549.000; -530.000
863.388; -166.250; -815.000; -759.000
863.635; -144.950; -642.000; -601.000
863.883;  -22.875;  231.000;  190.000
864.131;  -91.800; -288.000; -357.000
864.378; -144.600; -675.000; -540.000
864.626; -103.375; -347.000; -415.000
864.873; -125.450; -556.000; -505.000
865.121; -149.750; -714.000; -799.000
865.368;  -71.650; -173.000;   75.000
865.616;  -44.950;  -33.000;  -40.000
865.863;  -89.900; -462.000; -506.000
866.111; -118.200; -795.000; -824.000
866.358;   11.500; -426.000; -420.000
866.605; 2292.650;  -64.000; -804.000
866.853; 2312.475; -621.000; -537.000
867.100;  -37.975; -728.000; -775.000
867.347; -113.175; -672.000; -611.000
867.594;  -94.925; -740.000; -714.000
867.841;   63.100;   97.000;   17.000
868.089; -157.025; -746.000; -698.000
868.336; -113.475; -477.000; -420.000
868.583; -132.500; -637.000; -741.000
868.830;  -58.350; -131.000; -170.000
869.077; -164.000; -859.000; -787.000
869.324; -134.525; -502.000; -458.000
869.571; -133.150; -398.000; -430.000
869.818; -136.675; -485.000; -439.000
870.065; -101.050; -439.000; -513.000
870.311; -117.425; -456.000; -542.000
870.558; -105.700; -332.000; -311.000
870.805;  -92.850; -320.000; -384.000
871.052; -111.500; -494.000; -369.000
871.298;  -67.775; -204.000; -131.000
871.545;  -67.200; -151.000; -185.000
871.792; -108.875; -173.000; -222.000
872.038;  -81.250;   43.000; -126.000
872.285; -127.950; -496.000; -387.000
872.532; -107.175; -357.000; -387.000
872.778;   11.100;  556.000;  403.000
873.025; -106.500; -384.000; -359.000
873.271;   22.550;  501.000;  578.000
873.517;  -31.350; -133.000; -209.000
873.764;  -35.725; -193.000;  -80.000
874.010;  -73.800; -143.000; -230.000
874.257;  -68.500;  123.000;   90.000
874.503; -127.475; -579.000; -479.000
874.749;  -83.000;   31.000;  275.000
874.995;  -63.800;  -80.000;  -20.000
875.242; -138.750; -540.000; -478.000
875.488; -114.175; -414.000; -439.000
875.734;  -60.350; -106.000; -234.000
875.980;  183.225; -872.000;-1032.000
876.226;  341.675; -157.000; -255.000
876.472;   -3.225;  343.000;  237.000
876.718;  -55.450;  184.000;  158.000
876.964;  -35.250;   56.000;   55.000
877.210; -149.650; -547.000; -677.000
877.456; -125.025; -630.000; -557.000
877.702; -181.325; -821.000; -832.000
877.948; -113.000; -377.000; -497.000
878.193;  -17.325;  361.000;  255.000
878.439;  -96.800; -487.000; -472.000
878.685; -109.700; -272.000; -343.000
878.931; -139.850; -618.000; -676.000
879.176;  -91.500; -201.000; -201.000
879.422; -175.500; -933.000; -820.000
879.668;   51.775;   10.000;   79.000
879.913;  140.450;   53.000;  137.000
880.159;  -69.125; -112.000;  -17.000
880.404;  -61.150; -152.000; -162.000
880.650;  -54.250;   91.000;  141.000
880.895; -173.425; -670.000; -710.000
881.141; -125.125; -454.000; -428.000
881.386; -160.175; -503.000; -658.000
881.631;  -91.975; -311.000; -166.000
881.877;  -31.025;  112.000;  -13.000
882.122; -149.050; -684.000; -600.000
882.367;  -95.325; -136.000; -186.000
882.612;  -77.450;  -80.000; -176.000
882.858; -174.375; -877.000; -823.000
883.103; -102.000; -297.000; -267.000
883.348; -155.300; -759.000; -852.000
883.593; -156.775; -677.000; -602.000
883.838;  -49.175; -311.000;  -24.000
884.083;    5.825;  353.000;  288.000
884.328;  -93.525; -564.000; -545.000
884.573;  -57.125; -196.000; -143.000
884.818;  182.050; -694.000; -531.000
885.063;  169.850; -348.000; -315.000
885.308;  -96.750; -475.000; -398.000
885.553;  -25.900;  245.000;  325.000
885.797; -139.175; -545.000; -615.000
886.042;  -63.875;    8.000;   58.000
886.287;  -98.250; -253.000; -211.000
886.532;  -67.900;   26.000;  204.000
886.776; -101.825; -407.000; -525.000
887.021; -157.675; -621.000; -574.000
887.265; -162.150; -685.000; -689.000
887.510; -152.900; -557.000; -496.000
887.755;  -82.900; -194.000; -164.000
887.999; -155.700; -552.000; -575.000
888.244;  -60.075;  -58.000;  161.000
888.488;  -22.600;  371.000;  393.000
888.732; -135.350; -368.000; -520.000
888.977; -147.975; -622.000; -567.000
889.221; -147.275; -683.000; -659.000
889.465; -117.750; -422.000; -566.000
889.710;  -77.400;  -56.000; -299.000
889.954;  -12.625;  579.000;  467.000
890.198; -156.775; -584.000; -707.000
890.442; -174.600; -716.000; -712.000
890.687; -158.175; -800.000; -753.000
890.931;  -91.175; -273.000; -210.000
891.175; -131.825; -502.000; -500.000
891.419;  -94.150; -105.000; -110.000
891.663;  -81.500; -239.000; -112.000
891.907; -179.250; -801.000; -545.000
892.151; -179.650; -920.000; -815.000
892.395; -130.400; -274.000; -387.000
892.638;  -28.500;  408.000;  291.000
892.882; -202.800; -780.000; -867.000
893.126;   25.325;  758.000;  558.000
893.370; -110.775; -167.000; -168.000
893.614; -156.375; -714.000; -715.000
893.857; -102.675; -183.000; -197.000
894.101; -152.700; -527.000; -631.000
894.345;  -75.425;  300.000;  150.000
894.588;    2.575;  569.000;  380.000
894.832;  -96.825; -178.000;  -84.000
895.075;  -91.075;   15.000;  -92.000
895.319; -146.575; -552.000; -420.000
895.563; -124.375; -413.000; -353.000
895.806; -166.875; -628.000; -741.000
896.049;  -60.100; -576.000; -368.000
896.293;   98.225;  527.000;  405.000
896.536;  -84.475; -465.000; -468.000
896.779;  -66.650; -149.000;   -1.000
897.023; -142.525; -751.000; -714.000
897.266;  -34.450;  325.000;  269.000
897.509; -175.500; -900.000; -901.000
897.752;  -64.075;  149.000;  171.000
897.996; -193.050; -972.000; -864.000
898.239;  -56.125;  168.000;  102.000
898.482; -125.075; -431.000; -453.000
898.725;  -44.700;  101.000;   53.000
898.968; -152.925; -609.000; -744.000
899.211; -127.225; -513.000; -361.000
899.454; -118.975; -633.000; -539.000
899.697;  -81.825;   90.000;  -43.000
899.940; -164.050; -761.000; -757.000
900.182; -122.300; -335.000; -405.000
900.425; -101.800; -150.000; -298.000
900.668;  -31.425;  491.000;  350.000
900.911; -112.250; -292.000; -345.000
901.154;  -75.275;  141.000;   -3.000
901.396; -139.575; -407.000; -412.000
901.639; -155.475; -430.000; -496.000
901.882; -181.600; -790.000; -809.000
902.124;  -96.725;  -29.000; -143.000
902.367; -127.600; -315.000; -361.000
902.609; -150.150; -476.000; -453.000
902.852;  -93.050; -108.000; -260.000
903.094; -139.175; -458.000; -337.000
903.337;  -73.100;  -26.000;   53.000
903.579; -122.550; -228.000; -441.000
903.821; -152.950; -597.000; -744.000
904.064;  -54.825;   85.000;  127.000
904.306;  -88.650; -126.000; -166.000
904.548; -115.575; -152.000; -366.000
904.790;  -99.675; -195.000; -340.000
905.033; -137.975; -625.000; -577.000
905.275; -136.925; -513.000; -524.000
905.517;   26.200;  468.000;  256.000
905.759;  -78.975; -667.000; -761.000
906.001; -100.950; -322.000; -369.000
906.243;  -65.150; -162.000; -224.000
906.485;   98.000; -265.000; -207.000
906.727;   96.750; -499.000; -542.000
906.969;  -50.150;  -30.000; -135.000
907.211;  113.475; -316.000; -382.000
907.453;  267.625; -188.000; -237.000
907.695;   -3.625; -158.000; -385.000
907.936;    5.225;  818.000;  706.000
908.178;  -66.675;   92.000; -135.000
908.420;  -78.150; -111.000; -162.000
908.662; -138.950; -633.000; -682.000
908.903;  -96.625; -208.000; -123.000
909.145;  -67.575; -240.000; -305.000
909.386;   -7.000;  315.000;  280.000
909.628;   30.150;  363.000;  397.000
909.870;  -11.950;   29.000;  264.000
910.111;  -89.050; -809.000; -949.000
910.353;    7.800; -123.000; -161.000
910.594;    4.100; -574.000; -606.000
910.835;   77.450; -265.000; -326.000
911.077;  160.850; -503.000; -604.000
911.318;  282.150; -505.000; -471.000
911.559;  474.300; -577.000; -880.000
911.801; 1372.700; -284.000; -280.000
912.042;10550.750;  -50.000; -159.000
912.283;26924.175;  404.000;  371.000
912.524; 4020.825; -396.000; -457.000
912.765;  466.800; -193.000;   79.000
913.006;  240.875; -307.000; -338.000
913.247;   34.275; -270.000; -290.000
913.488;  -24.250;  -43.000;   30.000
913.729;  -81.550; -373.000; -373.000
913.970;  -74.775;  -96.000; -292.000
914.211;  -77.375; -160.000; -198.000
914.452;  -67.425; -118.000;  -11.000
914.693;   15.825;  510.000;  592.000
914.934;   14.375;  510.000;  440.000
915.175;  -79.300;   53.000;  -95.000
915.415;  -79.200; -137.000;   27.000
915.656;  -75.925;  -28.000;  192.000
915.897;  -93.850; -252.000;  -82.000
916.137;  -86.775;   74.000;   -9.000
916.378; -138.050; -573.000; -517.000
916.619; -102.775; -159.000;  -63.000
916.859;  -15.450;  303.000;  330.000
917.100;  131.725; 1655.000; 1070.000
917.340;   56.400;  930.000;  728.000
917.581;   37.400;  965.000;  789.000
917.821;  -41.425; -171.000;  143.000
918.061;    5.975; -199.000;  -72.000
918.302;  -59.050; -152.000; -211.000
918.542;  -45.125;  -22.000;    3.000
918.782;   17.500;  369.000;  377.000
919.023;  136.250;  360.000;  427.000
919.263; 1357.300; 8131.000;  202.000
919.503; 1094.400; -137.000;  -54.000
919.743;  641.175;  390.000;  266.000
919.983;  252.275; -134.000;  -26.000
920.223;   81.900;  135.000;   14.000
920.463;  130.100;  631.000;  554.000
920.703;  125.975;   84.000;   39.000
920.943;  131.175; -110.000;   90.000
921.183;  228.800; -414.000; -405.000
921.423;  501.150;  307.000;  546.000
921.663;  721.325; -174.000; -257.000
921.903; 1578.250;  237.000;  173.000
922.143; 8816.975;  372.000;  389.000
922.383;33617.350;  158.000;  115.000
922.622;11089.625; -120.000;  -15.000
922.862; 1182.875;  796.000;  785.000
923.102;  451.100;  -51.000;   33.000
923.341;  162.700;   59.000;   74.000
923.581;   77.450;  450.000;  360.000
923.821;   10.075;  301.000;  398.000
924.060;   12.425;  351.000;  193.000
924.300;  -66.425;  -16.000; -128.000
924.539;   -9.575;  584.000;  473.000
924.779;    0.975;  812.000;  597.000
925.018;  -50.875;  247.000;  353.000
925.257;  -25.050;  595.000;  666.000
925.497;  -40.200;  447.000;  412.000
925.736;  -84.250;  -35.000;  102.000
925.975;   -1.800;  687.000;  669.000
926.214;   13.800;  907.000;  850.000
926.454;   22.050;  706.000;  757.000
926.693;  -49.600;  419.000;  543.000
926.932;   46.200; 1021.000;  825.000
927.171;   62.175; 1107.000; 1044.000
927.410;   65.125; 1144.000;  967.000
927.649;   18.450;  924.000;  742.000
927.888;  -17.525;  590.000;  564.000
928.127;  -23.375;  680.000;  678.000
928.366;   40.100;  842.000;  826.000
928.605;   29.400;  831.000;  737.000
928.844;  241.175; 1451.000; 1393.000
929.083;  575.450;  770.000;  613.000
929.321;  320.975; 1335.000; 1359.000
929.560;   77.550; 1158.000; 1122.000
929.799;  -10.600;  574.000;  475.000
930.038;   86.675; 1025.000; 1394.000
930.276;  -55.400;  334.000;  397.000
930.515;  -12.700;  827.000;  681.000
930.753;  -29.025;  614.000;  589.000
930.992;  -38.800;  664.000;  717.000
931.230;   10.250;  847.000;  847.000
931.469;  174.975; 2162.000;  892.000
931.707;   63.000;  840.000;  751.000
931.946;   54.175; 1278.000; 1344.000
932.184;   55.850; 1437.000; 1175.000
932.423;   28.000; 1265.000;  963.000
932.661;   88.175; 1296.000; 1428.000
932.899;   23.675;  987.000;  821.000
933.137;   12.100;  754.000;  564.000
933.376;  138.025; 1664.000; 1335.000
933.614;  155.850; 1759.000; 1196.000
933.852;   40.950; 1357.000; 1171.000
934.090;  137.550; 1722.000; 1747.000
934.328;   99.075; 1252.000; 1457.000
934.566;   88.275; 1431.000; 1110.000
934.804;  128.250; 1263.000; 1309.000
935.042;  456.350; 1861.000; 1850.000
935.280; 1808.125; 2088.000; 2063.000
935.518; 1681.500; 2113.000; 2007.000
935.756;  351.725; 2481.000; 2316.000
935.994;  170.750; 1808.000; 1751.000
936.231;  349.725; 2890.000; 2950.000
936.469;  196.750; 2367.000; 2378.000
936.707;  149.225; 2220.000; 2167.000
936.945;  234.100; 2825.000; 2882.000
937.182;  210.100; 2679.000; 2741.000
937.420;  298.025; 3602.000; 3031.000
937.657;  389.375; 3365.000; 3478.000
937.895;  346.200; 3331.000; 3488.000
938.133;  301.150; 3540.000; 3528.000
938.370;  365.050; 3896.000; 4191.000
938.607;  376.925; 4488.000; 4205.000
938.845;  539.725; 5587.000; 5549.000
939.082;  481.475; 5387.000; 5177.000
939.320;  551.575; 5799.000; 5728.000
939.557;  628.250; 6549.000; 6491.000
939.794;  700.925; 7285.000; 7097.000
940.031;  884.675; 8421.000; 8368.000
940.269; 1110.925; 9552.000; 9107.000
940.506; 1116.925;10901.000;10507.000

