
Integration time [ms]: 100.000
Averaging Nr. [scans]: 40
Smoothing Nr. [pixels]: 0
Data measured with spectrometer [name]: 2101013U2
Wave   ;Sample   ;Dark     ;Reference
[nm]   ;[counts] ;[counts] ;[counts] 

394.013;   50.218; -450.257; -315.536
394.305;  216.916; -461.258; -419.536
394.596; 1088.738; -676.269; -527.514
394.887; 2666.455; -796.268; -654.518
395.178; 1030.510;  145.736;   11.476
395.470;   82.247; -210.263; -356.526
395.761;  198.970;  305.734;  394.479
396.052;  304.663; -545.284; -306.489
396.343;  297.608; -557.276; -454.503
396.634;  115.927; -200.279; -290.497
396.926;  126.952; -618.268; -565.517
397.217;  114.787;   11.725;  -17.504
397.508;   61.378; -366.273; -154.507
397.799;   69.327; -555.279; -571.497
398.090;   14.021; -973.280; -902.495
398.381;  120.663;   11.708;  -11.473
398.672;    4.189; -585.292; -742.473
398.963;   70.933; -348.279; -373.498
399.254;  121.298;   54.709; -209.475
399.545;  -21.309;-1017.266; -883.520
399.836;   57.222; -407.277; -343.501
400.127;   66.814; -205.295; -209.468
400.418;   58.123; -423.274; -392.506
400.709;   74.758; -359.281; -333.493
401.000;   39.302; -268.291; -309.476
401.290;  126.076;  225.698;  115.545
401.581;   78.296; -166.286; -228.485
401.872;   26.886; -542.298; -486.462
402.163;   63.607; -313.296; -252.467
402.454;  105.724; -123.291; -163.475
402.744;   83.273; -844.297; -813.465
403.035;  452.604; -226.293;  -86.471
403.326;  586.742; -366.292; -384.474
403.617;  395.205;  204.701;  165.539
403.907;  252.619; -593.283; -679.490
404.198; 2342.980; -545.307; -599.446
404.489; 6179.299; -618.283; -588.491
404.779; 2067.204; -618.302; -660.456
405.070;  226.158;  -67.304; -174.451
405.360;  350.181; -259.293; -238.472
405.651;  383.690;  125.699;   98.542
405.942;  209.016;  209.714;  127.516
406.232;  278.330; -432.285; -413.487
406.523;  487.624;  641.706;  758.530
406.813;  112.543; -579.286; -644.484
407.104;  349.312;  261.708;  144.527
407.394;  180.082; -604.299; -591.462
407.685;  149.955;  336.715;  222.513
407.975;   93.297; -400.283; -382.490
408.265;  122.313; -134.289; -190.478
408.556;   76.471; -472.291; -459.475
408.846;  174.750;  474.706;  429.530
409.137;   96.997;   -1.288; -216.480
409.427;   59.230; -193.285; -271.487
409.717;   34.881; -776.273; -692.508
410.007;  141.949;    4.715; -170.486
410.298;  103.792; -360.295; -342.469
410.588;   63.678; -495.285; -510.486
410.878;   46.333; -792.287; -873.482
411.168;  126.089; -481.298; -478.463
411.459;  129.767; -295.283; -242.489
411.749;   61.569; -609.292; -507.474
412.039;   81.045; -755.289; -386.480
412.329;  205.915;   40.722;  132.501
412.619;  192.868;  -62.286; -148.485
412.909;  381.191;  639.711;  594.521
413.199;  342.971; -130.280; -251.495
413.490;  409.106;  521.710;  352.523
413.780;  159.700;-1013.279; -913.496
414.070;  350.584;  -46.276;  235.497
414.360;  376.611; -729.278; -666.498
414.650;  421.979; -726.288; -688.482
414.940;  535.674; -538.280; -441.496
415.230;  928.376;   50.712;   74.519
415.520; 6033.462;  155.730;   66.486
415.809;23763.583; -305.281; -125.493
416.099;18264.574; -388.277; -229.501
416.389; 5059.570;  435.726;  236.494
416.679; 2963.700;   91.738;   85.473
416.969;  528.937; -527.287; -503.483
417.259;  480.402;  341.721;  171.503
417.549;  689.256;  522.718;  318.508
417.838; 1620.129; -205.268; -147.518
418.128; 5355.087;  650.710;  492.522
418.418; 4523.588; -491.272; -579.509
418.708; 3028.946;    9.726;  -48.506
418.997;11397.141; -474.275; -480.505
419.287;11827.402; -733.273; -790.507
419.577;11154.641; -160.283; -123.489
419.866;36978.347; -588.277; -498.501
420.156;38086.108; -242.270;  -55.513
420.446; 6947.168; -112.263;  -26.526
420.735;  875.777; -376.271; -446.512
421.025;  843.460; 1830.722;  315.502
421.314;  702.600; -203.271; -226.512
421.604; 1481.147;   89.732;  233.484
421.893;  851.497; -705.271; -602.511
422.183;  233.718; -487.263; -461.526
422.472;  378.173;  -36.271; -107.511
422.762;  451.222; -416.266; -379.521
423.051;  273.234; -916.276; -916.503
423.341;  315.504; -491.273; -439.507
423.630;  405.803; -121.265;   15.477
423.919;  400.216;   58.725;   49.495
424.209;  364.773;  -31.263;   56.473
424.498;  471.477;   68.732;  161.483
424.787; 1065.758; -535.267; -601.518
425.077; 3307.702;   34.735;   29.478
425.366; 4697.779; -734.262; -744.528
425.655; 9584.580;  639.727;  259.493
425.945;20785.608; -313.247; -268.554
426.234;11603.852;  117.741;  300.467
426.523; 5021.307;  -86.259; -350.534
426.812; 6885.418;  107.734;  159.480
427.101;10019.318; -127.269; -323.515
427.390;12629.112;  -55.270;  -86.514
427.680; 2919.302; -624.257; -411.538
427.969;  479.112; -330.255; -301.540
428.258;  321.368; -385.257; -477.536
428.547;  550.167;  449.728;  397.490
428.836; 1258.979; -421.253; -398.543
429.125; 1800.859; -199.259;  -72.534
429.414;  806.026; -330.251; -294.548
429.703; 3103.851; -231.251; -213.548
429.992; 9174.280; -938.250; -828.549
430.281; 6020.011; -397.264; -331.524
430.570;  591.767;  -21.252;   32.454
430.859;  580.681;  279.741;  352.466
431.148;  458.704;  636.752;  631.446
431.437;  328.141;  391.748;  367.454
431.725;  164.945; -544.257; -481.536
432.014;  115.711; -845.253; -756.545
432.303;  388.405; -149.239; -105.569
432.592;  628.242; -460.263; -178.525
432.881; 1030.730; -601.248; -437.554
433.169; 6055.388; -343.255;  -61.540
433.458;12299.088;  445.765;  540.424
433.747; 5181.960; -397.261; -289.529
434.036;  900.480; -275.242; -280.564
434.324; 2056.392; -395.249; -379.551
434.613; 3561.974;   40.757;  159.437
434.902; 1189.345;  333.760;  439.433
435.190;  591.753;   75.761;  295.431
435.479;  337.006;  -52.245;   83.441
435.767;   97.739; -411.244; -427.561
436.056;  230.076; -340.242; -294.563
436.345;  385.747; -372.240; -223.568
436.633;  410.663;   60.750;  383.450
436.922;  280.524;  208.760;  414.432
437.210;  615.053; -194.236;    1.426
437.499; 2021.536; -583.235; -432.576
437.787; 2215.853; -339.236;  -10.574
438.075;  572.459;   56.761;  162.430
438.364;  751.412;  -44.238;  250.429
438.652;  466.116; -286.226; -138.592
438.941;  147.430;    3.770;  269.415
439.229;    8.464; -665.252; -466.545
439.517;   31.370; -160.234;  -85.577
439.806;   -2.218; -501.225; -290.595
440.094;  187.303;  377.766;  650.421
440.382;  193.231; -653.233; -302.580
440.670;  214.311; -361.235; -285.576
440.959;   42.299; -347.223; -170.599
441.247;   82.242; -151.229; -109.587
441.535;  115.518; -266.235;   31.423
441.823;   35.700; -497.234; -305.578
442.111;  193.321;  173.771;  327.412
442.400;  525.805; -628.245; -335.559
442.688; 1429.352; -111.234; -620.579
442.976; 1043.912; -786.213; -450.617
443.264;  116.714; -324.224; -364.597
443.552;  114.492; -258.226;   51.408
443.840;  170.892;  602.765;  876.423
444.128;  112.405;  265.767;  269.420
444.416;   22.274; -694.228; -312.588
444.704;   19.879; -465.219;  -92.605
444.992;   84.395;   -0.226;  240.407
445.280;   51.831; -517.230;  -94.585
445.568;   39.716; -694.212; -396.618
445.856;  378.088; -174.221;  357.398
446.143;  763.775;  -54.220;   -7.604
446.431;  647.027;  -25.228;  625.411
446.719;  258.798;  489.783;  675.391
447.007;  197.700;  481.769;  705.416
447.295;  189.596;  597.777;  871.402
447.583;   85.714; -464.229;  -34.587
447.870;  139.210; -434.221; -202.601
448.158;  423.630; -104.230;  129.415
448.446;  334.401; -800.219; -338.604
448.733;  184.415;   13.776;  269.403
449.021;  271.040;   60.788;  341.382
449.309;  207.655; -296.210;  208.379
449.596;  231.019;  128.783;   59.392
449.884;  158.978; -571.222; -325.600
450.172;  155.133; -756.227; -406.590
450.459;  450.645;  645.786;  780.387
450.747; 2339.043; -411.218; -147.608
451.034; 7376.753;  493.772;  889.411
451.322; 6123.798; -413.214; -170.614
451.609;  533.667;  292.777;  508.403
451.897;  587.443; -550.203; -183.634
452.184; 1782.497; -622.223; -400.598
452.472; 1653.927;   97.792;  269.375
452.759;  344.827;  512.781;  864.395
453.047;  116.513; -407.212; -125.617
453.334;   85.060; -732.219; -216.606
453.621;   86.351; -438.214; -161.615
453.909;  120.985;   13.796;  384.368
454.196;  114.030; -299.199; -123.641
454.483;  207.781;  317.798;  540.364
454.771;  139.480; -215.208;  196.374
455.058;   38.858; -316.207;  102.374
455.345;  122.811;   71.807;  344.347
455.632;   82.661; -128.207;  235.373
455.919;   47.928;  -82.196;  182.354
456.207;  -48.215; -774.198; -450.642
456.494;    3.068; -475.200;  -66.639
456.781;   15.877; -399.202; -198.635
457.068;   67.668; -253.206;  -29.628
457.355;    1.869; -698.206; -401.629
457.642;   10.799; -552.205; -290.630
457.929;   15.327; -778.194; -417.651
458.216;   55.263; -575.212; -354.617
458.503;  240.681; -173.193;  -19.652
458.790;  240.352; -864.208; -630.625
459.077;  262.807;  -77.202;  110.364
459.364;  783.370; -350.195; -210.649
459.651; 1661.016;  -46.206;  220.372
459.938;  775.593; -864.209; -665.623
460.225;  164.935;  132.799;  276.363
460.512;  -38.525; -836.197; -688.645
460.799;  104.367;  -32.218;  320.392
461.086;   83.523; -370.200; -251.640
461.372;   63.910; -509.198; -279.642
461.659;  119.529; -165.196;  108.354
461.946;   53.830; -445.193;  -54.651
462.233;  251.370;  842.800;  888.361
462.519;  349.267; -814.201; -464.639
462.806;  991.176; -768.197; -497.645
463.093;  852.626; -445.191;  -66.656
463.380;  -17.333; -920.186; -824.664
463.666;   57.477; -259.197;  -18.646
463.953;   93.490; -406.195; -243.648
464.239;  196.789; -173.195;  -77.648
464.526;  389.050;  413.806;  743.350
464.813;  334.262; -565.190; -304.658
465.099;  370.406;  606.807;  607.348
465.386;  350.760;  903.807;  921.348
465.672;   24.626; -694.197; -522.645
465.959;   35.305; -598.188; -520.662
466.245;   30.660; -468.193; -359.652
466.532;  104.262; -109.195;   63.352
466.818;   75.942; -357.186; -216.664
467.104;   10.257; -488.182; -415.672
467.391;  -21.636; -628.189; -459.658
467.677;   41.320; -289.186;    9.335
467.964;    4.621; -682.189; -471.660
468.250;   73.273; -331.186; -160.665
468.536;   84.765;   90.811;  180.341
468.822;  -13.990; -821.184; -574.668
469.109;  149.162;  351.827;  471.311
469.395;  219.295;  729.808;  787.346
469.681;  196.118;   46.811;  156.341
469.967; 1219.098; -699.188; -382.660
470.254; 2654.156; -494.188; -306.662
470.540; 1717.278; -601.196; -476.646
470.826;  250.518; -488.181; -397.675
471.112;  296.463;  288.816;  113.331
471.398;   98.793; -253.183;  -58.670
471.684;   51.446; -626.177; -447.680
471.970;   -5.753; -918.180; -981.675
472.256;   35.069; -521.192; -441.654
472.542;   23.498; -499.171; -434.691
472.828;    7.028; -743.182; -607.672
473.114;   42.467; -380.166; -283.700
473.400;   19.313; -504.175; -293.684
473.686;   37.948; -452.166; -400.701
473.972;   67.402; -230.174; -131.687
474.258;  -43.438; -925.173; -843.689
474.544;  186.863; -183.178;   -2.679
474.830;  298.489;  -65.175;   45.316
475.116;  474.189; -123.190; -196.658
475.401;  629.649; -558.180; -467.676
475.687;  192.173; -725.180; -718.676
475.973;    6.111; -673.181; -770.673
476.259;  259.641;  736.825;  764.315
476.544;  357.979; -539.176; -437.682
476.830;  770.269; -398.172; -322.690
477.116;  682.103; -430.177; -336.682
477.401;  144.398;  346.820;  358.324
477.687;   -6.887; -289.175; -405.684
477.973;   35.714;   21.819;   28.326
478.258;   -4.032; -448.163; -348.706
478.544;   41.728;   21.815;   61.334
478.829;  -56.046; -818.171; -738.692
479.115;  -42.356; -749.172; -651.690
479.401;  -11.752; -444.174; -449.686
479.686;   40.872; -253.180;  -74.676
479.972;  -25.732; -886.178; -776.680
480.257;   42.493; -258.166;  -65.700
480.542;   -1.667; -614.170; -469.693
480.828;  239.936; 1288.824; 1392.317
481.113;  -36.141; -464.176; -426.683
481.399;   -7.083; -236.161; -202.711
481.684;  -42.157; -620.166; -462.700
481.969;   18.081; -158.159;  -73.713
482.255;    6.018; -439.169; -285.695
482.540;   -7.107; -569.178; -441.680
482.825;    7.787; -395.187; -404.663
483.110;  101.647;  -85.169; -105.696
483.396;  198.752; -840.157; -652.718
483.681;  478.877;  543.826;  730.313
483.966;  155.225; -696.160; -700.712
484.251;   13.826; -404.174; -310.687
484.536;    5.728; -356.165; -378.703
484.822;    9.929; -205.173; -218.687
485.107;  -16.785; -599.152; -502.726
485.392;  129.209;  662.836;  541.296
485.677;   77.956;  354.832;  163.302
485.962;  119.725;  160.843;  270.283
486.247;   98.251;  -14.162;   -8.707
486.532;   52.719; -178.166; -325.701
486.817;  163.112;  381.839;  431.291
487.102;  110.298; -453.154; -514.722
487.387;  622.379; -637.156; -652.718
487.672; 1108.864; -154.164;  -38.705
487.957;  699.219; -394.160; -286.711
488.241;  219.207; -290.150; -314.729
488.526;  705.942; -280.152; -148.726
488.811; 1122.145; -881.177; -818.680
489.096;  853.951; -666.154; -702.723
489.381;  477.938;    3.847;  162.275
489.666;  360.417; -428.161; -510.710
489.950;  170.579;  558.846;  627.277
490.235;  -22.773; -480.151; -458.728
490.520;  -42.534; -756.161; -723.710
490.804;  -52.294; -827.156; -736.719
491.089;    4.473; -469.149; -299.732
491.374;   45.963; -132.164;  -75.704
491.658;  -11.066; -817.147; -717.735
491.943;  165.546; -657.152; -609.727
492.227;  258.044; -178.155;  -38.721
492.512;   54.749; -294.157; -341.717
492.797;  -52.408; -713.149; -716.731
493.081;  -51.813; -588.147; -598.735
493.366;  -41.132; -751.161; -635.711
493.650;  206.640;  831.859;  917.254
493.935;   30.034; -648.147; -447.734
494.219;  -33.823; -778.142; -687.743
494.503;  -40.288; -585.150; -487.730
494.788;   42.491;   46.842;   74.285
495.072;  104.458;  184.850;  434.271
495.356;  167.276; -463.148; -343.733
495.641;  474.668; -812.146; -736.736
495.925;  429.661; -976.156; -903.719
496.209;   47.072; -599.149; -451.732
496.494;  -44.422; -763.142; -544.744
496.778;   21.748; -364.154; -360.722
497.062;  -54.114; -819.156; -627.719
497.346;  -46.779; -869.160; -640.711
497.631;  145.629;  580.852;  560.266
497.915;   82.279;  -64.145;  175.261
498.199;   51.727; -341.157; -277.718
498.483;   47.265; -562.152; -508.725
498.767;  181.934;  301.850;  300.271
499.051;  189.520; -126.149; -100.732
499.335;   29.918; -693.149; -739.731
499.619;  -46.134; -381.129; -423.767
499.903;   36.318; -272.155;  -65.721
500.187;   30.206; -588.153; -316.724
500.471;   25.370; -796.152; -595.727
500.755;  119.591;   62.839;  -96.710
501.039;   31.843; -270.155; -357.721
501.323;   97.467;  -21.141;  264.254
501.607;   33.269; -447.163; -503.706
501.891;    7.004; -607.156; -512.718
502.174;  -23.460; -726.144; -585.741
502.458;   79.524;   89.849;  370.273
502.742;   41.516; -180.138; -191.751
503.026;  109.533; -412.147; -254.734
503.310;  162.080; -437.159; -375.713
503.593;  111.610; -464.147; -325.735
503.877;  104.956; -232.133; -156.760
504.161;  182.758;    2.847;  -50.724
504.444;  129.543; -841.158; -710.716
504.728;  431.737; -487.164; -522.704
505.012;  674.381; -257.150;  -76.729
505.295;  531.617; -417.161; -212.711
505.579;  533.410; -256.156; -496.719
505.862;  737.525; -555.145; -333.738
506.146;  702.057; -681.159; -758.714
506.429;  397.082;  568.841;  461.286
506.713;   59.678; -732.151; -667.728
506.996;  307.873;   90.846;  295.278
507.280;  320.007; -633.165; -474.703
507.563;  236.591; -469.155; -261.721
507.847;   94.206; -423.153; -112.724
508.130;   76.868; -665.161; -456.711
508.413;  105.189; -758.167; -577.700
508.697;  234.539; -151.167;   12.300
508.980;  140.408; -422.153; -312.724
509.263;  -15.987; -466.155; -450.720
509.547;   29.006; -124.150;   82.271
509.830;   41.220; -172.160;  140.289
510.113;   73.335;  128.844;  298.281
510.396;   36.538; -530.152; -300.725
510.680;  163.152; -818.145; -812.738
510.963;  657.552;  184.846;  180.277
511.246;  575.489; -493.150; -357.730
511.529;  258.682; -482.145;  -83.739
511.812;  347.277; -250.134;   10.241
512.095;  258.426; -740.151; -396.728
512.378;   73.089; -317.147; -245.736
512.661;   35.798; -703.137; -623.753
512.944;   19.804; -750.142; -637.744
513.227;   69.520; -170.137; -171.752
513.510;   18.515; -479.144; -671.741
513.793;   28.771; -485.140; -435.747
514.076;  136.312;  -43.127;  -39.771
514.359;  113.373; -294.149; -135.732
514.642;   88.657; -442.142; -567.744
514.925;  729.969;  581.860;  561.253
515.208;  970.049; -498.134; -443.758
515.491;  635.763; -276.133; -182.761
515.773;  362.769; -410.143; -337.742
516.056; 2014.730;  249.864;  409.246
516.339; 2717.233; -754.136; -652.755
516.622; 1924.236; -518.150; -488.730
516.904; 1293.751;  882.857;  975.257
517.187;  589.544; -730.138; -523.752
517.470;  399.125; -568.143; -510.743
517.752;  419.486; -624.136; -470.756
518.035;  322.932; -708.139; -725.749
518.318;  353.159; -799.136; -744.755
518.600; 2299.666; -300.132; -325.762
518.883; 3188.057;  310.858;   88.256
519.165; 1554.337; -585.138; -426.751
519.448;  393.041;  -61.132;  -19.762
519.730;  206.369; -573.126; -415.773
520.013;  317.884;  588.867;  664.240
520.295;  861.629;  -94.134;  -15.759
520.578; 1895.204; -335.131; -305.764
520.860; 2133.891; -254.132;   56.238
521.143; 1119.688; -763.135; -584.756
521.425;  478.907; -251.125; -279.775
521.707;  664.812; -622.127; -380.771
521.990; 1747.863; -199.127;  167.229
522.272; 1946.523; -116.140;   -4.748
522.554;  898.195; -237.143; -157.742
522.836;  368.352;  -24.134;   99.241
523.119;  221.832; -496.148; -189.734
523.401;  149.286; -448.130; -314.766
523.683;   94.324; -865.137; -693.753
523.965;  272.617;  408.862;  260.248
524.247;  276.878;   54.878;  170.220
524.529;  201.704; -451.134; -367.759
524.812;  328.112;   -3.130;  191.234
525.094;  814.391; -773.138; -631.751
525.376; 1299.766; -143.124;   78.223
525.658;  793.981; -441.136; -339.754
525.940;   30.675; -805.131; -671.764
526.222;   34.759; -188.136;  -88.755
526.504;  124.848; -190.131;   32.237
526.786;  190.506; -960.133; -647.760
527.068;  314.972; -124.123;  -67.778
527.349;  114.427; -865.137; -774.754
527.631;  135.091; -137.132;   22.238
527.913;  121.861; -664.127; -450.771
528.195;  170.450; -761.125; -639.774
528.477;  233.824;  -93.134;  -30.758
528.759;  132.637; -648.130; -522.766
529.040;   62.870; -569.123; -293.778
529.322;   55.378; -235.125;  -10.774
529.604;  139.990;  -47.130;   93.233
529.886;  139.844; -546.126; -302.773
530.167;  124.056;  232.870;  192.235
530.449;   53.338;    1.853;   63.265
530.731;   31.677; -572.122; -459.779
531.012;   66.173; -513.120; -216.784
531.294;   68.537; -118.116;  -43.792
531.575;  134.632;  290.875;  538.225
531.857;   57.544; -548.135; -266.757
532.138;   98.240; -113.141;   40.254
532.420;  193.265;  294.865;  403.244
532.701;  211.009; -722.133; -751.760
532.983;  343.037;  232.867;  182.239
533.264;  108.692; -243.126;  175.228
533.546;  -26.116; -491.136; -508.755
533.827;   55.105;  173.867;   -1.759
534.109;   53.494; -352.135;  -80.757
534.390;   91.470; -725.132; -582.762
534.671;  250.165; -270.135;  -82.756
534.953;  135.673; -751.123; -611.779
535.234;   13.322; -426.117; -255.789
535.515;  -72.419; -891.119; -735.785
535.796;  -22.868; -431.128; -193.770
536.078; -104.734;-1050.124; -904.777
536.359;    9.799;  -22.123;    3.221
536.640;   -3.898; -480.125; -197.774
536.921;  157.470;  225.871;  143.232
537.202;  359.913;  -87.138;  -16.751
537.483;  455.778;  251.869;  377.236
537.764;  162.631;   17.870;   98.235
538.045;  -30.977; -543.134; -371.758
538.326;  -22.103; -596.129; -447.768
538.607;   24.113; -686.127; -476.771
538.888;  156.939;   98.879;    5.218
539.169;  180.159; -704.122; -535.781
539.450;  330.069;  236.871;   16.233
539.731;  221.893; -361.121; -182.783
540.012;  137.073;  199.880;  412.216
540.293;   79.835;   82.876;  158.224
540.574;    9.458; -895.113; -717.796
540.855;  435.867;  435.879;  377.218
541.136;  525.806;   47.878;  139.220
541.416;  277.188; -161.130; -220.766
541.697;  191.224; -274.131; -170.763
541.978; 1017.667; -270.135; -315.757
542.259; 1258.088; -211.127; -236.771
542.539;  621.181; -191.116; -186.790
542.820;  212.757;  461.875;  480.225
543.101;  120.778;  -52.145;  -77.738
543.381;   33.837; -638.127; -591.771
543.662;  267.410;  159.873; -254.771
543.942;  564.158; -751.127; -830.770
544.223; 1021.508;  193.878;  161.219
544.504;  682.216; -275.124; -182.777
544.784;  566.944; -592.126; -408.773
545.065; 1595.085;  104.884; -254.791
545.345; 1873.257;  227.881;   14.215
545.626; 1245.532;  -14.113; -108.796
545.906;  840.356;   77.869;   98.235
546.186;  363.248;   92.874;  -95.773
546.467;  202.743;   99.877;  -95.778
546.747;  329.381;  264.884;  327.210
547.027;  363.914;   91.876;  111.223
547.308;  316.083; -376.127; -530.770
547.588;  391.697;  299.871;  371.232
547.868;  203.607;  458.870;  588.235
548.149;  190.367;  609.885;  593.207
548.429;  122.311; -347.127; -299.771
548.709;  191.173; -645.120; -461.784
548.989;  463.466;   84.882;   88.213
549.269; 2021.339;   10.868;  139.239
549.550; 4565.122;  215.877;  117.222
549.830; 4148.350; -758.111; -556.799
550.110;  819.657; -468.110; -320.801
550.390;  788.653; -128.122;  -56.779
550.670; 1092.628; -868.114; -783.795
550.950;  784.366; -509.121; -471.782
551.230;  202.862;  549.879;  460.218
551.510;   -8.510; -381.121; -326.782
551.790;   29.615; -173.109; -127.803
552.070;  253.268;  940.877; 1181.223
552.350;  394.211; -492.119; -377.786
552.630;  542.735;   -2.121;   77.219
552.909;  354.135;  181.884;   73.209
553.189;  227.446;  -49.132;   33.237
553.469;  187.735; -703.119; -514.786
553.749;  169.464; -469.127; -357.772
554.029;  154.676;   33.883;  -24.790
554.308;  132.721; -154.115;  -37.794
554.588;   50.681; -196.128; -204.770
554.868;   57.567; -366.121;  -47.782
555.147;  137.468; -114.115;  -46.793
555.427;  583.913; -260.116; -250.792
555.707; 3751.766; -284.115; -200.793
555.986; 4509.453; -719.111; -538.800
556.266; 2401.855;   23.884;   72.210
556.546;  113.515; -888.121; -675.782
556.825;  251.751; -657.114; -556.794
557.105; 1703.679; -125.128;   17.230
557.384; 2007.584;  122.884;  187.209
557.664;  774.262; -717.116; -508.792
557.943;  102.941; -557.121; -411.782
558.222;  174.694; -345.118; -344.788
558.502;  271.845; -116.115;  -76.793
558.781;  463.365;  194.885;  499.208
559.061;  394.419; -232.118; -227.788
559.340;  284.074;  302.883;  353.211
559.619;  689.454;   93.884;  148.210
559.899;  964.951; -239.117; -266.789
560.178;  904.344; -778.115; -593.793
560.457; 3008.277; -623.117; -562.790
560.736; 4192.004; -472.111; -482.800
561.015; 2797.752; -500.128; -502.769
561.295;  378.310;  180.893;  215.193
561.574;  332.367;  119.885;  116.207
561.853;  479.344;  274.891;  303.197
562.132;  495.547;  -45.114;  182.206
562.411;  422.836;  396.879;  553.219
562.690;  125.390; -592.115; -458.792
562.969;  154.489;  472.888;  630.203
563.248;  510.958; 2966.878; 2487.219
563.527;  263.904; -290.111; -408.800
563.806;  364.461; -650.127; -521.771
564.085;  409.475; -297.105; -206.810
564.364;  219.354; -594.117; -405.790
564.643;  506.461; -276.121; -223.781
564.922; 1797.613;  221.890;  397.198
565.201; 1804.467; -640.109; -700.803
565.479;  778.789; -297.115; -219.792
565.758;  307.679; -810.128; -712.770
566.037;  456.268; -155.109; -100.803
566.316;  224.834; -286.116;  -28.791
566.595;   54.067;  -17.115;  -12.793
566.873;   85.231; -166.111;  -79.801
567.152;  -52.361; -490.113; -590.797
567.431;   12.780; -113.116;    6.210
567.709;    3.860; -344.107; -212.807
567.988;  245.175; -810.114; -769.794
568.266;  510.041; -160.115;  -68.793
568.545;  369.897; -644.100; -514.819
568.824;  567.088;  160.885;  356.208
569.102;  527.075; -351.114; -235.794
569.381;  207.462; -492.116; -407.792
569.659;  -37.615; -553.113; -553.796
569.938;   31.282; -743.122; -465.780
570.216;  116.271; -225.109; -225.804
570.494;  -21.247; -632.114; -572.795
570.773;   37.840;  202.879;  114.218
571.051;    6.246; -373.123; -357.778
571.330;   47.158; -221.113; -174.796
571.608;   35.865; -181.098; -173.823
571.886;  -68.402; -671.111; -581.799
572.164;  -55.008; -739.121; -621.782
572.443;  -52.821; -562.105; -512.811
572.721;  -28.497; -399.117; -289.790
572.999;  -19.504; -280.117; -168.788
573.277;   92.147;  379.894;  620.191
573.555;  279.449;   94.894;   37.190
573.834; 1254.771;  -86.117; -114.788
574.112; 1501.213;  880.893;  811.193
574.390;  462.330; -143.111;  -96.801
574.668;    7.790;  -91.112;  -61.797
574.946;  -26.050; -165.106; -187.810
575.224;   11.717;   71.891;  -16.803
575.502;  -23.368; -200.116; -204.791
575.780;  -84.559; -767.112; -829.798
576.058;  110.554; 1589.889; 1004.200
576.336;  -14.715; -210.110; -129.801
576.614;  -41.009; -511.112; -340.798
576.891;   50.146; -711.115; -823.794
577.169;  462.654; -158.108; -285.805
577.447;  557.862;  169.893;  202.193
577.725;  268.995;  629.888;  854.201
578.003;    3.768;  -71.112; -371.798
578.280;   82.038; -208.104; -242.812
578.558;   68.870; -450.115; -422.793
578.836;  123.703; -210.114; -145.795
579.114;   57.989; -630.112; -670.797
579.391;   75.148;   -6.117;  -18.789
579.669;  -74.853; -595.114; -704.794
579.947;  156.434; -326.107; -127.806
580.224;  288.784; -692.107; -524.806
580.502;  296.538;  127.893;   76.193
580.779;   21.953;  -42.117;   75.210
581.057;  -61.429; -584.109; -470.804
581.334;  -98.922; -726.102; -695.815
581.612;   46.300;   54.895;  511.190
581.889;  -34.184;  -83.101; -129.818
582.167;  -40.470; -298.099; -190.821
582.444;  -94.440; -845.102; -814.817
582.721;   93.661;  657.899;  715.183
582.999;   52.852; -326.100; -167.821
583.276;  489.325; -812.123; -713.779
583.553;  675.781; -364.102; -294.816
583.831;  225.109; -607.104; -631.812
584.108;   66.802;  349.892;  174.195
584.385;    2.802; -122.102;  -98.815
584.662;  -79.369; -651.111; -828.801
584.940;   33.730;  204.889;  204.199
585.217;  -20.865;  -73.113; -303.796
585.494;   37.789;   71.890;  118.198
585.771;  206.147; -250.109; -354.804
586.048;  483.759; -196.113;  -76.796
586.325;  297.434; -721.110; -773.801
586.602;   90.763;  230.896;  213.188
586.879;  -32.926; -499.100; -580.820
587.156;   44.126; -156.105; -331.810
587.433;  -36.442; -701.102; -667.817
587.710;   53.967;  152.888;  234.202
587.987;  282.956; -264.105; -236.811
588.264;  753.743;  315.888;  387.202
588.541; 1301.466;  -61.104;   26.187
588.818; 2570.999;   72.892;  171.196
589.095; 2235.761; -163.104; -174.812
589.371;  358.395; -459.109; -414.804
589.648;   10.738; -581.107; -437.807
589.925;    2.254; -517.114; -621.795
590.202;   14.516; -741.112; -607.798
590.478;   89.958; -166.105;  -73.811
590.755;  241.530; -241.108; -132.806
591.032; 2378.036; -741.110; -699.802
591.308; 3282.455; -732.094; -790.831
591.585; 1684.335; -573.110; -560.802
591.862;  120.310;-1056.102; -950.817
592.138;   45.478; -475.108; -474.805
592.415;  150.089; -486.104; -495.813
592.691; 1414.662;  460.896;  518.188
592.968; 1818.042; -208.098; -123.824
593.244;  865.531; -695.116; -595.790
593.521;   72.785; -105.102;  -42.817
593.797;  -20.421; -810.122; -720.780
594.074;  323.429; -611.096; -588.826
594.350;  651.090;  828.905;  729.172
594.626;  299.156; -303.111; -283.801
594.903;  111.586; -643.101; -645.817
595.179;  177.343;  243.896;  418.187
595.455;    3.989; -136.107; -150.807
595.731;    5.819;  -19.103;  -38.814
596.008;  -36.299; -464.111; -434.800
596.284;   24.026; -187.100; -242.820
596.560;   65.436; -501.093; -493.833
596.836;  200.153; -173.105;  -70.810
597.112;  314.853; -582.108; -437.805
597.388;  265.852;  -49.097;  -48.826
597.665;  104.037;  437.887;  530.203
597.941;  -48.285; -572.089; -658.839
598.217;    9.639; -323.110; -293.802
598.493;  270.948;   61.891; -204.804
598.769;  482.596; -175.100;  -50.819
599.045;  286.481; -490.108; -562.806
599.321;   52.025; -193.100; -261.820
599.597;  124.898; -355.109; -476.804
599.872;  466.891;  409.896;  429.187
600.148;  357.679;  -61.097; -172.826
600.424;  262.661;   91.893;  202.193
600.700;  230.138; -170.107; -280.807
600.976;   99.698; -442.097; -464.825
601.252;  231.069; -226.109; -272.803
601.527;  196.891; -833.104; -840.813
601.803;  148.784; -453.105; -404.812
602.079;  170.096; -124.100; -118.819
602.354;  537.321; -620.092; -531.835
602.630;  806.485; -140.113; -482.796
602.906; 2214.366; -910.101; -863.818
603.181; 6377.660; -627.119; -534.786
603.457; 5392.151;   98.903; -278.826
603.733;  785.894; -605.120; -626.783
604.008;  899.475; -245.106; -164.810
604.284; 2955.212; -636.101; -580.817
604.559; 2566.495;   -3.112;  -42.799
604.835;  462.153; -163.105; -225.810
605.110;  418.605; -732.099; -892.821
605.385;  668.039;  224.907;  267.167
605.661;  633.643; -625.095; -729.829
605.936; 1102.882; -664.108; -737.806
606.211;  921.676;  -17.103; -170.815
606.487;  211.849; -329.114; -376.794
606.762;   25.186; -791.119; -745.786
607.037;  -21.847; -501.105; -433.810
607.313;  -64.064; -589.096; -574.828
607.588;  -20.300; -375.106; -137.810
607.863;   33.465;  -28.101; -143.818
608.138;  175.438;  513.890;  516.198
608.413;   24.109; -576.099; -592.822
608.688;   36.828; -203.108; -267.805
608.964;  191.094; -509.106; -218.809
609.239;  223.751; -107.105; -212.810
609.514;  245.808;  281.895;  240.188
609.789;  635.588; -187.104; -716.812
610.064;  838.460; -435.096; -609.827
610.339;  848.695; -855.109; -799.804
610.614; 1100.901; -131.100; -315.820
610.889;  604.909;  215.895;  107.188
611.163;   35.459; -407.104; -591.812
611.438;   80.525;   81.886; -167.794
611.713;    3.062; -467.101; -499.817
611.988;   61.114; -144.101; -328.818
612.263;  -13.322; -771.102; -717.815
612.538;  230.534;  385.887;  251.204
612.812;  155.427; -832.100; -911.820
613.087;  130.590; -358.098; -338.823
613.362;  -39.511; -497.107; -557.807
613.637;   47.347;  261.897;  138.186
613.911;   -9.278; -256.092; -345.835
614.186;  120.987; -249.107; -292.807
614.460;  630.840; -842.081; -758.854
614.735;  734.114;  -55.087;  -17.843
615.010;  152.404;   43.912;  -82.841
615.284;  250.052;  360.892;  246.195
615.559;  352.795; -792.092; -955.835
615.833;  286.707;  -76.099;  -87.822
616.108;    0.282; -225.090; -390.837
616.382;  141.815;  274.913;  402.156
616.656;  154.083; -241.090; -232.837
616.931;  470.608; -785.099; -700.822
617.205;  999.367; -973.104; -979.813
617.480;  935.155;  -91.125;    6.225
617.754;  156.727; -396.125; -128.774
618.028;    8.398; -369.129; -382.768
618.302;   49.351;   73.892;  -25.805
618.577;  -47.977; -371.103; -518.815
618.851;  -57.009; -399.109; -600.803
619.125;  -61.996; -335.134; -378.759
619.399;  -35.208; -244.104; -374.813
619.673;  -70.262; -330.115; -515.792
619.947;  -43.172; -333.114; -448.795
620.222;  -31.568; -198.110; -204.801
620.496;   -5.458;  -47.121;  -96.782
620.770;   -3.567; -187.122;  -93.781
621.044;  213.726;  323.895;  346.190
621.318;  712.195; -653.120; -614.783
621.592;  627.417; -430.121; -409.783
621.866;  334.121; -476.112; -572.799
622.140;   31.857; -207.116; -356.791
622.413;   61.500;  138.889;  112.200
622.687;  -45.488; -746.101; -492.817
622.961;    3.001; -130.108; -143.805
623.235;  -54.024; -633.111; -661.800
623.509; -102.292; -816.105; -848.811
623.783;    4.110;  -12.107;   48.193
624.056;  -23.604; -254.120; -280.783
624.330;   53.515;   63.888;   -3.797
624.604;   38.829; -271.116; -355.790
624.877;   70.362;  180.890;   26.198
625.151;   40.973; -249.114; -238.794
625.425;  -24.381; -150.103; -283.814
625.698;  -73.445; -367.119; -374.785
625.972;  -91.211; -799.110; -765.802
626.245;   79.331;  685.884;  484.210
626.519;  -47.050; -426.120; -340.784
626.792;  -28.112; -192.107; -380.807
627.066;  -89.224; -485.122; -662.779
627.339;  -86.865; -736.110; -663.802
627.613;   46.823;  351.880;  148.216
627.886;   53.391;  187.891; -612.803
628.160;   -2.931;  312.880; -161.783
628.433; -103.292; -695.125; -703.775
628.706;  -76.400; -517.120; -615.784
628.979;   17.339;  296.876;  117.223
629.253;  -89.165; -785.119; -833.786
629.526;  347.317; -334.126; -253.772
629.799;  323.971; -641.123; -479.778
630.072;  146.225; -497.128; -516.769
630.346;  -71.994;-1115.116;-1080.790
630.619;  404.814; -467.107; -545.808
630.892;  593.102;  709.889;  593.200
631.165;  322.017;  790.896;  679.187
631.438;  -66.857;-1092.112;-1055.798
631.711;   36.099;  453.877;  257.221
631.984;  -51.199; -523.117; -624.789
632.257;  -63.302; -636.117; -681.789
632.530;  -48.245; -412.119; -433.785
632.803;   20.971; -109.115;    7.207
633.076;  -73.082; -360.123; -422.777
633.349;   19.379;  173.872;  121.231
633.622;  -50.996; -187.119; -240.785
633.895; -122.005; -903.120; -823.783
634.167;  -75.131; -496.126; -525.773
634.440;  -20.838;  -19.116; -137.792
634.713;  -15.591;  -22.119; -120.786
634.986;   77.318;  593.871;  453.233
635.258;  -71.881; -507.115; -597.793
635.531;   98.244;  742.882; -343.788
635.804;  -18.250; -303.117; -318.789
636.077;  -84.392; -830.116; -852.791
636.349;  -11.508; -586.115; -474.793
636.622;  375.092; 1695.874; 1392.228
636.894;  220.125; -474.120; -909.784
637.167;  143.736; -836.127; -789.771
637.439;   27.857; -278.128; -213.770
637.712;  -42.757; -312.126; -293.772
637.984;  -79.116; -635.116; -707.791
638.257;  363.018;  515.877;  488.222
638.529;  538.684; -881.125; -924.776
638.802;  231.724; -508.128; -449.769
639.074; -113.342; -927.122; -952.781
639.346; -124.980; -942.135; -930.757
639.619;    2.981;  -79.142; -319.744
639.891;   -3.624;  -83.122; -168.779
640.163;  -88.797; -689.122; -756.780
640.435;   39.255;  273.878;  103.220
640.708;   -0.668;  -72.122; -132.780
640.980;  -17.191; -366.122; -362.781
641.252;  186.886;  -25.121;  -71.781
641.524; 1742.862;  580.879;  573.219
641.796; 1771.964;-1094.121; -907.782
642.068;  311.391; -191.121; -300.782
642.340;  -69.932; -486.121; -566.783
642.613;   41.820;  294.880;  323.217
642.885;  -78.554; -787.120; -878.783
643.157;  -48.902; -810.120; -658.784
643.428;   63.925;  170.880;  218.216
643.700;  -79.473; -498.120; -425.784
643.972;  -37.446;  -16.119; -133.785
644.244;  -91.719; -474.119; -559.785
644.516;  -66.468; -250.119; -114.786
644.788;   53.659;  662.881;  548.214
645.060;  -22.264;  -12.119; -124.786
645.332;  -91.212; -525.118; -535.787
645.603;   20.040;  479.882;  342.213
645.875;  -67.008; -334.118; -369.787
646.147;  166.943; 1487.882; 1242.212
646.418;  -84.180; -931.117; -918.788
646.690;  133.072; -714.117; -715.789
646.962;   31.624; -413.117; -451.789
647.233;   -9.499;   15.883;   11.211
647.505; -105.448; -595.117; -475.790
647.776;   43.929;  328.884;  229.210
648.048;  -11.269; -248.116; -418.790
648.320;  -78.067; -752.116; -679.791
648.591; -159.315;-1055.116; -958.791
648.862;  -82.113; -505.116; -577.792
649.134;   19.513;  115.885;  198.208
649.405;  -38.210; -661.115; -618.792
649.677;  -49.283; -475.115; -598.793
649.948;    8.794; -181.115; -296.793
650.219;   -7.354;  -37.115; -147.793
650.491;  -79.803; -431.114; -520.794
650.762; -129.751; -705.114; -731.794
651.033;  -84.999; -437.114; -424.795
651.304;  -87.897; -743.114; -728.795
651.576;  -80.270; -680.114; -645.795
651.847;  -51.243; -250.113; -140.796
652.118;  -20.842;  -32.113; -189.796
652.389;  -95.565; -639.113; -722.796
652.660;  -34.413; -147.113;  -89.797
652.931; -127.711; -897.112; -871.797
653.202;  -82.609; -382.112; -541.798
653.473;  -73.257; -633.112; -533.798
653.744;  150.769; -595.112; -590.798
654.015;  135.896; -356.112; -303.799
654.286;  -69.702; -642.111; -663.799
654.557;  -54.475; -586.111; -521.799
654.828; -137.973;-1114.111;-1088.800
655.099;  -71.747; -404.111; -291.800
655.370;  -91.470; -427.111; -543.801
655.641; -114.343; -656.110; -714.801
655.911; -114.541; -618.110; -638.801
656.182;   51.636;  437.890;  387.198
656.453;   96.063;  830.890;  746.198
656.724;  -69.211; -466.110; -426.802
656.994;  -82.859; -553.109; -568.803
657.265; -121.257; -862.109; -873.803
657.536;  -87.780; -500.109; -377.804
657.806; -104.853; -561.109; -593.804
658.077; -134.501; -866.109; -950.804
658.347;  -94.400; -523.108; -598.805
658.618; -122.773; -646.108; -694.805
658.888;  -16.671;  -41.108;  112.195
659.159;  -82.194; -432.108; -548.806
659.429;  -19.942; -292.108; -349.806
659.700;    8.734; -435.107; -390.807
659.970;  -14.739; -370.107; -359.807
660.241;   19.863; -754.107; -921.807
660.511;  476.215; -147.107; -174.808
660.781;   73.242; -793.106; -748.808
661.052;  -48.281; -222.106; -381.808
661.322;  -15.730;   21.894;   -9.809
661.592;   10.347;  257.894;  148.191
661.862;  -82.576; -369.106; -382.810
662.133; -100.624; -551.105; -502.810
662.403; -116.722; -770.105; -676.810
662.673;  -64.095; -256.105; -213.811
662.943;  -93.569; -612.105; -551.811
663.213;   -8.692;  -85.105;  -81.811
663.483;  -73.990; -593.104; -568.812
663.753;  -49.263; -194.104; -152.812
664.023;   -3.911;   68.896;  -32.813
664.293;  -49.085; -319.104; -126.813
664.563; -101.283; -694.104; -648.813
664.833; -110.831; -743.103; -608.814
665.103; -118.804; -730.103; -793.814
665.373; -120.077; -766.103; -806.814
665.643;  -96.150; -863.103; -918.815
665.913;   28.251; -534.103; -714.815
666.182;  127.403; -685.102; -719.816
666.452;  260.980;  -22.102;  -89.816
666.722;  -26.018; -724.102; -784.816
666.992; -125.141; -948.102; -921.817
667.261; -103.039; -824.102; -808.817
667.531;  206.112;  134.899;   45.183
667.801;  545.614; -440.101; -412.818
668.070;  228.666;  714.899;  697.182
668.340; -100.457; -883.101; -840.819
668.609;   95.645;  588.900;  301.181
668.879;  -82.279; -490.100; -558.819
669.149;  -85.602; -539.100; -516.820
669.418; -105.175; -698.100; -726.820
669.688;  -38.273; -482.100; -666.820
669.957;   72.354; -423.099; -546.821
670.226;  -39.569; -268.099; -331.821
670.496;  -95.593; -431.099; -635.822
670.765;  -83.241; -418.099; -501.822
671.034; -137.589; -872.099; -828.822
671.304;   -7.062;   55.902; -111.823
671.573; -160.735;-1085.098; -957.823
671.842;   76.891; -380.098; -294.823
672.112;   10.868; -692.098; -586.824
672.381;  -13.330; -239.098; -214.824
672.650; -129.078;-1005.097;-1021.825
672.919;  -91.751; -631.097; -507.825
673.188;  -90.624; -681.097; -878.825
673.457; -160.023;-1101.097;-1143.826
673.726;  -77.646; -579.096; -646.826
673.995;  -59.444; -533.096; -479.826
674.265;  -30.067; -263.096; -333.827
674.534;    1.535; -183.096; -235.827
674.802;    0.262; -618.096; -703.828
675.071;  940.263; -886.095; -801.828
675.340; 3726.440; -464.095; -339.828
675.609; 1234.517;  103.905;   82.171
675.878;   61.169; -949.095; -893.829
676.147;   29.671;  -26.095;   -8.829
676.416;   79.197; -210.094; -294.830
676.685;  723.274; 1000.906; -622.830
676.953;  100.401; -603.094; -452.831
677.222;  -31.397; -193.094; -273.831
677.491;  -24.170;  -24.094; -127.831
677.759;  -13.393;   11.907;  172.168
678.028;  -31.992; -279.093; -222.832
678.297;    0.685;   71.907;  197.168
678.565; -140.888; -898.093; -944.833
678.834;  -66.736; -311.093; -268.833
679.102;  -67.609; -411.092; -391.834
679.371; -147.757; -898.092; -727.834
679.639; -136.656; -797.092; -786.834
679.908; -118.579; -794.092; -724.835
680.176; -155.702; -895.091; -941.835
680.445;  -71.375; -346.091; -352.835
680.713;  -23.598;  -58.091;  -23.836
680.982;  -91.872; -523.091; -525.836
681.250;  -95.595; -578.091; -507.837
681.518; -102.893; -534.090; -751.837
681.787;  -14.741; -204.090; -167.837
682.055;  -67.814; -490.090; -422.838
682.323; -156.662; -993.090; -992.838
682.591;   20.164; -216.090; -538.838
682.859;   95.091;    9.911;  -35.839
683.128;   14.418;  232.911;  497.161
683.396; -174.080;-1102.089;-1122.840
683.664;  -34.528; -241.089;   21.160
683.932;   -3.626;  144.911;  -76.840
684.200;  -71.925; -576.088; -320.841
684.468;  -29.923;  -73.088; -124.841
684.736;  -32.371; -214.088; -175.841
685.004; -117.669;-1024.088; -982.842
685.272;  -51.942; -880.088; -774.842
685.540;  -74.641; -499.087; -557.843
685.808;  -80.739; -651.087; -682.843
686.076; -107.462; -894.087; -969.843
686.343;  -50.685; -601.087; -815.844
686.611;   21.817; -195.087; -224.844
686.879;  445.869; -530.086; -553.844
687.147; 3204.520; -483.086; -480.845
687.414;  911.747;  -12.086; -169.845
687.682;   16.924; -658.086; -757.846
687.950;  295.226;  259.915;  263.154
688.217;    5.328; -792.085; -760.846
688.485;  -16.995; -632.085; -636.847
688.753;  505.256;  -11.085; -102.847
689.020;  145.633; -820.085; -851.847
689.288;  -98.640; -853.084; -787.848
689.555;  -43.363; -195.084; -148.848
689.823;  -50.136; -241.084; -345.849
690.090;  -87.735; -546.084; -651.849
690.358; -146.083; -877.084; -897.849
690.625;   10.519;  120.917;   45.150
690.892;  -83.479; -403.083; -369.850
691.160;    0.848;   72.917;  -35.850
691.427;    1.450;  141.917;  130.149
691.694; -134.699; -855.083; -929.851
691.962; -136.997;-1177.082;-1060.852
692.229;   12.230;  127.918;   56.148
692.496;   96.032;  130.918;  -49.852
692.763;    2.509; -164.082; -201.853
693.031;  -77.765; -739.082; -716.853
693.298;  -35.738; -509.081; -368.853
693.565;  298.639; -155.081; -163.854
693.832; 1216.091;   -5.081;   -9.854
694.099;  133.318; -643.081; -642.855
694.366;  -61.480; -882.081; -896.855
694.633;  -57.529; -920.080; -633.855
694.900;  732.148; 4367.920; -114.856
695.167;  410.700; -214.080; -380.856
695.434;   93.877; -646.080; -623.856
695.701;  192.379;  121.921;  -61.857
695.968;  454.456; -365.079; -361.857
696.234; 1010.332; -415.079; -646.858
696.501;10415.309; -776.079; -614.858
696.768; 5260.711; -554.079; -617.858
697.035;  310.588; -632.078; -667.859
697.302;   25.890; -448.078; -552.859
697.568;    9.891; -458.078; -497.859
697.835;  -33.882; -683.078; -624.860
698.102;  -16.505; -498.078; -407.860
698.368;   69.547;  384.923;  396.139
698.635;  -32.776;  -47.077; -424.861
698.901;  -20.024; -240.077; -348.861
699.168;   57.052; -534.077; -456.862
699.435;   65.704;  -72.077;  -13.862
699.701; -113.619; -868.076; -764.862
699.968;   14.983;  144.924; -441.863
700.234; -104.740; -783.076; -822.863
700.500;  -57.588; -448.076; -539.864
700.767;   -5.787;   -1.075;   26.136
701.033; -132.535;-1015.075; -963.864
701.299;  -58.708; -450.075; -483.865
701.566;   98.969;  950.925;  763.135
701.832;   22.996;  -31.075;  -76.865
702.098; -107.653;-1054.074;-1034.866
702.365;  -86.876;-1098.074;-1030.866
702.631;  -44.649;-1038.074;-1063.867
702.897; 1358.353; -765.074; -676.867
703.163; 2172.680;  348.926;  254.133
703.429;  148.482; -256.073; -273.868
703.695;  -31.117; -796.073; -792.868
703.961;   28.610; -214.073; -210.868
704.227;  -54.338; -630.073; -725.869
704.493;  115.564;  613.927;  510.131
704.759;  -26.759; -565.072; -540.870
705.025;   18.068; -203.072; -194.870
705.291;  -10.506; -666.072; -562.870
705.557;  192.821;  719.928;   34.129
705.823;   32.148; -742.072; -694.871
706.089;  140.425; -307.071; -326.871
706.355;  370.002; -315.071; -244.872
706.620; 5668.403; -776.071; -729.872
706.886; 7911.680; -309.071; -362.873
707.152;  720.307; -818.070; -973.873
707.418;  -15.616;-1153.070;-1186.873
707.683;    2.461; -550.070; -530.874
707.949;  -44.762; -547.070; -578.874
708.215;   -7.161; -129.070; -207.874
708.480;  -24.109; -520.069; -420.875
708.746;   82.943;   68.931;   28.125
709.011;  -74.555; -578.069; -612.876
709.277;  -76.078; -538.069; -543.876
709.542;  -62.877; -428.069; -387.876
709.808;    4.225;  -59.068;   89.123
710.073;  -82.473; -577.068; -695.877
710.339;  -30.271; -242.068; -228.877
710.604;   65.731; -780.068; -845.878
710.869;  330.358; -277.068; -366.878
711.135;  -76.516; -715.067; -628.879
711.400;  -82.614; -507.067; -608.879
711.665;  -65.662; -404.067; -479.879
711.931;  -96.060; -661.067; -677.880
712.196; -118.408; -876.067; -954.880
712.461;   93.019; -402.066; -490.880
712.726;  121.770; -727.066; -771.881
712.991;  -96.478; -647.066; -664.881
713.256;  -47.551; -350.066; -332.882
713.521;  -67.649; -417.065; -381.882
713.787;  -65.297; -454.065; -472.882
714.052;  -47.021; -214.065; -400.883
714.317;  -88.144;-1045.065; -981.883
714.581; 1041.633; -374.065; -268.883
714.846; 1423.235; -822.064; -888.884
715.111;  131.612;  261.936;  257.116
715.376;  -21.536;  -86.064; -223.885
715.641;  -24.635; -365.064; -367.885
715.906;  286.192;   15.936; -551.885
716.171;  137.244;  221.937;  209.114
716.436;   21.296;  -78.063; -104.886
716.700; -112.827; -818.063; -692.886
716.965; -132.300; -794.063; -807.887
717.230;  -86.599; -339.063; -392.887
717.494;  -38.922;  -40.062; -134.888
717.759;  -87.945; -784.062; -640.888
718.024;    9.557;  269.938;  250.112
718.288;   55.734;  685.938;  395.111
718.553; -138.465; -803.062; -977.889
718.817; -151.363; -883.061; -899.889
719.082;  -38.261; -115.061; -125.890
719.346; -135.209;-1000.061; -947.890
719.611;  -38.507; -300.061; -255.891
719.875;  -86.905; -568.060; -537.891
720.140;  -62.279; -453.060; -603.891
720.404;   34.498; -136.060; -249.892
720.668;  799.075; -475.060; -411.892
720.933;  315.227;  146.940;  137.108
721.197;  -95.046; -667.059; -600.893
721.461; -132.294; -851.059; -826.893
721.725;  -12.343;  -21.059; -250.894
721.990;  -50.891; -284.059; -204.894
722.254;  -24.589;  -26.059; -108.894
722.518;  -80.637; -286.058; -442.895
722.782;  -86.210; -743.058; -594.895
723.046;  108.891;  614.942;  570.105
723.310;   15.893;  374.942;  210.104
723.574; -105.855; -654.058; -614.896
723.838; -100.403; -576.057; -642.897
724.102;  -42.251; -226.057; -239.897
724.366; -139.224;-1032.057; -978.897
724.630; -106.723; -749.057; -571.898
724.894;  -81.596; -722.057; -514.898
725.158;  -17.744;   38.944; -295.898
725.422;  -49.642; -394.056; -327.899
725.685;  -60.540; -441.056; -349.899
725.949;  -76.913; -566.056; -519.900
726.213;  -70.837; -732.056; -811.900
726.477;  153.290;-1020.055; -933.900
726.740;  132.517; -274.055; -104.901
727.004;  341.369; -384.055; -510.901
727.268; 3329.596; -442.055; -400.901
727.531;  910.797; -961.055; -775.902
727.795;  -51.526; -713.054; -673.902
728.059;  -63.724; -552.054; -557.903
728.322;  -84.972; -841.054; -669.903
728.586;   15.555; -692.054; -701.903
728.849;  -88.743; -695.053; -756.904
729.112; -104.992; -812.053; -912.904
729.376; -123.565; -959.053; -905.904
729.639;  -89.913; -536.053; -536.905
729.903; -112.211; -733.053; -699.905
730.166;  -51.284; -437.052; -399.906
730.429;  -30.633; -317.052; -468.906
730.693;  -69.106; -355.052; -894.906
730.956;  203.321;  810.948;  651.093
731.219;  678.223; -310.052; -103.907
731.482;  109.400;-1003.051; -894.907
731.745;  101.327; -794.051; -935.908
732.009;   16.403;  -30.051;   50.092
732.272; -101.920; -904.051; -771.909
732.535;  -40.018; -300.051; -310.909
732.798; -156.791;-1083.050;-1166.909
733.061;  -57.589; -430.050; -456.910
733.324;    7.138;   31.950; -180.910
733.587;   63.464;  290.950;  365.090
733.850;  -74.409; -973.049;-1050.911
734.113;   50.143;   33.951;   32.089
734.376;   -2.555; -328.049; -447.912
734.639;  228.897; 1188.951; 1011.088
734.901;   51.748; -180.049; -402.912
735.164;  490.100; -883.048; -837.913
735.427; 1256.602; -166.048; -355.913
735.690;  115.404; -205.048; -234.913
735.952;  -36.094; -923.048; -925.914
736.215;  -22.742;-1113.048;-1009.914
736.478;   35.234; -771.047; -774.915
736.740;  206.586;   33.953;  129.085
737.003;  672.188; -658.047; -672.915
737.266; 3894.890;  -94.047;   46.084
737.528;  414.142; -682.047; -660.916
737.791;  324.519; -316.046; -327.916
738.053;  816.920;  465.954;  649.083
738.316;10951.197; -162.046; -136.917
738.578; 7562.449; -770.046; -736.918
738.841;  429.276; -382.046; -446.918
739.103;  182.003; -875.045; -777.918
739.365;  498.554;   79.955;  -69.919
739.628;   -5.619; -884.045; -805.919
739.890;  -36.042; -758.045; -710.919
740.152;  -49.365; -692.044; -754.920
740.414;   -2.188; -408.044; -359.920
740.677;  -49.736; -785.044; -634.921
740.939;  -52.785; -587.044; -487.921
741.201;  234.917; -432.044; -572.921
741.463;   30.019; -689.043; -745.922
741.725;   13.671;  -21.043; -199.922
741.987;   50.073;  220.957;  116.078
742.249;   -4.650; -751.043; -859.923
742.511;  207.851; -703.043; -794.923
742.773;    8.703; -546.042; -546.924
743.035;  127.630;  796.958;  533.076
743.297;  -47.218; -963.042;-1013.924
743.559;  697.709; -278.042; -262.925
743.821;   42.610; -735.042; -744.925
744.083;    2.887;  -44.041; -149.925
744.345;  -96.136; -869.041; -892.926
744.607;   29.741;   75.959;  122.074
744.868;  -43.357; -490.041; -554.927
745.130; -122.055; -994.041;-1008.927
745.392;   44.546;   -1.040;  -44.927
745.653;  -24.352; -411.040; -378.928
745.915;  158.925;  896.960;  631.072
746.177;   47.677;   35.960;  -43.928
746.438;   -7.746; -428.040; -543.929
746.700;  -42.269; -947.039; -988.929
746.961;   18.557; -659.039; -740.930
747.223;  143.259; -190.039;  -74.930
747.484;   78.361; -391.039; -471.930
747.746;  147.113;  -23.038; -106.931
748.007;  110.140; -647.038; -689.931
748.269;  299.241; -468.038; -440.931
748.530;  439.593; -852.038; -638.932
748.791;  264.645; -354.038; -420.932
749.053;  429.847;  286.963;  163.067
749.314;  450.324; -236.037; -169.933
749.575;  485.551; -945.037; -905.933
749.836;  851.127; -217.037;   86.066
750.098; 2414.679;  -60.037;  -21.934
750.359;36113.156;  414.964;  555.066
750.620; 9038.383; -121.036; -220.935
750.881; 1035.810; -585.036; -513.935
751.142; 1344.086; -950.036; -938.936
751.403;16699.738; -789.036; -705.936
751.664; 7247.765;-1034.035; -999.936
751.925;  501.067; -175.035; -262.937
752.186;  270.294; -298.035; -278.937
752.447;  124.546; -590.035; -445.937
752.708;   42.122; -532.035; -648.938
752.969;    7.449; -566.034; -576.938
753.230;  -10.724; -777.034; -672.939
753.491;    1.003; -650.034; -631.939
753.751;   59.830;  109.966;   19.061
754.012;   99.982;  258.967;  181.060
754.273;   50.633; -174.033;  -71.940
754.534;    4.410; -487.033; -580.940
754.794;  -87.488; -926.033; -911.941
755.055;  139.789; 1051.967;  881.059
755.316;  -41.234; -700.032; -566.942
755.576;  -24.508; -606.032; -576.942
755.837;  -38.131; -527.032; -695.942
756.097;  -47.629; -530.032; -564.943
756.358;  -79.777; -725.032; -770.943
756.618;  -54.250; -705.031; -641.943
756.879;    7.352; -254.031; -349.944
757.139; -117.572;-1098.031;-1116.944
757.400;  -55.020; -538.031; -553.945
757.660;  -15.143; -365.031; -401.945
757.920;    5.984; -266.030; -228.945
758.181;  -21.839; -468.030; -351.946
758.441;  -88.162; -870.030; -809.946
758.701;  -20.861; -308.030; -215.946
758.961;  -17.184; -220.030; -278.947
759.222;  -53.282; -574.029; -502.947
759.482;  -88.830; -683.029; -723.948
759.742;  -71.053; -706.029; -547.948
760.002;   10.623;  -83.029; -143.948
760.262;   17.575;   50.972;  182.051
760.522;  -47.523; -498.028; -574.949
760.782;  -60.496; -738.028; -612.949
761.042;  -35.644; -618.028; -573.950
761.302;   46.783;   55.972;  -18.950
761.562;   57.884; -164.027; -154.951
761.822;   79.061; -710.027; -551.951
762.082;  -25.662;-1104.027;-1093.951
762.342;   72.690; -328.027; -403.952
762.601;   78.392; -567.027; -506.952
762.861;  350.869; -281.026; -207.952
763.121;  408.795; -406.026; -411.953
763.381; 7526.472; -499.026; -485.953
763.640; 8135.774; -139.026; -307.954
763.900;  364.551; -242.026; -203.954
764.160;   87.003; -458.025; -491.954
764.419;  -19.721; -726.025; -782.955
764.679;  -68.969; -795.025; -726.955
764.939;    6.858; -124.025; -210.955
765.198;  -81.740; -608.025; -563.956
765.458;  -89.438; -710.024; -612.956
765.717;  -88.561; -454.024; -590.957
765.976;  -62.460; -428.024; -411.957
766.236;  -86.883; -475.024; -610.957
766.495;   26.769;  260.977;   73.042
766.755;  -94.829;-1090.023; -987.958
767.014;   -5.252; -594.023; -665.958
767.273;  -50.726; -373.023; -397.959
767.533;  -42.599; -228.023; -307.959
767.792;  -28.697; -151.022; -188.960
768.051;  -57.445; -228.022; -276.960
768.310;  -94.368; -546.022; -650.960
768.569;   -9.966; -161.022;    4.039
768.828;  -20.190; -285.022; -363.961
769.088; -114.563;-1050.021; -942.961
769.347;  -83.486; -755.021; -599.962
769.606; -103.984; -876.021; -857.962
769.865; -133.457;-1016.021;-1033.963
770.124;   -5.380; -411.021; -336.963
770.383;  -61.954; -778.020; -910.963
770.641;  -10.977; -398.020; -400.964
770.900;  -65.300; -953.020; -846.964
771.159;  -36.298; -851.020; -951.964
771.418;  -13.396; -917.020; -779.965
771.677;  123.855; -224.019; -293.965
771.936;  148.882; -794.019; -865.966
772.194; 2266.209; -465.019; -437.966
772.453;11151.961; -213.019; -391.966
772.712;  769.013;  416.982;  329.033
772.970;  133.690;   32.982;   63.033
773.229;   82.966;  -22.018;  102.033
773.488;  -90.057; -814.018; -770.968
773.746;   39.020;  296.982;  335.032
774.005;   -0.678;  190.983;  -22.969
774.263;   15.224;  243.983;  177.031
774.522;  -53.599; -422.017; -548.969
774.780;  -90.798; -484.017; -417.970
775.039;  -86.271; -551.017; -531.970
775.297;  -32.694; -135.016; -351.970
775.555; -102.992; -489.016; -612.971
775.814; -124.140; -618.016; -570.971
776.072; -141.914; -749.016; -740.971
776.330;  -94.412; -630.016; -520.972
776.589; -137.910; -703.015; -721.972
776.847; -138.583; -645.015; -624.973
777.105; -163.356;-1016.015;-1032.973
777.363;  -68.829; -459.015; -454.973
777.621; -133.653; -660.015; -717.974
777.879;  -26.576;  -42.014;   32.026
778.138;  -93.224; -554.014; -717.974
778.396; -101.847; -585.014; -526.975
778.654; -166.495;-1015.014; -970.975
778.912;  -60.918; -269.014; -371.976
779.170; -121.392; -880.013; -803.976
779.427; -157.740; -922.013; -897.976
779.685; -141.113; -880.013; -832.977
779.943;  -82.186; -654.013; -593.977
780.201; -154.134; -964.012; -883.978
780.459; -123.433; -651.012; -610.978
780.717;  -76.906; -440.012; -390.978
780.974; -103.254; -449.012; -490.979
781.232;  -73.802; -358.012; -338.979
781.490;  -96.675; -551.011; -472.979
781.747;  -92.923; -555.011; -476.980
782.005;   25.228;  462.989;  254.020
782.263; -179.070; -542.011;-1004.981
782.520;  -87.868; -326.011; -501.981
782.778; -169.591;-1013.010;-1051.981
783.035; -170.764; -962.010; -938.982
783.293;  -57.112; -248.010; -206.982
783.550;  -67.211; -134.010; -198.982
783.808; -131.234; -764.010; -776.983
784.065; -168.132; -745.009; -874.983
784.322;  -54.905;   25.991;  -86.984
784.580; -136.128; -915.009; -771.984
784.837;  -98.477; -392.009; -466.984
785.094; -128.475; -783.009; -762.985
785.352;  -67.023; -304.008; -404.985
785.609; -107.421; -934.008; -839.985
785.866;  -69.019; -345.008; -401.986
786.123;  -81.142; -639.008; -583.986
786.380;  -96.341; -665.008; -604.987
786.637;  -40.639; -225.007; -380.987
786.895;  -19.587; -456.007; -543.987
787.152;  -52.735; -135.007; -267.988
787.409;  -54.333; -123.007; -225.988
787.666;  -97.932; -299.006; -378.988
787.923; -116.905; -616.006; -695.989
788.179; -105.453; -551.006; -584.989
788.436; -119.576; -585.006; -585.990
788.693;  -36.849;  -92.006;  -87.990
788.950;  143.503; -125.005; -112.990
789.207;  226.029; -381.005; -372.991
789.464;  -59.469; -161.005; -301.991
789.720;  -24.117;  150.995;  110.009
789.977; -171.190;-1003.005; -671.992
790.234;  -32.138;   44.996;  -66.992
790.490; -148.386; -884.004;-1031.993
790.747;  -23.860;  -85.004;   22.007
791.004;  -35.183; -426.004; -348.993
791.260;  -76.531; -430.004; -560.994
791.517; -107.179; -843.003; -788.994
791.773;  -53.252; -379.003; -342.994
792.030; -126.601; -596.003; -660.995
792.286; -111.199; -686.003; -636.995
792.543;  -15.072;  -74.002; -159.995
792.799;  -50.220; -584.002; -382.996
793.055; -175.468;-1179.002;-1210.996
793.312;  -89.716; -827.002; -816.997
793.568;  -70.840; -746.002; -599.997
793.824;   17.012; -226.001; -284.997
794.081;   19.189; -447.001; -508.998
794.337;   70.891; -664.001; -561.998
794.593; 1342.793; -319.001; -271.999
794.849; 6525.795; -746.001; -772.999
795.105;  321.571; -270.000; -261.999
795.361;    4.773; -490.000; -457.000
795.617;  -81.025; -875.000; -945.000
795.873;  -73.125; -360.000; -407.000
796.129;  -40.525; -368.000; -306.000
796.385;  -14.325; -124.000; -156.000
796.641;   61.450;  412.000;  550.000
796.897;  -87.000; -666.000; -635.000
797.153;   63.675;  453.000;  357.000
797.409;  -99.675; -785.000; -868.000
797.665;  -87.325; -625.000; -732.000
797.921;  -76.275; -775.000; -762.000
798.176;  -71.125; -744.000; -747.000
798.432;  -49.175; -824.000; -596.000
798.688;  -87.875;-1174.000;-1078.000
798.943;   78.850; -165.000; -147.000
799.199;    6.475;-1005.000; -959.000
799.455;  224.925;  369.000;  316.000
799.710;  105.600; -813.000; -380.000
799.966;  304.625; -162.000; -160.000
800.221;  486.525; -638.000; -721.000
800.477;10580.250; -743.000; -710.000
800.732; 9254.875; -773.000; -800.000
800.988;  637.475;  205.000;  -19.000
801.243; 1858.825; -454.000; -344.000
801.498; 7996.100; -814.000; -739.000
801.754;  442.100; -289.000; -163.000
802.009;   78.100; -257.000; -335.000
802.264;  -52.825; -967.000;-1033.000
802.520;   18.725;  222.000;   -3.000
802.775;  -66.350; -524.000; -359.000
803.030;   52.925;  395.000;  356.000
803.285; -119.975; -840.000; -903.000
803.540;  -78.600; -686.000; -699.000
803.795;  -45.900; -648.000; -583.000
804.051;  -49.650; -279.000; -346.000
804.306;   16.900;  168.000;  128.000
804.561;  138.525;  451.000;  362.000
804.816;  132.100;  714.000;  861.000
805.071;   -2.150; -185.000; -280.000
805.325;  190.350; -257.000; -427.000
805.580; -109.900; -841.000; -877.000
805.835;  -12.650; -204.000; -297.000
806.090;  -78.950; -760.000; -676.000
806.345;  -18.200; -344.000; -264.000
806.600;  -28.450; -549.000; -632.000
806.854;  -25.775; -408.000; -538.000
807.109;  -10.725; -493.000; -577.000
807.364;  -11.075; -407.000; -328.000
807.618;    0.925; -415.000; -381.000
807.873;   63.025; -470.000; -494.000
808.128;   89.775; -257.000; -518.000
808.382;  106.950; -224.000; -332.000
808.637;   70.100; -440.000; -511.000
808.891;  180.500; -257.000; -180.000
809.146;  104.100; -902.000; -794.000
809.400;  261.775; -848.000; -923.000
809.654;  324.425; -779.000; -551.000
809.909;  485.100; -841.000; -927.000
810.163; 6575.575; -813.000; -651.000
810.418;16728.200; -940.000; -861.000
810.672; 1038.550; -685.000; -690.000
810.926;  711.625; -993.000; -973.000
811.180; 1410.600; -439.000; -372.000
811.434;32212.300;  240.000;  135.000
811.689;12747.250; -231.000; -365.000
811.943;  628.700; -936.000; -953.000
812.197;  336.950; -893.000; -671.000
812.451;  127.975; -379.000; -514.000
812.705;  -17.025; -809.000; -619.000
812.959;   -3.925; -263.000; -388.000
813.213;    6.750; -283.000; -209.000
813.467;   77.050;  470.000;  253.000
813.721;  -98.050; -764.000; -792.000
813.975; -109.325; -826.000; -877.000
814.229;   43.325;  430.000;  353.000
814.482;  -65.675; -517.000; -566.000
814.736; -121.050; -766.000; -744.000
814.990; -123.875; -779.000; -872.000
815.244;  -42.725; -228.000; -285.000
815.497;  -88.400; -636.000; -601.000
815.751;  -12.350; -141.000;   82.000
816.005;  -79.525; -470.000; -586.000
816.258;  -65.950; -510.000; -363.000
816.512; -100.400; -693.000; -610.000
816.766;    9.350;  121.000;  157.000
817.019;    8.400;  148.000;  149.000
817.273; -114.225;-1000.000; -802.000
817.526;  -14.300; -206.000; -173.000
817.779;  -49.600;-1049.000; -960.000
818.033;  -79.225; -693.000; -807.000
818.286; -127.375; -725.000; -792.000
818.540;  -78.475; -403.000; -403.000
818.793;  -86.375; -402.000; -489.000
819.046; -106.475; -582.000; -520.000
819.299;  -42.475; -157.000; -166.000
819.553; -121.975; -552.000; -592.000
819.806; -151.175;-1016.000; -838.000
820.059;  -64.525; -334.000; -354.000
820.312;   -2.675;  152.000;  185.000
820.565;  -25.650;  110.000;  -27.000
820.818;  -57.350;  -59.000; -173.000
821.071; -165.950;-1041.000; -957.000
821.324; -113.175; -536.000; -540.000
821.577; -102.600; -457.000; -483.000
821.830;  -73.550; -270.000; -172.000
822.083; -123.000; -733.000; -288.000
822.336;  -57.075; -261.000; -167.000
822.589; -133.650; -805.000; -688.000
822.842; -154.825; -875.000; -770.000
823.094; -169.850;-1076.000;-1114.000
823.347; -136.000; -925.000; -729.000
823.600;   15.600;  402.000;  187.000
823.853;  -63.025; -311.000; -267.000
824.105;  -66.425; -331.000; -575.000
824.358; -103.000; -617.000; -716.000
824.611;   29.700;  234.000;   40.000
824.863;  -53.200; -612.000; -591.000
825.116;   50.000;  -33.000;   27.000
825.368;   58.800; -366.000; -372.000
825.621;  162.850; -186.000; -240.000
825.873;   79.650; -704.000; -737.000
826.126;  580.425; -669.000; -641.000
826.378;11624.125; -389.000; -505.000
826.630; 2793.575; -890.000; -898.000
826.883;   51.075; -754.000; -693.000
827.135;   36.400; -279.000; -270.000
827.387; -103.750; -893.000; -839.000
827.639;  -25.225;  -86.000;   32.000
827.892; -132.725; -742.000; -582.000
828.144; -146.250; -848.000; -804.000
828.396;  -48.475;  104.000;  -80.000
828.648; -109.425; -440.000; -333.000
828.900; -145.500; -702.000; -795.000
829.152; -123.925; -684.000; -683.000
829.404;  -65.425; -215.000; -267.000
829.656;  -52.525;  321.000;  214.000
829.908;  -25.550;  393.000;  229.000
830.160; -164.475;-1064.000;-1047.000
830.412;  -99.475; -481.000; -430.000
830.664; -124.450; -557.000; -665.000
830.916;  -77.300; -268.000; -206.000
831.167; -180.750;-1073.000; -951.000
831.419; -112.700; -623.000; -566.000
831.671; -157.375; -764.000; -809.000
831.923;  -87.425; -311.000; -447.000
832.174;  -76.975; -273.000; -331.000
832.426; -122.700; -493.000; -582.000
832.678; -174.475;-1043.000;-1091.000
832.929; -163.425; -947.000; -935.000
833.181;  -64.000; -575.000; -677.000
833.432;  -61.225;  -59.000; -186.000
833.684;  -30.200;  112.000;  -27.000
833.935; -123.100; -610.000; -566.000
834.187; -148.250; -829.000; -823.000
834.438;  -44.900;  -58.000;  -25.000
834.689;  -58.200; -255.000; -123.000
834.941;  -57.450; -343.000; -244.000
835.192;  -91.025; -590.000; -533.000
835.443; -105.025; -419.000; -506.000
835.695;  -24.050;  138.000;  -16.000
835.946;  -92.000; -608.000; -378.000
836.197; -113.800; -599.000; -622.000
836.448;  -96.875; -528.000; -395.000
836.699;  -68.475; -253.000; -341.000
836.950;   -5.250;   72.000;    7.000
837.201; -161.675;-1003.000; -987.000
837.452;  -43.125; -356.000; -170.000
837.703; -119.425; -791.000; -737.000
837.954;  -27.375; -205.000; -365.000
838.205;  -82.200;-1029.000;-1008.000
838.456;  157.050; -196.000; -282.000
838.707;   15.900; -423.000; -519.000
838.958;   10.550; -634.000; -647.000
839.209;  275.975;   18.000;   40.000
839.460;  110.700; -439.000; -201.000
839.710;  168.875; -135.000; -297.000
839.961;  413.100;  730.000;  612.000
840.212;  332.100; -382.000; -497.000
840.462; 1101.150; -328.000; -277.000
840.713;18015.725; -571.000; -536.000
840.964; 7129.075;  -62.000; -143.000
841.214;  488.300; -384.000; -624.000
841.465;  559.375; -214.000; -141.000
841.715;  488.325; -417.000; -380.000
841.966;  632.725; -746.000; -685.000
842.216; 8924.225; -330.000; -431.000
842.466;33565.050; -169.000; -313.000
842.717; 1810.200; -964.000; -952.000
842.967;  314.350; -635.000; -641.000
843.217;  253.225;   20.000;   28.000
843.468;   50.650; -104.000; -132.000
843.718;  -39.825; -718.000; -726.000
843.968;  -99.125; -837.000; -765.000
844.218;   12.325; -315.000; -262.000
844.469;  -61.400; -577.000; -561.000
844.719; -113.875; -537.000; -682.000
844.969; -103.050; -550.000; -580.000
845.219; -141.175; -814.000; -862.000
845.469; -104.425; -392.000; -342.000
845.719; -149.300; -792.000; -884.000
845.969;  -19.175;  119.000;  174.000
846.219; -125.525; -738.000; -720.000
846.469;   32.975;  464.000;  432.000
846.718;  -60.550; -115.000;   31.000
846.968; -141.200; -827.000; -827.000
847.218;  -47.950; -224.000; -371.000
847.468;   -6.525; -586.000; -555.000
847.718; -149.700; -827.000; -798.000
847.967; -143.475; -826.000; -915.000
848.217;  -78.775; -449.000; -569.000
848.467;  -62.225; -405.000; -376.000
848.716; -119.325; -708.000; -725.000
848.966;   -4.600; -372.000; -358.000
849.215;  -62.825; -428.000; -419.000
849.465;  -83.650; -785.000; -615.000
849.714; -154.125;-1132.000;-1150.000
849.964;  -63.275; -551.000; -613.000
850.213;   -6.050; -393.000; -355.000
850.463;   65.475;  137.000;  340.000
850.712;   -6.725; -542.000; -567.000
850.961;    9.150; -739.000; -678.000
851.211;  100.000; -513.000; -504.000
851.460;  155.000; -635.000; -650.000
851.709;  564.950;  -25.000;   18.000
851.958;10382.525; -912.000; -750.000
852.208;12629.375; -859.000; -879.000
852.457;  468.975; -181.000;  -13.000
852.706;   57.275; -791.000; -823.000
852.955;    7.675; -507.000; -528.000
853.204;  -55.450; -521.000; -461.000
853.453;  -71.925; -418.000; -458.000
853.702; -140.600; -660.000; -750.000
853.951; -126.225; -532.000; -520.000
854.200; -113.450; -613.000; -562.000
854.449; -126.325; -695.000; -661.000
854.698; -108.400; -340.000; -279.000
854.946;  -71.325; -181.000; -284.000
855.195; -135.475; -843.000; -868.000
855.444;  -92.650; -395.000; -420.000
855.693; -122.200; -345.000; -432.000
855.941;  -96.450; -387.000; -516.000
856.190;  -69.300; -256.000; -382.000
856.439; -138.250; -652.000; -703.000
856.687;  -63.525;  -99.000;  -72.000
856.936; -117.175; -621.000; -323.000
857.184; -193.100;-1067.000;-1020.000
857.433; -108.825; -423.000; -512.000
857.681; -172.325; -989.000; -953.000
857.930;  -75.725; -282.000; -433.000
858.178; -167.050; -856.000; -929.000
858.427; -154.200; -802.000; -781.000
858.675; -124.075; -377.000; -544.000
858.923; -108.200; -527.000; -819.000
859.172; -190.225;-1094.000;-1070.000
859.420;  -85.375; -339.000; -239.000
859.668; -137.625; -624.000; -628.000
859.916;  -30.175;  109.000;  115.000
860.164; -117.725; -699.000; -603.000
860.413;  260.775; -878.000; -696.000
860.661;  189.200; -709.000; -577.000
860.909;  -90.750; -339.000; -325.000
861.157;  -79.375; -277.000; -444.000
861.405; -133.025; -534.000; -670.000
861.653;    7.400;  310.000;  310.000
861.901;  165.900; -543.000; -613.000
862.149;  -20.075; -801.000; -824.000
862.396;  -76.075; -297.000; -187.000
862.644;  -99.750; -368.000; -347.000
862.892;  -34.500;   98.000;  138.000
863.140; -121.650; -549.000; -530.000
863.388; -170.325; -815.000; -759.000
863.635; -136.475; -642.000; -601.000
863.883;  -22.125;  231.000;  190.000
864.131; -114.050; -288.000; -357.000
864.378; -134.900; -675.000; -540.000
864.626; -103.575; -347.000; -415.000
864.873; -129.000; -556.000; -505.000
865.121; -149.275; -714.000; -799.000
865.368;  -49.050; -173.000;   75.000
865.616;  -52.700;  -33.000;  -40.000
865.863;  -86.400; -462.000; -506.000
866.111; -104.675; -795.000; -824.000
866.358;   35.725; -426.000; -420.000
866.605; 2391.100;  -64.000; -804.000
866.853; 2387.775; -621.000; -537.000
867.100;  -36.950; -728.000; -775.000
867.347; -108.825; -672.000; -611.000
867.594;  -89.150; -740.000; -714.000
867.841;   89.975;   97.000;   17.000
868.089; -162.250; -746.000; -698.000
868.336; -106.425; -477.000; -420.000
868.583; -145.025; -637.000; -741.000
868.830;  -53.025; -131.000; -170.000
869.077; -179.675; -859.000; -787.000
869.324; -123.025; -502.000; -458.000
869.571; -129.675; -398.000; -430.000
869.818; -120.475; -485.000; -439.000
870.065; -103.050; -439.000; -513.000
870.311; -122.150; -456.000; -542.000
870.558; -111.575; -332.000; -311.000
870.805;  -87.325; -320.000; -384.000
871.052; -120.350; -494.000; -369.000
871.298;  -47.775; -204.000; -131.000
871.545;  -77.975; -151.000; -185.000
871.792;  -89.675; -173.000; -222.000
872.038;  -79.700;   43.000; -126.000
872.285; -132.550; -496.000; -387.000
872.532;  -97.875; -357.000; -387.000
872.778;    1.325;  556.000;  403.000
873.025;  -99.625; -384.000; -359.000
873.271;    5.175;  501.000;  578.000
873.517;  -28.275; -133.000; -209.000
873.764;  -45.325; -193.000;  -80.000
874.010;  -68.850; -143.000; -230.000
874.257;  -66.675;  123.000;   90.000
874.503; -130.000; -579.000; -479.000
874.749;  -77.650;   31.000;  275.000
874.995;  -81.050;  -80.000;  -20.000
875.242; -123.150; -540.000; -478.000
875.488; -109.325; -414.000; -439.000
875.734;  -55.225; -106.000; -234.000
875.980;  167.550; -872.000;-1032.000
876.226;  344.275; -157.000; -255.000
876.472;   -4.100;  343.000;  237.000
876.718;  -52.550;  184.000;  158.000
876.964;  -48.000;   56.000;   55.000
877.210; -157.725; -547.000; -677.000
877.456; -138.775; -630.000; -557.000
877.702; -185.125; -821.000; -832.000
877.948; -113.600; -377.000; -497.000
878.193;  -35.175;  361.000;  255.000
878.439;  -95.225; -487.000; -472.000
878.685; -109.450; -272.000; -343.000
878.931; -144.500; -618.000; -676.000
879.176;  -84.750; -201.000; -201.000
879.422; -175.925; -933.000; -820.000
879.668;   37.350;   10.000;   79.000
879.913;  134.475;   53.000;  137.000
880.159;  -63.800; -112.000;  -17.000
880.404;  -70.525; -152.000; -162.000
880.650;  -46.800;   91.000;  141.000
880.895; -158.475; -670.000; -710.000
881.141; -119.925; -454.000; -428.000
881.386; -158.800; -503.000; -658.000
881.631;  -92.300; -311.000; -166.000
881.877;  -37.575;  112.000;  -13.000
882.122; -142.100; -684.000; -600.000
882.367;  -88.775; -136.000; -186.000
882.612;  -84.625;  -80.000; -176.000
882.858; -181.925; -877.000; -823.000
883.103; -114.025; -297.000; -267.000
883.348; -164.125; -759.000; -852.000
883.593; -148.050; -677.000; -602.000
883.838;  -68.850; -311.000;  -24.000
884.083;   21.200;  353.000;  288.000
884.328;  -95.525; -564.000; -545.000
884.573;  -67.325; -196.000; -143.000
884.818;  183.525; -694.000; -531.000
885.063;  157.600; -348.000; -315.000
885.308;  -87.375; -475.000; -398.000
885.553;  -23.325;  245.000;  325.000
885.797; -136.725; -545.000; -615.000
886.042;  -60.575;    8.000;   58.000
886.287;  -97.925; -253.000; -211.000
886.532;  -59.050;   26.000;  204.000
886.776; -102.350; -407.000; -525.000
887.021; -147.425; -621.000; -574.000
887.265; -150.700; -685.000; -689.000
887.510; -126.850; -557.000; -496.000
887.755; -104.175; -194.000; -164.000
887.999; -142.500; -552.000; -575.000
888.244;  -75.825;  -58.000;  161.000
888.488;   -8.750;  371.000;  393.000
888.732; -133.900; -368.000; -520.000
888.977; -129.275; -622.000; -567.000
889.221; -149.925; -683.000; -659.000
889.465; -139.525; -422.000; -566.000
889.710;  -89.075;  -56.000; -299.000
889.954;    6.925;  579.000;  467.000
890.198; -152.575; -584.000; -707.000
890.442; -151.775; -716.000; -712.000
890.687; -162.700; -800.000; -753.000
890.931; -101.850; -273.000; -210.000
891.175; -136.675; -502.000; -500.000
891.419;  -97.050; -105.000; -110.000
891.663;  -88.100; -239.000; -112.000
891.907; -163.775; -801.000; -545.000
892.151; -178.625; -920.000; -815.000
892.395; -118.300; -274.000; -387.000
892.638;  -16.700;  408.000;  291.000
892.882; -176.850; -780.000; -867.000
893.126;   18.500;  758.000;  558.000
893.370;  -98.950; -167.000; -168.000
893.614; -143.575; -714.000; -715.000
893.857; -101.925; -183.000; -197.000
894.101; -143.800; -527.000; -631.000
894.345;  -62.300;  300.000;  150.000
894.588;   14.625;  569.000;  380.000
894.832;  -93.425; -178.000;  -84.000
895.075;  -81.950;   15.000;  -92.000
895.319; -135.150; -552.000; -420.000
895.563; -123.400; -413.000; -353.000
895.806; -153.400; -628.000; -741.000
896.049;  -75.025; -576.000; -368.000
896.293;   83.925;  527.000;  405.000
896.536;  -82.600; -465.000; -468.000
896.779;  -56.900; -149.000;   -1.000
897.023; -144.000; -751.000; -714.000
897.266;  -45.300;  325.000;  269.000
897.509; -186.475; -900.000; -901.000
897.752;  -52.600;  149.000;  171.000
897.996; -199.975; -972.000; -864.000
898.239;  -56.025;  168.000;  102.000
898.482; -134.750; -431.000; -453.000
898.725;  -39.700;  101.000;   53.000
898.968; -162.825; -609.000; -744.000
899.211; -121.025; -513.000; -361.000
899.454; -137.200; -633.000; -539.000
899.697;  -81.275;   90.000;  -43.000
899.940; -169.300; -761.000; -757.000
900.182; -112.375; -335.000; -405.000
900.425; -101.450; -150.000; -298.000
900.668;  -34.925;  491.000;  350.000
900.911;  -93.675; -292.000; -345.000
901.154;  -53.050;  141.000;   -3.000
901.396; -146.525; -407.000; -412.000
901.639; -152.525; -430.000; -496.000
901.882; -190.500; -790.000; -809.000
902.124;  -88.175;  -29.000; -143.000
902.367; -115.475; -315.000; -361.000
902.609; -143.800; -476.000; -453.000
902.852;  -89.625; -108.000; -260.000
903.094; -125.050; -458.000; -337.000
903.337;  -57.525;  -26.000;   53.000
903.579; -112.950; -228.000; -441.000
903.821; -153.250; -597.000; -744.000
904.064;  -70.325;   85.000;  127.000
904.306;  -89.050; -126.000; -166.000
904.548; -105.825; -152.000; -366.000
904.790; -100.450; -195.000; -340.000
905.033; -149.400; -625.000; -577.000
905.275; -141.725; -513.000; -524.000
905.517;   44.475;  468.000;  256.000
905.759;  -78.375; -667.000; -761.000
906.001; -100.975; -322.000; -369.000
906.243;  -69.250; -162.000; -224.000
906.485;  102.300; -265.000; -207.000
906.727;   92.500; -499.000; -542.000
906.969;  -41.350;  -30.000; -135.000
907.211;  101.150; -316.000; -382.000
907.453;  234.100; -188.000; -237.000
907.695;    5.950; -158.000; -385.000
907.936;   39.750;  818.000;  706.000
908.178;  -61.450;   92.000; -135.000
908.420;  -73.325; -111.000; -162.000
908.662; -140.675; -633.000; -682.000
908.903;  -94.975; -208.000; -123.000
909.145;  -69.700; -240.000; -305.000
909.386;   -7.850;  315.000;  280.000
909.628;   28.500;  363.000;  397.000
909.870;  -16.325;   29.000;  264.000
910.111;  -99.525; -809.000; -949.000
910.353;   19.950; -123.000; -161.000
910.594;   -3.250; -574.000; -606.000
910.835;   68.775; -265.000; -326.000
911.077;  146.025; -503.000; -604.000
911.318;  294.550; -505.000; -471.000
911.559;  455.025; -577.000; -880.000
911.801; 1360.375; -284.000; -280.000
912.042;10550.125;  -50.000; -159.000
912.283;26985.650;  404.000;  371.000
912.524; 4021.300; -396.000; -457.000
912.765;  468.550; -193.000;   79.000
913.006;  233.400; -307.000; -338.000
913.247;   35.400; -270.000; -290.000
913.488;   -1.100;  -43.000;   30.000
913.729; -105.425; -373.000; -373.000
913.970;  -59.375;  -96.000; -292.000
914.211;  -81.875; -160.000; -198.000
914.452;  -67.225; -118.000;  -11.000
914.693;    9.725;  510.000;  592.000
914.934;   -0.275;  510.000;  440.000
915.175;  -64.825;   53.000;  -95.000
915.415;  -71.425; -137.000;   27.000
915.656;  -66.250;  -28.000;  192.000
915.897; -101.525; -252.000;  -82.000
916.137;  -84.550;   74.000;   -9.000
916.378; -135.125; -573.000; -517.000
916.619;  -81.700; -159.000;  -63.000
916.859;  -26.150;  303.000;  330.000
917.100;  132.550; 1655.000; 1070.000
917.340;   39.675;  930.000;  728.000
917.581;   45.675;  965.000;  789.000
917.821;  -37.925; -171.000;  143.000
918.061;    5.725; -199.000;  -72.000
918.302;  -55.600; -152.000; -211.000
918.542;  -38.750;  -22.000;    3.000
918.782;   32.200;  369.000;  377.000
919.023;  120.525;  360.000;  427.000
919.263; 1344.325; 8131.000;  202.000
919.503; 1059.675; -137.000;  -54.000
919.743;  602.500;  390.000;  266.000
919.983;  240.400; -134.000;  -26.000
920.223;   79.450;  135.000;   14.000
920.463;  134.600;  631.000;  554.000
920.703;  139.050;   84.000;   39.000
920.943;  151.725; -110.000;   90.000
921.183;  220.500; -414.000; -405.000
921.423;  504.575;  307.000;  546.000
921.663;  724.425; -174.000; -257.000
921.903; 1605.275;  237.000;  173.000
922.143; 8840.850;  372.000;  389.000
922.383;34019.725;  158.000;  115.000
922.622;11264.425; -120.000;  -15.000
922.862; 1219.675;  796.000;  785.000
923.102;  461.825;  -51.000;   33.000
923.341;  166.450;   59.000;   74.000
923.581;   97.325;  450.000;  360.000
923.821;    7.725;  301.000;  398.000
924.060;   12.675;  351.000;  193.000
924.300;  -57.575;  -16.000; -128.000
924.539;  -18.525;  584.000;  473.000
924.779;   -1.875;  812.000;  597.000
925.018;  -48.725;  247.000;  353.000
925.257;   -5.575;  595.000;  666.000
925.497;  -42.875;  447.000;  412.000
925.736;  -81.300;  -35.000;  102.000
925.975;    5.600;  687.000;  669.000
926.214;   22.375;  907.000;  850.000
926.454;   20.700;  706.000;  757.000
926.693;  -46.725;  419.000;  543.000
926.932;   49.500; 1021.000;  825.000
927.171;   87.325; 1107.000; 1044.000
927.410;   54.975; 1144.000;  967.000
927.649;   19.400;  924.000;  742.000
927.888;   -7.600;  590.000;  564.000
928.127;   -9.225;  680.000;  678.000
928.366;   27.400;  842.000;  826.000
928.605;   49.025;  831.000;  737.000
928.844;  240.000; 1451.000; 1393.000
929.083;  590.700;  770.000;  613.000
929.321;  318.225; 1335.000; 1359.000
929.560;   92.900; 1158.000; 1122.000
929.799;  -24.350;  574.000;  475.000
930.038;   82.750; 1025.000; 1394.000
930.276;  -55.350;  334.000;  397.000
930.515;   -7.300;  827.000;  681.000
930.753;  -14.100;  614.000;  589.000
930.992;  -23.075;  664.000;  717.000
931.230;    1.175;  847.000;  847.000
931.469;  174.750; 2162.000;  892.000
931.707;   81.750;  840.000;  751.000
931.946;   61.725; 1278.000; 1344.000
932.184;   63.175; 1437.000; 1175.000
932.423;   42.325; 1265.000;  963.000
932.661;   83.400; 1296.000; 1428.000
932.899;   21.400;  987.000;  821.000
933.137;  -10.525;  754.000;  564.000
933.376;  152.950; 1664.000; 1335.000
933.614;  155.800; 1759.000; 1196.000
933.852;   58.125; 1357.000; 1171.000
934.090;  138.575; 1722.000; 1747.000
934.328;  102.850; 1252.000; 1457.000
934.566;   84.150; 1431.000; 1110.000
934.804;  131.100; 1263.000; 1309.000
935.042;  474.700; 1861.000; 1850.000
935.280; 1874.825; 2088.000; 2063.000
935.518; 1728.150; 2113.000; 2007.000
935.756;  361.850; 2481.000; 2316.000
935.994;  153.850; 1808.000; 1751.000
936.231;  346.625; 2890.000; 2950.000
936.469;  171.125; 2367.000; 2378.000
936.707;  151.650; 2220.000; 2167.000
936.945;  231.025; 2825.000; 2882.000
937.182;  205.600; 2679.000; 2741.000
937.420;  314.475; 3602.000; 3031.000
937.657;  408.225; 3365.000; 3478.000
937.895;  354.775; 3331.000; 3488.000
938.133;  322.125; 3540.000; 3528.000
938.370;  336.050; 3896.000; 4191.000
938.607;  417.950; 4488.000; 4205.000
938.845;  558.600; 5587.000; 5549.000
939.082;  482.800; 5387.000; 5177.000
939.320;  546.775; 5799.000; 5728.000
939.557;  637.550; 6549.000; 6491.000
939.794;  733.575; 7285.000; 7097.000
940.031;  907.275; 8421.000; 8368.000
940.269; 1106.350; 9552.000; 9107.000
940.506; 1112.875;10901.000;10507.000

