
Integration time [ms]: 100.000
Averaging Nr. [scans]: 40
Smoothing Nr. [pixels]: 0
Data measured with spectrometer [name]: 2101013U2
Wave   ;Sample   ;Dark     ;Reference
[nm]   ;[counts] ;[counts] ;[counts] 

394.013;   75.698; -450.257; -315.536
394.305;  276.495; -461.258; -419.536
394.596; 1062.095; -676.269; -527.514
394.887; 2422.786; -796.268; -654.518
395.178;  939.816;  145.736;   11.476
395.470;  105.002; -210.263; -356.526
395.761;  246.926;  305.734;  394.479
396.052;  471.047; -545.284; -306.489
396.343;  461.366; -557.276; -454.503
396.634;  159.685; -200.279; -290.497
396.926;  179.183; -618.268; -565.517
397.217;  170.245;   11.725;  -17.504
397.508;   68.186; -366.273; -154.507
397.799;   82.035; -555.279; -571.497
398.090;   11.830; -973.280; -902.495
398.381;  162.399;   11.708;  -11.473
398.672;   19.000; -585.292; -742.473
398.963;   73.716; -348.279; -373.498
399.254;  133.834;   54.709; -209.475
399.545;   -1.228;-1017.266; -883.520
399.836;   81.530; -407.277; -343.501
400.127;   64.901; -205.295; -209.468
400.418;   86.805; -423.274; -392.506
400.709;  103.242; -359.281; -333.493
401.000;   68.763; -268.291; -309.476
401.290;  105.514;  225.698;  115.545
401.581;   59.731; -166.286; -228.485
401.872;   41.774; -542.298; -486.462
402.163;   76.694; -313.296; -252.467
402.454;  114.935; -123.291; -163.475
402.744;  105.735; -844.297; -813.465
403.035;  599.641; -226.293;  -86.471
403.326;  765.753; -366.292; -384.474
403.617;  463.393;  204.701;  165.539
403.907;  255.028; -593.283; -679.490
404.198; 2207.994; -545.307; -599.446
404.489; 5882.958; -618.283; -588.491
404.779; 2110.817; -618.302; -660.456
405.070;  241.372;  -67.304; -174.451
405.360;  336.143; -259.293; -238.472
405.651;  357.803;  125.699;   98.542
405.942;  213.526;  209.714;  127.516
406.232;  392.965; -432.285; -413.487
406.523;  627.711;  641.706;  758.530
406.813;  154.053; -579.286; -644.484
407.104;  448.273;  261.708;  144.527
407.394;  280.219; -604.299; -591.462
407.685;  172.689;  336.715;  222.513
407.975;   76.856; -400.283; -382.490
408.265;  136.024; -134.289; -190.478
408.556;   88.282; -472.291; -459.475
408.846;  173.161;  474.706;  429.530
409.137;   93.532;   -1.288; -216.480
409.427;   44.415; -193.285; -271.487
409.717;   41.939; -776.273; -692.508
410.007;  157.159;    4.715; -170.486
410.298;  110.929; -360.295; -342.469
410.588;   70.062; -495.285; -510.486
410.878;   44.168; -792.287; -873.482
411.168;  136.876; -481.298; -478.463
411.459;  117.576; -295.283; -242.489
411.749;   60.755; -609.292; -507.474
412.039;   69.105; -755.289; -386.480
412.329;  235.298;   40.722;  132.501
412.619;  204.954;  -62.286; -148.485
412.909;  409.552;  639.711;  594.521
413.199;  400.980; -130.280; -251.495
413.490;  462.417;  521.710;  352.523
413.780;  162.909;-1013.279; -913.496
414.070;  352.242;  -46.276;  235.497
414.360;  444.569; -729.278; -666.498
414.650;  435.739; -726.288; -688.482
414.940;  523.258; -538.280; -441.496
415.230;  926.811;   50.712;   74.519
415.520; 5763.594;  155.730;   66.486
415.809;22579.042; -305.281; -125.493
416.099;17227.932; -388.277; -229.501
416.389; 4687.578;  435.726;  236.494
416.679; 2723.355;   91.738;   85.473
416.969;  493.597; -527.287; -503.483
417.259;  459.685;  341.721;  171.503
417.549;  684.390;  522.718;  318.508
417.838; 1528.911; -205.268; -147.518
418.128; 5020.873;  650.710;  492.522
418.418; 4119.620; -491.272; -579.509
418.708; 2844.453;    9.726;  -48.506
418.997;10467.549; -474.275; -480.505
419.287;10812.835; -733.273; -790.507
419.577;10062.375; -160.283; -123.489
419.866;33759.755; -588.277; -498.501
420.156;35132.265; -242.270;  -55.513
420.446; 6438.798; -112.263;  -26.526
420.735;  984.134; -376.271; -446.512
421.025;  854.144; 1830.722;  315.502
421.314;  870.132; -203.271; -226.512
421.604; 2045.353;   89.732;  233.484
421.893; 1176.929; -705.271; -602.511
422.183;  243.623; -487.263; -461.526
422.472;  418.755;  -36.271; -107.511
422.762;  518.228; -416.266; -379.521
423.051;  288.842; -916.276; -916.503
423.341;  345.187; -491.273; -439.507
423.630;  456.884; -121.265;   15.477
423.919;  411.523;   58.725;   49.495
424.209;  387.254;  -31.263;   56.473
424.498;  497.308;   68.732;  161.483
424.787; 1067.714; -535.267; -601.518
425.077; 3317.907;   34.735;   29.478
425.366; 5191.209; -734.262; -744.528
425.655; 9385.312;  639.727;  259.493
425.945;18310.735; -313.247; -268.554
426.234;10164.631;  117.741;  300.467
426.523; 4766.336;  -86.259; -350.534
426.812; 6499.999;  107.734;  159.480
427.101; 9438.625; -127.269; -323.515
427.390;12330.119;  -55.270;  -86.514
427.680; 3326.005; -624.257; -411.538
427.969;  560.191; -330.255; -301.540
428.258;  349.072; -385.257; -477.536
428.547;  616.574;  449.728;  397.490
428.836; 1618.857; -421.253; -398.543
429.125; 2401.963; -199.259;  -72.534
429.414;  931.129; -330.251; -294.548
429.703; 2912.229; -231.251; -213.548
429.992; 8578.157; -938.250; -828.549
430.281; 5605.641; -397.264; -331.524
430.570;  626.670;  -21.252;   32.454
430.859;  714.711;  279.741;  352.466
431.148;  491.256;  636.752;  631.446
431.437;  312.044;  391.748;  367.454
431.725;  153.399; -544.257; -481.536
432.014;  131.514; -845.253; -756.545
432.303;  429.530; -149.239; -105.569
432.592;  720.823; -460.263; -178.525
432.881; 1025.832; -601.248; -437.554
433.169; 5523.667; -343.255;  -61.540
433.458;11277.913;  445.765;  540.424
433.747; 4862.164; -397.261; -289.529
434.036; 1051.056; -275.242; -280.564
434.324; 2037.395; -395.249; -379.551
434.613; 3440.025;   40.757;  159.437
434.902; 1239.520;  333.760;  439.433
435.190;  853.554;   75.761;  295.431
435.479;  475.932;  -52.245;   83.441
435.767;  160.090; -411.244; -427.561
436.056;  273.552; -340.242; -294.563
436.345;  396.522; -372.240; -223.568
436.633;  411.265;   60.750;  383.450
436.922;  356.150;  208.760;  414.432
437.210;  940.028; -194.236;    1.426
437.499; 3069.761; -583.235; -432.576
437.787; 3368.778; -339.236;  -10.574
438.075;  787.984;   56.761;  162.430
438.364; 1069.237;  -44.238;  250.429
438.652;  663.539; -286.226; -138.592
438.941;  178.529;    3.770;  269.415
439.229;   38.667; -665.252; -466.545
439.517;   69.394; -160.234;  -85.577
439.806;   16.129; -501.225; -290.595
440.094;  224.577;  377.766;  650.421
440.382;  294.530; -653.233; -302.580
440.670;  299.861; -361.235; -285.576
440.959;   50.246; -347.223; -170.599
441.247;   92.265; -151.229; -109.587
441.535;  148.017; -266.235;   31.423
441.823;   65.999; -497.234; -305.578
442.111;  225.244;  173.771;  327.412
442.400;  746.306; -628.245; -335.559
442.688; 2108.801; -111.234; -620.579
442.976; 1569.382; -786.213; -450.617
443.264;  150.311; -324.224; -364.597
443.552;  138.615; -258.226;   51.408
443.840;  185.766;  602.765;  876.423
444.128;  124.629;  265.767;  269.420
444.416;   26.221; -694.228; -312.588
444.704;   39.750; -465.219;  -92.605
444.992;   96.693;   -0.226;  240.407
445.280;   74.179; -517.230;  -94.585
445.568;   90.785; -694.212; -396.618
445.856;  474.559; -174.221;  357.398
446.143; 1139.521;  -54.220;   -7.604
446.431;  884.575;  -25.228;  625.411
446.719;  281.719;  489.783;  675.391
447.007;  202.524;  481.769;  705.416
447.295;  178.868;  597.777;  871.402
447.583;  118.212; -464.229;  -34.587
447.870;  206.256; -434.221; -202.601
448.158;  560.253; -104.230;  129.415
448.446;  426.497; -800.219; -338.604
448.733;  206.637;   13.776;  269.403
449.021;  292.235;   60.788;  341.382
449.309;  216.974; -296.210;  208.379
449.596;  234.165;  128.783;   59.392
449.884;  181.575; -571.222; -325.600
450.172;  133.980; -756.227; -406.590
450.459;  401.290;  645.786;  780.387
450.747; 2072.564; -411.218; -147.608
451.034; 6650.276;  493.772;  889.411
451.322; 5459.818; -413.214; -170.614
451.609;  470.688;  292.777;  508.403
451.897;  517.986; -550.203; -183.634
452.184; 1611.443; -622.223; -400.598
452.472; 1565.070;   97.792;  269.375
452.759;  362.873;  512.781;  864.395
453.047;  158.557; -407.212; -125.617
453.334;  119.806; -732.219; -216.606
453.621;  123.121; -438.214; -161.615
453.909;  153.778;   13.796;  384.368
454.196;  126.647; -299.199; -123.641
454.483;  232.349;  317.798;  540.364
454.771;  157.823; -215.208;  196.374
455.058;   46.801; -316.207;  102.374
455.345;  112.426;   71.807;  344.347
455.632;   83.555; -128.207;  235.373
455.919;   51.794;  -82.196;  182.354
456.207;  -49.748; -774.198; -450.642
456.494;  -14.215; -475.200;  -66.639
456.781;   23.294; -399.202; -198.635
457.068;   63.036; -253.206;  -29.628
457.355;   14.012; -698.206; -401.629
457.642;   -5.183; -552.205; -290.630
457.929;    3.492; -778.194; -417.651
458.216;   65.733; -575.212; -354.617
458.503;  209.972; -173.193;  -19.652
458.790;  201.621; -864.208; -630.625
459.077;  279.274;  -77.202;  110.364
459.364;  733.660; -350.195; -210.649
459.651; 1538.784;  -46.206;  220.372
459.938;  707.562; -864.209; -665.623
460.225;  180.352;  132.799;  276.363
460.512;  -37.058; -836.197; -688.645
460.799;  122.837;  -32.218;  320.392
461.086;   91.315; -370.200; -251.640
461.372;   80.102; -509.198; -279.642
461.659;  154.620; -165.196;  108.354
461.946;   74.796; -445.193;  -54.651
462.233;  272.237;  842.800;  888.361
462.519;  354.684; -814.201; -464.639
462.806;  940.492; -768.197; -497.645
463.093;  791.991; -445.191;  -66.656
463.380;  -21.444; -920.186; -824.664
463.666;   68.519; -259.197;  -18.646
463.953;  101.030; -406.195; -243.648
464.239;  184.505; -173.195;  -77.648
464.526;  431.816;  413.806;  743.350
464.813;  417.452; -565.190; -304.658
465.099;  391.197;  606.807;  607.348
465.386;  404.175;  903.807;  921.348
465.672;   75.967; -694.197; -522.645
465.959;   36.069; -598.188; -520.662
466.245;   34.850; -468.193; -359.652
466.532;  127.653; -109.195;   63.352
466.818;  108.231; -357.186; -216.664
467.104;   14.970; -488.182; -415.672
467.391;  -15.621; -628.189; -459.658
467.677;   38.209; -289.186;    9.335
467.964;   31.785; -682.189; -471.660
468.250;   87.712; -331.186; -160.665
468.536;   87.280;   90.811;  180.341
468.822;  -29.702; -821.184; -574.668
469.109;  161.399;  351.827;  471.311
469.395;  190.410;  729.808;  787.346
469.681;  209.183;   46.811;  156.341
469.967; 1135.338; -699.188; -382.660
470.254; 2454.020; -494.188; -306.662
470.540; 1529.119; -601.196; -476.646
470.826;  215.981; -488.181; -397.675
471.112;  268.877;  288.816;  113.331
471.398;   97.056; -253.183;  -58.670
471.684;   60.908; -626.177; -447.680
471.970;   11.984; -918.180; -981.675
472.256;   26.709; -521.192; -441.654
472.542;   25.009; -499.171; -434.691
472.828;   39.741; -743.182; -607.672
473.114;   34.927; -380.166; -283.700
473.400;   25.299; -504.175; -293.684
473.686;   49.858; -452.166; -400.701
473.972;   57.214; -230.174; -131.687
474.258;  -60.551; -925.173; -843.689
474.544;  161.700; -183.178;   -2.679
474.830;  241.601;  -65.175;   45.316
475.116;  398.979; -123.190; -196.658
475.401;  555.387; -558.180; -467.676
475.687;  175.836; -725.180; -718.676
475.973;   13.024; -673.181; -770.673
476.259;  251.253;  736.825;  764.315
476.544;  335.516; -539.176; -437.682
476.830;  713.305; -398.172; -322.690
477.116;  594.165; -430.177; -336.682
477.401;  112.461;  346.820;  358.324
477.687;  -10.625; -289.175; -405.684
477.973;   30.527;   21.819;   28.326
478.258;   -7.172; -448.163; -348.706
478.544;   71.167;   21.815;   61.334
478.829;  -35.560; -818.171; -738.692
479.115;  -36.970; -749.172; -651.690
479.401;   -7.341; -444.174; -449.686
479.686;   23.910; -253.180;  -74.676
479.972;  -25.645; -886.178; -776.680
480.257;   45.453; -258.166;  -65.700
480.542;    3.968; -614.170; -469.693
480.828;  232.773; 1288.824; 1392.317
481.113;  -25.604; -464.176; -426.683
481.399;  -18.824; -236.161; -202.711
481.684;  -41.822; -620.166; -462.700
481.969;   27.039; -158.159;  -73.713
482.255;   -6.571; -439.169; -285.695
482.540;    0.381; -569.178; -441.680
482.825;   -4.099; -395.187; -404.663
483.110;   76.882;  -85.169; -105.696
483.396;  137.885; -840.157; -652.718
483.681;  426.664;  543.826;  730.313
483.966;  119.833; -696.160; -700.712
484.251;    3.538; -404.174; -310.687
484.536;    4.263; -356.165; -378.703
484.822;   21.866; -205.173; -218.687
485.107;  -33.278; -599.152; -502.726
485.392;  128.144;  662.836;  541.296
485.677;   89.267;  354.832;  163.302
485.962;  118.833;  160.843;  270.283
486.247;   91.985;  -14.162;   -8.707
486.532;   41.529; -178.166; -325.701
486.817;  166.145;  381.839;  431.291
487.102;  122.906; -453.154; -514.722
487.387;  572.137; -637.156; -652.718
487.672;  963.199; -154.164;  -38.705
487.957;  624.352; -394.160; -286.711
488.241;  173.889; -290.150; -314.729
488.526;  611.424; -280.152; -148.726
488.811; 1012.657; -881.177; -818.680
489.096;  762.383; -666.154; -702.723
489.381;  442.970;    3.847;  162.275
489.666;  308.551; -428.161; -510.710
489.950;  165.961;  558.846;  627.277
490.235;  -11.866; -480.151; -458.728
490.520;  -40.150; -756.161; -723.710
490.804;  -62.411; -827.156; -736.719
491.089;   -1.896; -469.149; -299.732
491.374;   39.497; -132.164;  -75.704
491.658;    5.790; -817.147; -717.735
491.943;  219.653; -657.152; -609.727
492.227;  306.752; -178.155;  -38.721
492.512;   69.632; -294.157; -341.717
492.797;  -55.252; -713.149; -716.731
493.081;  -47.457; -588.147; -598.735
493.366;  -30.799; -751.161; -635.711
493.650;  202.420;  831.859;  917.254
493.935;   18.589; -648.147; -447.734
494.219;  -43.818; -778.142; -687.743
494.503;  -45.357; -585.150; -487.730
494.788;   29.874;   46.842;   74.285
495.072;   88.940;  184.850;  434.271
495.356;  162.657; -463.148; -343.733
495.641;  487.424; -812.146; -736.736
495.925;  477.619; -976.156; -903.719
496.209;   60.628; -599.149; -451.732
496.494;  -53.917; -763.142; -544.744
496.778;   11.906; -364.154; -360.722
497.062;  -63.882; -819.156; -627.719
497.346;  -43.196; -869.160; -640.711
497.631;  132.610;  580.852;  560.266
497.915;   75.759;  -64.145;  175.261
498.199;   70.985; -341.157; -277.718
498.483;   63.897; -562.152; -508.725
498.767;  164.491;  301.850;  300.271
499.051;  163.326; -126.149; -100.732
499.335;   28.349; -693.149; -739.731
499.619;  -40.132; -381.129; -423.767
499.903;   48.575; -272.155;  -65.721
500.187;   38.763; -588.153; -316.724
500.471;   27.327; -796.152; -595.727
500.755;  126.200;   62.839;  -96.710
501.039;   30.251; -270.155; -357.721
501.323;  118.346;  -21.141;  264.254
501.607;   70.353; -447.163; -503.706
501.891;   -6.213; -607.156; -512.718
502.174;  -26.155; -726.144; -585.741
502.458;   80.906;   89.849;  370.273
502.742;   34.595; -180.138; -191.751
503.026;   87.689; -412.147; -254.734
503.310;  133.988; -437.159; -375.713
503.593;   94.591; -464.147; -325.735
503.877;  134.459; -232.133; -156.760
504.161;  190.465;    2.847;  -50.724
504.444;  142.301; -841.158; -710.716
504.728;  382.796; -487.164; -522.704
505.012;  594.738; -257.150;  -76.729
505.295;  488.976; -417.161; -212.711
505.579;  445.943; -256.156; -496.719
505.862;  631.231; -555.145; -333.738
506.146;  601.690; -681.159; -758.714
506.429;  359.966;  568.841;  461.286
506.713;   62.610; -732.151; -667.728
506.996;  293.830;   90.846;  295.278
507.280;  293.142; -633.165; -474.703
507.563;  220.724; -469.155; -261.721
507.847;   83.214; -423.153; -112.724
508.130;   74.352; -665.161; -456.711
508.413;   91.899; -758.167; -577.700
508.697;  189.349; -151.167;   12.300
508.980;  101.090; -422.153; -312.724
509.263;    1.620; -466.155; -450.720
509.547;   27.463; -124.150;   82.271
509.830;   47.079; -172.160;  140.289
510.113;   89.118;  128.844;  298.281
510.396;   38.545; -530.152; -300.725
510.680;  265.507; -818.145; -812.738
510.963;  976.960;  184.846;  180.277
511.246;  885.270; -493.150; -357.730
511.529;  291.187; -482.145;  -83.739
511.812;  320.030; -250.134;   10.241
512.095;  198.832; -740.151; -396.728
512.378;   79.595; -317.147; -245.736
512.661;   17.602; -703.137; -623.753
512.944;   17.059; -750.142; -637.744
513.227;   62.499; -170.137; -171.752
513.510;   20.745; -479.144; -671.741
513.793;   45.675; -485.140; -435.747
514.076;  140.038;  -43.127;  -39.771
514.359;  106.279; -294.149; -135.732
514.642;   75.612; -442.142; -567.744
514.925;  637.024;  581.860;  561.253
515.208;  818.227; -498.134; -443.758
515.491;  546.865; -276.133; -182.761
515.773;  292.199; -410.143; -337.742
516.056; 1763.808;  249.864;  409.246
516.339; 2494.537; -754.136; -652.755
516.622; 2091.743; -518.150; -488.730
516.904; 1728.031;  882.857;  975.257
517.187;  841.823; -730.138; -523.752
517.470;  444.230; -568.143; -510.743
517.752;  374.840; -624.136; -470.756
518.035;  278.511; -708.139; -725.749
518.318;  319.487; -799.136; -744.755
518.600; 1967.294; -300.132; -325.762
518.883; 2715.111;  310.858;   88.256
519.165; 1344.966; -585.138; -426.751
519.448;  418.368;  -61.132;  -19.762
519.730;  234.471; -573.126; -415.773
520.013;  367.537;  588.867;  664.240
520.295; 1208.757;  -94.134;  -15.759
520.578; 2755.581; -335.131; -305.764
520.860; 2974.819; -254.132;   56.238
521.143; 1490.017; -763.135; -584.756
521.425;  489.758; -251.125; -279.775
521.707;  606.514; -622.127; -380.771
521.990; 1543.164; -199.127;  167.229
522.272; 1714.077; -116.140;   -4.748
522.554;  899.575; -237.143; -157.742
522.836;  461.230;  -24.134;   99.241
523.119;  276.963; -496.148; -189.734
523.401;  165.713; -448.130; -314.766
523.683;   81.802; -865.137; -693.753
523.965;  251.796;  408.862;  260.248
524.247;  232.404;   54.878;  170.220
524.529;  175.282; -451.134; -367.759
524.812;  327.615;   -3.130;  191.234
525.094;  721.120; -773.138; -631.751
525.376; 1131.542; -143.124;   78.223
525.658;  685.584; -441.136; -339.754
525.940;    4.403; -805.131; -671.764
526.222;   55.588; -188.136;  -88.755
526.504;  151.376; -190.131;   32.237
526.786;  317.384; -960.133; -647.760
527.068;  448.972; -124.123;  -67.778
527.349;  219.281; -865.137; -774.754
527.631;  135.043; -137.132;   22.238
527.913;  108.738; -664.127; -450.771
528.195;  116.101; -761.125; -639.774
528.477;  206.927;  -93.134;  -30.758
528.759;  107.840; -648.130; -522.766
529.040;   42.496; -569.123; -293.778
529.322;   42.179; -235.125;  -10.774
529.604;  180.442;  -47.130;   93.233
529.886;  185.920; -546.126; -302.773
530.167;  156.209;  232.870;  192.235
530.449;   60.669;    1.853;   63.265
530.731;    8.228; -572.122; -459.779
531.012;   44.523; -513.120; -216.784
531.294;   53.886; -118.116;  -43.792
531.575;  121.458;  290.875;  538.225
531.857;   32.447; -548.135; -266.757
532.138;   80.520; -113.141;   40.254
532.420;  208.518;  294.865;  403.244
532.701;  307.412; -722.133; -751.760
532.983;  426.240;  232.867;  182.239
533.264;  164.493; -243.126;  175.228
533.546;  -24.937; -491.136; -508.755
533.827;   62.308;  173.867;   -1.759
534.109;   67.072; -352.135;  -80.757
534.390;  117.997; -725.132; -582.762
534.671;  254.718; -270.135;  -82.756
534.953;  147.474; -751.123; -611.779
535.234;   25.297; -426.117; -255.789
535.515;  -89.294; -891.119; -735.785
535.796;  -32.016; -431.128; -193.770
536.078; -116.058;-1050.124; -904.777
536.359;   15.150;  -22.123;    3.221
536.640;   -6.197; -480.125; -197.774
536.921;  141.097;  225.871;  143.232
537.202;  347.742;  -87.138;  -16.751
537.483;  400.356;  251.869;  377.236
537.764;  137.784;   17.870;   98.235
538.045;  -48.224; -543.134; -371.758
538.326;  -40.601; -596.129; -447.768
538.607;   11.740; -686.127; -476.771
538.888;  149.315;   98.879;    5.218
539.169;  163.684; -704.122; -535.781
539.450;  315.196;  236.871;   16.233
539.731;  222.718; -361.121; -182.783
540.012;  120.498;  199.880;  412.216
540.293;   98.862;   82.876;  158.224
540.574;   30.882; -895.113; -717.796
540.855;  460.367;  435.879;  377.218
541.136;  534.057;   47.878;  139.220
541.416;  268.040; -161.130; -220.766
541.697;  155.976; -274.131; -170.763
541.978;  857.420; -270.135; -315.757
542.259; 1103.664; -211.127; -236.771
542.539;  561.455; -191.116; -186.790
542.820;  172.333;  461.875;  480.225
543.101;  145.534;  -52.145;  -77.738
543.381;   46.039; -638.127; -591.771
543.662;  250.437;  159.873; -254.771
543.942;  483.060; -751.127; -830.770
544.223;  884.233;  193.878;  161.219
544.504;  576.017; -275.124; -182.777
544.784;  496.170; -592.126; -408.773
545.065; 1407.384;  104.884; -254.791
545.345; 1694.632;  227.881;   14.215
545.626; 1081.606;  -14.113; -108.796
545.906;  746.058;   77.869;   98.235
546.186;  290.525;   92.874;  -95.773
546.467;  155.994;   99.877;  -95.778
546.747;  272.255;  264.884;  327.210
547.027;  315.640;   91.876;  111.223
547.308;  276.134; -376.127; -530.770
547.588;  351.474;  299.871;  371.232
547.868;  177.034;  458.870;  588.235
548.149;  188.116;  609.885;  593.207
548.429;  102.913; -347.127; -299.771
548.709;  145.448; -645.120; -461.784
548.989;  404.966;   84.882;   88.213
549.269; 1749.917;   10.868;  139.239
549.550; 4030.073;  215.877;  117.222
549.830; 3610.598; -758.111; -556.799
550.110;  707.981; -468.110; -320.801
550.390;  696.728; -128.122;  -56.779
550.670;  949.477; -868.114; -783.795
550.950;  669.942; -509.121; -471.782
551.230;  155.213;  549.879;  460.218
551.510;  -19.485; -381.121; -326.782
551.790;   15.988; -173.109; -127.803
552.070;  228.319;  940.877; 1181.223
552.350;  325.685; -492.119; -377.786
552.630;  466.911;   -2.121;   77.219
552.909;  248.735;  181.884;   73.209
553.189;  205.298;  -49.132;   33.237
553.469;  159.860; -703.119; -514.786
553.749;  143.066; -469.127; -357.772
554.029;  132.701;   33.883;  -24.790
554.308;  129.070; -154.115;  -37.794
554.588;   42.133; -196.128; -204.770
554.868;   36.267; -366.121;  -47.782
555.147;  107.543; -114.115;  -46.793
555.427;  476.287; -260.116; -250.792
555.707; 3175.366; -284.115; -200.793
555.986; 3868.102; -719.111; -538.800
556.266; 2041.079;   23.884;   72.210
556.546;   67.441; -888.121; -675.782
556.825;  206.525; -657.114; -556.794
557.105; 1495.981; -125.128;   17.230
557.384; 1747.583;  122.884;  187.209
557.664;  633.236; -717.116; -508.792
557.943;   74.617; -557.121; -411.782
558.222;  127.944; -345.118; -344.788
558.502;  225.019; -116.115;  -76.793
558.781;  427.065;  194.885;  499.208
559.061;  331.694; -232.118; -227.788
559.340;  227.048;  302.883;  353.211
559.619;  559.129;   93.884;  148.210
559.899;  809.300; -239.117; -266.789
560.178;  750.443; -778.115; -593.793
560.457; 2582.002; -623.117; -562.790
560.736; 3593.478; -472.111; -482.800
561.015; 2365.429; -500.128; -502.769
561.295;  324.408;  180.893;  215.193
561.574;  315.791;  119.885;  116.207
561.853;  446.967;  274.891;  303.197
562.132;  416.921;  -45.114;  182.206
562.411;  370.761;  396.879;  553.219
562.690;   84.664; -592.115; -458.792
562.969;  112.838;  472.888;  630.203
563.248;  481.284; 2966.878; 2487.219
563.527;  210.352; -290.111; -408.800
563.806;  302.663; -650.127; -521.771
564.085;  341.072; -297.105; -206.810
564.364;  189.503; -594.117; -405.790
564.643;  399.537; -276.121; -223.781
564.922; 1522.036;  221.890;  397.198
565.201; 1534.265; -640.109; -700.803
565.479;  655.888; -297.115; -219.792
565.758;  252.131; -810.128; -712.770
566.037;  385.491; -155.109; -100.803
566.316;  206.534; -286.116;  -28.791
566.595;   34.366;  -17.115;  -12.793
566.873;   80.729; -166.111;  -79.801
567.152;  -63.638; -490.113; -590.797
567.431;   -5.070; -113.116;    6.210
567.709;   -2.492; -344.107; -212.807
567.988;  199.849; -810.114; -769.794
568.266;  439.366; -160.115;  -68.793
568.545;  312.768; -644.100; -514.819
568.824;  454.587;  160.885;  356.208
569.102;  419.424; -351.114; -235.794
569.381;  163.412; -492.116; -407.792
569.659;  -61.716; -553.113; -553.796
569.938;   22.532; -743.122; -465.780
570.216;   81.269; -225.109; -225.804
570.494;  -41.098; -632.114; -572.795
570.773;   24.990;  202.879;  114.218
571.051;  -13.378; -373.123; -357.778
571.330;   39.731; -221.113; -174.796
571.608;   35.785; -181.098; -173.823
571.886;  -70.104; -671.111; -581.799
572.164;  -77.183; -739.121; -621.782
572.443;  -60.799; -562.105; -512.811
572.721;  -43.898; -399.117; -289.790
572.999;  -35.604; -280.117; -168.788
573.277;   84.420;  379.894;  620.191
573.555;  231.572;   94.894;   37.190
573.834; 1067.820;  -86.117; -114.788
574.112; 1292.185;  880.893;  811.193
574.390;  381.903; -143.111;  -96.801
574.668;  -21.812;  -91.112;  -61.797
574.946;  -27.578; -165.106; -187.810
575.224;   -1.635;   71.891;  -16.803
575.502;  -20.843; -200.116; -204.791
575.780;  -86.036; -767.112; -829.798
576.058;  152.202; 1589.889; 1004.200
576.336;  -22.442; -210.110; -129.801
576.614;  -61.410; -511.112; -340.798
576.891;   17.220; -711.115; -823.794
577.169;  404.426; -158.108; -285.805
577.447;  476.709;  169.893;  202.193
577.725;  224.069;  629.888;  854.201
578.003;   12.267;  -71.112; -371.798
578.280;   89.085; -208.104; -242.812
578.558;   63.394; -450.115; -422.793
578.836;  116.052; -210.114; -145.795
579.114;   48.638; -630.112; -670.797
579.391;   74.297;   -6.117;  -18.789
579.669;  -63.254; -595.114; -704.794
579.947;  133.531; -326.107; -127.806
580.224;  259.156; -692.107; -524.806
580.502;  269.135;  127.893;   76.193
580.779;   27.628;  -42.117;   75.210
581.057;  -76.331; -584.109; -470.804
581.334;  -97.026; -726.102; -695.815
581.612;   44.173;   54.895;  511.190
581.889;  -30.563;  -83.101; -129.818
582.167;  -36.874; -298.099; -190.821
582.444; -104.768; -845.102; -814.817
582.721;   98.032;  657.899;  715.183
582.999;   14.498; -326.100; -167.821
583.276;  405.026; -812.123; -713.779
583.553;  568.902; -364.102; -294.816
583.831;  163.456; -607.104; -631.812
584.108;   53.649;  349.892;  174.195
584.385;    0.399; -122.102;  -98.815
584.662;  -74.996; -651.111; -828.801
584.940;   29.829;  204.889;  204.199
585.217;  -16.142;  -73.113; -303.796
585.494;   41.462;   71.890;  118.198
585.771;  156.020; -250.109; -354.804
586.048;  426.758; -196.113;  -76.796
586.325;  255.332; -721.110; -773.801
586.602;   81.960;  230.896;  213.188
586.879;  -18.780; -499.100; -580.820
587.156;   28.098; -156.105; -331.810
587.433;  -53.620; -701.102; -667.817
587.710;   63.415;  152.888;  234.202
587.987;  232.353; -264.105; -236.811
588.264;  697.242;  315.888;  387.202
588.541; 1177.587;  -61.104;   26.187
588.818; 2345.347;   72.892;  171.196
589.095; 2010.383; -163.104; -174.812
589.371;  325.318; -459.109; -414.804
589.648;    2.210; -581.107; -437.807
589.925;   24.603; -517.114; -621.795
590.202;   -3.110; -741.112; -607.798
590.478;   56.930; -166.105;  -73.811
590.755;  210.078; -241.108; -132.806
591.032; 1986.984; -741.110; -699.802
591.308; 2781.299; -732.094; -790.831
591.585; 1436.433; -573.110; -560.802
591.862;   85.956;-1056.102; -950.817
592.138;   38.850; -475.108; -474.805
592.415;  101.136; -486.104; -495.813
592.691; 1236.434;  460.896;  518.188
592.968; 1622.912; -208.098; -123.824
593.244;  752.055; -695.116; -595.790
593.521;   53.532; -105.102;  -42.817
593.797;  -33.020; -810.122; -720.780
594.074;  264.275; -611.096; -588.826
594.350;  565.110;  828.905;  729.172
594.626;  248.505; -303.111; -283.801
594.903;   73.832; -643.101; -645.817
595.179;  160.639;  243.896;  418.187
595.455;   -2.714; -136.107; -150.807
595.731;    8.766;  -19.103;  -38.814
596.008;  -47.576; -464.111; -434.800
596.284;    7.647; -187.100; -242.820
596.560;   42.781; -501.093; -493.833
596.836;  159.375; -173.105;  -70.810
597.112;  285.976; -582.108; -437.805
597.388;  231.097;  -49.097;  -48.826
597.665;   89.986;  437.887;  530.203
597.941;  -55.066; -572.089; -658.839
598.217;    0.912; -323.110; -293.802
598.493;  208.871;   61.891; -204.804
598.769;  416.367; -175.100;  -50.819
599.045;  229.854; -490.108; -562.806
599.321;   30.646; -193.100; -261.820
599.597;   92.696; -355.109; -476.804
599.872;  406.762;  409.896;  429.187
600.148;  292.624;  -61.097; -172.826
600.424;  235.984;   91.893;  202.193
600.700;  199.011; -170.107; -280.807
600.976;   89.343; -442.097; -464.825
601.252;  203.117; -226.109; -272.803
601.527;  150.188; -833.104; -840.813
601.803;  104.356; -453.105; -404.812
602.079;  143.217; -124.100; -118.819
602.354;  448.365; -620.092; -531.835
602.630;  681.033; -140.113; -482.796
602.906; 1902.337; -910.101; -863.818
603.181; 5594.610; -627.119; -534.786
603.457; 4715.022;   98.903; -278.826
603.733;  665.869; -605.120; -626.783
604.008;  792.897; -245.106; -164.810
604.284; 2587.983; -636.101; -580.817
604.559; 2237.194;   -3.112;  -42.799
604.835;  392.850; -163.105; -225.810
605.110;  326.276; -732.099; -892.821
605.385;  581.683;  224.907;  267.167
605.661;  513.388; -625.095; -729.829
605.936;  937.179; -664.108; -737.806
606.211;  809.422;  -17.103; -170.815
606.487;  146.323; -329.114; -376.794
606.762;   -8.990; -791.119; -745.786
607.037;  -37.800; -501.105; -433.810
607.313;  -70.118; -589.096; -574.828
607.588;  -21.078; -375.106; -137.810
607.863;   18.212;  -28.101; -143.818
608.138;  159.811;  513.890;  516.198
608.413;   -6.520; -576.099; -592.822
608.688;   19.401; -203.108; -267.805
608.964;  139.116; -509.106; -218.809
609.239;  179.498; -107.105; -212.810
609.514;  204.555;  281.895;  240.188
609.789;  528.535; -187.104; -716.812
610.064;  735.805; -435.096; -609.827
610.339;  689.493; -855.109; -799.804
610.614;  944.297; -131.100; -315.820
610.889;  537.731;  215.895;  107.188
611.163;   17.781; -407.104; -591.812
611.438;   65.974;   81.886; -167.794
611.713;   -0.767; -467.101; -499.817
611.988;   15.336; -144.101; -328.818
612.263;  -40.751; -771.102; -717.815
612.538;  162.608;  385.887;  251.204
612.812;  103.223; -832.100; -911.820
613.087;   97.435; -358.098; -338.823
613.362;  -61.864; -497.107; -557.807
613.637;   26.594;  261.897;  138.186
613.911;  -25.009; -256.092; -345.835
614.186;   81.109; -249.107; -292.807
614.460;  515.257; -842.081; -758.854
614.735;  631.282;  -55.087;  -17.843
615.010;  135.372;   43.912;  -82.841
615.284;  208.975;  360.892;  246.195
615.559;  288.590; -792.092; -955.835
615.833;  240.328;  -76.099;  -87.822
616.108;  -19.849; -225.090; -390.837
616.382;  114.458;  274.913;  402.156
616.656;  108.752; -241.090; -232.837
616.931;  409.379; -785.099; -700.822
617.205;  888.114; -973.104; -979.813
617.480;  800.056;  -91.125;    6.225
617.754;  128.204; -396.125; -128.774
618.028;   -5.000; -369.129; -382.768
618.302;   45.249;   73.892;  -25.805
618.577;  -51.980; -371.103; -518.815
618.851;  -63.611; -399.109; -600.803
619.125;  -46.768; -335.134; -378.759
619.399;  -44.761; -244.104; -374.813
619.673;  -57.812; -330.115; -515.792
619.947;  -57.223; -333.114; -448.795
620.222;  -29.645; -198.110; -204.801
620.496;  -10.508;  -47.121;  -96.782
620.770;    2.984; -187.122;  -93.781
621.044;  196.098;  323.895;  346.190
621.318;  608.095; -653.120; -614.783
621.592;  531.068; -430.121; -409.783
621.866;  264.520; -476.112; -572.799
622.140;   11.531; -207.116; -356.791
622.413;   40.049;  138.889;  112.200
622.687;  -64.166; -746.101; -492.817
622.961;   -2.401; -130.108; -143.805
623.235;  -68.250; -633.111; -661.800
623.509; -114.320; -816.105; -848.811
623.783;    3.282;  -12.107;   48.193
624.056;  -25.654; -254.120; -280.783
624.330;   38.938;   63.888;   -3.797
624.604;   28.753; -271.116; -355.790
624.877;   62.885;  180.890;   26.198
625.151;   17.747; -249.114; -238.794
625.425;  -42.159; -150.103; -283.814
625.698;  -60.345; -367.119; -374.785
625.972; -109.063; -799.110; -765.802
626.245;   78.305;  685.884;  484.210
626.519;  -56.875; -426.120; -340.784
626.792;  -35.914; -192.107; -380.807
627.066;  -94.348; -485.122; -662.779
627.339; -101.317; -736.110; -663.802
627.613;   33.148;  351.880;  148.216
627.886;   43.314;  187.891; -612.803
628.160;   -9.181;  312.880; -161.783
628.433;  -84.841; -695.125; -703.775
628.706;  -87.250; -517.120; -615.784
628.979;    7.415;  296.876;  117.223
629.253;  -95.515; -785.119; -833.786
629.526;  277.719; -334.126; -253.772
629.799;  253.222; -641.123; -479.778
630.072;  109.002; -497.128; -516.769
630.346;  -90.970;-1115.116;-1080.790
630.619;  353.062; -467.107; -545.808
630.892;  507.400;  709.889;  593.200
631.165;  282.014;  790.896;  679.187
631.438;  -95.933;-1092.112;-1055.798
631.711;   45.025;  453.877;  257.221
631.984;  -71.049; -523.117; -624.789
632.257;  -80.953; -636.117; -681.789
632.530;  -56.095; -412.119; -433.785
632.803;   12.770; -109.115;    7.207
633.076;  -66.306; -360.123; -422.777
633.349;   -7.795;  173.872;  121.231
633.622;  -53.346; -187.119; -240.785
633.895; -124.754; -903.120; -823.783
634.167;  -68.504; -496.126; -525.773
634.440;  -18.414;  -19.116; -137.792
634.713;   -5.891;  -22.119; -120.786
634.986;   66.746;  593.871;  453.233
635.258;  -95.157; -507.115; -597.793
635.531;   94.393;  742.882; -343.788
635.804;  -35.351; -303.117; -318.789
636.077;  -83.117; -830.116; -852.791
636.349;  -41.659; -586.115; -474.793
636.622;  345.293; 1695.874; 1392.228
636.894;  168.775; -474.120; -909.784
637.167;  112.412; -836.127; -789.771
637.439;   -2.341; -278.128; -213.770
637.712;  -47.780; -312.126; -293.772
637.984;  -79.292; -635.116; -707.791
638.257;  328.794;  515.877;  488.222
638.529;  502.085; -881.125; -924.776
638.802;  208.876; -508.128; -449.769
639.074; -117.492; -927.122; -952.781
639.346; -125.851; -942.135; -930.757
639.619;    3.760;  -79.142; -319.744
639.891;    1.002;  -83.122; -168.779
640.163;  -73.171; -689.122; -756.780
640.435;   32.381;  273.878;  103.220
640.708;   -7.193;  -72.122; -132.780
640.980;  -20.891; -366.122; -362.781
641.252;  156.811;  -25.121;  -71.781
641.524; 1628.863;  580.879;  573.219
641.796; 1624.215;-1094.121; -907.782
642.068;  299.441; -191.121; -300.782
642.340;  -62.407; -486.121; -566.783
642.613;   36.370;  294.880;  323.217
642.885; -104.703; -787.120; -878.783
643.157;  -68.077; -810.120; -658.784
643.428;   32.450;  170.880;  218.216
643.700;  -75.998; -498.120; -425.784
643.972;  -57.821;  -16.119; -133.785
644.244; -103.394; -474.119; -559.785
644.516;  -62.568; -250.119; -114.786
644.788;   57.384;  662.881;  548.214
645.060;  -26.464;  -12.119; -124.786
645.332;  -87.387; -525.118; -535.787
645.603;   32.139;  479.882;  342.213
645.875;  -60.534; -334.118; -369.787
646.147;  158.468; 1487.882; 1242.212
646.418;  -82.530; -931.117; -918.788
646.690;   76.497; -714.117; -715.789
646.962;   -6.602; -413.117; -451.789
647.233;   -6.375;   15.883;   11.211
647.505; -109.523; -595.117; -475.790
647.776;   11.454;  328.884;  229.210
648.048;  -28.195; -248.116; -418.790
648.320;  -79.818; -752.116; -679.791
648.591; -152.766;-1055.116; -958.791
648.862;  -87.439; -505.116; -577.792
649.134;    5.913;  115.885;  198.208
649.405;  -61.411; -661.115; -618.792
649.677;  -59.459; -475.115; -598.793
649.948;  -24.732; -181.115; -296.793
650.219;  -22.705;  -37.115; -147.793
650.491;  -75.204; -431.114; -520.794
650.762; -124.602; -705.114; -731.794
651.033; -100.150; -437.114; -424.795
651.304;  -99.823; -743.114; -728.795
651.576;  -74.671; -680.114; -645.795
651.847;  -40.470; -250.113; -140.796
652.118;  -24.068;  -32.113; -189.796
652.389; -111.616; -639.113; -722.796
652.660;  -31.539; -147.113;  -89.797
652.931; -133.562; -897.112; -871.797
653.202;  -97.261; -382.112; -541.798
653.473;  -77.609; -633.112; -533.798
653.744;  109.443; -595.112; -590.798
654.015;  103.945; -356.112; -303.799
654.286;  -72.554; -642.111; -663.799
654.557;  -68.102; -586.111; -521.799
654.828; -168.600;-1114.111;-1088.800
655.099;  -77.498; -404.111; -291.800
655.370;  -91.246; -427.111; -543.801
655.641; -122.545; -656.110; -714.801
655.911; -108.393; -618.110; -638.801
656.182;   40.384;  437.890;  387.198
656.453;   91.811;  830.890;  746.198
656.724;  -77.238; -466.110; -426.802
656.994;  -81.836; -553.109; -568.803
657.265; -106.584; -862.109; -873.803
657.536;  -76.357; -500.109; -377.804
657.806; -111.230; -561.109; -593.804
658.077; -132.929; -866.109; -950.804
658.347;  -82.852; -523.108; -598.805
658.618; -114.500; -646.108; -694.805
658.888;  -25.748;  -41.108;  112.195
659.159;  -90.372; -432.108; -548.806
659.429;  -39.020; -292.108; -349.806
659.700;  -12.118; -435.107; -390.807
659.970;  -27.191; -370.107; -359.807
660.241;   -2.714; -754.107; -921.807
660.511;  418.762; -147.107; -174.808
660.781;   55.139; -793.106; -748.808
661.052;  -50.984; -222.106; -381.808
661.322;  -19.507;   21.894;   -9.809
661.592;   21.619;  257.894;  148.191
661.862;  -81.754; -369.106; -382.810
662.133;  -95.402; -551.105; -502.810
662.403; -118.300; -770.105; -676.810
662.673;  -69.773; -256.105; -213.811
662.943; -107.872; -612.105; -551.811
663.213;  -34.020;  -85.105;  -81.811
663.483;  -82.618; -593.104; -568.812
663.753;  -58.766; -194.104; -152.812
664.023;  -24.440;   68.896;  -32.813
664.293;  -56.813; -319.104; -126.813
664.563; -109.511; -694.104; -648.813
664.833; -125.684; -743.103; -608.814
665.103; -129.407; -730.103; -793.814
665.373; -112.281; -766.103; -806.814
665.643; -100.154; -863.103; -918.815
665.913;    7.173; -534.103; -714.815
666.182;  106.425; -685.102; -719.816
666.452;  222.826;  -22.102;  -89.816
666.722;  -36.447; -724.102; -784.816
666.992; -136.570; -948.102; -921.817
667.261; -101.443; -824.102; -808.817
667.531;  178.234;  134.899;   45.183
667.801;  513.060; -440.101; -412.818
668.070;  219.312;  714.899;  697.182
668.340; -108.486; -883.101; -840.819
668.609;   76.641;  588.900;  301.181
668.879;  -80.333; -490.100; -558.819
669.149;  -74.056; -539.100; -516.820
669.418; -106.454; -698.100; -726.820
669.688;  -43.527; -482.100; -666.820
669.957;   32.825; -423.099; -546.821
670.226;  -29.724; -268.099; -331.821
670.496;  -92.397; -431.099; -635.822
670.765;  -71.770; -418.099; -501.822
671.034; -136.943; -872.099; -828.822
671.304;  -18.892;   55.902; -111.823
671.573; -155.815;-1085.098; -957.823
671.842;   52.362; -380.098; -294.823
672.112;   -0.936; -692.098; -586.824
672.381;  -23.434; -239.098; -214.824
672.650; -137.758;-1005.097;-1021.825
672.919; -103.206; -631.097; -507.825
673.188; -104.954; -681.097; -878.825
673.457; -163.627;-1101.097;-1143.826
673.726;  -85.250; -579.096; -646.826
673.995;  -38.299; -533.096; -479.826
674.265;  -27.347; -263.096; -333.827
674.534;  -18.970; -183.096; -235.827
674.802;  -14.368; -618.096; -703.828
675.071;  785.333; -886.095; -801.828
675.340; 3274.035; -464.095; -339.828
675.609; 1092.512;  103.905;   82.171
675.878;   38.514; -949.095; -893.829
676.147;   28.591;  -26.095;   -8.829
676.416;   59.867; -210.094; -294.830
676.685;  614.519; 1000.906; -622.830
676.953;   69.271; -603.094; -452.831
677.222;  -46.827; -193.094; -273.831
677.491;  -36.351;  -24.094; -127.831
677.759;  -18.074;   11.907;  172.168
678.028;  -21.397; -279.093; -222.832
678.297;   -5.945;   71.907;  197.168
678.565; -146.068; -898.093; -944.833
678.834;  -76.692; -311.093; -268.833
679.102;  -81.115; -411.092; -391.834
679.371; -138.688; -898.092; -727.834
679.639; -133.786; -797.092; -786.834
679.908; -120.960; -794.092; -724.835
680.176; -166.458; -895.091; -941.835
680.445;  -75.531; -346.091; -352.835
680.713;  -24.454;  -58.091;  -23.836
680.982;  -97.977; -523.091; -525.836
681.250; -108.226; -578.091; -507.837
681.518; -101.674; -534.090; -751.837
681.787;  -32.097; -204.090; -167.837
682.055;  -74.945; -490.090; -422.838
682.323; -151.219; -993.090; -992.838
682.591;    8.408; -216.090; -538.838
682.859;   44.410;    9.911;  -35.839
683.128;   20.512;  232.911;  497.161
683.396; -169.986;-1102.089;-1122.840
683.664;  -55.135; -241.089;   21.160
683.932;   -5.383;  144.911;  -76.840
684.200;  -92.231; -576.088; -320.841
684.468;  -36.904;  -73.088; -124.841
684.736;  -54.978; -214.088; -175.841
685.004; -137.326;-1024.088; -982.842
685.272;  -65.899; -880.088; -774.842
685.540;  -79.047; -499.087; -557.843
685.808;  -86.620; -651.087; -682.843
686.076; -110.169; -894.087; -969.843
686.343;  -78.167; -601.087; -815.844
686.611;   12.710; -195.087; -224.844
686.879;  348.512; -530.086; -553.844
687.147; 2787.713; -483.086; -480.845
687.414;  792.415;  -12.086; -169.845
687.682;  -24.908; -658.086; -757.846
687.950;  245.969;  259.915;  263.154
688.217;  -12.479; -792.085; -760.846
688.485;  -26.653; -632.085; -636.847
688.753;  426.424;  -11.085; -102.847
689.020;  112.676; -820.085; -851.847
689.288; -111.072; -853.084; -787.848
689.555;  -29.046; -195.084; -148.848
689.823;  -64.519; -241.084; -345.849
690.090;  -81.292; -546.084; -651.849
690.358; -157.790; -877.084; -897.849
690.625;   15.062;  120.917;   45.150
690.892; -100.212; -403.083; -369.850
691.160;  -26.185;   72.917;  -35.850
691.427;  -14.383;  141.917;  130.149
691.694; -127.231; -855.083; -929.851
691.962; -158.330;-1177.082;-1060.852
692.229;    4.747;  127.918;   56.148
692.496;   53.774;  130.918;  -49.852
692.763;    7.201; -164.082; -201.853
693.031;  -73.472; -739.082; -716.853
693.298;  -56.221; -509.081; -368.853
693.565;  222.431; -155.081; -163.854
693.832; 1067.483;   -5.081;   -9.854
694.099;  107.360; -643.081; -642.855
694.366;  -73.414; -882.081; -896.855
694.633;  -55.637; -920.080; -633.855
694.900;  723.240; 4367.920; -114.856
695.167;  369.542; -214.080; -380.856
695.434;   94.119; -646.080; -623.856
695.701;  168.170;  121.921;  -61.857
695.968;  405.622; -365.079; -361.857
696.234;  909.074; -415.079; -646.858
696.501;10175.526; -776.079; -614.858
696.768; 5328.253; -554.079; -617.858
697.035;  311.254; -632.078; -667.859
697.302;   20.031; -448.078; -552.859
697.568;    8.933; -458.078; -497.859
697.835;  -43.215; -683.078; -624.860
698.102;  -23.364; -498.078; -407.860
698.368;   74.738;  384.923;  396.139
698.635;  -26.910;  -47.077; -424.861
698.901;  -20.783; -240.077; -348.861
699.168;   27.369; -534.077; -456.862
699.435;   50.970;  -72.077;  -13.862
699.701; -117.528; -868.076; -764.862
699.968;    6.174;  144.924; -441.863
700.234;  -96.224; -783.076; -822.863
700.500;  -68.523; -448.076; -539.864
700.767;  -21.046;   -1.075;   26.136
701.033; -124.294;-1015.075; -963.864
701.299;  -56.517; -450.075; -483.865
701.566;   95.185;  950.925;  763.135
701.832;   17.911;  -31.075;  -76.865
702.098;  -93.187;-1054.074;-1034.866
702.365;  -98.510;-1098.074;-1030.866
702.631;  -33.208;-1038.074;-1063.867
702.897; 1180.918; -765.074; -676.867
703.163; 2031.320;  348.926;  254.133
703.429;  152.272; -256.073; -273.868
703.695;  -24.701; -796.073; -792.868
703.961;    7.651; -214.073; -210.868
704.227;  -51.423; -630.073; -725.869
704.493;  128.104;  613.927;  510.131
704.759;  -31.994; -565.072; -540.870
705.025;   22.783; -203.072; -194.870
705.291;  -14.741; -666.072; -562.870
705.557;  198.011;  719.928;   34.129
705.823;   29.588; -742.072; -694.871
706.089;  137.215; -307.071; -326.871
706.355;  362.942; -315.071; -244.872
706.620; 5737.993; -776.071; -729.872
706.886; 8051.520; -309.071; -362.873
707.152;  735.272; -818.070; -973.873
707.418;  -16.576;-1153.070;-1186.873
707.683;    3.975; -550.070; -530.874
707.949;  -43.873; -547.070; -578.874
708.215;    4.279; -129.070; -207.874
708.480;  -22.269; -520.069; -420.875
708.746;   79.983;   68.931;   28.125
709.011;  -62.366; -578.069; -612.876
709.277;  -71.539; -538.069; -543.876
709.542;  -59.112; -428.069; -387.876
709.808;   -3.535;  -59.068;   89.123
710.073;  -84.834; -577.068; -695.877
710.339;  -26.657; -242.068; -228.877
710.604;   51.170; -780.068; -845.878
710.869;  279.597; -277.068; -366.878
711.135;  -70.226; -715.067; -628.879
711.400;  -89.000; -507.067; -608.879
711.665;  -60.173; -404.067; -479.879
711.931;  -89.796; -661.067; -677.880
712.196; -123.894; -876.067; -954.880
712.461;   74.207; -402.066; -490.880
712.726;  109.484; -727.066; -771.881
712.991;  -92.714; -647.066; -664.881
713.256;  -36.937; -350.066; -332.882
713.521;  -64.685; -417.065; -381.882
713.787;  -79.109; -454.065; -472.882
714.052;  -31.782; -214.065; -400.883
714.317;  -83.355;-1045.065; -981.883
714.581; 1037.472; -374.065; -268.883
714.846; 1474.248; -822.064; -888.884
715.111;  137.100;  261.936;  257.116
715.376;  -34.448;  -86.064; -223.885
715.641;  -13.146; -365.064; -367.885
715.906;  256.806;   15.936; -551.885
716.171;  109.132;  221.937;  209.114
716.436;   31.359;  -78.063; -104.886
716.700; -115.789; -818.063; -692.886
716.965; -127.412; -794.063; -807.887
717.230;  -75.736; -339.063; -392.887
717.494;  -37.109;  -40.062; -134.888
717.759; -108.632; -784.062; -640.888
718.024;    1.770;  269.938;  250.112
718.288;   75.272;  685.938;  395.111
718.553; -143.102; -803.062; -977.889
718.817; -137.125; -883.061; -899.889
719.082;  -38.773; -115.061; -125.890
719.346; -138.971;-1000.061; -947.890
719.611;  -52.319; -300.061; -255.891
719.875;  -95.493; -568.060; -537.891
720.140;  -68.791; -453.060; -603.891
720.404;   21.986; -136.060; -249.892
720.668;  717.013; -475.060; -411.892
720.933;  274.364;  146.940;  137.108
721.197;  -97.334; -667.059; -600.893
721.461; -134.482; -851.059; -826.893
721.725;  -18.255;  -21.059; -250.894
721.990;  -53.203; -284.059; -204.894
722.254;  -39.352;  -26.059; -108.894
722.518;  -59.725; -286.058; -442.895
722.782;  -95.098; -743.058; -594.895
723.046;  104.679;  614.942;  570.105
723.310;   17.830;  374.942;  210.104
723.574; -106.343; -654.058; -614.896
723.838;  -96.941; -576.057; -642.897
724.102;  -49.389; -226.057; -239.897
724.366; -136.362;-1032.057; -978.897
724.630;  -96.211; -749.057; -571.898
724.894;  -89.984; -722.057; -514.898
725.158;  -16.432;   38.944; -295.898
725.422;  -64.780; -394.056; -327.899
725.685;  -64.529; -441.056; -349.899
725.949;  -96.352; -566.056; -519.900
726.213;  -76.700; -732.056; -811.900
726.477;  106.277;-1020.055; -933.900
726.740;  120.054; -274.055; -104.901
727.004;  309.955; -384.055; -510.901
727.268; 3355.707; -442.055; -400.901
727.531;  970.859; -961.055; -775.902
727.795;  -49.914; -713.054; -673.902
728.059;  -67.438; -552.054; -557.903
728.322;  -91.061; -841.054; -669.903
728.586;    9.491; -692.054; -701.903
728.849;  -97.707; -695.053; -756.904
729.112; -113.255; -812.053; -912.904
729.376; -131.679; -959.053; -905.904
729.639;  -74.577; -536.053; -536.905
729.903; -114.350; -733.053; -699.905
730.166;  -47.073; -437.052; -399.906
730.429;  -24.297; -317.052; -468.906
730.693;  -79.895; -355.052; -894.906
730.956;  175.207;  810.948;  651.093
731.219;  631.334; -310.052; -103.907
731.482;   73.486;-1003.051; -894.907
731.745;   72.287; -794.051; -935.908
732.009;    8.664;  -30.051;   50.092
732.272;  -96.184; -904.051; -771.909
732.535;  -30.157; -300.051; -310.909
732.798; -160.581;-1083.050;-1166.909
733.061;  -58.729; -430.050; -456.910
733.324;   -0.827;   31.950; -180.910
733.587;   62.375;  290.950;  365.090
733.850;  -68.373; -973.049;-1050.911
734.113;   21.428;   33.951;   32.089
734.376;   -0.120; -328.049; -447.912
734.639;  218.082; 1188.951; 1011.088
734.901;   50.334; -180.049; -402.912
735.164;  420.035; -883.048; -837.913
735.427; 1180.312; -166.048; -355.913
735.690;  100.014; -205.048; -234.913
735.952;  -52.259; -923.048; -925.914
736.215;  -37.207;-1113.048;-1009.914
736.478;   25.894; -771.047; -774.915
736.740;  184.346;   33.953;  129.085
737.003;  547.423; -658.047; -672.915
737.266; 3552.750;  -94.047;   46.084
737.528;  391.526; -682.047; -660.916
737.791;  292.953; -316.046; -327.916
738.053;  740.780;  465.954;  649.083
738.316;10282.982; -162.046; -136.917
738.578; 7696.659; -770.046; -736.918
738.841;  423.935; -382.046; -446.918
739.103;  159.887; -875.045; -777.918
739.365;  460.939;   79.955;  -69.919
739.628;  -19.334; -884.045; -805.919
739.890;  -29.708; -758.045; -710.919
740.152;  -39.931; -692.044; -754.920
740.414;   -6.604; -408.044; -359.920
740.677;  -52.577; -785.044; -634.921
740.939;  -45.750; -587.044; -487.921
741.201;  197.651; -432.044; -572.921
741.463;   20.128; -689.043; -745.922
741.725;    6.630;  -21.043; -199.922
741.987;   44.282;  220.957;  116.078
742.249;  -22.541; -751.043; -859.923
742.511;  165.460; -703.043; -794.923
742.773;    2.562; -546.042; -546.924
743.035;  116.864;  796.958;  533.076
743.297;  -49.884; -963.042;-1013.924
743.559;  657.542; -278.042; -262.925
743.821;   33.169; -735.042; -744.925
744.083;    3.121;  -44.041; -149.925
744.345;  -83.102; -869.041; -892.926
744.607;   34.025;   75.959;  122.074
744.868;  -55.949; -490.041; -554.927
745.130; -103.747; -994.041;-1008.927
745.392;   30.180;   -1.040;  -44.927
745.653;  -15.118; -411.040; -378.928
745.915;  137.033;  896.960;  631.072
746.177;   45.510;   35.960;  -43.928
746.438;   -4.363; -428.040; -543.929
746.700;  -61.436; -947.039; -988.929
746.961;   -4.284; -659.039; -740.930
747.223;  124.242; -190.039;  -74.930
747.484;   75.694; -391.039; -471.930
747.746;  126.471;  -23.038; -106.931
748.007;  100.448; -647.038; -689.931
748.269;  256.124; -468.038; -440.931
748.530;  422.851; -852.038; -638.932
748.791;  246.353; -354.038; -420.932
749.053;  394.180;  286.963;  163.067
749.314;  405.132; -236.037; -169.933
749.575;  449.833; -945.037; -905.933
749.836;  793.560; -217.037;   86.066
750.098; 2175.937;  -60.037;  -21.934
750.359;33366.714;  414.964;  555.066
750.620; 8970.515; -121.036; -220.935
750.881;  943.717; -585.036; -513.935
751.142; 1241.194; -950.036; -938.936
751.403;15629.446; -789.036; -705.936
751.664; 7388.673;-1034.035; -999.936
751.925;  472.849; -175.035; -262.937
752.186;  254.951; -298.035; -278.937
752.447;  116.253; -590.035; -445.937
752.708;   28.955; -532.035; -648.938
752.969;   -1.219; -566.034; -576.938
753.230;  -31.517; -777.034; -672.939
753.491;   -6.515; -650.034; -631.939
753.751;   69.012;  109.966;   19.061
754.012;   77.564;  258.967;  181.060
754.273;   34.190; -174.033;  -71.940
754.534;   -7.408; -487.033; -580.940
754.794;  -86.681; -926.033; -911.941
755.055;  133.521; 1051.967;  881.059
755.316;  -55.703; -700.032; -566.942
755.576;  -28.426; -606.032; -576.942
755.837;  -51.274; -527.032; -695.942
756.097;  -49.972; -530.032; -564.943
756.358;  -82.170; -725.032; -770.943
756.618;  -38.519; -705.031; -641.943
756.879;   -2.642; -254.031; -349.944
757.139; -116.265;-1098.031;-1116.944
757.400;  -56.013; -538.031; -553.945
757.660;  -38.337; -365.031; -401.945
757.920;   -7.460; -266.030; -228.945
758.181;  -12.908; -468.030; -351.946
758.441; -101.006; -870.030; -809.946
758.701;  -25.754; -308.030; -215.946
758.961;  -34.228; -220.030; -278.947
759.222;  -49.501; -574.029; -502.947
759.482;  -74.924; -683.029; -723.948
759.742;  -86.097; -706.029; -547.948
760.002;   22.654;  -83.029; -143.948
760.262;   17.706;   50.972;  182.051
760.522;  -44.142; -498.028; -574.949
760.782;  -66.240; -738.028; -612.949
761.042;  -38.938; -618.028; -573.950
761.302;   37.688;   55.972;  -18.950
761.562;   48.465; -164.027; -154.951
761.822;   70.767; -710.027; -551.951
762.082;  -43.031;-1104.027;-1093.951
762.342;   68.995; -328.027; -403.952
762.601;   79.397; -567.027; -506.952
762.861;  308.099; -281.026; -207.952
763.121;  388.776; -406.026; -411.953
763.381; 6924.153; -499.026; -485.953
763.640; 8160.979; -139.026; -307.954
763.900;  351.756; -242.026; -203.954
764.160;   87.008; -458.025; -491.954
764.419;  -10.790; -726.025; -782.955
764.679;  -68.688; -795.025; -726.955
764.939;  -14.887; -124.025; -210.955
765.198;  -63.485; -608.025; -563.956
765.458;  -85.558; -710.024; -612.956
765.717;  -90.456; -454.024; -590.957
765.976;  -60.705; -428.024; -411.957
766.236;  -71.153; -475.024; -610.957
766.495;   12.774;  260.977;   73.042
766.755; -116.049;-1090.023; -987.958
767.014;  -11.047; -594.023; -665.958
767.273;  -57.846; -373.023; -397.959
767.533;  -48.319; -228.023; -307.959
767.792;  -39.517; -151.022; -188.960
768.051;  -39.990; -228.022; -276.960
768.310;  -85.864; -546.022; -650.960
768.569;  -16.937; -161.022;    4.039
768.828;  -30.510; -285.022; -363.961
769.088; -132.408;-1050.021; -942.961
769.347;  -83.406; -755.021; -599.962
769.606;  -96.780; -876.021; -857.962
769.865; -121.578;-1016.021;-1033.963
770.124;    1.424; -411.021; -336.963
770.383;  -59.624; -778.020; -910.963
770.641;    2.402; -398.020; -400.964
770.900;  -66.971; -953.020; -846.964
771.159;  -38.319; -851.020; -951.964
771.418;  -12.942; -917.020; -779.965
771.677;  122.585; -224.019; -293.965
771.936;  138.986; -794.019; -865.966
772.194; 2175.138; -465.019; -437.966
772.453;11592.490; -213.019; -391.966
772.712;  800.367;  416.982;  329.033
772.970;  129.718;   32.982;   63.033
773.229;   67.045;  -22.018;  102.033
773.488;  -83.728; -814.018; -770.968
773.746;   54.224;  296.982;  335.032
774.005;   11.451;  190.983;  -22.969
774.263;    5.302;  243.983;  177.031
774.522;  -43.471; -422.017; -548.969
774.780;  -71.519; -484.017; -417.970
775.039;  -93.167; -551.017; -531.970
775.297;  -32.591; -135.016; -351.970
775.555; -122.864; -489.016; -612.971
775.814; -111.437; -618.016; -570.971
776.072; -125.835; -749.016; -740.971
776.330; -114.483; -630.016; -520.972
776.589; -118.482; -703.015; -721.972
776.847; -135.555; -645.015; -624.973
777.105; -169.078;-1016.015;-1032.973
777.363;  -92.751; -459.015; -454.973
777.621; -138.875; -660.015; -717.974
777.879;  -32.923;  -42.014;   32.026
778.138; -102.971; -554.014; -717.974
778.396;  -97.919; -585.014; -526.975
778.654; -172.942;-1015.014; -970.975
778.912;  -87.741; -269.014; -371.976
779.170; -138.814; -880.013; -803.976
779.427; -142.987; -922.013; -897.976
779.685; -130.860; -880.013; -832.977
779.943;  -93.559; -654.013; -593.977
780.201; -172.957; -964.012; -883.978
780.459; -106.205; -651.012; -610.978
780.717;  -81.128; -440.012; -390.978
780.974;  -96.151; -449.012; -490.979
781.232;  -81.200; -358.012; -338.979
781.490;  -83.248; -551.011; -472.979
781.747;  -95.096; -555.011; -476.980
782.005;    8.806;  462.989;  254.020
782.263; -173.293; -542.011;-1004.981
782.520;  -86.291; -326.011; -501.981
782.778; -179.739;-1013.010;-1051.981
783.035; -170.987; -962.010; -938.982
783.293;  -59.410; -248.010; -206.982
783.550;  -60.409; -134.010; -198.982
783.808; -140.907; -764.010; -776.983
784.065; -157.155; -745.009; -874.983
784.322;  -60.653;   25.991;  -86.984
784.580; -135.527; -915.009; -771.984
784.837;  -95.975; -392.009; -466.984
785.094; -143.348; -783.009; -762.985
785.352;  -74.146; -304.008; -404.985
785.609; -107.794; -934.008; -839.985
785.866;  -87.793; -345.008; -401.986
786.123;  -73.591; -639.008; -583.986
786.380;  -99.539; -665.008; -604.987
786.637;  -55.137; -225.007; -380.987
786.895;  -43.110; -456.007; -543.987
787.152;  -61.959; -135.007; -267.988
787.409;  -53.657; -123.007; -225.988
787.666;  -79.130; -299.006; -378.988
787.923; -103.053; -616.006; -695.989
788.179; -102.177; -551.006; -584.989
788.436; -101.900; -585.006; -585.990
788.693;  -35.173;  -92.006;  -87.990
788.950;  102.229; -125.005; -112.990
789.207;  164.256; -381.005; -372.991
789.464;  -68.868; -161.005; -301.991
789.720;   -6.766;  150.995;  110.009
789.977; -186.389;-1003.005; -671.992
790.234;  -29.287;   44.996;  -66.992
790.490; -162.661; -884.004;-1031.993
790.747;  -31.759;  -85.004;   22.007
791.004;  -39.857; -426.004; -348.993
791.260;  -85.730; -430.004; -560.994
791.517; -106.728; -843.003; -788.994
791.773;  -59.302; -379.003; -342.994
792.030; -118.725; -596.003; -660.995
792.286; -104.498; -686.003; -636.995
792.543;  -26.746;  -74.002; -159.995
792.799;  -56.670; -584.002; -382.996
793.055; -162.593;-1179.002;-1210.996
793.312;  -97.766; -827.002; -816.997
793.568;  -68.714; -746.002; -599.997
793.824;   -3.262; -226.001; -284.997
794.081;    3.064; -447.001; -508.998
794.337;   55.641; -664.001; -561.998
794.593; 1128.743; -319.001; -271.999
794.849; 6305.020; -746.001; -772.999
795.105;  326.996; -270.000; -261.999
795.361;   11.773; -490.000; -457.000
795.617;  -69.150; -875.000; -945.000
795.873;  -58.850; -360.000; -407.000
796.129;  -46.800; -368.000; -306.000
796.385;  -17.050; -124.000; -156.000
796.641;   63.875;  412.000;  550.000
796.897;  -79.100; -666.000; -635.000
797.153;   50.075;  453.000;  357.000
797.409; -111.825; -785.000; -868.000
797.665;  -79.800; -625.000; -732.000
797.921;  -70.650; -775.000; -762.000
798.176;  -61.550; -744.000; -747.000
798.432;  -57.525; -824.000; -596.000
798.688;  -69.600;-1174.000;-1078.000
798.943;   89.750; -165.000; -147.000
799.199;   -7.450;-1005.000; -959.000
799.455;  230.350;  369.000;  316.000
799.710;  128.275; -813.000; -380.000
799.966;  285.025; -162.000; -160.000
800.221;  470.650; -638.000; -721.000
800.477; 9864.625; -743.000; -710.000
800.732; 9676.300; -773.000; -800.000
800.988;  656.500;  205.000;  -19.000
801.243; 1845.625; -454.000; -344.000
801.498; 8818.475; -814.000; -739.000
801.754;  537.175; -289.000; -163.000
802.009;  104.775; -257.000; -335.000
802.264;  -31.925; -967.000;-1033.000
802.520;   28.725;  222.000;   -3.000
802.775;  -45.975; -524.000; -359.000
803.030;   43.875;  395.000;  356.000
803.285; -111.450; -840.000; -903.000
803.540;  -56.450; -686.000; -699.000
803.795;  -64.975; -648.000; -583.000
804.051;  -47.700; -279.000; -346.000
804.306;   16.250;  168.000;  128.000
804.561;  120.325;  451.000;  362.000
804.816;  129.975;  714.000;  861.000
805.071;    1.175; -185.000; -280.000
805.325;  155.525; -257.000; -427.000
805.580; -105.700; -841.000; -877.000
805.835;  -25.500; -204.000; -297.000
806.090;  -76.025; -760.000; -676.000
806.345;  -22.175; -344.000; -264.000
806.600;  -34.525; -549.000; -632.000
806.854;  -17.050; -408.000; -538.000
807.109;  -22.700; -493.000; -577.000
807.364;   -3.425; -407.000; -328.000
807.618;   -6.125; -415.000; -381.000
807.873;   20.750; -470.000; -494.000
808.128;   80.575; -257.000; -518.000
808.382;   91.750; -224.000; -332.000
808.637;   64.125; -440.000; -511.000
808.891;  164.725; -257.000; -180.000
809.146;   88.350; -902.000; -794.000
809.400;  228.700; -848.000; -923.000
809.654;  306.625; -779.000; -551.000
809.909;  448.550; -841.000; -927.000
810.163; 5555.175; -813.000; -651.000
810.418;15930.125; -940.000; -861.000
810.672; 1009.050; -685.000; -690.000
810.926;  674.300; -993.000; -973.000
811.180; 1337.800; -439.000; -372.000
811.434;30765.025;  240.000;  135.000
811.689;13740.875; -231.000; -365.000
811.943;  639.325; -936.000; -953.000
812.197;  329.300; -893.000; -671.000
812.451;  128.775; -379.000; -514.000
812.705;   -8.050; -809.000; -619.000
812.959;   -7.650; -263.000; -388.000
813.213;    1.900; -283.000; -209.000
813.467;   59.900;  470.000;  253.000
813.721; -103.975; -764.000; -792.000
813.975; -127.875; -826.000; -877.000
814.229;   39.500;  430.000;  353.000
814.482;  -82.800; -517.000; -566.000
814.736; -136.225; -766.000; -744.000
814.990; -146.225; -779.000; -872.000
815.244;  -56.075; -228.000; -285.000
815.497; -113.900; -636.000; -601.000
815.751;  -17.800; -141.000;   82.000
816.005; -100.600; -470.000; -586.000
816.258;  -68.825; -510.000; -363.000
816.512; -114.125; -693.000; -610.000
816.766;    3.250;  121.000;  157.000
817.019;   15.725;  148.000;  149.000
817.273; -118.450;-1000.000; -802.000
817.526;  -44.125; -206.000; -173.000
817.779;  -72.400;-1049.000; -960.000
818.033; -100.350; -693.000; -807.000
818.286; -129.700; -725.000; -792.000
818.540;  -89.250; -403.000; -403.000
818.793; -100.100; -402.000; -489.000
819.046; -105.250; -582.000; -520.000
819.299;  -54.450; -157.000; -166.000
819.553; -115.975; -552.000; -592.000
819.806; -167.225;-1016.000; -838.000
820.059;  -65.025; -334.000; -354.000
820.312;    3.725;  152.000;  185.000
820.565;  -37.275;  110.000;  -27.000
820.818;  -53.000;  -59.000; -173.000
821.071; -159.825;-1041.000; -957.000
821.324; -109.800; -536.000; -540.000
821.577; -111.725; -457.000; -483.000
821.830;  -60.000; -270.000; -172.000
822.083; -138.475; -733.000; -288.000
822.336;  -59.275; -261.000; -167.000
822.589; -129.750; -805.000; -688.000
822.842; -148.500; -875.000; -770.000
823.094; -176.875;-1076.000;-1114.000
823.347; -132.400; -925.000; -729.000
823.600;    1.800;  402.000;  187.000
823.853;  -48.650; -311.000; -267.000
824.105;  -74.300; -331.000; -575.000
824.358; -106.525; -617.000; -716.000
824.611;   21.750;  234.000;   40.000
824.863;  -58.625; -612.000; -591.000
825.116;   44.325;  -33.000;   27.000
825.368;   45.450; -366.000; -372.000
825.621;  148.375; -186.000; -240.000
825.873;   73.525; -704.000; -737.000
826.126;  508.150; -669.000; -641.000
826.378;11049.250; -389.000; -505.000
826.630; 3046.900; -890.000; -898.000
826.883;   53.050; -754.000; -693.000
827.135;   36.525; -279.000; -270.000
827.387; -115.200; -893.000; -839.000
827.639;  -34.675;  -86.000;   32.000
827.892; -126.525; -742.000; -582.000
828.144; -136.300; -848.000; -804.000
828.396;  -34.850;  104.000;  -80.000
828.648; -107.100; -440.000; -333.000
828.900; -139.375; -702.000; -795.000
829.152; -127.300; -684.000; -683.000
829.404;  -66.750; -215.000; -267.000
829.656;  -40.500;  321.000;  214.000
829.908;  -16.650;  393.000;  229.000
830.160; -175.000;-1064.000;-1047.000
830.412; -107.400; -481.000; -430.000
830.664; -137.750; -557.000; -665.000
830.916;  -83.275; -268.000; -206.000
831.167; -187.000;-1073.000; -951.000
831.419; -105.075; -623.000; -566.000
831.671; -146.800; -764.000; -809.000
831.923;  -90.650; -311.000; -447.000
832.174;  -85.225; -273.000; -331.000
832.426; -111.075; -493.000; -582.000
832.678; -193.225;-1043.000;-1091.000
832.929; -165.975; -947.000; -935.000
833.181;  -72.975; -575.000; -677.000
833.432;  -56.475;  -59.000; -186.000
833.684;  -31.950;  112.000;  -27.000
833.935; -121.550; -610.000; -566.000
834.187; -132.475; -829.000; -823.000
834.438;  -47.900;  -58.000;  -25.000
834.689;  -56.950; -255.000; -123.000
834.941;  -56.425; -343.000; -244.000
835.192;  -93.425; -590.000; -533.000
835.443; -103.275; -419.000; -506.000
835.695;  -19.100;  138.000;  -16.000
835.946; -102.475; -608.000; -378.000
836.197; -117.350; -599.000; -622.000
836.448;  -89.100; -528.000; -395.000
836.699;  -69.850; -253.000; -341.000
836.950;  -15.650;   72.000;    7.000
837.201; -153.325;-1003.000; -987.000
837.452;  -46.875; -356.000; -170.000
837.703; -126.400; -791.000; -737.000
837.954;  -32.450; -205.000; -365.000
838.205;  -97.475;-1029.000;-1008.000
838.456;  142.175; -196.000; -282.000
838.707;  -17.650; -423.000; -519.000
838.958;  -15.475; -634.000; -647.000
839.209;  243.175;   18.000;   40.000
839.460;  107.650; -439.000; -201.000
839.710;  149.500; -135.000; -297.000
839.961;  373.375;  730.000;  612.000
840.212;  307.200; -382.000; -497.000
840.462; 1041.775; -328.000; -277.000
840.713;17003.025; -571.000; -536.000
840.964; 7639.400;  -62.000; -143.000
841.214;  476.525; -384.000; -624.000
841.465;  514.975; -214.000; -141.000
841.715;  445.725; -417.000; -380.000
841.966;  559.125; -746.000; -685.000
842.216; 7283.575; -330.000; -431.000
842.466;31090.825; -169.000; -313.000
842.717; 1936.625; -964.000; -952.000
842.967;  262.200; -635.000; -641.000
843.217;  233.300;   20.000;   28.000
843.468;   59.450; -104.000; -132.000
843.718;  -50.600; -718.000; -726.000
843.968; -112.900; -837.000; -765.000
844.218;   13.850; -315.000; -262.000
844.469;  -60.225; -577.000; -561.000
844.719; -120.900; -537.000; -682.000
844.969; -100.575; -550.000; -580.000
845.219; -154.575; -814.000; -862.000
845.469;  -72.525; -392.000; -342.000
845.719; -145.150; -792.000; -884.000
845.969;  -25.100;  119.000;  174.000
846.219; -134.300; -738.000; -720.000
846.469;   20.475;  464.000;  432.000
846.718;  -55.400; -115.000;   31.000
846.968; -141.625; -827.000; -827.000
847.218;  -54.125; -224.000; -371.000
847.468; -118.925; -586.000; -555.000
847.718; -143.550; -827.000; -798.000
847.967; -145.375; -826.000; -915.000
848.217;  -88.250; -449.000; -569.000
848.467;  -75.950; -405.000; -376.000
848.716; -127.875; -708.000; -725.000
848.966;  -13.550; -372.000; -358.000
849.215;  -72.650; -428.000; -419.000
849.465;  -87.825; -785.000; -615.000
849.714; -141.800;-1132.000;-1150.000
849.964;  -64.150; -551.000; -613.000
850.213;  -39.250; -393.000; -355.000
850.463;   66.800;  137.000;  340.000
850.712;   -9.800; -542.000; -567.000
850.961;   10.250; -739.000; -678.000
851.211;   93.375; -513.000; -504.000
851.460;  168.500; -635.000; -650.000
851.709;  529.625;  -25.000;   18.000
851.958; 9541.200; -912.000; -750.000
852.208;13110.600; -859.000; -879.000
852.457;  483.450; -181.000;  -13.000
852.706;   60.000; -791.000; -823.000
852.955;    6.250; -507.000; -528.000
853.204;  -70.275; -521.000; -461.000
853.453;  -89.875; -418.000; -458.000
853.702; -142.425; -660.000; -750.000
853.951; -112.375; -532.000; -520.000
854.200; -131.850; -613.000; -562.000
854.449; -133.775; -695.000; -661.000
854.698;  -91.900; -340.000; -279.000
854.946;  -65.725; -181.000; -284.000
855.195; -164.200; -843.000; -868.000
855.444;  -97.575; -395.000; -420.000
855.693; -128.125; -345.000; -432.000
855.941; -113.575; -387.000; -516.000
856.190;  -68.300; -256.000; -382.000
856.439; -130.475; -652.000; -703.000
856.687;  -70.725;  -99.000;  -72.000
856.936; -118.625; -621.000; -323.000
857.184; -180.775;-1067.000;-1020.000
857.433; -113.400; -423.000; -512.000
857.681; -181.300; -989.000; -953.000
857.930;  -95.000; -282.000; -433.000
858.178; -169.450; -856.000; -929.000
858.427; -151.825; -802.000; -781.000
858.675; -126.425; -377.000; -544.000
858.923; -114.800; -527.000; -819.000
859.172; -185.575;-1094.000;-1070.000
859.420;  -93.375; -339.000; -239.000
859.668; -138.175; -624.000; -628.000
859.916;  -29.975;  109.000;  115.000
860.164; -130.725; -699.000; -603.000
860.413;  185.600; -878.000; -696.000
860.661;  187.525; -709.000; -577.000
860.909;  -97.950; -339.000; -325.000
861.157;  -98.700; -277.000; -444.000
861.405; -126.750; -534.000; -670.000
861.653;   -5.875;  310.000;  310.000
861.901;  110.075; -543.000; -613.000
862.149;  -16.650; -801.000; -824.000
862.396;  -90.150; -297.000; -187.000
862.644;  -97.650; -368.000; -347.000
862.892;  -29.200;   98.000;  138.000
863.140; -123.775; -549.000; -530.000
863.388; -161.450; -815.000; -759.000
863.635; -141.700; -642.000; -601.000
863.883;  -15.600;  231.000;  190.000
864.131;  -94.975; -288.000; -357.000
864.378; -148.225; -675.000; -540.000
864.626; -116.700; -347.000; -415.000
864.873; -116.125; -556.000; -505.000
865.121; -134.725; -714.000; -799.000
865.368;  -39.225; -173.000;   75.000
865.616;  -50.000;  -33.000;  -40.000
865.863;  -59.550; -462.000; -506.000
866.111; -102.600; -795.000; -824.000
866.358;   49.500; -426.000; -420.000
866.605; 2460.600;  -64.000; -804.000
866.853; 2792.900; -621.000; -537.000
867.100;   -8.925; -728.000; -775.000
867.347; -113.550; -672.000; -611.000
867.594;  -97.750; -740.000; -714.000
867.841;   68.850;   97.000;   17.000
868.089; -161.725; -746.000; -698.000
868.336; -112.975; -477.000; -420.000
868.583; -136.475; -637.000; -741.000
868.830;  -70.275; -131.000; -170.000
869.077; -167.500; -859.000; -787.000
869.324; -125.100; -502.000; -458.000
869.571; -125.525; -398.000; -430.000
869.818; -121.650; -485.000; -439.000
870.065; -118.500; -439.000; -513.000
870.311; -116.025; -456.000; -542.000
870.558; -111.250; -332.000; -311.000
870.805;  -94.050; -320.000; -384.000
871.052; -102.975; -494.000; -369.000
871.298;  -68.650; -204.000; -131.000
871.545;  -85.175; -151.000; -185.000
871.792; -102.025; -173.000; -222.000
872.038;  -73.200;   43.000; -126.000
872.285; -125.325; -496.000; -387.000
872.532;  -95.425; -357.000; -387.000
872.778;   -7.825;  556.000;  403.000
873.025;  -98.450; -384.000; -359.000
873.271;   11.950;  501.000;  578.000
873.517;  -48.175; -133.000; -209.000
873.764;  -36.000; -193.000;  -80.000
874.010;  -87.625; -143.000; -230.000
874.257;  -44.225;  123.000;   90.000
874.503; -140.875; -579.000; -479.000
874.749;  -79.050;   31.000;  275.000
874.995;  -74.300;  -80.000;  -20.000
875.242; -133.125; -540.000; -478.000
875.488; -121.150; -414.000; -439.000
875.734;  -65.125; -106.000; -234.000
875.980;  105.000; -872.000;-1032.000
876.226;  300.975; -157.000; -255.000
876.472;  -16.000;  343.000;  237.000
876.718;  -49.825;  184.000;  158.000
876.964;  -47.825;   56.000;   55.000
877.210; -148.025; -547.000; -677.000
877.456; -146.450; -630.000; -557.000
877.702; -179.775; -821.000; -832.000
877.948; -125.700; -377.000; -497.000
878.193;   -0.050;  361.000;  255.000
878.439; -114.225; -487.000; -472.000
878.685; -100.450; -272.000; -343.000
878.931; -137.100; -618.000; -676.000
879.176;  -94.425; -201.000; -201.000
879.422; -186.725; -933.000; -820.000
879.668;   50.375;   10.000;   79.000
879.913;  111.325;   53.000;  137.000
880.159;  -59.600; -112.000;  -17.000
880.404;  -59.825; -152.000; -162.000
880.650;  -42.525;   91.000;  141.000
880.895; -158.650; -670.000; -710.000
881.141; -120.500; -454.000; -428.000
881.386; -147.425; -503.000; -658.000
881.631;  -98.650; -311.000; -166.000
881.877;  -32.325;  112.000;  -13.000
882.122; -137.850; -684.000; -600.000
882.367; -102.150; -136.000; -186.000
882.612;  -71.750;  -80.000; -176.000
882.858; -180.325; -877.000; -823.000
883.103; -105.225; -297.000; -267.000
883.348; -150.725; -759.000; -852.000
883.593; -144.575; -677.000; -602.000
883.838;  -75.300; -311.000;  -24.000
884.083;   14.375;  353.000;  288.000
884.328; -104.700; -564.000; -545.000
884.573;  -62.725; -196.000; -143.000
884.818;  128.475; -694.000; -531.000
885.063;  162.600; -348.000; -315.000
885.308; -109.700; -475.000; -398.000
885.553;  -13.950;  245.000;  325.000
885.797; -136.250; -545.000; -615.000
886.042;  -72.325;    8.000;   58.000
886.287;  -86.800; -253.000; -211.000
886.532;  -48.900;   26.000;  204.000
886.776; -107.150; -407.000; -525.000
887.021; -156.325; -621.000; -574.000
887.265; -160.025; -685.000; -689.000
887.510; -146.700; -557.000; -496.000
887.755;  -88.350; -194.000; -164.000
887.999; -142.750; -552.000; -575.000
888.244;  -75.375;  -58.000;  161.000
888.488;  -16.250;  371.000;  393.000
888.732; -134.025; -368.000; -520.000
888.977; -143.625; -622.000; -567.000
889.221; -161.725; -683.000; -659.000
889.465; -128.225; -422.000; -566.000
889.710;  -86.775;  -56.000; -299.000
889.954;  -18.100;  579.000;  467.000
890.198; -166.750; -584.000; -707.000
890.442; -164.075; -716.000; -712.000
890.687; -156.125; -800.000; -753.000
890.931;  -93.600; -273.000; -210.000
891.175; -135.600; -502.000; -500.000
891.419;  -76.850; -105.000; -110.000
891.663;  -95.300; -239.000; -112.000
891.907; -166.875; -801.000; -545.000
892.151; -185.475; -920.000; -815.000
892.395; -114.500; -274.000; -387.000
892.638;  -28.875;  408.000;  291.000
892.882; -172.675; -780.000; -867.000
893.126;    2.325;  758.000;  558.000
893.370;  -91.600; -167.000; -168.000
893.614; -162.125; -714.000; -715.000
893.857; -110.175; -183.000; -197.000
894.101; -141.525; -527.000; -631.000
894.345;  -51.325;  300.000;  150.000
894.588;   17.075;  569.000;  380.000
894.832;  -73.825; -178.000;  -84.000
895.075;  -82.650;   15.000;  -92.000
895.319; -131.950; -552.000; -420.000
895.563; -120.175; -413.000; -353.000
895.806; -152.075; -628.000; -741.000
896.049; -101.775; -576.000; -368.000
896.293;   59.625;  527.000;  405.000
896.536;  -83.725; -465.000; -468.000
896.779;  -68.250; -149.000;   -1.000
897.023; -158.900; -751.000; -714.000
897.266;  -41.800;  325.000;  269.000
897.509; -186.925; -900.000; -901.000
897.752;  -57.225;  149.000;  171.000
897.996; -209.450; -972.000; -864.000
898.239;  -56.275;  168.000;  102.000
898.482; -134.975; -431.000; -453.000
898.725;  -44.950;  101.000;   53.000
898.968; -158.600; -609.000; -744.000
899.211; -121.375; -513.000; -361.000
899.454; -129.375; -633.000; -539.000
899.697;  -81.475;   90.000;  -43.000
899.940; -175.050; -761.000; -757.000
900.182; -119.075; -335.000; -405.000
900.425;  -94.575; -150.000; -298.000
900.668;  -28.400;  491.000;  350.000
900.911; -116.750; -292.000; -345.000
901.154;  -51.350;  141.000;   -3.000
901.396; -147.475; -407.000; -412.000
901.639; -151.275; -430.000; -496.000
901.882; -181.200; -790.000; -809.000
902.124;  -84.600;  -29.000; -143.000
902.367; -126.525; -315.000; -361.000
902.609; -140.000; -476.000; -453.000
902.852; -109.875; -108.000; -260.000
903.094; -125.300; -458.000; -337.000
903.337;  -65.200;  -26.000;   53.000
903.579; -120.375; -228.000; -441.000
903.821; -152.050; -597.000; -744.000
904.064;  -67.125;   85.000;  127.000
904.306; -107.075; -126.000; -166.000
904.548; -108.025; -152.000; -366.000
904.790;  -98.775; -195.000; -340.000
905.033; -137.900; -625.000; -577.000
905.275; -150.675; -513.000; -524.000
905.517;   12.375;  468.000;  256.000
905.759;  -73.300; -667.000; -761.000
906.001; -106.975; -322.000; -369.000
906.243;  -91.625; -162.000; -224.000
906.485;   74.550; -265.000; -207.000
906.727;   62.125; -499.000; -542.000
906.969;  -46.600;  -30.000; -135.000
907.211;   71.550; -316.000; -382.000
907.453;  215.250; -188.000; -237.000
907.695;  -19.850; -158.000; -385.000
907.936;   33.475;  818.000;  706.000
908.178;  -64.175;   92.000; -135.000
908.420;  -82.500; -111.000; -162.000
908.662; -147.750; -633.000; -682.000
908.903;  -84.125; -208.000; -123.000
909.145;  -71.800; -240.000; -305.000
909.386;   -4.800;  315.000;  280.000
909.628;   28.450;  363.000;  397.000
909.870;  -11.000;   29.000;  264.000
910.111;  -92.800; -809.000; -949.000
910.353;    4.450; -123.000; -161.000
910.594;   -2.000; -574.000; -606.000
910.835;   63.025; -265.000; -326.000
911.077;  127.850; -503.000; -604.000
911.318;  274.825; -505.000; -471.000
911.559;  435.750; -577.000; -880.000
911.801; 1271.425; -284.000; -280.000
912.042; 9613.000;  -50.000; -159.000
912.283;26827.100;  404.000;  371.000
912.524; 4497.900; -396.000; -457.000
912.765;  485.300; -193.000;   79.000
913.006;  233.050; -307.000; -338.000
913.247;   54.100; -270.000; -290.000
913.488;  -18.525;  -43.000;   30.000
913.729;  -82.525; -373.000; -373.000
913.970;  -60.125;  -96.000; -292.000
914.211;  -75.325; -160.000; -198.000
914.452;  -80.950; -118.000;  -11.000
914.693;   -4.875;  510.000;  592.000
914.934;    9.425;  510.000;  440.000
915.175;  -74.675;   53.000;  -95.000
915.415;  -73.600; -137.000;   27.000
915.656;  -73.875;  -28.000;  192.000
915.897; -100.550; -252.000;  -82.000
916.137;  -71.600;   74.000;   -9.000
916.378; -143.450; -573.000; -517.000
916.619;  -89.200; -159.000;  -63.000
916.859;  -33.325;  303.000;  330.000
917.100;  124.700; 1655.000; 1070.000
917.340;   20.475;  930.000;  728.000
917.581;   45.875;  965.000;  789.000
917.821;  -51.675; -171.000;  143.000
918.061;  -10.525; -199.000;  -72.000
918.302;  -69.050; -152.000; -211.000
918.542;  -37.625;  -22.000;    3.000
918.782;   11.525;  369.000;  377.000
919.023;  113.500;  360.000;  427.000
919.263; 1223.525; 8131.000;  202.000
919.503; 1066.525; -137.000;  -54.000
919.743;  533.225;  390.000;  266.000
919.983;  225.725; -134.000;  -26.000
920.223;   66.650;  135.000;   14.000
920.463;  138.100;  631.000;  554.000
920.703;  126.675;   84.000;   39.000
920.943;  144.375; -110.000;   90.000
921.183;  242.375; -414.000; -405.000
921.423;  504.775;  307.000;  546.000
921.663;  731.825; -174.000; -257.000
921.903; 1566.175;  237.000;  173.000
922.143; 8536.425;  372.000;  389.000
922.383;34319.625;  158.000;  115.000
922.622;12788.425; -120.000;  -15.000
922.862; 1339.375;  796.000;  785.000
923.102;  496.425;  -51.000;   33.000
923.341;  208.075;   59.000;   74.000
923.581;   90.975;  450.000;  360.000
923.821;   14.125;  301.000;  398.000
924.060;    1.000;  351.000;  193.000
924.300;  -55.025;  -16.000; -128.000
924.539;  -20.950;  584.000;  473.000
924.779;   16.175;  812.000;  597.000
925.018;  -32.075;  247.000;  353.000
925.257;   -7.825;  595.000;  666.000
925.497;  -37.825;  447.000;  412.000
925.736;  -78.500;  -35.000;  102.000
925.975;   -7.450;  687.000;  669.000
926.214;   29.650;  907.000;  850.000
926.454;   10.575;  706.000;  757.000
926.693;  -51.275;  419.000;  543.000
926.932;   24.350; 1021.000;  825.000
927.171;   60.175; 1107.000; 1044.000
927.410;   42.850; 1144.000;  967.000
927.649;   25.625;  924.000;  742.000
927.888;  -13.350;  590.000;  564.000
928.127;  -18.125;  680.000;  678.000
928.366;   20.350;  842.000;  826.000
928.605;   35.975;  831.000;  737.000
928.844;  228.950; 1451.000; 1393.000
929.083;  535.825;  770.000;  613.000
929.321;  318.275; 1335.000; 1359.000
929.560;   74.725; 1158.000; 1122.000
929.799;  -36.125;  574.000;  475.000
930.038;   84.250; 1025.000; 1394.000
930.276;  -58.750;  334.000;  397.000
930.515;    6.600;  827.000;  681.000
930.753;  -25.850;  614.000;  589.000
930.992;  -29.600;  664.000;  717.000
931.230;   -6.925;  847.000;  847.000
931.469;  161.050; 2162.000;  892.000
931.707;   67.925;  840.000;  751.000
931.946;   79.700; 1278.000; 1344.000
932.184;   47.850; 1437.000; 1175.000
932.423;   29.175; 1265.000;  963.000
932.661;   80.375; 1296.000; 1428.000
932.899;    9.700;  987.000;  821.000
933.137;   -3.175;  754.000;  564.000
933.376;  126.900; 1664.000; 1335.000
933.614;  149.725; 1759.000; 1196.000
933.852;   54.450; 1357.000; 1171.000
934.090;  133.975; 1722.000; 1747.000
934.328;  103.950; 1252.000; 1457.000
934.566;   95.250; 1431.000; 1110.000
934.804;  138.900; 1263.000; 1309.000
935.042;  530.200; 1861.000; 1850.000
935.280; 2043.700; 2088.000; 2063.000
935.518; 2041.125; 2113.000; 2007.000
935.756;  413.700; 2481.000; 2316.000
935.994;  147.000; 1808.000; 1751.000
936.231;  350.925; 2890.000; 2950.000
936.469;  196.925; 2367.000; 2378.000
936.707;  171.425; 2220.000; 2167.000
936.945;  223.375; 2825.000; 2882.000
937.182;  207.000; 2679.000; 2741.000
937.420;  283.150; 3602.000; 3031.000
937.657;  380.425; 3365.000; 3478.000
937.895;  327.575; 3331.000; 3488.000
938.133;  286.825; 3540.000; 3528.000
938.370;  313.000; 3896.000; 4191.000
938.607;  388.250; 4488.000; 4205.000
938.845;  553.025; 5587.000; 5549.000
939.082;  464.700; 5387.000; 5177.000
939.320;  516.125; 5799.000; 5728.000
939.557;  614.050; 6549.000; 6491.000
939.794;  706.250; 7285.000; 7097.000
940.031;  868.050; 8421.000; 8368.000
940.269; 1081.250; 9552.000; 9107.000
940.506; 1102.225;10901.000;10507.000

