
Integration time [ms]: 100.000
Averaging Nr. [scans]: 40
Smoothing Nr. [pixels]: 0
Data measured with spectrometer [name]: 2101013U2
Wave   ;Sample   ;Dark     ;Reference
[nm]   ;[counts] ;[counts] ;[counts] 

394.013;   63.588; -450.257; -315.536
394.305;  191.360; -461.258; -419.536
394.596; 1114.508; -676.269; -527.514
394.887; 2800.450; -796.268; -654.518
395.178; 1074.080;  145.736;   11.476
395.470;   86.566; -210.263; -356.526
395.761;  196.564;  305.734;  394.479
396.052;  257.834; -545.284; -306.489
396.343;  279.928; -557.276; -454.503
396.634;   84.522; -200.279; -290.497
396.926;   93.622; -618.268; -565.517
397.217;   86.158;   11.725;  -17.504
397.508;   42.398; -366.273; -154.507
397.799;   31.147; -555.279; -571.497
398.090;    3.392; -973.280; -902.495
398.381;   97.734;   11.708;  -11.473
398.672;  -15.614; -585.292; -742.473
398.963;   21.003; -348.279; -373.498
399.254;   88.995;   54.709; -209.475
399.545;  -34.239;-1017.266; -883.520
399.836;   71.792; -407.277; -343.501
400.127;   41.336; -205.295; -209.468
400.418;   54.693; -423.274; -392.506
400.709;   49.904; -359.281; -333.493
401.000;   55.524; -268.291; -309.476
401.290;   96.823;  225.698;  115.545
401.581;   75.267; -166.286; -228.485
401.872;   15.358; -542.298; -486.462
402.163;   57.853; -313.296; -252.467
402.454;   82.645; -123.291; -163.475
402.744;   63.670; -844.297; -813.465
403.035;  387.926; -226.293;  -86.471
403.326;  502.188; -366.292; -384.474
403.617;  348.078;  204.701;  165.539
403.907;  250.990; -593.283; -679.490
404.198; 2485.402; -545.307; -599.446
404.489; 6410.244; -618.283; -588.491
404.779; 2052.526; -618.302; -660.456
405.070;  229.580;  -67.304; -174.451
405.360;  329.253; -259.293; -238.472
405.651;  380.213;  125.699;   98.542
405.942;  163.862;  209.714;  127.516
406.232;  235.327; -432.285; -413.487
406.523;  402.521;  641.706;  758.530
406.813;   82.689; -579.286; -644.484
407.104;  297.858;  261.708;  144.527
407.394;  154.679; -604.299; -591.462
407.685;  127.951;  336.715;  222.513
407.975;   50.768; -400.283; -382.490
408.265;  103.935; -134.289; -190.478
408.556;   65.317; -472.291; -459.475
408.846;  155.172;  474.706;  429.530
409.137;   87.818;   -1.288; -216.480
409.427;   43.976; -193.285; -271.487
409.717;   39.352; -776.273; -692.508
410.007;  127.145;    4.715; -170.486
410.298;   92.089; -360.295; -342.469
410.588;   60.124; -495.285; -510.486
410.878;   34.404; -792.287; -873.482
411.168;  107.161; -481.298; -478.463
411.459;  131.263; -295.283; -242.489
411.749;   38.216; -609.292; -507.474
412.039;   52.441; -755.289; -386.480
412.329;  204.210;   40.722;  132.501
412.619;  198.390;  -62.286; -148.485
412.909;  345.237;  639.711;  594.521
413.199;  296.617; -130.280; -251.495
413.490;  380.778;  521.710;  352.523
413.780;  150.146;-1013.279; -913.496
414.070;  310.904;  -46.276;  235.497
414.360;  341.982; -729.278; -666.498
414.650;  388.275; -726.288; -688.482
414.940;  555.220; -538.280; -441.496
415.230;  931.647;   50.712;   74.519
415.520; 6187.007;  155.730;   66.486
415.809;24437.953; -305.281; -125.493
416.099;18786.820; -388.277; -229.501
416.389; 5366.866;  435.726;  236.494
416.679; 3141.095;   91.738;   85.473
416.969;  529.633; -527.287; -503.483
417.259;  477.323;  341.721;  171.503
417.549;  685.452;  522.718;  318.508
417.838; 1693.424; -205.268; -147.518
418.128; 5680.033;  650.710;  492.522
418.418; 4749.408; -491.272; -579.509
418.708; 3170.516;    9.726;  -48.506
418.997;12027.912; -474.275; -480.505
419.287;12546.073; -733.273; -790.507
419.577;11979.237; -160.283; -123.489
419.866;39552.318; -588.277; -498.501
420.156;40063.553; -242.270;  -55.513
420.446; 7066.562; -112.263;  -26.526
420.735;  823.972; -376.271; -446.512
421.025;  818.581; 1830.722;  315.502
421.314;  627.671; -203.271; -226.512
421.604; 1163.267;   89.732;  233.484
421.893;  706.292; -705.271; -602.511
422.183;  216.762; -487.263; -461.526
422.472;  360.243;  -36.271; -107.511
422.762;  435.592; -416.266; -379.521
423.051;  240.605; -916.276; -916.503
423.341;  297.625; -491.273; -439.507
423.630;  410.073; -121.265;   15.477
423.919;  388.286;   58.725;   49.495
424.209;  388.568;  -31.263;   56.473
424.498;  503.822;   68.732;  161.483
424.787; 1111.928; -535.267; -601.518
425.077; 3365.996;   34.735;   29.478
425.366; 4564.848; -734.262; -744.528
425.655;10163.350;  639.727;  259.493
425.945;22990.226; -313.247; -268.554
426.234;12645.221;  117.741;  300.467
426.523; 5155.026;  -86.259; -350.534
426.812; 7043.338;  107.734;  159.480
427.101;10535.138; -127.269; -323.515
427.390;13126.107;  -55.270;  -86.514
427.680; 2782.171; -624.257; -411.538
427.969;  443.556; -330.255; -301.540
428.258;  317.137; -385.257; -477.536
428.547;  501.862;  449.728;  397.490
428.836; 1110.622; -421.253; -398.543
429.125; 1605.353; -199.259;  -72.534
429.414;  757.495; -330.251; -294.548
429.703; 3186.420; -231.251; -213.548
429.992; 9634.423; -938.250; -828.549
430.281; 6215.530; -397.264; -331.524
430.570;  549.485;  -21.252;   32.454
430.859;  498.226;  279.741;  352.466
431.148;  401.597;  636.752;  631.446
431.437;  275.260;  391.748;  367.454
431.725;  157.714; -544.257; -481.536
432.014;  127.430; -845.253; -756.545
432.303;  376.322; -149.239; -105.569
432.592;  547.612; -460.263; -178.525
432.881; 1035.773; -601.248; -437.554
433.169; 6448.007; -343.255;  -61.540
433.458;13016.981;  445.765;  540.424
433.747; 5334.754; -397.261; -289.529
434.036;  850.423; -275.242; -280.564
434.324; 2113.536; -395.249; -379.551
434.613; 3712.792;   40.757;  159.437
434.902; 1188.688;  333.760;  439.433
435.190;  475.196;   75.761;  295.431
435.479;  253.649;  -52.245;   83.441
435.767;   99.557; -411.244; -427.561
436.056;  205.119; -340.242; -294.563
436.345;  363.340; -372.240; -223.568
436.633;  371.881;   60.750;  383.450
436.922;  228.317;  208.760;  414.432
437.210;  450.921; -194.236;    1.426
437.499; 1463.704; -583.235; -432.576
437.787; 1626.020; -339.236;  -10.574
438.075;  429.877;   56.761;  162.430
438.364;  564.854;  -44.238;  250.429
438.652;  358.058; -286.226; -138.592
438.941;  107.497;    3.770;  269.415
439.229;    3.283; -665.252; -466.545
439.517;   25.687; -160.234;  -85.577
439.806;    1.499; -501.225; -290.595
440.094;  167.520;  377.766;  650.421
440.382;  145.499; -653.233; -302.580
440.670;  168.379; -361.235; -285.576
440.959;   12.366; -347.223; -170.599
441.247;   55.659; -151.229; -109.587
441.535;   95.611; -266.235;   31.423
441.823;   21.542; -497.234; -305.578
442.111;  165.188;  173.771;  327.412
442.400;  434.723; -628.245; -335.559
442.688; 1111.894; -111.234; -620.579
442.976;  758.378; -786.213; -450.617
443.264;   88.755; -324.224; -364.597
443.552;   90.334; -258.226;   51.408
443.840;  156.284;  602.765;  876.423
444.128;   94.948;  265.767;  269.420
444.416;   -1.485; -694.228; -312.588
444.704;   27.920; -465.219;  -92.605
444.992;   65.962;   -0.226;  240.407
445.280;   30.048; -517.230;  -94.585
445.568;   25.481; -694.212; -396.618
445.856;  291.479; -174.221;  357.398
446.143;  643.817;  -54.220;   -7.604
446.431;  527.194;  -25.228;  625.411
446.719;  219.239;  489.783;  675.391
447.007;  170.917;  481.769;  705.416
447.295;  187.888;  597.777;  871.402
447.583;   80.031; -464.229;  -34.587
447.870;  134.226; -434.221; -202.601
448.158;  345.872; -104.230;  129.415
448.446;  270.393; -800.219; -338.604
448.733;  139.757;   13.776;  269.403
449.021;  231.831;   60.788;  341.382
449.309;  165.221; -296.210;  208.379
449.596;  212.136;  128.783;   59.392
449.884;  141.145; -571.222; -325.600
450.172;  160.549; -756.227; -406.590
450.459;  450.761;  645.786;  780.387
450.747; 2490.184; -411.218; -147.608
451.034; 8064.820;  493.772;  889.411
451.322; 6620.614; -413.214; -170.614
451.609;  520.958;  292.777;  508.403
451.897;  633.508; -550.203; -183.634
452.184; 1841.788; -622.223; -400.598
452.472; 1743.042;   97.792;  269.375
452.759;  316.693;  512.781;  864.395
453.047;  105.954; -407.212; -125.617
453.334;   59.801; -732.219; -216.606
453.621;   61.567; -438.214; -161.615
453.909;   91.925;   13.796;  384.368
454.196;  110.770; -299.199; -123.641
454.483;  196.946;  317.798;  540.364
454.771;  113.095; -215.208;  196.374
455.058;   33.498; -316.207;  102.374
455.345;  114.600;   71.807;  344.347
455.632;   77.101; -128.207;  235.373
455.919;   61.393;  -82.196;  182.354
456.207;  -64.525; -774.198; -450.642
456.494;  -22.492; -475.200;  -66.639
456.781;   -0.558; -399.202; -198.635
457.068;   55.433; -253.206;  -29.628
457.355;  -16.416; -698.206; -401.629
457.642;    6.290; -552.205; -290.630
457.929;   -6.109; -778.194; -417.651
458.216;   58.604; -575.212; -354.617
458.503;  241.621; -173.193;  -19.652
458.790;  245.968; -864.208; -630.625
459.077;  265.122;  -77.202;  110.364
459.364;  835.509; -350.195; -210.649
459.651; 1749.606;  -46.206;  220.372
459.938;  802.783; -864.209; -665.623
460.225;  134.400;  132.799;  276.363
460.512;  -51.685; -836.197; -688.645
460.799;   95.683;  -32.218;  320.392
461.086;   68.688; -370.200; -251.640
461.372;   22.425; -509.198; -279.642
461.659;   96.844; -165.196;  108.354
461.946;   46.419; -445.193;  -54.651
462.233;  226.985;  842.800;  888.361
462.519;  347.482; -814.201; -464.639
462.806; 1037.465; -768.197; -497.645
463.093;  881.590; -445.191;  -66.656
463.380;  -21.769; -920.186; -824.664
463.666;   50.767; -259.197;  -18.646
463.953;  101.154; -406.195; -243.648
464.239;  194.854; -173.195;  -77.648
464.526;  368.665;  413.806;  743.350
464.813;  303.376; -565.190; -304.658
465.099;  324.095;  606.807;  607.348
465.386;  306.599;  903.807;  921.348
465.672;    8.115; -694.197; -522.645
465.959;    6.444; -598.188; -520.662
466.245;    5.774; -468.193; -359.652
466.532;   69.452; -109.195;   63.352
466.818;   55.880; -357.186; -216.664
467.104;   -5.755; -488.182; -415.672
467.391;  -35.397; -628.189; -459.658
467.677;   20.859; -289.186;    9.335
467.964;   -1.140; -682.189; -471.660
468.250;   47.362; -331.186; -160.665
468.536;   73.754;   90.811;  180.341
468.822;  -57.527; -821.184; -574.668
469.109;  155.900;  351.827;  471.311
469.395;  184.659;  729.808;  787.346
469.681;  201.507;   46.811;  156.341
469.967; 1270.762; -699.188; -382.660
470.254; 2802.495; -494.188; -306.662
470.540; 1768.442; -601.196; -476.646
470.826;  256.481; -488.181; -397.675
471.112;  292.977;  288.816;  113.331
471.398;   70.856; -253.183;  -58.670
471.684;   32.084; -626.177; -447.680
471.970;   -3.240; -918.180; -981.675
472.256;   14.033; -521.192; -441.654
472.542;    7.111; -499.171; -434.691
472.828;   -5.059; -743.182; -607.672
473.114;   15.004; -380.166; -283.700
473.400;    8.901; -504.175; -293.684
473.686;   30.435; -452.166; -400.701
473.972;   39.415; -230.174; -131.687
474.258;  -50.100; -925.173; -843.689
474.544;  212.126; -183.178;   -2.679
474.830;  334.427;  -65.175;   45.316
475.116;  520.078; -123.190; -196.658
475.401;  709.987; -558.180; -467.676
475.687;  203.511; -725.180; -718.676
475.973;   -0.376; -673.181; -770.673
476.259;  232.129;  736.825;  764.315
476.544;  363.342; -539.176; -437.682
476.830;  887.507; -398.172; -322.690
477.116;  787.091; -430.177; -336.682
477.401;  130.437;  346.820;  358.324
477.687;   -7.299; -289.175; -405.684
477.973;   42.553;   21.819;   28.326
478.258;   -3.944; -448.163; -348.706
478.544;   48.592;   21.815;   61.334
478.829;  -47.184; -818.171; -738.692
479.115;  -51.443; -749.172; -651.690
479.401;  -22.539; -444.174; -449.686
479.686;   20.061; -253.180;  -74.676
479.972;  -22.819; -886.178; -776.680
480.257;   12.931; -258.166;  -65.700
480.542;    0.620; -614.170; -469.693
480.828;  222.774; 1288.824; 1392.317
481.113;  -30.878; -464.176; -426.683
481.399;  -24.421; -236.161; -202.711
481.684;  -62.745; -620.166; -462.700
481.969;   24.542; -158.159;  -73.713
482.255;    4.631; -439.169; -285.695
482.540;   -5.794; -569.178; -441.680
482.825;    4.851; -395.187; -404.663
483.110;   89.984;  -85.169; -105.696
483.396;  213.889; -840.157; -652.718
483.681;  517.265;  543.826;  730.313
483.966;  188.561; -696.160; -700.712
484.251;   -5.711; -404.174; -310.687
484.536;    4.266; -356.165; -378.703
484.822;   17.117; -205.173; -218.687
485.107;  -19.023; -599.152; -502.726
485.392;  110.396;  662.836;  541.296
485.677;   85.294;  354.832;  163.302
485.962;   91.461;  160.843;  270.283
486.247;   95.388;  -14.162;   -8.707
486.532;   31.007; -178.166; -325.701
486.817;  155.449;  381.839;  431.291
487.102;  113.935; -453.154; -514.722
487.387;  716.991; -637.156; -652.718
487.672; 1262.101; -154.164;  -38.705
487.957;  792.081; -394.160; -286.711
488.241;  214.868; -290.150; -314.729
488.526;  793.778; -280.152; -148.726
488.811; 1288.058; -881.177; -818.680
489.096;  942.737; -666.154; -702.723
489.381;  516.074;    3.847;  162.275
489.666;  410.029; -428.161; -510.710
489.950;  165.015;  558.846;  627.277
490.235;  -29.937; -480.151; -458.728
490.520;  -50.447; -756.161; -723.710
490.804;  -40.807; -827.156; -736.719
491.089;   -4.966; -469.149; -299.732
491.374;   54.850; -132.164;  -75.704
491.658;  -11.105; -817.147; -717.735
491.943;  148.282; -657.152; -609.727
492.227;  225.181; -178.155;  -38.721
492.512;   55.236; -294.157; -341.717
492.797;  -77.997; -713.149; -716.731
493.081;  -47.477; -588.147; -598.735
493.366;  -53.921; -751.161; -635.711
493.650;  214.300;  831.859;  917.254
493.935;   18.044; -648.147; -447.734
494.219;  -35.962; -778.142; -687.743
494.503;  -57.027; -585.150; -487.730
494.788;   52.428;   46.842;   74.285
495.072;  104.469;  184.850;  434.271
495.356;  176.787; -463.148; -343.733
495.641;  470.829; -812.146; -736.736
495.925;  423.697; -976.156; -903.719
496.209;   31.433; -599.149; -451.732
496.494;  -36.587; -763.142; -544.744
496.778;   -6.565; -364.154; -360.722
497.062;  -42.428; -819.156; -627.719
497.346;  -29.993; -869.160; -640.711
497.631;  150.115;  580.852;  560.266
497.915;   69.265;  -64.145;  175.261
498.199;   41.689; -341.157; -277.718
498.483;   11.576; -562.152; -508.725
498.767;  193.796;  301.850;  300.271
499.051;  184.106; -126.149; -100.732
499.335;   29.354; -693.149; -739.731
499.619;  -36.049; -381.129; -423.767
499.903;   21.504; -272.155;  -65.721
500.187;   17.692; -588.153; -316.724
500.471;   30.306; -796.152; -595.727
500.755;  106.253;   62.839;  -96.710
501.039;   32.355; -270.155; -357.721
501.323;   74.927;  -21.141;  264.254
501.607;   30.806; -447.163; -503.706
501.891;  -15.760; -607.156; -512.718
502.174;  -32.099; -726.144; -585.741
502.458;   66.735;   89.849;  370.273
502.742;   58.026; -180.138; -191.751
503.026;  115.044; -412.147; -254.734
503.310;  191.341; -437.159; -375.713
503.593;  134.921; -464.147; -325.735
503.877;  138.691; -232.133; -156.760
504.161;  153.669;    2.847;  -50.724
504.444;  150.755; -841.158; -710.716
504.728;  499.824; -487.164; -522.704
505.012;  747.192; -257.150;  -76.729
505.295;  556.404; -417.161; -212.711
505.579;  545.922; -256.156; -496.719
505.862;  815.311; -555.145; -333.738
506.146;  798.544; -681.159; -758.714
506.429;  410.544;  568.841;  461.286
506.713;   72.965; -732.151; -667.728
506.996;  334.909;   90.846;  295.278
507.280;  362.419; -633.165; -474.703
507.563;  235.528; -469.155; -261.721
507.847;   99.968; -423.153; -112.724
508.130;  104.005; -665.161; -456.711
508.413;  117.576; -758.167; -577.700
508.697;  259.826; -151.167;   12.300
508.980;  161.119; -422.153; -312.724
509.263;   -3.876; -466.155; -450.720
509.547;   45.592; -124.150;   82.271
509.830;   36.482; -172.160;  140.289
510.113;   81.547;  128.844;  298.281
510.396;   13.050; -530.152; -300.725
510.680;  118.237; -818.145; -812.738
510.963;  490.514;  184.846;  180.277
511.246;  399.875; -493.150; -357.730
511.529;  229.867; -482.145;  -83.739
511.812;  389.937; -250.134;   10.241
512.095;  295.812; -740.151; -396.728
512.378;   82.075; -317.147; -245.736
512.661;   31.458; -703.137; -623.753
512.944;   49.640; -750.142; -637.744
513.227;   67.581; -170.137; -171.752
513.510;   37.951; -479.144; -671.741
513.793;    7.731; -485.140; -435.747
514.076;  135.421;  -43.127;  -39.771
514.359;  104.259; -294.149; -135.732
514.642;   95.993; -442.142; -567.744
514.925;  800.855;  581.860;  561.253
515.208; 1066.259; -498.134; -443.758
515.491;  701.447; -276.133; -182.761
515.773;  408.104; -410.143; -337.742
516.056; 2218.290;  249.864;  409.246
516.339; 2988.119; -754.136; -652.755
516.622; 1835.873; -518.150; -488.730
516.904; 1069.161;  882.857;  975.257
517.187;  467.154; -730.138; -523.752
517.470;  387.735; -568.143; -510.743
517.752;  445.746; -624.136; -470.756
518.035;  380.867; -708.139; -725.749
518.318;  386.419; -799.136; -744.755
518.600; 2612.701; -300.132; -325.762
518.883; 3600.817;  310.858;   88.256
519.165; 1699.572; -585.138; -426.751
519.448;  376.775;  -61.132;  -19.762
519.730;  191.929; -573.126; -415.773
520.013;  278.818;  588.867;  664.240
520.295;  711.214;  -94.134;  -15.759
520.578; 1525.313; -335.131; -305.764
520.860; 1754.001; -254.132;   56.238
521.143;  950.973; -763.135; -584.756
521.425;  475.416; -251.125; -279.775
521.707;  704.372; -622.127; -380.771
521.990; 1949.697; -199.127;  167.229
522.272; 2145.783; -116.140;   -4.748
522.554;  945.680; -237.143; -157.742
522.836;  330.762;  -24.134;   99.241
523.119;  214.368; -496.148; -189.734
523.401;  155.270; -448.130; -314.766
523.683;  120.134; -865.137; -693.753
523.965;  274.127;  408.862;  260.248
524.247;  311.687;   54.878;  170.220
524.529;  210.264; -451.134; -367.759
524.812;  382.672;   -3.130;  191.234
525.094;  907.027; -773.138; -631.751
525.376; 1435.225; -143.124;   78.223
525.658;  873.841; -441.136; -339.754
525.940;   40.710; -805.131; -671.764
526.222;    9.769; -188.136;  -88.755
526.504;  104.133; -190.131;   32.237
526.786;  144.816; -960.133; -647.760
527.068;  270.381; -124.123;  -67.778
527.349;   86.287; -865.137; -774.754
527.631;  135.875; -137.132;   22.238
527.913;  137.371; -664.127; -450.771
528.195;  179.584; -761.125; -639.774
528.477;  249.884;  -93.134;  -30.758
528.759;  154.247; -648.130; -522.766
529.040;   64.905; -569.123; -293.778
529.322;   58.887; -235.125;  -10.774
529.604;  112.899;  -47.130;   93.233
529.886;   96.278; -546.126; -302.773
530.167;   98.441;  232.870;  192.235
530.449;   62.199;    1.853;   63.265
530.731;   24.886; -572.122; -459.779
531.012;   78.207; -513.120; -216.784
531.294;   67.821; -118.116;  -43.792
531.575;  154.366;  290.875;  538.225
531.857;   47.754; -548.135; -266.757
532.138;  102.276; -113.141;   40.254
532.420;  156.725;  294.865;  403.244
532.701;  193.619; -722.133; -751.760
532.983;  322.622;  232.867;  182.239
533.264;  109.526; -243.126;  175.228
533.546;  -36.231; -491.136; -508.755
533.827;   50.715;  173.867;   -1.759
534.109;   20.954; -352.135;  -80.757
534.390;   70.929; -725.132; -582.762
534.671;  237.100; -270.135;  -82.756
534.953;  136.207; -751.123; -611.779
535.234;   17.981; -426.117; -255.789
535.515;  -69.785; -891.119; -735.785
535.796;   -8.558; -431.128; -193.770
536.078;  -98.750;-1050.124; -904.777
536.359;    2.483;  -22.123;    3.221
536.640;  -17.064; -480.125; -197.774
536.921;  163.104;  225.871;  143.232
537.202;  393.898;  -87.138;  -16.751
537.483;  469.163;  251.869;  377.236
537.764;  194.941;   17.870;   98.235
538.045;  -50.992; -543.134; -371.758
538.326;  -34.969; -596.129; -447.768
538.607;   23.347; -686.127; -476.771
538.888;  182.573;   98.879;    5.218
539.169;  189.968; -704.122; -535.781
539.450;  336.328;  236.871;   16.233
539.731;  221.977; -361.121; -182.783
540.012;  149.482;  199.880;  412.216
540.293;   83.070;   82.876;  158.224
540.574;   -3.384; -895.113; -717.796
540.855;  438.601;  435.879;  377.218
541.136;  536.365;   47.878;  139.220
541.416;  285.898; -161.130; -220.766
541.697;  220.759; -274.131; -170.763
541.978; 1103.702; -270.135; -315.757
542.259; 1415.097; -211.127; -236.771
542.539;  666.790; -191.116; -186.790
542.820;  192.766;  461.875;  480.225
543.101;  110.889;  -52.145;  -77.738
543.381;   27.472; -638.127; -591.771
543.662;  264.520;  159.873; -254.771
543.942;  634.618; -751.127; -830.770
544.223; 1111.117;  193.878;  161.219
544.504;  727.950; -275.124; -182.777
544.784;  610.028; -592.126; -408.773
545.065; 1709.218;  104.884; -254.791
545.345; 2043.990;  227.881;   14.215
545.626; 1343.440;  -14.113; -108.796
545.906;  934.615;   77.869;   98.235
546.186;  402.933;   92.874;  -95.773
546.467;  188.977;   99.877;  -95.778
546.747;  338.889;  264.884;  327.210
547.027;  368.598;   91.876;  111.223
547.308;  359.192; -376.127; -530.770
547.588;  416.557;  299.871;  371.232
547.868;  215.742;  458.870;  588.235
548.149;  189.101;  609.885;  593.207
548.429;  145.595; -347.127; -299.771
548.709;  207.657; -645.120; -461.784
548.989;  506.625;   84.882;   88.213
549.269; 2235.199;   10.868;  139.239
549.550; 5180.981;  215.877;  117.222
549.830; 4619.008; -758.111; -556.799
550.110;  920.941; -468.110; -320.801
550.390;  896.937; -128.122;  -56.779
550.670; 1210.186; -868.114; -783.795
550.950;  845.300; -509.121; -471.782
551.230;  194.721;  549.879;  460.218
551.510;   -3.801; -381.121; -326.782
551.790;   41.623; -173.109; -127.803
552.070;  267.502;  940.877; 1181.223
552.350;  449.144; -492.119; -377.786
552.630;  634.619;   -2.121;   77.219
552.909;  384.719;  181.884;   73.209
553.189;  251.255;  -49.132;   33.237
553.469;  196.394; -703.119; -514.786
553.749;  195.424; -469.127; -357.772
554.029;  175.160;   33.883;  -24.790
554.308;  159.105; -154.115;  -37.794
554.588;   74.591; -196.128; -204.770
554.868;   68.226; -366.121;  -47.782
555.147;  159.527; -114.115;  -46.793
555.427;  622.096; -260.116; -250.792
555.707; 4176.125; -284.115; -200.793
555.986; 5036.561; -719.111; -538.800
556.266; 2661.963;   23.884;   72.210
556.546;  140.099; -888.121; -675.782
556.825;  282.784; -657.114; -556.794
557.105; 1889.989; -125.128;   17.230
557.384; 2259.593;  122.884;  187.209
557.664;  860.020; -717.116; -508.792
557.943;  141.000; -557.121; -411.782
558.222;  180.328; -345.118; -344.788
558.502;  304.753; -116.115;  -76.793
558.781;  534.749;  194.885;  499.208
559.061;  447.203; -232.118; -227.788
559.340;  301.708;  302.883;  353.211
559.619;  751.163;   93.884;  148.210
559.899; 1106.784; -239.117; -266.789
560.178; 1011.253; -778.115; -593.793
560.457; 3343.861; -623.117; -562.790
560.736; 4741.038; -472.111; -482.800
561.015; 3103.837; -500.128; -502.769
561.295;  417.118;  180.893;  215.193
561.574;  338.600;  119.885;  116.207
561.853;  535.228;  274.891;  303.197
562.132;  524.305;  -45.114;  182.206
562.411;  463.045;  396.879;  553.219
562.690;  144.974; -592.115; -458.792
562.969;  147.347;  472.888;  630.203
563.248;  516.917; 2966.878; 2487.219
563.527;  302.012; -290.111; -408.800
563.806;  421.445; -650.127; -521.771
564.085;  457.458; -297.105; -206.810
564.364;  257.787; -594.117; -405.790
564.643;  540.045; -276.121; -223.781
564.922; 1996.897;  221.890;  397.198
565.201; 2053.950; -640.109; -700.803
565.479;  891.222; -297.115; -219.792
565.758;  358.789; -810.128; -712.770
566.037;  526.426; -155.109; -100.803
566.316;  255.843; -286.116;  -28.791
566.595;   41.200;  -17.115;  -12.793
566.873;   94.914; -166.111;  -79.801
567.152;  -52.978; -490.113; -590.797
567.431;   20.739; -113.116;    6.210
567.709;    6.218; -344.107; -212.807
567.988;  292.609; -810.114; -769.794
568.266;  551.900; -160.115;  -68.793
568.545;  424.304; -644.100; -514.819
568.824;  625.147;  160.885;  356.208
569.102;  630.058; -351.114; -235.794
569.381;  245.471; -492.116; -407.792
569.659;  -30.107; -553.113; -553.796
569.938;   23.716; -743.122; -465.780
570.216;  119.179; -225.109; -225.804
570.494;  -15.263; -632.114; -572.795
570.773;   36.224;  202.879;  114.218
571.051;    0.305; -373.123; -357.778
571.330;   67.891; -221.113; -174.796
571.608;   35.672; -181.098; -173.823
571.886;  -60.694; -671.111; -581.799
572.164;  -69.424; -739.121; -621.782
572.443;  -36.313; -562.105; -512.811
572.721;  -45.564; -399.117; -289.790
572.999;  -15.545; -280.117; -168.788
573.277;   83.930;  379.894;  620.191
573.555;  318.907;   94.894;   37.190
573.834; 1458.104;  -86.117; -114.788
574.112; 1702.545;  880.893;  811.193
574.390;  505.338; -143.111;  -96.801
574.668;   13.173;  -91.112;  -61.797
574.946;  -15.218; -165.106; -187.810
575.224;   12.375;   71.891;  -16.803
575.502;  -28.559; -200.116; -204.791
575.780;  -75.326; -767.112; -829.798
576.058;  126.662; 1589.889; 1004.200
576.336;  -14.982; -210.110; -129.801
576.614;  -61.426; -511.112; -340.798
576.891;   65.029; -711.115; -823.794
577.169;  518.912; -158.108; -285.805
577.447;  623.345;  169.893;  202.193
577.725;  265.279;  629.888;  854.201
578.003;   22.402;  -71.112; -371.798
578.280;  102.795; -208.104; -242.812
578.558;   74.553; -450.115; -422.793
578.836;  107.386; -210.114; -145.795
579.114;   58.148; -630.112; -670.797
579.391;   58.281;   -6.117;  -18.789
579.669;  -63.995; -595.114; -704.794
579.947;  181.067; -326.107; -127.806
580.224;  360.717; -692.107; -524.806
580.502;  336.996;  127.893;   76.193
580.779;   30.437;  -42.117;   75.210
581.057;  -75.421; -584.109; -470.804
581.334;  -94.990; -726.102; -695.815
581.612;   35.633;   54.895;  511.190
581.889;  -29.552;  -83.101; -129.818
582.167;  -52.213; -298.099; -190.821
582.444;  -94.732; -845.102; -814.817
582.721;   94.469;  657.899;  715.183
582.999;   55.710; -326.100; -167.821
583.276;  568.509; -812.123; -713.779
583.553;  768.413; -364.102; -294.816
583.831;  238.867; -607.104; -631.812
584.108;   68.860;  349.892;  174.195
584.385;   11.285; -122.102;  -98.815
584.662;  -68.936; -651.111; -828.801
584.940;   42.439;  204.889;  204.199
585.217;  -23.832;  -73.113; -303.796
585.494;   32.947;   71.890;  118.198
585.771;  226.305; -250.109; -354.804
586.048;  513.193; -196.113;  -76.796
586.325;  337.667; -721.110; -773.801
586.602;   97.871;  230.896;  213.188
586.879;    0.656; -499.100; -580.820
587.156;   37.509; -156.105; -331.810
587.433;  -22.784; -701.102; -667.817
587.710;   72.775;  152.888;  234.202
587.987;  318.264; -264.105; -236.811
588.264;  804.627;  315.888;  387.202
588.541; 1407.423;  -61.104;   26.187
588.818; 2791.132;   72.892;  171.196
589.095; 2395.044; -163.104; -174.812
589.371;  392.178; -459.109; -414.804
589.648;   27.545; -581.107; -437.807
589.925;   22.312; -517.114; -621.795
590.202;   28.675; -741.112; -607.798
590.478;   94.016; -166.105;  -73.811
590.755;  276.438; -241.108; -132.806
591.032; 2643.244; -741.110; -699.802
591.308; 3620.587; -732.094; -790.831
591.585; 1883.019; -573.110; -560.802
591.862;  167.592;-1056.102; -950.817
592.138;   72.886; -475.108; -474.805
592.415;  165.997; -486.104; -495.813
592.691; 1542.319;  460.896;  518.188
592.968; 1966.874; -208.098; -123.824
593.244;  940.289; -695.116; -595.790
593.521;   75.318; -105.102;  -42.817
593.797;   -7.587; -810.122; -720.780
594.074;  356.786; -611.096; -588.826
594.350;  656.222;  828.905;  729.172
594.626;  329.240; -303.111; -283.801
594.903;  131.518; -643.101; -645.817
595.179;  209.425;  243.896;  418.187
595.455;    5.572; -136.107; -150.807
595.731;   -5.523;  -19.103;  -38.814
596.008;  -42.066; -464.111; -434.800
596.284;   46.884; -187.100; -242.820
596.560;   61.243; -501.093; -493.833
596.836;  211.986; -173.105;  -70.810
597.112;  361.361; -582.108; -437.805
597.388;  308.309;  -49.097;  -48.826
597.665;  107.320;  437.887;  530.203
597.941;  -53.378; -572.089; -658.839
598.217;   13.522; -323.110; -293.802
598.493;  279.206;   61.891; -204.804
598.769;  534.178; -175.100;  -50.819
599.045;  316.589; -490.108; -562.806
599.321;   55.133; -193.100; -261.820
599.597;  151.256; -355.109; -476.804
599.872;  504.498;  409.896;  429.187
600.148;  392.711;  -61.097; -172.826
600.424;  317.369;   91.893;  202.193
600.700;  260.621; -170.107; -280.807
600.976;  124.930; -442.097; -464.825
601.252;  269.152; -226.109; -272.803
601.527;  223.099; -833.104; -840.813
601.803;  166.342; -453.105; -404.812
602.079;  197.503; -124.100; -118.819
602.354;  588.278; -620.092; -531.835
602.630;  892.943; -140.113; -482.796
602.906; 2496.898; -910.101; -863.818
603.181; 7087.219; -627.119; -534.786
603.457; 6034.934;   98.903; -278.826
603.733;  870.503; -605.120; -626.783
604.008; 1012.858; -245.106; -164.810
604.284; 3157.445; -636.101; -580.817
604.559; 2803.654;   -3.112;  -42.799
604.835;  510.186; -163.105; -225.810
605.110;  444.263; -732.099; -892.821
605.385;  713.646;  224.907;  267.167
605.661;  697.350; -625.095; -729.829
605.936; 1232.690; -664.108; -737.806
606.211; 1037.733;  -17.103; -170.815
606.487;  222.057; -329.114; -376.794
606.762;   14.644; -791.119; -745.786
607.037;  -31.089; -501.105; -433.810
607.313;  -40.506; -589.096; -574.828
607.588;  -13.067; -375.106; -137.810
607.863;   36.823;  -28.101; -143.818
608.138;  188.721;  513.890;  516.198
608.413;   36.892; -576.099; -592.822
608.688;   40.786; -203.108; -267.805
608.964;  229.602; -509.106; -218.809
609.239;  248.258; -107.105; -212.810
609.514;  264.466;  281.895;  240.188
609.789;  665.821; -187.104; -716.812
610.064;  899.267; -435.096; -609.827
610.339;  932.303; -855.109; -799.804
610.614; 1270.583; -131.100; -315.820
610.889;  703.266;  215.895;  107.188
611.163;   44.317; -407.104; -591.812
611.438;   78.634;   81.886; -167.794
611.713;   11.920; -467.101; -499.817
611.988;   47.022; -144.101; -328.818
612.263;   -0.290; -771.102; -717.815
612.538;  222.342;  385.887;  251.204
612.812;  209.859; -832.100; -911.820
613.087;  143.847; -358.098; -338.823
613.362;  -27.628; -497.107; -557.807
613.637;   42.180;  261.897;  138.186
613.911;   -7.347; -256.092; -345.835
614.186;  121.970; -249.107; -292.807
614.460;  757.121; -842.081; -758.854
614.735;  845.970;  -55.087;  -17.843
615.010;  175.010;   43.912;  -82.841
615.284;  246.485;  360.892;  246.195
615.559;  379.477; -792.092; -955.835
615.833;  285.090;  -76.099;  -87.822
616.108;   18.714; -225.090; -390.837
616.382;  134.722;  274.913;  402.156
616.656;  175.214; -241.090; -232.837
616.931;  528.315; -785.099; -700.822
617.205; 1120.950; -973.104; -979.813
617.480; 1004.489;  -91.125;    6.225
617.754;  191.662; -396.125; -128.774
618.028;    9.408; -369.129; -382.768
618.302;   65.109;   73.892;  -25.805
618.577;  -52.819; -371.103; -518.815
618.851;  -51.501; -399.109; -600.803
619.125;  -51.011; -335.134; -378.759
619.399;  -35.500; -244.104; -374.813
619.673;  -48.803; -330.115; -515.792
619.947;  -47.014; -333.114; -448.795
620.222;  -19.160; -198.110; -204.801
620.496;   12.976;  -47.121;  -96.782
620.770;    2.267; -187.122;  -93.781
621.044;  219.284;  323.895;  346.190
621.318;  758.203; -653.120; -614.783
621.592;  700.126; -430.121; -409.783
621.866;  385.305; -476.112; -572.799
622.140;   15.541; -207.116; -356.791
622.413;   53.034;  138.889;  112.200
622.687;  -26.305; -746.101; -492.817
622.961;   24.284; -130.108; -143.805
623.235;  -63.915; -633.111; -661.800
623.509; -114.634; -816.105; -848.811
623.783;   14.468;  -12.107;   48.193
624.056;  -21.220; -254.120; -280.783
624.330;   52.223;   63.888;   -3.797
624.604;   61.262; -271.116; -355.790
624.877;   83.045;  180.890;   26.198
625.151;   45.956; -249.114; -238.794
625.425;  -43.698; -150.103; -283.814
625.698;  -58.936; -367.119; -374.785
625.972;  -88.503; -799.110; -765.802
626.245;   60.189;  685.884;  484.210
626.519;  -41.491; -426.120; -340.784
626.792;  -42.679; -192.107; -380.807
627.066;  -85.940; -485.122; -662.779
627.339; -104.582; -736.110; -663.802
627.613;   41.582;  351.880;  148.216
627.886;   57.274;  187.891; -612.803
628.160;   -9.822;  312.880; -161.783
628.433; -107.258; -695.125; -703.775
628.706;  -81.016; -517.120; -615.784
628.979;   30.398;  296.876;  117.223
629.253;  -80.756; -785.119; -833.786
629.526;  389.002; -334.126; -253.772
629.799;  369.880; -641.123; -479.778
630.072;  181.709; -497.128; -516.769
630.346;  -51.811;-1115.116;-1080.790
630.619;  488.347; -467.107; -545.808
630.892;  668.735;  709.889;  593.200
631.165;  334.850;  790.896;  679.187
631.438;  -73.873;-1092.112;-1055.798
631.711;   42.533;  453.877;  257.221
631.984;  -49.090; -523.117; -624.789
632.257;  -87.319; -636.117; -681.789
632.530;  -43.461; -412.119; -433.785
632.803;   14.754; -109.115;    7.207
633.076;  -51.973; -360.123; -422.777
633.349;    2.663;  173.872;  121.231
633.622;  -43.737; -187.119; -240.785
633.895; -125.096; -903.120; -823.783
634.167;  -58.021; -496.126; -525.773
634.440;  -18.154;  -19.116; -137.792
634.713;   -0.108;  -22.119; -120.786
634.986;   91.478;  593.871;  453.233
635.258;  -77.573; -507.115; -597.793
635.531;   76.202;  742.882; -343.788
635.804;  -19.467; -303.117; -318.789
636.077;  -92.558; -830.116; -852.791
636.349;    8.626; -586.115; -474.793
636.622;  384.276; 1695.874; 1392.228
636.894;  274.259; -474.120; -909.784
637.167;  158.395; -836.127; -789.771
637.439;   31.691; -278.128; -213.770
637.712;  -54.747; -312.126; -293.772
637.984;  -78.308; -635.116; -707.791
638.257;  390.978;  515.877;  488.222
638.529;  578.218; -881.125; -924.776
638.802;  224.959; -508.128; -449.769
639.074;  -98.683; -927.122; -952.781
639.346; -127.520; -942.135; -930.757
639.619;    5.441;  -79.142; -319.744
639.891;  -23.815;  -83.122; -168.779
640.163;  -79.388; -689.122; -756.780
640.435;   15.189;  273.878;  103.220
640.708;   15.541;  -72.122; -132.780
640.980;  -43.682; -366.122; -362.781
641.252;  188.345;  -25.121;  -71.781
641.524; 1781.996;  580.879;  573.219
641.796; 1830.423;-1094.121; -907.782
642.068;  329.375; -191.121; -300.782
642.340;  -50.473; -486.121; -566.783
642.613;   40.129;  294.880;  323.217
642.885;  -89.270; -787.120; -878.783
643.157;  -48.518; -810.120; -658.784
643.428;   74.309;  170.880;  218.216
643.700;  -73.439; -498.120; -425.784
643.972;  -34.112;  -16.119; -133.785
644.244; -102.486; -474.119; -559.785
644.516;  -54.809; -250.119; -114.786
644.788;   61.043;  662.881;  548.214
645.060;  -19.830;  -12.119; -124.786
645.332;  -97.478; -525.118; -535.787
645.603;   38.098;  479.882;  342.213
645.875;  -81.750; -334.118; -369.787
646.147;  152.727; 1487.882; 1242.212
646.418;  -60.796; -931.117; -918.788
646.690;  166.356; -714.117; -715.789
646.962;   28.132; -413.117; -451.789
647.233;   -8.491;   15.883;   11.211
647.505; -116.514; -595.117; -475.790
647.776;   21.163;  328.884;  229.210
648.048;   -2.385; -248.116; -418.790
648.320;  -62.208; -752.116; -679.791
648.591; -156.557;-1055.116; -958.791
648.862;  -89.030; -505.116; -577.792
649.134;    9.947;  115.885;  198.208
649.405;  -47.251; -661.115; -618.792
649.677;  -62.374; -475.115; -598.793
649.948;   -8.773; -181.115; -296.793
650.219;  -16.796;  -37.115; -147.793
650.491;  -89.794; -431.114; -520.794
650.762; -126.642; -705.114; -731.794
651.033;  -78.965; -437.114; -424.795
651.304;  -95.164; -743.114; -728.795
651.576;  -60.012; -680.114; -645.795
651.847;  -45.560; -250.113; -140.796
652.118;  -33.608;  -32.113; -189.796
652.389; -108.781; -639.113; -722.796
652.660;  -24.655; -147.113;  -89.797
652.931; -150.278; -897.112; -871.797
653.202;  -75.851; -382.112; -541.798
653.473;  -69.549; -633.112; -533.798
653.744;  162.928; -595.112; -590.798
654.015;  132.329; -356.112; -303.799
654.286;  -56.344; -642.111; -663.799
654.557;  -54.992; -586.111; -521.799
654.828; -151.190;-1114.111;-1088.800
655.099;  -85.863; -404.111; -291.800
655.370;  -93.287; -427.111; -543.801
655.641; -124.860; -656.110; -714.801
655.911; -108.858; -618.110; -638.801
656.182;   40.744;  437.890;  387.198
656.453;   85.546;  830.890;  746.198
656.724;  -81.877; -466.110; -426.802
656.994;  -92.001; -553.109; -568.803
657.265; -109.724; -862.109; -873.803
657.536;  -76.797; -500.109; -377.804
657.806; -115.795; -561.109; -593.804
658.077; -127.668; -866.109; -950.804
658.347;  -86.367; -523.108; -598.805
658.618; -115.665; -646.108; -694.805
658.888;  -30.513;  -41.108;  112.195
659.159;  -79.486; -432.108; -548.806
659.429;  -18.234; -292.108; -349.806
659.700;   27.792; -435.107; -390.807
659.970;  -22.606; -370.107; -359.807
660.241;   18.446; -754.107; -921.807
660.511;  521.448; -147.107; -174.808
660.781;   98.525; -793.106; -748.808
661.052;  -55.299; -222.106; -381.808
661.322;  -23.647;   21.894;   -9.809
661.592;   -9.595;  257.894;  148.191
661.862;  -64.743; -369.106; -382.810
662.133;  -89.591; -551.105; -502.810
662.403; -114.590; -770.105; -676.810
662.673;  -63.838; -256.105; -213.811
662.943;  -92.886; -612.105; -551.811
663.213;  -18.934;  -85.105;  -81.811
663.483;  -77.007; -593.104; -568.812
663.753;  -65.155; -194.104; -152.812
664.023;   -9.779;   68.896;  -32.813
664.293;  -66.677; -319.104; -126.813
664.563; -102.950; -694.104; -648.813
664.833; -128.398; -743.103; -608.814
665.103; -119.896; -730.103; -793.814
665.373; -126.920; -766.103; -806.814
665.643;  -80.768; -863.103; -918.815
665.913;   31.734; -534.103; -714.815
666.182;  155.261; -685.102; -719.816
666.452;  279.663;  -22.102;  -89.816
666.722;  -16.186; -724.102; -784.816
666.992; -131.734; -948.102; -921.817
667.261;  -90.807; -824.102; -808.817
667.531;  204.395;  134.899;   45.183
667.801;  538.797; -440.101; -412.818
668.070;  232.173;  714.899;  697.182
668.340;  -81.100; -883.101; -840.819
668.609;   77.427;  588.900;  301.181
668.879;  -77.896; -490.100; -558.819
669.149;  -86.619; -539.100; -516.820
669.418; -102.968; -698.100; -726.820
669.688;  -13.641; -482.100; -666.820
669.957;   70.811; -423.099; -546.821
670.226;  -14.937; -268.099; -331.821
670.496;  -90.935; -431.099; -635.822
670.765;  -85.083; -418.099; -501.822
671.034; -125.857; -872.099; -828.822
671.304;  -27.380;   55.902; -111.823
671.573; -146.403;-1085.098; -957.823
671.842;   77.524; -380.098; -294.823
672.112;   32.751; -692.098; -586.824
672.381;  -13.123; -239.098; -214.824
672.650; -122.946;-1005.097;-1021.825
672.919; -105.544; -631.097; -507.825
673.188;  -88.142; -681.097; -878.825
673.457; -150.915;-1101.097;-1143.826
673.726;  -71.089; -579.096; -646.826
673.995;  -41.062; -533.096; -479.826
674.265;  -12.110; -263.096; -333.827
674.534;   12.942; -183.096; -235.827
674.802;   23.619; -618.096; -703.828
675.071; 1035.645; -886.095; -801.828
675.340; 4140.897; -464.095; -339.828
675.609; 1354.724;  103.905;   82.171
675.878;   92.376; -949.095; -893.829
676.147;   33.953;  -26.095;   -8.829
676.416;  115.504; -210.094; -294.830
676.685;  753.481; 1000.906; -622.830
676.953;  119.583; -603.094; -452.831
677.222;  -24.665; -193.094; -273.831
677.491;  -24.963;  -24.094; -127.831
677.759;   -1.636;   11.907;  172.168
678.028;  -10.060; -279.093; -222.832
678.297;  -10.783;   71.907;  197.168
678.565; -143.706; -898.093; -944.833
678.834;  -57.904; -311.093; -268.833
679.102;  -71.102; -411.092; -391.834
679.371; -148.726; -898.092; -727.834
679.639; -137.374; -797.092; -786.834
679.908; -128.372; -794.092; -724.835
680.176; -139.520; -895.091; -941.835
680.445;  -77.368; -346.091; -352.835
680.713;  -14.342;  -58.091;  -23.836
680.982; -108.890; -523.091; -525.836
681.250; -108.313; -578.091; -507.837
681.518;  -98.286; -534.090; -751.837
681.787;  -20.484; -204.090; -167.837
682.055;  -74.433; -490.090; -422.838
682.323; -148.431; -993.090; -992.838
682.591;   20.871; -216.090; -538.838
682.859;  103.723;    9.911;  -35.839
683.128;    2.650;  232.911;  497.161
683.396; -156.249;-1102.089;-1122.840
683.664;  -38.797; -241.089;   21.160
683.932;  -10.595;  144.911;  -76.840
684.200;  -90.293; -576.088; -320.841
684.468;  -15.266;  -73.088; -124.841
684.736;  -36.665; -214.088; -175.841
685.004; -107.063;-1024.088; -982.842
685.272;  -48.886; -880.088; -774.842
685.540;  -51.959; -499.087; -557.843
685.808;  -96.182; -651.087; -682.843
686.076; -105.230; -894.087; -969.843
686.343;  -66.204; -601.087; -815.844
686.611;   49.298; -195.087; -224.844
686.879;  476.875; -530.086; -553.844
687.147; 3450.677; -483.086; -480.845
687.414;  978.104;  -12.086; -169.845
687.682;    6.830; -658.086; -757.846
687.950;  331.432;  259.915;  263.154
688.217;   20.184; -792.085; -760.846
688.485;   -1.139; -632.085; -636.847
688.753;  555.688;  -11.085; -102.847
689.020;  171.189; -820.085; -851.847
689.288; -104.934; -853.084; -787.848
689.555;  -40.957; -195.084; -148.848
689.823;  -35.155; -241.084; -345.849
690.090;  -75.028; -546.084; -651.849
690.358; -149.527; -877.084; -897.849
690.625;   -6.150;  120.917;   45.150
690.892;  -72.173; -403.083; -369.850
691.160;  -23.396;   72.917;  -35.850
691.427;   -8.294;  141.917;  130.149
691.694; -134.593; -855.083; -929.851
691.962; -134.441;-1177.082;-1060.852
692.229;   -7.314;  127.918;   56.148
692.496;   90.088;  130.918;  -49.852
692.763;   12.790; -164.082; -201.853
693.031;  -71.408; -739.082; -716.853
693.298;  -49.007; -509.081; -368.853
693.565;  324.370; -155.081; -163.854
693.832; 1355.097;   -5.081;   -9.854
694.099;  157.499; -643.081; -642.855
694.366;  -58.124; -882.081; -896.855
694.633;  -42.823; -920.080; -633.855
694.900;  732.704; 4367.920; -114.856
695.167;  433.081; -214.080; -380.856
695.434;   95.558; -646.080; -623.856
695.701;  195.735;  121.921;  -61.857
695.968;  466.011; -365.079; -361.857
696.234;  965.213; -415.079; -646.858
696.501; 9969.215; -776.079; -614.858
696.768; 5145.892; -554.079; -617.858
697.035;  299.394; -632.078; -667.859
697.302;   34.095; -448.078; -552.859
697.568;   12.647; -458.078; -497.859
697.835;  -37.751; -683.078; -624.860
698.102;  -27.549; -498.078; -407.860
698.368;   85.428;  384.923;  396.139
698.635;  -39.146;  -47.077; -424.861
698.901;  -16.844; -240.077; -348.861
699.168;   64.983; -534.077; -456.862
699.435;   87.435;  -72.077;  -13.862
699.701; -116.063; -868.076; -764.862
699.968;    9.864;  144.924; -441.863
700.234; -109.210; -783.076; -822.863
700.500;  -57.658; -448.076; -539.864
700.767;  -11.606;   -1.075;   26.136
701.033; -123.529;-1015.075; -963.864
701.299;  -52.827; -450.075; -483.865
701.566;  126.899;  950.925;  763.135
701.832;   29.826;  -31.075;  -76.865
702.098;  -92.222;-1054.074;-1034.866
702.365;  -83.820;-1098.074;-1030.866
702.631;  -17.243;-1038.074;-1063.867
702.897; 1356.383; -765.074; -676.867
703.163; 2292.460;  348.926;  254.133
703.429;  153.262; -256.073; -273.868
703.695;  -30.061; -796.073; -792.868
703.961;   12.216; -214.073; -210.868
704.227;  -56.133; -630.073; -725.869
704.493;  120.669;  613.927;  510.131
704.759;  -29.754; -565.072; -540.870
705.025;   18.773; -203.072; -194.870
705.291;  -27.475; -666.072; -562.870
705.557;  167.601;  719.928;   34.129
705.823;   28.678; -742.072; -694.871
706.089;  143.530; -307.071; -326.871
706.355;  357.507; -315.071; -244.872
706.620; 5139.309; -776.071; -729.872
706.886; 7482.536; -309.071; -362.873
707.152;  693.612; -818.070; -973.873
707.418;  -18.436;-1153.070;-1186.873
707.683;  -23.809; -550.070; -530.874
707.949;  -36.632; -547.070; -578.874
708.215;   -7.080; -129.070; -207.874
708.480;  -35.904; -520.069; -420.875
708.746;   87.198;   68.931;   28.125
709.011;  -48.350; -578.069; -612.876
709.277;  -87.948; -538.069; -543.876
709.542;  -41.421; -428.069; -387.876
709.808;  -17.295;  -59.068;   89.123
710.073;  -75.118; -577.068; -695.877
710.339;  -51.566; -242.068; -228.877
710.604;   70.861; -780.068; -845.878
710.869;  330.813; -277.068; -366.878
711.135;  -63.061; -715.067; -628.879
711.400;  -85.684; -507.067; -608.879
711.665;  -55.407; -404.067; -479.879
711.931; -101.580; -661.067; -677.880
712.196; -111.003; -876.067; -954.880
712.461;   95.198; -402.066; -490.880
712.726;  149.750; -727.066; -771.881
712.991;  -96.873; -647.066; -664.881
713.256;  -31.396; -350.066; -332.882
713.521;  -68.369; -417.065; -381.882
713.787;  -59.093; -454.065; -472.882
714.052;  -29.116; -214.065; -400.883
714.317;  -97.739;-1045.065; -981.883
714.581;  956.613; -374.065; -268.883
714.846; 1333.690; -822.064; -888.884
715.111;  129.342;  261.936;  257.116
715.376;  -25.757;  -86.064; -223.885
715.641;  -31.155; -365.064; -367.885
715.906;  295.797;   15.936; -551.885
716.171;  121.749;  221.937;  209.114
716.436;   55.626;  -78.063; -104.886
716.700; -111.923; -818.063; -692.886
716.965; -120.521; -794.063; -807.887
717.230;  -67.344; -339.063; -392.887
717.494;  -16.942;  -40.062; -134.888
717.759; -103.865; -784.062; -640.888
718.024;   18.611;  269.938;  250.112
718.288;   72.313;  685.938;  395.111
718.553; -143.135; -803.062; -977.889
718.817; -144.458; -883.061; -899.889
719.082;  -41.006; -115.061; -125.890
719.346; -149.655;-1000.061; -947.890
719.611;  -34.778; -300.061; -255.891
719.875;  -95.701; -568.060; -537.891
720.140;  -56.174; -453.060; -603.891
720.404;   30.578; -136.060; -249.892
720.668;  892.954; -475.060; -411.892
720.933;  355.306;  146.940;  137.108
721.197; -102.917; -667.059; -600.893
721.461; -129.015; -851.059; -826.893
721.725;   -2.638;  -21.059; -250.894
721.990;  -59.911; -284.059; -204.894
722.254;  -16.210;  -26.059; -108.894
722.518;  -77.033; -286.058; -442.895
722.782;  -82.056; -743.058; -594.895
723.046;  118.871;  614.942;  570.105
723.310;   43.398;  374.942;  210.104
723.574;  -99.151; -654.058; -614.896
723.838;  -91.824; -576.057; -642.897
724.102;  -49.497; -226.057; -239.897
724.366; -119.345;-1032.057; -978.897
724.630; -100.118; -749.057; -571.898
724.894;  -83.592; -722.057; -514.898
725.158;  -16.515;   38.944; -295.898
725.422;  -45.788; -394.056; -327.899
725.685;  -76.586; -441.056; -349.899
725.949;  -77.734; -566.056; -519.900
726.213;  -81.633; -732.056; -811.900
726.477;  174.394;-1020.055; -933.900
726.740;  139.346; -274.055; -104.901
727.004;  324.198; -384.055; -510.901
727.268; 3179.300; -442.055; -400.901
727.531;  881.951; -961.055; -775.902
727.795;  -46.472; -713.054; -673.902
728.059;  -62.295; -552.054; -557.903
728.322;  -86.018; -841.054; -669.903
728.586;   39.309; -692.054; -701.903
728.849;  -91.489; -695.053; -756.904
729.112; -115.363; -812.053; -912.904
729.376; -139.361; -959.053; -905.904
729.639;  -65.884; -536.053; -536.905
729.903; -101.807; -733.053; -699.905
730.166;  -60.680; -437.052; -399.906
730.429;  -30.354; -317.052; -468.906
730.693;  -68.677; -355.052; -894.906
730.956;  202.075;  810.948;  651.093
731.219;  739.752; -310.052; -103.907
731.482;  125.304;-1003.051; -894.907
731.745;  109.005; -794.051; -935.908
732.009;   18.307;  -30.051;   50.092
732.272;  -86.891; -904.051; -771.909
732.535;  -48.314; -300.051; -310.909
732.798; -152.287;-1083.050;-1166.909
733.061;  -63.986; -430.050; -456.910
733.324;   20.941;   31.950; -180.910
733.587;   52.993;  290.950;  365.090
733.850;  -60.355; -973.049;-1050.911
734.113;   22.847;   33.951;   32.089
734.376;   25.973; -328.049; -447.912
734.639;  211.825; 1188.951; 1011.088
734.901;   73.102; -180.049; -402.912
735.164;  507.454; -883.048; -837.913
735.427; 1391.556; -166.048; -355.913
735.690;  119.383; -205.048; -234.913
735.952;  -32.416; -923.048; -925.914
736.215;  -19.489;-1113.048;-1009.914
736.478;   44.388; -771.047; -774.915
736.740;  218.340;   33.953;  129.085
737.003;  703.067; -658.047; -672.915
737.266; 4194.618;  -94.047;   46.084
737.528;  477.595; -682.047; -660.916
737.791;  303.297; -316.046; -327.916
738.053;  762.824;  465.954;  649.083
738.316;10444.776; -162.046; -136.917
738.578; 7487.527; -770.046; -736.918
738.841;  429.454; -382.046; -446.918
739.103;  184.031; -875.045; -777.918
739.365;  505.833;   79.955;  -69.919
739.628;    9.410; -884.045; -805.919
739.890;  -35.839; -758.045; -710.919
740.152;  -55.387; -692.044; -754.920
740.414;  -29.160; -408.044; -359.920
740.677;  -52.108; -785.044; -634.921
740.939;  -46.056; -587.044; -487.921
741.201;  290.470; -432.044; -572.921
741.463;   56.347; -689.043; -745.922
741.725;   28.574;  -21.043; -199.922
741.987;   46.376;  220.957;  116.078
742.249;    9.903; -751.043; -859.923
742.511;  223.729; -703.043; -794.923
742.773;   22.706; -546.042; -546.924
743.035;  118.558;  796.958;  533.076
743.297;  -45.390; -963.042;-1013.924
743.559;  772.312; -278.042; -262.925
743.821;   71.414; -735.042; -744.925
744.083;   12.165;  -44.041; -149.925
744.345;  -75.508; -869.041; -892.926
744.607;   21.869;   75.959;  122.074
744.868;  -46.379; -490.041; -554.927
745.130; -112.952; -994.041;-1008.927
745.392;   38.274;   -1.040;  -44.927
745.653;  -22.624; -411.040; -378.928
745.915;  150.053;  896.960;  631.072
746.177;   39.880;   35.960;  -43.928
746.438;    0.757; -428.040; -543.929
746.700;  -40.317; -947.039; -988.929
746.961;   16.860; -659.039; -740.930
747.223;  134.012; -190.039;  -74.930
747.484;   91.114; -391.039; -471.930
747.746;  141.466;  -23.038; -106.931
748.007;  118.842; -647.038; -689.931
748.269;  314.919; -468.038; -440.931
748.530;  529.871; -852.038; -638.932
748.791;  271.873; -354.038; -420.932
749.053;  442.475;  286.963;  163.067
749.314;  464.426; -236.037; -169.933
749.575;  509.053; -945.037; -905.933
749.836;  843.130; -217.037;   86.066
750.098; 2417.832;  -60.037;  -21.934
750.359;36955.634;  414.964;  555.066
750.620; 9598.911; -121.036; -220.935
750.881; 1036.987; -585.036; -513.935
751.142; 1377.814; -950.036; -938.936
751.403;16469.291; -789.036; -705.936
751.664; 7495.318;-1034.035; -999.936
751.925;  484.745; -175.035; -262.937
752.186;  283.196; -298.035; -278.937
752.447;  129.273; -590.035; -445.937
752.708;   49.400; -532.035; -648.938
752.969;   -3.498; -566.034; -576.938
753.230;    2.204; -777.034; -672.939
753.491;   -7.045; -650.034; -631.939
753.751;   82.407;  109.966;   19.061
754.012;   98.159;  258.967;  181.060
754.273;   68.386; -174.033;  -71.940
754.534;   11.288; -487.033; -580.940
754.794;  -85.211; -926.033; -911.941
755.055;  147.316; 1051.967;  881.059
755.316;  -41.682; -700.032; -566.942
755.576;  -25.630; -606.032; -576.942
755.837;  -40.953; -527.032; -695.942
756.097;  -36.352; -530.032; -564.943
756.358;  -74.125; -725.032; -770.943
756.618;  -53.273; -705.031; -641.943
756.879;   16.079; -254.031; -349.944
757.139; -126.244;-1098.031;-1116.944
757.400;  -52.417; -538.031; -553.945
757.660;  -28.441; -365.031; -401.945
757.920;   11.261; -266.030; -228.945
758.181;  -21.512; -468.030; -351.946
758.441;  -74.435; -870.030; -809.946
758.701;  -36.658; -308.030; -215.946
758.961;   -6.807; -220.030; -278.947
759.222;  -64.155; -574.029; -502.947
759.482;  -88.878; -683.029; -723.948
759.742;  -83.601; -706.029; -547.948
760.002;    1.901;  -83.029; -143.948
760.262;   12.177;   50.972;  182.051
760.522;  -41.596; -498.028; -574.949
760.782;  -61.269; -738.028; -612.949
761.042;  -36.092; -618.028; -573.950
761.302;   45.735;   55.972;  -18.950
761.562;   64.661; -164.027; -154.951
761.822;   79.788; -710.027; -551.951
762.082;  -35.010;-1104.027;-1093.951
762.342;   68.692; -328.027; -403.952
762.601;   84.869; -567.027; -506.952
762.861;  373.695; -281.026; -207.952
763.121;  385.397; -406.026; -411.953
763.381; 7112.899; -499.026; -485.953
763.640; 8090.651; -139.026; -307.954
763.900;  354.778; -242.026; -203.954
764.160;   90.655; -458.025; -491.954
764.419;  -14.544; -726.025; -782.955
764.679;  -63.742; -795.025; -726.955
764.939;  -10.090; -124.025; -210.955
765.198;  -84.663; -608.025; -563.956
765.458;  -81.311; -710.024; -612.956
765.717;  -96.885; -454.024; -590.957
765.976;  -59.108; -428.024; -411.957
766.236;  -72.481; -475.024; -610.957
766.495;   14.771;  260.977;   73.042
766.755;  -71.652;-1090.023; -987.958
767.014;   -5.476; -594.023; -665.958
767.273;  -51.099; -373.023; -397.959
767.533;  -54.272; -228.023; -307.959
767.792;  -33.070; -151.022; -188.960
768.051;  -60.768; -228.022; -276.960
768.310;  -77.142; -546.022; -650.960
768.569;  -19.790; -161.022;    4.039
768.828;  -20.463; -285.022; -363.961
769.088; -126.011;-1050.021; -942.961
769.347;  -82.309; -755.021; -599.962
769.606; -103.458; -876.021; -857.962
769.865; -128.506;-1016.021;-1033.963
770.124;  -10.779; -411.021; -336.963
770.383;  -39.477; -778.020; -910.963
770.641;   -7.975; -398.020; -400.964
770.900;  -77.124; -953.020; -846.964
771.159;  -57.797; -851.020; -951.964
771.418;  -31.045; -917.020; -779.965
771.677;  124.282; -224.019; -293.965
771.936;  127.834; -794.019; -865.966
772.194; 1985.836; -465.019; -437.966
772.453;10606.562; -213.019; -391.966
772.712;  754.289;  416.982;  329.033
772.970;  115.091;   32.982;   63.033
773.229;   65.168;  -22.018;  102.033
773.488;  -83.080; -814.018; -770.968
773.746;   35.471;  296.982;  335.032
774.005;    6.848;  190.983;  -22.969
774.263;    1.425;  243.983;  177.031
774.522;  -42.423; -422.017; -548.969
774.780;  -94.871; -484.017; -417.970
775.039;  -82.545; -551.017; -531.970
775.297;  -36.793; -135.016; -351.970
775.555; -111.166; -489.016; -612.971
775.814; -130.264; -618.016; -570.971
776.072; -127.587; -749.016; -740.971
776.330;  -97.861; -630.016; -520.972
776.589; -126.209; -703.015; -721.972
776.847; -123.757; -645.015; -624.973
777.105; -168.180;-1016.015;-1032.973
777.363;  -81.028; -459.015; -454.973
777.621; -132.827; -660.015; -717.974
777.879;  -39.900;  -42.014;   32.026
778.138;  -94.723; -554.014; -717.974
778.396; -116.771; -585.014; -526.975
778.654; -143.944;-1015.014; -970.975
778.912;  -81.317; -269.014; -371.976
779.170; -120.666; -880.013; -803.976
779.427; -163.139; -922.013; -897.976
779.685; -125.662; -880.013; -832.977
779.943;  -86.310; -654.013; -593.977
780.201; -163.883; -964.012; -883.978
780.459; -144.432; -651.012; -610.978
780.717;  -71.405; -440.012; -390.978
780.974; -117.978; -449.012; -490.979
781.232;  -70.376; -358.012; -338.979
781.490;  -76.374; -551.011; -472.979
781.747; -100.073; -555.011; -476.980
782.005;   -4.046;  462.989;  254.020
782.263; -164.369; -542.011;-1004.981
782.520;  -92.467; -326.011; -501.981
782.778; -158.940;-1013.010;-1051.981
783.035; -177.614; -962.010; -938.982
783.293;  -63.587; -248.010; -206.982
783.550;  -62.760; -134.010; -198.982
783.808; -123.608; -764.010; -776.983
784.065; -163.531; -745.009; -874.983
784.322;  -45.105;   25.991;  -86.984
784.580; -147.078; -915.009; -771.984
784.837;  -80.901; -392.009; -466.984
785.094; -150.224; -783.009; -762.985
785.352;  -74.147; -304.008; -404.985
785.609; -121.520; -934.008; -839.985
785.866;  -88.894; -345.008; -401.986
786.123;  -82.892; -639.008; -583.986
786.380; -101.890; -665.008; -604.987
786.637;  -51.763; -225.007; -380.987
786.895;  -16.386; -456.007; -543.987
787.152;  -51.635; -135.007; -267.988
787.409;  -47.683; -123.007; -225.988
787.666;  -82.381; -299.006; -378.988
787.923; -114.979; -616.006; -695.989
788.179; -102.452; -551.006; -584.989
788.436; -103.826; -585.006; -585.990
788.693;  -52.799;  -92.006;  -87.990
788.950;  146.653; -125.005; -112.990
789.207;  234.980; -381.005; -372.991
789.464;  -43.268; -161.005; -301.991
789.720;  -16.642;  150.995;  110.009
789.977; -174.765;-1003.005; -671.992
790.234;  -37.263;   44.996;  -66.992
790.490; -146.836; -884.004;-1031.993
790.747;  -23.709;  -85.004;   22.007
791.004;  -27.133; -426.004; -348.993
791.260;  -70.306; -430.004; -560.994
791.517;  -99.529; -843.003; -788.994
791.773;  -64.777; -379.003; -342.994
792.030;  -98.725; -596.003; -660.995
792.286; -110.048; -686.003; -636.995
792.543;  -32.247;  -74.002; -159.995
792.799;  -72.470; -584.002; -382.996
793.055; -160.268;-1179.002;-1210.996
793.312;  -97.416; -827.002; -816.997
793.568;  -62.989; -746.002; -599.997
793.824;   -3.588; -226.001; -284.997
794.081;   20.564; -447.001; -508.998
794.337;   63.216; -664.001; -561.998
794.593; 1255.918; -319.001; -271.999
794.849; 6537.695; -746.001; -772.999
795.105;  343.746; -270.000; -261.999
795.361;    3.248; -490.000; -457.000
795.617;  -75.925; -875.000; -945.000
795.873;  -56.300; -360.000; -407.000
796.129;  -33.425; -368.000; -306.000
796.385;  -34.350; -124.000; -156.000
796.641;   56.650;  412.000;  550.000
796.897;  -94.875; -666.000; -635.000
797.153;   63.000;  453.000;  357.000
797.409; -119.450; -785.000; -868.000
797.665;  -75.200; -625.000; -732.000
797.921;  -83.975; -775.000; -762.000
798.176;  -35.250; -744.000; -747.000
798.432;  -55.000; -824.000; -596.000
798.688;  -81.400;-1174.000;-1078.000
798.943;   73.325; -165.000; -147.000
799.199;    3.250;-1005.000; -959.000
799.455;  218.125;  369.000;  316.000
799.710;   98.300; -813.000; -380.000
799.966;  267.150; -162.000; -160.000
800.221;  465.375; -638.000; -721.000
800.477; 9976.675; -743.000; -710.000
800.732; 9251.600; -773.000; -800.000
800.988;  608.725;  205.000;  -19.000
801.243; 1572.950; -454.000; -344.000
801.498; 7109.750; -814.000; -739.000
801.754;  415.650; -289.000; -163.000
802.009;   79.325; -257.000; -335.000
802.264;  -57.075; -967.000;-1033.000
802.520;   13.000;  222.000;   -3.000
802.775;  -28.925; -524.000; -359.000
803.030;   48.950;  395.000;  356.000
803.285; -110.900; -840.000; -903.000
803.540;  -70.625; -686.000; -699.000
803.795;  -39.525; -648.000; -583.000
804.051;  -54.300; -279.000; -346.000
804.306;   10.900;  168.000;  128.000
804.561;  122.175;  451.000;  362.000
804.816;  121.175;  714.000;  861.000
805.071;    2.025; -185.000; -280.000
805.325;  230.100; -257.000; -427.000
805.580; -106.900; -841.000; -877.000
805.835;   -9.075; -204.000; -297.000
806.090;  -82.825; -760.000; -676.000
806.345;  -13.625; -344.000; -264.000
806.600;  -44.050; -549.000; -632.000
806.854;  -25.100; -408.000; -538.000
807.109;  -25.800; -493.000; -577.000
807.364;   16.300; -407.000; -328.000
807.618;   -3.125; -415.000; -381.000
807.873;   60.800; -470.000; -494.000
808.128;   82.500; -257.000; -518.000
808.382;  105.925; -224.000; -332.000
808.637;   72.525; -440.000; -511.000
808.891;  179.925; -257.000; -180.000
809.146;  103.350; -902.000; -794.000
809.400;  274.850; -848.000; -923.000
809.654;  328.250; -779.000; -551.000
809.909;  483.550; -841.000; -927.000
810.163; 6533.500; -813.000; -651.000
810.418;17909.050; -940.000; -861.000
810.672; 1056.875; -685.000; -690.000
810.926;  699.000; -993.000; -973.000
811.180; 1319.675; -439.000; -372.000
811.434;29903.475;  240.000;  135.000
811.689;12613.525; -231.000; -365.000
811.943;  641.700; -936.000; -953.000
812.197;  312.025; -893.000; -671.000
812.451;  129.000; -379.000; -514.000
812.705;  -27.225; -809.000; -619.000
812.959;   -1.075; -263.000; -388.000
813.213;  -13.125; -283.000; -209.000
813.467;   62.625;  470.000;  253.000
813.721; -106.400; -764.000; -792.000
813.975; -115.525; -826.000; -877.000
814.229;   30.375;  430.000;  353.000
814.482;  -62.700; -517.000; -566.000
814.736; -120.425; -766.000; -744.000
814.990; -113.900; -779.000; -872.000
815.244;  -54.625; -228.000; -285.000
815.497;  -88.925; -636.000; -601.000
815.751;  -26.300; -141.000;   82.000
816.005;  -75.575; -470.000; -586.000
816.258;  -83.875; -510.000; -363.000
816.512; -109.325; -693.000; -610.000
816.766;   -4.625;  121.000;  157.000
817.019;   30.775;  148.000;  149.000
817.273; -121.225;-1000.000; -802.000
817.526;  -36.250; -206.000; -173.000
817.779;  -40.850;-1049.000; -960.000
818.033;  -65.000; -693.000; -807.000
818.286; -129.775; -725.000; -792.000
818.540;  -76.575; -403.000; -403.000
818.793; -101.775; -402.000; -489.000
819.046;  -97.375; -582.000; -520.000
819.299;  -39.725; -157.000; -166.000
819.553; -119.325; -552.000; -592.000
819.806; -167.800;-1016.000; -838.000
820.059;  -70.625; -334.000; -354.000
820.312;   -0.900;  152.000;  185.000
820.565;  -19.000;  110.000;  -27.000
820.818;  -68.825;  -59.000; -173.000
821.071; -155.625;-1041.000; -957.000
821.324; -110.050; -536.000; -540.000
821.577;  -96.475; -457.000; -483.000
821.830;  -72.100; -270.000; -172.000
822.083; -120.950; -733.000; -288.000
822.336;  -52.650; -261.000; -167.000
822.589; -120.775; -805.000; -688.000
822.842; -140.300; -875.000; -770.000
823.094; -175.700;-1076.000;-1114.000
823.347; -136.275; -925.000; -729.000
823.600;    7.150;  402.000;  187.000
823.853;  -70.475; -311.000; -267.000
824.105;  -73.650; -331.000; -575.000
824.358; -121.625; -617.000; -716.000
824.611;   18.875;  234.000;   40.000
824.863;  -44.850; -612.000; -591.000
825.116;   32.125;  -33.000;   27.000
825.368;   75.575; -366.000; -372.000
825.621;  160.675; -186.000; -240.000
825.873;   67.025; -704.000; -737.000
826.126;  558.425; -669.000; -641.000
826.378;11368.050; -389.000; -505.000
826.630; 2940.850; -890.000; -898.000
826.883;   52.350; -754.000; -693.000
827.135;   47.825; -279.000; -270.000
827.387; -117.575; -893.000; -839.000
827.639;  -31.975;  -86.000;   32.000
827.892; -138.175; -742.000; -582.000
828.144; -151.500; -848.000; -804.000
828.396;  -34.150;  104.000;  -80.000
828.648; -101.225; -440.000; -333.000
828.900; -149.350; -702.000; -795.000
829.152; -115.275; -684.000; -683.000
829.404;  -71.675; -215.000; -267.000
829.656;  -49.950;  321.000;  214.000
829.908;  -24.275;  393.000;  229.000
830.160; -169.325;-1064.000;-1047.000
830.412; -101.550; -481.000; -430.000
830.664; -126.075; -557.000; -665.000
830.916;  -84.150; -268.000; -206.000
831.167; -183.500;-1073.000; -951.000
831.419; -124.600; -623.000; -566.000
831.671; -138.425; -764.000; -809.000
831.923; -104.625; -311.000; -447.000
832.174;  -67.950; -273.000; -331.000
832.426; -138.375; -493.000; -582.000
832.678; -174.700;-1043.000;-1091.000
832.929; -163.175; -947.000; -935.000
833.181;  -68.550; -575.000; -677.000
833.432;  -64.800;  -59.000; -186.000
833.684;  -16.100;  112.000;  -27.000
833.935; -123.175; -610.000; -566.000
834.187; -127.675; -829.000; -823.000
834.438;  -60.000;  -58.000;  -25.000
834.689;  -64.550; -255.000; -123.000
834.941;  -62.550; -343.000; -244.000
835.192;  -93.125; -590.000; -533.000
835.443; -104.200; -419.000; -506.000
835.695;  -11.775;  138.000;  -16.000
835.946;  -96.350; -608.000; -378.000
836.197; -106.675; -599.000; -622.000
836.448; -100.375; -528.000; -395.000
836.699;  -50.125; -253.000; -341.000
836.950;  -21.025;   72.000;    7.000
837.201; -157.950;-1003.000; -987.000
837.452;  -50.625; -356.000; -170.000
837.703; -110.575; -791.000; -737.000
837.954;  -52.400; -205.000; -365.000
838.205;  -72.150;-1029.000;-1008.000
838.456;  177.875; -196.000; -282.000
838.707;   11.950; -423.000; -519.000
838.958;   -3.100; -634.000; -647.000
839.209;  289.600;   18.000;   40.000
839.460;  122.375; -439.000; -201.000
839.710;  167.500; -135.000; -297.000
839.961;  411.650;  730.000;  612.000
840.212;  341.150; -382.000; -497.000
840.462; 1111.125; -328.000; -277.000
840.713;17529.550; -571.000; -536.000
840.964; 7506.950;  -62.000; -143.000
841.214;  516.850; -384.000; -624.000
841.465;  579.675; -214.000; -141.000
841.715;  546.150; -417.000; -380.000
841.966;  684.850; -746.000; -685.000
842.216; 9110.000; -330.000; -431.000
842.466;36350.150; -169.000; -313.000
842.717; 2108.650; -964.000; -952.000
842.967;  330.250; -635.000; -641.000
843.217;  280.125;   20.000;   28.000
843.468;   61.150; -104.000; -132.000
843.718;  -31.800; -718.000; -726.000
843.968;  -97.300; -837.000; -765.000
844.218;   30.575; -315.000; -262.000
844.469;  -54.800; -577.000; -561.000
844.719; -111.950; -537.000; -682.000
844.969; -101.775; -550.000; -580.000
845.219; -144.975; -814.000; -862.000
845.469;  -81.450; -392.000; -342.000
845.719; -132.350; -792.000; -884.000
845.969;  -14.225;  119.000;  174.000
846.219; -125.875; -738.000; -720.000
846.469;   10.800;  464.000;  432.000
846.718;  -40.200; -115.000;   31.000
846.968; -137.925; -827.000; -827.000
847.218;  -41.825; -224.000; -371.000
847.468; -121.900; -586.000; -555.000
847.718; -165.300; -827.000; -798.000
847.967; -128.150; -826.000; -915.000
848.217;  -74.975; -449.000; -569.000
848.467;  -74.750; -405.000; -376.000
848.716; -109.400; -708.000; -725.000
848.966;   -9.250; -372.000; -358.000
849.215;  -59.175; -428.000; -419.000
849.465; -102.375; -785.000; -615.000
849.714; -138.400;-1132.000;-1150.000
849.964;  -79.100; -551.000; -613.000
850.213;  -33.625; -393.000; -355.000
850.463;   64.150;  137.000;  340.000
850.712;   -0.200; -542.000; -567.000
850.961;   11.500; -739.000; -678.000
851.211;   98.100; -513.000; -504.000
851.460;  142.100; -635.000; -650.000
851.709;  544.800;  -25.000;   18.000
851.958; 9936.350; -912.000; -750.000
852.208;12859.500; -859.000; -879.000
852.457;  462.550; -181.000;  -13.000
852.706;   61.800; -791.000; -823.000
852.955;    6.750; -507.000; -528.000
853.204;  -54.150; -521.000; -461.000
853.453;  -80.825; -418.000; -458.000
853.702; -125.800; -660.000; -750.000
853.951; -112.200; -532.000; -520.000
854.200; -111.975; -613.000; -562.000
854.449; -140.725; -695.000; -661.000
854.698;  -93.050; -340.000; -279.000
854.946;  -78.675; -181.000; -284.000
855.195; -143.025; -843.000; -868.000
855.444; -109.125; -395.000; -420.000
855.693; -114.975; -345.000; -432.000
855.941; -116.150; -387.000; -516.000
856.190;  -58.675; -256.000; -382.000
856.439; -133.225; -652.000; -703.000
856.687;  -66.575;  -99.000;  -72.000
856.936; -122.550; -621.000; -323.000
857.184; -187.575;-1067.000;-1020.000
857.433; -114.100; -423.000; -512.000
857.681; -158.025; -989.000; -953.000
857.930;  -90.300; -282.000; -433.000
858.178; -166.575; -856.000; -929.000
858.427; -151.250; -802.000; -781.000
858.675; -124.675; -377.000; -544.000
858.923; -125.725; -527.000; -819.000
859.172; -192.925;-1094.000;-1070.000
859.420;  -93.000; -339.000; -239.000
859.668; -132.825; -624.000; -628.000
859.916;  -40.325;  109.000;  115.000
860.164; -114.125; -699.000; -603.000
860.413;  277.150; -878.000; -696.000
860.661;  259.925; -709.000; -577.000
860.909;  -86.825; -339.000; -325.000
861.157;  -81.375; -277.000; -444.000
861.405; -132.675; -534.000; -670.000
861.653;   14.075;  310.000;  310.000
861.901;  176.550; -543.000; -613.000
862.149;    9.100; -801.000; -824.000
862.396;  -96.375; -297.000; -187.000
862.644;  -84.575; -368.000; -347.000
862.892;  -41.775;   98.000;  138.000
863.140; -120.950; -549.000; -530.000
863.388; -171.525; -815.000; -759.000
863.635; -113.900; -642.000; -601.000
863.883;  -25.375;  231.000;  190.000
864.131;  -97.150; -288.000; -357.000
864.378; -142.250; -675.000; -540.000
864.626;  -88.150; -347.000; -415.000
864.873; -132.975; -556.000; -505.000
865.121; -141.275; -714.000; -799.000
865.368;  -54.350; -173.000;   75.000
865.616;  -40.500;  -33.000;  -40.000
865.863; -102.025; -462.000; -506.000
866.111; -106.725; -795.000; -824.000
866.358;   16.250; -426.000; -420.000
866.605; 1986.950;  -64.000; -804.000
866.853; 2170.500; -621.000; -537.000
867.100;  -40.825; -728.000; -775.000
867.347; -108.625; -672.000; -611.000
867.594;  -75.550; -740.000; -714.000
867.841;   85.950;   97.000;   17.000
868.089; -157.550; -746.000; -698.000
868.336; -125.525; -477.000; -420.000
868.583; -136.150; -637.000; -741.000
868.830;  -60.600; -131.000; -170.000
869.077; -162.000; -859.000; -787.000
869.324; -134.375; -502.000; -458.000
869.571; -119.200; -398.000; -430.000
869.818; -140.600; -485.000; -439.000
870.065;  -98.350; -439.000; -513.000
870.311; -120.375; -456.000; -542.000
870.558;  -98.450; -332.000; -311.000
870.805;  -97.000; -320.000; -384.000
871.052; -111.250; -494.000; -369.000
871.298;  -67.900; -204.000; -131.000
871.545;  -71.150; -151.000; -185.000
871.792; -104.250; -173.000; -222.000
872.038;  -86.850;   43.000; -126.000
872.285; -134.275; -496.000; -387.000
872.532;  -96.950; -357.000; -387.000
872.778;   -2.275;  556.000;  403.000
873.025;  -87.175; -384.000; -359.000
873.271;    8.875;  501.000;  578.000
873.517;  -32.200; -133.000; -209.000
873.764;  -30.825; -193.000;  -80.000
874.010;  -69.475; -143.000; -230.000
874.257;  -58.600;  123.000;   90.000
874.503; -141.750; -579.000; -479.000
874.749;  -87.925;   31.000;  275.000
874.995;  -65.825;  -80.000;  -20.000
875.242; -122.450; -540.000; -478.000
875.488; -111.800; -414.000; -439.000
875.734;  -66.775; -106.000; -234.000
875.980;  196.075; -872.000;-1032.000
876.226;  392.450; -157.000; -255.000
876.472;   -4.700;  343.000;  237.000
876.718;  -47.400;  184.000;  158.000
876.964;  -43.375;   56.000;   55.000
877.210; -147.900; -547.000; -677.000
877.456; -128.725; -630.000; -557.000
877.702; -177.525; -821.000; -832.000
877.948; -107.125; -377.000; -497.000
878.193;    0.425;  361.000;  255.000
878.439;  -88.325; -487.000; -472.000
878.685;  -95.225; -272.000; -343.000
878.931; -131.350; -618.000; -676.000
879.176;  -99.600; -201.000; -201.000
879.422; -180.625; -933.000; -820.000
879.668;   39.150;   10.000;   79.000
879.913;  154.450;   53.000;  137.000
880.159;  -65.450; -112.000;  -17.000
880.404;  -47.200; -152.000; -162.000
880.650;  -54.850;   91.000;  141.000
880.895; -154.000; -670.000; -710.000
881.141; -122.350; -454.000; -428.000
881.386; -134.550; -503.000; -658.000
881.631;  -82.500; -311.000; -166.000
881.877;  -39.850;  112.000;  -13.000
882.122; -144.425; -684.000; -600.000
882.367;  -81.150; -136.000; -186.000
882.612;  -91.350;  -80.000; -176.000
882.858; -153.100; -877.000; -823.000
883.103; -100.700; -297.000; -267.000
883.348; -151.850; -759.000; -852.000
883.593; -168.050; -677.000; -602.000
883.838;  -54.725; -311.000;  -24.000
884.083;   16.350;  353.000;  288.000
884.328;  -97.000; -564.000; -545.000
884.573;  -65.075; -196.000; -143.000
884.818;  193.675; -694.000; -531.000
885.063;  197.100; -348.000; -315.000
885.308;  -98.275; -475.000; -398.000
885.553;   -8.625;  245.000;  325.000
885.797; -131.225; -545.000; -615.000
886.042;  -65.150;    8.000;   58.000
886.287;  -76.125; -253.000; -211.000
886.532;  -54.700;   26.000;  204.000
886.776; -102.325; -407.000; -525.000
887.021; -148.100; -621.000; -574.000
887.265; -155.025; -685.000; -689.000
887.510; -146.125; -557.000; -496.000
887.755;  -91.375; -194.000; -164.000
887.999; -142.100; -552.000; -575.000
888.244;  -63.650;  -58.000;  161.000
888.488;  -23.800;  371.000;  393.000
888.732; -118.225; -368.000; -520.000
888.977; -128.650; -622.000; -567.000
889.221; -159.750; -683.000; -659.000
889.465; -127.200; -422.000; -566.000
889.710;  -90.625;  -56.000; -299.000
889.954;   -9.900;  579.000;  467.000
890.198; -149.550; -584.000; -707.000
890.442; -144.850; -716.000; -712.000
890.687; -166.275; -800.000; -753.000
890.931; -103.800; -273.000; -210.000
891.175; -132.300; -502.000; -500.000
891.419;  -82.775; -105.000; -110.000
891.663;  -84.375; -239.000; -112.000
891.907; -182.325; -801.000; -545.000
892.151; -181.100; -920.000; -815.000
892.395; -116.875; -274.000; -387.000
892.638;  -25.200;  408.000;  291.000
892.882; -186.750; -780.000; -867.000
893.126;   22.800;  758.000;  558.000
893.370; -102.125; -167.000; -168.000
893.614; -141.650; -714.000; -715.000
893.857; -106.725; -183.000; -197.000
894.101; -134.500; -527.000; -631.000
894.345;  -62.750;  300.000;  150.000
894.588;   14.625;  569.000;  380.000
894.832;  -80.675; -178.000;  -84.000
895.075;  -93.800;   15.000;  -92.000
895.319; -134.150; -552.000; -420.000
895.563; -130.475; -413.000; -353.000
895.806; -161.475; -628.000; -741.000
896.049;  -59.800; -576.000; -368.000
896.293;   82.050;  527.000;  405.000
896.536;  -68.275; -465.000; -468.000
896.779;  -64.250; -149.000;   -1.000
897.023; -134.100; -751.000; -714.000
897.266;  -43.225;  325.000;  269.000
897.509; -181.550; -900.000; -901.000
897.752;  -58.250;  149.000;  171.000
897.996; -189.650; -972.000; -864.000
898.239;  -49.400;  168.000;  102.000
898.482; -138.500; -431.000; -453.000
898.725;  -54.725;  101.000;   53.000
898.968; -154.525; -609.000; -744.000
899.211; -105.675; -513.000; -361.000
899.454; -127.200; -633.000; -539.000
899.697;  -88.450;   90.000;  -43.000
899.940; -167.075; -761.000; -757.000
900.182; -121.025; -335.000; -405.000
900.425;  -97.625; -150.000; -298.000
900.668;  -38.275;  491.000;  350.000
900.911; -100.975; -292.000; -345.000
901.154;  -71.125;  141.000;   -3.000
901.396; -145.875; -407.000; -412.000
901.639; -143.075; -430.000; -496.000
901.882; -179.875; -790.000; -809.000
902.124;  -98.700;  -29.000; -143.000
902.367; -125.775; -315.000; -361.000
902.609; -144.200; -476.000; -453.000
902.852;  -97.025; -108.000; -260.000
903.094; -138.050; -458.000; -337.000
903.337;  -52.700;  -26.000;   53.000
903.579; -120.800; -228.000; -441.000
903.821; -161.525; -597.000; -744.000
904.064;  -70.625;   85.000;  127.000
904.306;  -89.500; -126.000; -166.000
904.548; -117.675; -152.000; -366.000
904.790;  -86.850; -195.000; -340.000
905.033; -138.675; -625.000; -577.000
905.275; -135.975; -513.000; -524.000
905.517;   23.825;  468.000;  256.000
905.759;  -76.850; -667.000; -761.000
906.001; -120.500; -322.000; -369.000
906.243;  -54.925; -162.000; -224.000
906.485;  122.600; -265.000; -207.000
906.727;  112.675; -499.000; -542.000
906.969;  -40.450;  -30.000; -135.000
907.211;  116.025; -316.000; -382.000
907.453;  293.675; -188.000; -237.000
907.695;   16.675; -158.000; -385.000
907.936;   34.775;  818.000;  706.000
908.178;  -53.600;   92.000; -135.000
908.420;  -91.175; -111.000; -162.000
908.662; -130.175; -633.000; -682.000
908.903;  -98.225; -208.000; -123.000
909.145;  -76.400; -240.000; -305.000
909.386;   -9.975;  315.000;  280.000
909.628;   35.425;  363.000;  397.000
909.870;   -4.600;   29.000;  264.000
910.111;  -93.600; -809.000; -949.000
910.353;   -0.875; -123.000; -161.000
910.594;  -18.475; -574.000; -606.000
910.835;   77.325; -265.000; -326.000
911.077;  135.950; -503.000; -604.000
911.318;  266.225; -505.000; -471.000
911.559;  438.125; -577.000; -880.000
911.801; 1296.350; -284.000; -280.000
912.042; 9952.800;  -50.000; -159.000
912.283;26568.775;  404.000;  371.000
912.524; 4262.250; -396.000; -457.000
912.765;  454.100; -193.000;   79.000
913.006;  224.200; -307.000; -338.000
913.247;   53.650; -270.000; -290.000
913.488;  -11.900;  -43.000;   30.000
913.729;  -89.650; -373.000; -373.000
913.970;  -67.275;  -96.000; -292.000
914.211;  -72.075; -160.000; -198.000
914.452;  -68.400; -118.000;  -11.000
914.693;    2.600;  510.000;  592.000
914.934;   22.925;  510.000;  440.000
915.175;  -86.550;   53.000;  -95.000
915.415;  -86.250; -137.000;   27.000
915.656;  -66.350;  -28.000;  192.000
915.897; -100.800; -252.000;  -82.000
916.137;  -80.375;   74.000;   -9.000
916.378; -135.350; -573.000; -517.000
916.619;  -94.500; -159.000;  -63.000
916.859;  -36.675;  303.000;  330.000
917.100;  121.600; 1655.000; 1070.000
917.340;   43.900;  930.000;  728.000
917.581;   33.750;  965.000;  789.000
917.821;  -24.775; -171.000;  143.000
918.061;    4.500; -199.000;  -72.000
918.302;  -35.850; -152.000; -211.000
918.542;  -35.300;  -22.000;    3.000
918.782;   22.075;  369.000;  377.000
919.023;  111.250;  360.000;  427.000
919.263; 1350.850; 8131.000;  202.000
919.503; 1151.275; -137.000;  -54.000
919.743;  658.125;  390.000;  266.000
919.983;  273.025; -134.000;  -26.000
920.223;   63.775;  135.000;   14.000
920.463;  132.600;  631.000;  554.000
920.703;  124.575;   84.000;   39.000
920.943;  157.325; -110.000;   90.000
921.183;  210.225; -414.000; -405.000
921.423;  478.275;  307.000;  546.000
921.663;  710.175; -174.000; -257.000
921.903; 1478.050;  237.000;  173.000
922.143; 8299.625;  372.000;  389.000
922.383;32217.400;  158.000;  115.000
922.622;11451.375; -120.000;  -15.000
922.862; 1190.675;  796.000;  785.000
923.102;  461.750;  -51.000;   33.000
923.341;  179.300;   59.000;   74.000
923.581;   81.625;  450.000;  360.000
923.821;   12.975;  301.000;  398.000
924.060;   10.400;  351.000;  193.000
924.300;  -77.800;  -16.000; -128.000
924.539;   -5.125;  584.000;  473.000
924.779;    3.850;  812.000;  597.000
925.018;  -43.750;  247.000;  353.000
925.257;  -15.875;  595.000;  666.000
925.497;  -38.875;  447.000;  412.000
925.736;  -81.125;  -35.000;  102.000
925.975;   -8.725;  687.000;  669.000
926.214;   15.150;  907.000;  850.000
926.454;   25.000;  706.000;  757.000
926.693;  -60.900;  419.000;  543.000
926.932;   25.875; 1021.000;  825.000
927.171;   40.925; 1107.000; 1044.000
927.410;   50.625; 1144.000;  967.000
927.649;   12.225;  924.000;  742.000
927.888;  -22.250;  590.000;  564.000
928.127;  -27.400;  680.000;  678.000
928.366;   27.675;  842.000;  826.000
928.605;   30.025;  831.000;  737.000
928.844;  232.925; 1451.000; 1393.000
929.083;  595.625;  770.000;  613.000
929.321;  341.925; 1335.000; 1359.000
929.560;   93.925; 1158.000; 1122.000
929.799;  -32.675;  574.000;  475.000
930.038;   62.150; 1025.000; 1394.000
930.276;  -53.425;  334.000;  397.000
930.515;    5.100;  827.000;  681.000
930.753;  -17.350;  614.000;  589.000
930.992;  -23.025;  664.000;  717.000
931.230;    1.525;  847.000;  847.000
931.469;  167.475; 2162.000;  892.000
931.707;   58.500;  840.000;  751.000
931.946;   55.875; 1278.000; 1344.000
932.184;   46.450; 1437.000; 1175.000
932.423;   42.775; 1265.000;  963.000
932.661;  101.400; 1296.000; 1428.000
932.899;    5.400;  987.000;  821.000
933.137;    8.850;  754.000;  564.000
933.376;  135.275; 1664.000; 1335.000
933.614;  171.025; 1759.000; 1196.000
933.852;   59.625; 1357.000; 1171.000
934.090;  141.700; 1722.000; 1747.000
934.328;   90.550; 1252.000; 1457.000
934.566;   88.725; 1431.000; 1110.000
934.804;  120.800; 1263.000; 1309.000
935.042;  408.475; 1861.000; 1850.000
935.280; 1654.525; 2088.000; 2063.000
935.518; 1588.275; 2113.000; 2007.000
935.756;  360.575; 2481.000; 2316.000
935.994;  171.425; 1808.000; 1751.000
936.231;  325.450; 2890.000; 2950.000
936.469;  195.050; 2367.000; 2378.000
936.707;  162.725; 2220.000; 2167.000
936.945;  224.900; 2825.000; 2882.000
937.182;  202.550; 2679.000; 2741.000
937.420;  314.350; 3602.000; 3031.000
937.657;  423.575; 3365.000; 3478.000
937.895;  354.150; 3331.000; 3488.000
938.133;  297.450; 3540.000; 3528.000
938.370;  359.500; 3896.000; 4191.000
938.607;  385.975; 4488.000; 4205.000
938.845;  555.650; 5587.000; 5549.000
939.082;  487.125; 5387.000; 5177.000
939.320;  539.500; 5799.000; 5728.000
939.557;  618.225; 6549.000; 6491.000
939.794;  713.025; 7285.000; 7097.000
940.031;  894.650; 8421.000; 8368.000
940.269; 1110.000; 9552.000; 9107.000
940.506; 1098.650;10901.000;10507.000

