
Integration time [ms]: 200.000
Averaging Nr. [scans]: 10
Smoothing Nr. [pixels]: 0
Data measured with spectrometer [name]: 2101013U2
Wave   ;Sample   ;Dark     ;Reference
[nm]   ;[counts] ;[counts] ;[counts] 

394.013;   79.232; -450.257; -315.536
394.305;  373.928; -461.258; -419.536
394.596; 2096.952; -676.269; -527.514
394.887; 5004.880; -796.268; -654.518
395.178; 2013.533;  145.736;   11.476
395.470;  150.252; -210.263; -356.526
395.761;  413.206;  305.734;  394.479
396.052;  567.737; -545.284; -306.489
396.343;  584.957; -557.276; -454.503
396.634;  206.303; -200.279; -290.497
396.926;  170.176; -618.268; -565.517
397.217;  180.264;   11.725;  -17.504
397.508;   79.092; -366.273; -154.507
397.799;   21.703; -555.279; -571.497
398.090;  -42.907; -973.280; -902.495
398.381;  227.008;   11.708;  -11.473
398.672;  -29.990; -585.292; -742.473
398.963;   70.614; -348.279; -373.498
399.254;  182.426;   54.709; -209.475
399.545;  -99.700;-1017.266; -883.520
399.836;  119.438; -407.277; -343.501
400.127;   70.867; -205.295; -209.468
400.418;   72.082; -423.274; -392.506
400.709;  103.271; -359.281; -333.493
401.000;   74.332; -268.291; -309.476
401.290;  201.859;  225.698;  115.545
401.581;   99.007; -166.286; -228.485
401.872;   27.520; -542.298; -486.462
402.163;  113.455; -313.296; -252.467
402.454;  154.327; -123.291; -163.475
402.744;   75.640; -844.297; -813.465
403.035;  628.693; -226.293;  -86.471
403.326;  786.015; -366.292; -384.474
403.617;  629.810;  204.701;  165.539
403.907;  433.247; -593.283; -679.490
404.198; 4474.480; -545.307; -599.446
404.489;11413.655; -618.283; -588.491
404.779; 3825.065; -618.302; -660.456
405.070;  442.328;  -67.304; -174.451
405.360;  588.697; -259.293; -238.472
405.651;  696.684;  125.699;   98.542
405.942;  324.999;  209.714;  127.516
406.232;  414.324; -432.285; -413.487
406.523;  813.284;  641.706;  758.530
406.813;  131.403; -579.286; -644.484
407.104;  603.906;  261.708;  144.527
407.394;  253.312; -604.299; -591.462
407.685;  290.723;  336.715;  222.513
407.975;  134.553; -400.283; -382.490
408.265;  196.552; -134.289; -190.478
408.556;  109.722; -472.291; -459.475
408.846;  331.586;  474.706;  429.530
409.137;  199.166;   -1.288; -216.480
409.427;  114.124; -193.285; -271.487
409.717;   38.797; -776.273; -692.508
410.007;  269.513;    4.715; -170.486
410.298;  172.772; -360.295; -342.469
410.588;  117.219; -495.285; -510.486
410.878;   69.485; -792.287; -873.482
411.168;  220.624; -481.298; -478.463
411.459;  256.343; -295.283; -242.489
411.749;  125.819; -609.292; -507.474
412.039;   86.663; -755.289; -386.480
412.329;  356.226;   40.722;  132.501
412.619;  373.404;  -62.286; -148.485
412.909;  666.756;  639.711;  594.521
413.199;  565.794; -130.280; -251.495
413.490;  702.540;  521.710;  352.523
413.780;  200.501;-1013.279; -913.496
414.070;  577.158;  -46.276;  235.497
414.360;  606.719; -729.278; -666.498
414.650;  706.178; -726.288; -688.482
414.940;  930.900; -538.280; -441.496
415.230; 1661.673;   50.712;   74.519
415.520;11657.550;  155.730;   66.486
415.809;43702.871; -305.281; -125.493
416.099;34854.542; -388.277; -229.501
416.389; 9619.378;  435.726;  236.494
416.679; 5792.058;   91.738;   85.473
416.969;  973.893; -527.287; -503.483
417.259; 1113.604;  341.721;  171.503
417.549; 1294.669;  522.718;  318.508
417.838; 3164.079; -205.268; -147.518
418.128;10084.649;  650.710;  492.522
418.418; 8641.608; -491.272; -579.509
418.708; 5882.279;    9.726;  -48.506
418.997;21565.771; -474.275; -480.505
419.287;22605.190; -733.273; -790.507
419.577;21920.742; -160.283; -123.489
419.866;64329.038; -588.277; -498.501
420.156;64296.743; -242.270;  -55.513
420.446;13253.745; -112.263;  -26.526
420.735; 1500.533; -376.271; -446.512
421.025; 1599.618; 1830.722;  315.502
421.314; 1155.330; -203.271; -226.512
421.604; 2159.267;   89.732;  233.484
421.893; 1256.024; -705.271; -602.511
422.183;  406.446; -487.263; -461.526
422.472;  706.226;  -36.271; -107.511
422.762;  791.510; -416.266; -379.521
423.051;  383.959; -916.276; -916.503
423.341;  542.594; -491.273; -439.507
423.630;  756.920; -121.265;   15.477
423.919;  695.970;   58.725;   49.495
424.209;  682.355;  -31.263;   56.473
424.498;  915.775;   68.732;  161.483
424.787; 1990.386; -535.267; -601.518
425.077; 5912.118;   34.735;   29.478
425.366; 7796.964; -734.262; -744.528
425.655;18240.095;  639.727;  259.493
425.945;39710.486; -313.247; -268.554
426.234;22915.003;  117.741;  300.467
426.523; 9337.012;  -86.259; -350.534
426.812;13008.103;  107.734;  159.480
427.101;18954.361; -127.269; -323.515
427.390;23229.350;  -55.270;  -86.514
427.680; 4905.446; -624.257; -411.538
427.969;  878.665; -330.255; -301.540
428.258;  547.232; -385.257; -477.536
428.547;  980.315;  449.728;  397.490
428.836; 1913.992; -421.253; -398.543
429.125; 2699.315; -199.259;  -72.534
429.414; 1387.531; -330.251; -294.548
429.703; 5923.631; -231.251; -213.548
429.992;17137.837; -938.250; -828.549
430.281;11623.233; -397.264; -331.524
430.570; 1132.015;  -21.252;   32.454
430.859; 1051.011;  279.741;  352.466
431.148;  835.779;  636.752;  631.446
431.437;  582.014;  391.748;  367.454
431.725;  281.434; -544.257; -481.536
432.014;  195.405; -845.253; -756.545
432.303;  722.308; -149.239; -105.569
432.592; 1016.845; -460.263; -178.525
432.881; 1888.980; -601.248; -437.554
433.169;11820.266; -343.255;  -61.540
433.458;23073.766;  445.765;  540.424
433.747; 9962.174; -397.261; -289.529
434.036; 1581.167; -275.242; -280.564
434.324; 3892.959; -395.249; -379.551
434.613; 6526.456;   40.757;  159.437
434.902; 2279.091;  333.760;  439.433
435.190;  882.306;   75.761;  295.431
435.479;  503.225;  -52.245;   83.441
435.767;  193.038; -411.244; -427.561
436.056;  373.560; -340.242; -294.563
436.345;  666.395; -372.240; -223.568
436.633;  724.950;   60.750;  383.450
436.922;  446.199;  208.760;  414.432
437.210;  907.349; -194.236;    1.426
437.499; 2623.163; -583.235; -432.576
437.787; 2897.448; -339.236;  -10.574
438.075;  857.416;   56.761;  162.430
438.364; 1101.320;  -44.238;  250.429
438.652;  655.700; -286.226; -138.592
438.941;  236.638;    3.770;  269.415
439.229;  -18.290; -665.252; -466.545
439.517;   55.277; -160.234;  -85.577
439.806;  -34.273; -501.225; -290.595
440.094;  356.490;  377.766;  650.421
440.382;  283.797; -653.233; -302.580
440.670;  319.262; -361.235; -285.576
440.959;   46.256; -347.223; -170.599
441.247;   97.858; -151.229; -109.587
441.535;  151.874; -266.235;   31.423
441.823;   44.286; -497.234; -305.578
442.111;  328.565;  173.771;  327.412
442.400;  765.423; -628.245; -335.559
442.688; 2003.390; -111.234; -620.579
442.976; 1369.607; -786.213; -450.617
443.264;  172.638; -324.224; -364.597
443.552;  142.101; -258.226;   51.408
443.840;  326.272;  602.765;  876.423
444.128;  213.495;  265.767;  269.420
444.416;  -39.331; -694.228; -312.588
444.704;   27.107; -465.219;  -92.605
444.992;  112.706;   -0.226;  240.407
445.280;   55.039; -517.230;  -94.585
445.568;   53.413; -694.212; -396.618
445.856;  541.580; -174.221;  357.398
446.143; 1023.301;  -54.220;   -7.604
446.431;  883.876;  -25.228;  625.411
446.719;  426.440;  489.783;  675.391
447.007;  339.230;  481.769;  705.416
447.295;  350.251;  597.777;  871.402
447.583;  138.554; -464.229;  -34.587
447.870;  224.875; -434.221; -202.601
448.158;  651.137; -104.230;  129.415
448.446;  434.603; -800.219; -338.604
448.733;  304.140;   13.776;  269.403
449.021;  415.112;   60.788;  341.382
449.309;  283.638; -296.210;  208.379
449.596;  399.034;  128.783;   59.392
449.884;  234.863; -571.222; -325.600
450.172;  264.185; -756.227; -406.590
450.459;  867.378;  645.786;  780.387
450.747; 4716.731; -411.218; -147.608
451.034;14054.178;  493.772;  889.411
451.322;11864.883; -413.214; -170.614
451.609; 1090.043;  292.777;  508.403
451.897; 1184.746; -550.203; -183.634
452.184; 3329.052; -622.223; -400.598
452.472; 3119.574;   97.792;  269.375
452.759;  652.004;  512.781;  864.395
453.047;  198.608; -407.212; -125.617
453.334;  121.217; -732.219; -216.606
453.621;  155.887; -438.214; -161.615
453.909;  242.432;   13.796;  384.368
454.196;  203.110; -299.199; -123.641
454.483;  385.568;  317.798;  540.364
454.771;  252.980; -215.208;  196.374
455.058;  125.185; -316.207;  102.374
455.345;  243.804;   71.807;  344.347
455.632;  165.591; -128.207;  235.373
455.919;  114.848;  -82.196;  182.354
456.207; -115.682; -774.198; -450.642
456.494;   -9.211; -475.200;  -66.639
456.781;   26.661; -399.202; -198.635
457.068;  108.702; -253.206;  -29.628
457.355;  -13.096; -698.206; -401.629
457.642;  -12.587; -552.205; -290.630
457.929;   13.689; -778.194; -417.651
458.216;  121.609; -575.212; -354.617
458.503;  445.197; -173.193;  -19.652
458.790;  411.376; -864.208; -630.625
459.077;  528.069;  -77.202;  110.364
459.364; 1528.477; -350.195; -210.649
459.651; 3023.299;  -46.206;  220.372
459.938; 1459.460; -864.209; -665.623
460.225;  268.275;  132.799;  276.363
460.512;  -60.956; -836.197; -688.645
460.799;  183.629;  -32.218;  320.392
461.086;  102.197; -370.200; -251.640
461.372;   47.618; -509.198; -279.642
461.659;  175.550; -165.196;  108.354
461.946;  102.495; -445.193;  -54.651
462.233;  486.693;  842.800;  888.361
462.519;  635.187; -814.201; -464.639
462.806; 1791.944; -768.197; -497.645
463.093; 1617.830; -445.191;  -66.656
463.380;  -75.699; -920.186; -824.664
463.666;   97.647; -259.197;  -18.646
463.953;  197.268; -406.195; -243.648
464.239;  326.468; -173.195;  -77.648
464.526;  751.286;  413.806;  743.350
464.813;  561.350; -565.190; -304.658
465.099;  630.596;  606.807;  607.348
465.386;  573.403;  903.807;  921.348
465.672;   38.945; -694.197; -522.645
465.959;   51.880; -598.188; -520.662
466.245;   36.203; -468.193; -359.652
466.532;  174.564; -109.195;   63.352
466.818;  117.200; -357.186; -216.664
467.104;   23.969; -488.182; -415.672
467.391;  -55.147; -628.189; -459.658
467.677;   90.006; -289.186;    9.335
467.964;   10.764; -682.189; -471.660
468.250;  124.011; -331.186; -160.665
468.536;  181.855;   90.811;  180.341
468.822;  -42.269; -821.184; -574.668
469.109;  309.507;  351.827;  471.311
469.395;  419.520;  729.808;  787.346
469.681;  378.460;   46.811;  156.341
469.967; 2448.668; -699.188; -382.660
470.254; 5005.882; -494.188; -306.662
470.540; 3288.748; -601.196; -476.646
470.826;  477.288; -488.181; -397.675
471.112;  610.237;  288.816;  113.331
471.398;  203.145; -253.183;  -58.670
471.684;   99.236; -626.177; -447.680
471.970;  -31.006; -918.180; -981.675
472.256;   94.918; -521.192; -441.654
472.542;   67.826; -499.171; -434.691
472.828;   11.262; -743.182; -607.672
473.114;   93.000; -380.166; -283.700
473.400;   68.565; -504.175; -293.684
473.686;   36.111; -452.166; -400.701
473.972;  135.390; -230.174; -131.687
474.258;  -81.693; -925.173; -843.689
474.544;  385.622; -183.178;   -2.679
474.830;  622.268;  -65.175;   45.316
475.116;  955.252; -123.190; -196.658
475.401; 1190.998; -558.180; -467.676
475.687;  370.597; -725.180; -718.676
475.973;   -3.124; -673.181; -770.673
476.259;  483.971;  736.825;  764.315
476.544;  701.450; -539.176; -437.682
476.830; 1523.019; -398.172; -322.690
477.116; 1355.048; -430.177; -336.682
477.401;  329.998;  346.820;  358.324
477.687;   12.765; -289.175; -405.684
477.973;  115.982;   21.819;   28.326
478.258;  -11.954; -448.163; -348.706
478.544;   96.520;   21.815;   61.334
478.829; -102.465; -818.171; -738.692
479.115;  -74.482; -749.172; -651.690
479.401;    2.482; -444.174; -449.686
479.686;   96.296; -253.180;  -74.676
479.972;  -57.069; -886.178; -776.680
480.257;  104.203; -258.166;  -65.700
480.542;  -14.058; -614.170; -469.693
480.828;  478.862; 1288.824; 1392.317
481.113;  -43.742; -464.176; -426.683
481.399;    6.587; -236.161; -202.711
481.684; -103.898; -620.166; -462.700
481.969;   77.010; -158.159;  -73.713
482.255;   31.160; -439.169; -285.695
482.540;   -0.368; -569.178; -441.680
482.825;   20.992; -395.187; -404.663
483.110;  206.066;  -85.169; -105.696
483.396;  428.547; -840.157; -652.718
483.681;  991.190;  543.826;  730.313
483.966;  300.200; -696.160; -700.712
484.251;   27.588; -404.174; -310.687
484.536;   13.320; -356.165; -378.703
484.822;   43.293; -205.173; -218.687
485.107;  -27.088; -599.152; -502.726
485.392;  250.330;  662.836;  541.296
485.677;  211.483;  354.832;  163.302
485.962;  243.943;  160.843;  270.283
486.247;  189.860;  -14.162;   -8.707
486.532;   95.305; -178.166; -325.701
486.817;  332.677;  381.839;  431.291
487.102;  214.383; -453.154; -514.722
487.387; 1246.850; -637.156; -652.718
487.672; 2162.039; -154.164;  -38.705
487.957; 1395.889; -394.160; -286.711
488.241;  432.241; -290.150; -314.729
488.526; 1484.215; -280.152; -148.726
488.811; 2212.035; -881.177; -818.680
489.096; 1696.088; -666.154; -702.723
489.381;  918.008;    3.847;  162.275
489.666;  734.986; -428.161; -510.710
489.950;  370.093;  558.846;  627.277
490.235;  -61.668; -480.151; -458.728
490.520;  -68.515; -756.161; -723.710
490.804; -117.947; -827.156; -736.719
491.089;   43.868; -469.149; -299.732
491.374;   95.137; -132.164;  -75.704
491.658;  -20.213; -817.147; -717.735
491.943;  267.822; -657.152; -609.727
492.227;  401.976; -178.155;  -38.721
492.512;   89.342; -294.157; -341.717
492.797; -127.843; -713.149; -716.731
493.081;  -66.408; -588.147; -598.735
493.366;  -63.613; -751.161; -635.711
493.650;  423.883;  831.859;  917.254
493.935;   52.386; -648.147; -447.734
494.219;  -72.539; -778.142; -687.743
494.503;  -46.951; -585.150; -487.730
494.788;  109.028;   46.842;   74.285
495.072;  251.343;  184.850;  434.271
495.356;  384.073; -463.148; -343.733
495.641;  770.403; -812.146; -736.736
495.925;  738.162; -976.156; -903.719
496.209;   99.567; -599.149; -451.732
496.494;  -81.438; -763.142; -544.744
496.778;   13.983; -364.154; -360.722
497.062;  -93.739; -819.156; -627.719
497.346;  -61.907; -869.160; -640.711
497.631;  266.279;  580.852;  560.266
497.915;  142.621;  -64.145;  175.261
498.199;   93.247; -341.157; -277.718
498.483;   93.612; -562.152; -508.725
498.767;  415.845;  301.850;  300.271
499.051;  323.863; -126.149; -100.732
499.335;   80.860; -693.149; -739.731
499.619;  -31.844; -381.129; -423.767
499.903;   80.274; -272.155;  -65.721
500.187;   57.695; -588.153; -316.724
500.471;   11.321; -796.152; -595.727
500.755;  232.085;   62.839;  -96.710
501.039;   39.475; -270.155; -357.721
501.323;  186.886;  -21.141;  264.254
501.607;   72.747; -447.163; -503.706
501.891;   19.649; -607.156; -512.718
502.174;  -47.259; -726.144; -585.741
502.458;  158.027;   89.849;  370.273
502.742;   93.827; -180.138; -191.751
503.026;  276.385; -412.147; -254.734
503.310;  315.808; -437.159; -375.713
503.593;  260.989; -464.147; -325.735
503.877;  228.596; -232.133; -156.760
504.161;  302.300;    2.847;  -50.724
504.444;  198.731; -841.158; -710.716
504.728;  908.535; -487.164; -522.704
505.012; 1362.240; -257.150;  -76.729
505.295; 1089.287; -417.161; -212.711
505.579;  991.261; -256.156; -496.719
505.862; 1489.615; -555.145; -333.738
506.146; 1391.312; -681.159; -758.714
506.429;  820.713;  568.841;  461.286
506.713;  133.435; -732.151; -667.728
506.996;  674.582;   90.846;  295.278
507.280;  600.327; -633.165; -474.703
507.563;  489.671; -469.155; -261.721
507.847;  192.197; -423.153; -112.724
508.130;  212.188; -665.161; -456.711
508.413;  240.395; -758.167; -577.700
508.697;  513.596; -151.167;   12.300
508.980;  329.399; -422.153; -312.724
509.263;    5.965; -466.155; -450.720
509.547;   35.639; -124.150;   82.271
509.830;   92.492; -172.160;  140.289
510.113;  193.861;  128.844;  298.281
510.396;   76.109; -530.152; -300.725
510.680;  213.917; -818.145; -812.738
510.963;  899.290;  184.846;  180.277
511.246;  768.452; -493.150; -357.730
511.529;  485.226; -482.145;  -83.739
511.812;  732.990; -250.134;   10.241
512.095;  481.630; -740.151; -396.728
512.378;  162.395; -317.147; -245.736
512.661;   54.640; -703.137; -623.753
512.944;   59.965; -750.142; -637.744
513.227;  129.735; -170.137; -171.752
513.510;  112.940; -479.144; -671.741
513.793;   64.793; -485.140; -435.747
514.076;  258.692;  -43.127;  -39.771
514.359;  201.968; -294.149; -135.732
514.642;  176.970; -442.142; -567.744
514.925; 1542.291;  581.860;  561.253
515.208; 1866.884; -498.134; -443.758
515.491; 1284.607; -276.133; -182.761
515.773;  788.447; -410.143; -337.742
516.056; 4172.551;  249.864;  409.246
516.339; 5139.458; -754.136; -652.755
516.622; 3391.848; -518.150; -488.730
516.904; 1898.059;  882.857;  975.257
517.187;  845.133; -730.138; -523.752
517.470;  745.757; -568.143; -510.743
517.752;  879.262; -624.136; -470.756
518.035;  665.111; -708.139; -725.749
518.318;  786.758; -799.136; -744.755
518.600; 4754.813; -300.132; -325.762
518.883; 6230.369;  310.858;   88.256
519.165; 3064.121; -585.138; -426.751
519.448;  697.213;  -61.132;  -19.762
519.730;  326.705; -573.126; -415.773
520.013;  596.601;  588.867;  664.240
520.295; 1278.393;  -94.134;  -15.759
520.578; 2810.935; -335.131; -305.764
520.860; 3176.213; -254.132;   56.238
521.143; 1678.766; -763.135; -584.756
521.425;  892.827; -251.125; -279.775
521.707; 1311.592; -622.127; -380.771
521.990; 3407.293; -199.127;  167.229
522.272; 3775.196; -116.140;   -4.748
522.554; 1751.948; -237.143; -157.742
522.836;  605.889;  -24.134;   99.241
523.119;  374.183; -496.148; -189.734
523.401;  291.147; -448.130; -314.766
523.683;  195.541; -865.137; -693.753
523.965;  614.429;  408.862;  260.248
524.247;  534.163;   54.878;  170.220
524.529;  391.493; -451.134; -367.759
524.812;  702.950;   -3.130;  191.234
525.094; 1685.628; -773.138; -631.751
525.376; 2565.742; -143.124;   78.223
525.658; 1590.353; -441.136; -339.754
525.940;   51.530; -805.131; -671.764
526.222;   66.159; -188.136;  -88.755
526.504;  193.626; -190.131;   32.237
526.786;  248.697; -960.133; -647.760
527.068;  453.752; -124.123;  -67.778
527.349;  149.747; -865.137; -774.754
527.631;  234.013; -137.132;   22.238
527.913;  252.391; -664.127; -450.771
528.195;  317.515; -761.125; -639.774
528.477;  502.184;  -93.134;  -30.758
528.759;  260.450; -648.130; -522.766
529.040;  139.049; -569.123; -293.778
529.322;  153.419; -235.125;  -10.774
529.604;  209.454;  -47.130;   93.233
529.886;  177.004; -546.126; -302.773
530.167;  234.540;  232.870;  192.235
530.449;  134.094;    1.853;   63.265
530.731;   36.461; -572.122; -459.779
531.012;  135.597; -513.120; -216.784
531.294;  167.964; -118.116;  -43.792
531.575;  327.027;  290.875;  538.225
531.857;   95.675; -548.135; -266.757
532.138;  257.484; -113.141;   40.254
532.420;  334.369;  294.865;  403.244
532.701;  283.401; -722.133; -751.760
532.983;  555.606;  232.867;  182.239
533.264;  231.101; -243.126;  175.228
533.546;  -49.841; -491.136; -508.755
533.827;  125.095;  173.867;   -1.759
534.109;   73.875; -352.135;  -80.757
534.390;  162.420; -725.132; -582.762
534.671;  425.568; -270.135;  -82.756
534.953;  301.854; -751.123; -611.779
535.234;   58.138; -426.117; -255.789
535.515; -143.689; -891.119; -735.785
535.796;   -1.116; -431.128; -193.770
536.078; -223.458;-1050.124; -904.777
536.359;   50.555;  -22.123;    3.221
536.640;  -12.183; -480.125; -197.774
536.921;  353.463;  225.871;  143.232
537.202;  774.023;  -87.138;  -16.751
537.483;  875.834;  251.869;  377.236
537.764;  392.440;   17.870;   98.235
538.045;  -70.317; -543.134; -371.758
538.326;  -39.634; -596.129; -447.768
538.607;   13.994; -686.127; -476.771
538.888;  372.082;   98.879;    5.218
539.169;  373.772; -704.122; -535.781
539.450;  640.461;  236.871;   16.233
539.731;  382.188; -361.121; -182.783
540.012;  288.097;  199.880;  412.216
540.293;  196.032;   82.876;  158.224
540.574;    7.099; -895.113; -717.796
540.855;  897.086;  435.879;  377.218
541.136; 1009.968;   47.878;  139.220
541.416;  540.351; -161.130; -220.766
541.697;  411.127; -274.131; -170.763
541.978; 2068.472; -270.135; -315.757
542.259; 2433.994; -211.127; -236.771
542.539; 1212.953; -191.116; -186.790
542.820;  364.026;  461.875;  480.225
543.101;  227.420;  -52.145;  -77.738
543.381;   40.793; -638.127; -591.771
543.662;  535.589;  159.873; -254.771
543.942; 1120.886; -751.127; -830.770
544.223; 1970.970;  193.878;  161.219
544.504; 1319.041; -275.124; -182.777
544.784; 1197.604; -592.126; -408.773
545.065; 3146.460;  104.884; -254.791
545.345; 3669.311;  227.881;   14.215
545.626; 2533.598;  -14.113; -108.796
545.906; 1605.539;   77.869;   98.235
546.186;  737.612;   92.874;  -95.773
546.467;  413.846;   99.877;  -95.778
546.747;  677.453;  264.884;  327.210
547.027;  790.539;   91.876;  111.223
547.308;  634.985; -376.127; -530.770
547.588;  783.967;  299.871;  371.232
547.868;  393.841;  458.870;  588.235
548.149;  462.372;  609.885;  593.207
548.429;  309.891; -347.127; -299.771
548.709;  340.996; -645.120; -461.784
548.989;  956.028;   84.882;   88.213
549.269; 4323.910;   10.868;  139.239
549.550; 9211.753;  215.877;  117.222
549.830; 8157.529; -758.111; -556.799
550.110; 1723.741; -468.110; -320.801
550.390; 1717.662; -128.122;  -56.779
550.670; 2116.091; -868.114; -783.795
550.950; 1505.685; -509.121; -471.782
551.230;  442.779;  549.879;  460.218
551.510;   -2.017; -381.121; -326.782
551.790;   77.355; -173.109; -127.803
552.070;  609.045;  940.877; 1181.223
552.350;  839.818; -492.119; -377.786
552.630; 1105.975;   -2.121;   77.219
552.909;  757.561;  181.884;   73.209
553.189;  492.921;  -49.132;   33.237
553.469;  396.818; -703.119; -514.786
553.749;  375.996; -469.127; -357.772
554.029;  339.245;   33.883;  -24.790
554.308;  335.880; -154.115;  -37.794
554.588;  116.782; -196.128; -204.770
554.868;  144.987; -366.121;  -47.782
555.147;  365.175; -114.115;  -46.793
555.427; 1266.765; -260.116; -250.792
555.707; 7805.471; -284.115; -200.793
555.986; 8734.134; -719.111; -538.800
556.266; 4858.351;   23.884;   72.210
556.546;  228.683; -888.121; -675.782
556.825;  562.087; -657.114; -556.794
557.105; 3594.779; -125.128;   17.230
557.384; 3915.359;  122.884;  187.209
557.664; 1635.863; -717.116; -508.792
557.943;  269.685; -557.121; -411.782
558.222;  309.333; -345.118; -344.788
558.502;  542.277; -116.115;  -76.793
558.781;  978.069;  194.885;  499.208
559.061;  780.633; -232.118; -227.788
559.340;  624.341;  302.883;  353.211
559.619; 1432.251;   93.884;  148.210
559.899; 1945.244; -239.117; -266.789
560.178; 1884.176; -778.115; -593.793
560.457; 6291.647; -623.117; -562.790
560.736; 8020.536; -472.111; -482.800
561.015; 5708.675; -500.128; -502.769
561.295;  825.289;  180.893;  215.193
561.574;  640.472;  119.885;  116.207
561.853; 1015.362;  274.891;  303.197
562.132;  935.581;  -45.114;  182.206
562.411;  869.376;  396.879;  553.219
562.690;  282.769; -592.115; -458.792
562.969;  365.310;  472.888;  630.203
563.248; 1066.572; 2966.878; 2487.219
563.527;  540.135; -290.111; -408.800
563.806;  744.491; -650.127; -521.771
564.085;  832.215; -297.105; -206.810
564.364;  494.250; -594.117; -405.790
564.643; 1078.576; -276.121; -223.781
564.922; 3747.852;  221.890;  397.198
565.201; 3579.658; -640.109; -700.803
565.479; 1639.567; -297.115; -219.792
565.758;  653.479; -810.128; -712.770
566.037;  912.760; -155.109; -100.803
566.316;  465.459; -286.116;  -28.791
566.595;  126.471;  -17.115;  -12.793
566.873;  242.739; -166.111;  -79.801
567.152;  -96.991; -490.113; -590.797
567.431;   61.352; -113.116;    6.210
567.709;   78.989; -344.107; -212.807
567.988;  568.087; -810.114; -769.794
568.266; 1006.671; -160.115;  -68.793
568.545;  788.895; -644.100; -514.819
568.824; 1160.766;  160.885;  356.208
569.102; 1051.386; -351.114; -235.794
569.381;  471.664; -492.116; -407.792
569.659;  -37.997; -553.113; -553.796
569.938;  103.969; -743.122; -465.780
570.216;  207.964; -225.109; -225.804
570.494;  -53.308; -632.114; -572.795
570.773;  124.583;  202.879;  114.218
571.051;   29.250; -373.123; -357.778
571.330;  129.599; -221.113; -174.796
571.608;   71.626; -181.098; -173.823
571.886;  -91.775; -671.111; -581.799
572.164; -130.313; -739.121; -621.782
572.443;  -64.279; -562.105; -512.811
572.721;  -51.953; -399.117; -289.790
572.999;  -35.164; -280.117; -168.788
573.277;  208.510;  379.894;  620.191
573.555;  648.914;   94.894;   37.190
573.834; 2671.036;  -86.117; -114.788
574.112; 2919.693;  880.893;  811.193
574.390;  953.037; -143.111;  -96.801
574.668;   17.311;  -91.112;  -61.797
574.946;    0.714; -165.106; -187.810
575.224;   41.258;   71.891;  -16.803
575.502;   -7.945; -200.116; -204.791
575.780; -152.687; -767.112; -829.798
576.058;  529.036; 1589.889; 1004.200
576.336;   -1.655; -210.110; -129.801
576.614;  -98.386; -511.112; -340.798
576.891;  157.479; -711.115; -823.794
577.169;  933.478; -158.108; -285.805
577.447; 1115.292;  169.893;  202.193
577.725;  579.821;  629.888;  854.201
578.003;   57.918;  -71.112; -371.798
578.280;  218.636; -208.104; -242.812
578.558;  123.277; -450.115; -422.793
578.836;  269.991; -210.114; -145.795
579.114;   85.411; -630.112; -670.797
579.391;  138.439;   -6.117;  -18.789
579.669; -113.420; -595.114; -704.794
579.947;  382.187; -326.107; -127.806
580.224;  602.586; -692.107; -524.806
580.502;  628.594;  127.893;   76.193
580.779;   79.449;  -42.117;   75.210
581.057; -120.035; -584.109; -470.804
581.334; -151.338; -726.102; -695.815
581.612;   98.815;   54.895;  511.190
581.889;  -17.816;  -83.101; -129.818
582.167;  -45.091; -298.099; -190.821
582.444; -168.125; -845.102; -814.817
582.721;  248.176;  657.899;  715.183
582.999;  163.404; -326.100; -167.821
583.276; 1065.458; -812.123; -713.779
583.553; 1323.267; -364.102; -294.816
583.831;  456.731; -607.104; -631.812
584.108;  155.674;  349.892;  174.195
584.385;   90.761; -122.102;  -98.815
584.662; -110.361; -651.111; -828.801
584.940;  112.238;  204.889;  204.199
585.217;  -30.198;  -73.113; -303.796
585.494;   92.553;   71.890;  118.198
585.771;  455.366; -250.109; -354.804
586.048;  952.202; -196.113;  -76.796
586.325;  596.543; -721.110; -773.801
586.602;  215.337;  230.896;  213.188
586.879;  -25.302; -499.100; -580.820
587.156;  121.817; -156.105; -331.810
587.433;  -48.128; -701.102; -667.817
587.710;  168.114;  152.888;  234.202
587.987;  624.526; -264.105; -236.811
588.264; 1517.917;  315.888;  387.202
588.541; 2783.041;  -61.104;   26.187
588.818; 5027.570;   72.892;  171.196
589.095; 4358.734; -163.104; -174.812
589.371;  762.663; -459.109; -414.804
589.648;   66.493; -581.107; -437.807
589.925;   83.893; -517.114; -621.795
590.202;   24.514; -741.112; -607.798
590.478;  198.929; -166.105;  -73.811
590.755;  600.580; -241.108; -132.806
591.032; 4932.947; -741.110; -699.802
591.308; 6166.194; -732.094; -790.831
591.585; 3385.847; -573.110; -560.802
591.862;  274.374;-1056.102; -950.817
592.138;  176.776; -475.108; -474.805
592.415;  343.038; -486.104; -495.813
592.691; 2973.535;  460.896;  518.188
592.968; 3335.429; -208.098; -123.824
593.244; 1695.453; -695.116; -595.790
593.521;  189.575; -105.102;  -42.817
593.797;  -10.236; -810.122; -720.780
594.074;  670.050; -611.096; -588.826
594.350; 1251.169;  828.905;  729.172
594.626;  603.740; -303.111; -283.801
594.903;  253.776; -643.101; -645.817
595.179;  376.345;  243.896;  418.187
595.455;   40.495; -136.107; -150.807
595.731;   46.947;  -19.103;  -38.814
596.008;  -32.770; -464.111; -434.800
596.284;  103.202; -187.100; -242.820
596.560;   92.805; -501.093; -493.833
596.836;  419.020; -173.105;  -70.810
597.112;  691.978; -582.108; -437.805
597.388;  577.447;  -49.097;  -48.826
597.665;  252.607;  437.887;  530.203
597.941; -101.045; -572.089; -658.839
598.217;   67.353; -323.110; -293.802
598.493;  591.269;   61.891; -204.804
598.769;  937.692; -175.100;  -50.819
599.045;  588.282; -490.108; -562.806
599.321;  137.301; -193.100; -261.820
599.597;  296.768; -355.109; -476.804
599.872;  920.741;  409.896;  429.187
600.148;  712.249;  -61.097; -172.826
600.424;  610.091;   91.893;  202.193
600.700;  478.995; -170.107; -280.807
600.976;  246.140; -442.097; -464.825
601.252;  527.262; -226.109; -272.803
601.527;  438.943; -833.104; -840.813
601.803;  290.629; -453.105; -404.812
602.079;  352.092; -124.100; -118.819
602.354; 1108.222; -620.092; -531.835
602.630; 1544.802; -140.113; -482.796
602.906; 4860.184; -910.101; -863.818
603.181;12437.718; -627.119; -534.786
603.457;10586.445;   98.903; -278.826
603.733; 1660.490; -605.120; -626.783
604.008; 2081.715; -245.106; -164.810
604.284; 5521.978; -636.101; -580.817
604.559; 4870.321;   -3.112;  -42.799
604.835;  969.520; -163.105; -225.810
605.110;  818.210; -732.099; -892.821
605.385; 1334.910;  224.907;  267.167
605.661; 1405.974; -625.095; -729.829
605.936; 2152.383; -664.108; -737.806
606.211; 1968.159;  -17.103; -170.815
606.487;  437.384; -329.114; -376.794
606.762;   70.518; -791.119; -745.786
607.037;   -2.880; -501.105; -433.810
607.313;  -67.837; -589.096; -574.828
607.588;   38.114; -375.106; -137.810
607.863;  124.284;  -28.101; -143.818
608.138;  374.850;  513.890;  516.198
608.413;   86.216; -576.099; -592.822
608.688;  130.877; -203.108; -267.805
608.964;  431.904; -509.106; -218.809
609.239;  488.115; -107.105; -212.810
609.514;  562.029;  281.895;  240.188
609.789; 1249.236; -187.104; -716.812
610.064; 1583.561; -435.096; -609.827
610.339; 1698.763; -855.109; -799.804
610.614; 2153.401; -131.100; -315.820
610.889; 1315.229;  215.895;  107.188
611.163;   94.031; -407.104; -591.812
611.438;  179.586;   81.886; -167.794
611.713;   40.778; -467.101; -499.817
611.988;  119.782; -144.101; -328.818
612.263;  -21.538; -771.102; -717.815
612.538;  499.801;  385.887;  251.204
612.812;  337.403; -832.100; -911.820
613.087;  263.325; -358.098; -338.823
613.362;  -58.905; -497.107; -557.807
613.637;  109.252;  261.897;  138.186
613.911;   13.923; -256.092; -345.835
614.186;  276.692; -249.107; -292.807
614.460; 1323.384; -842.081; -758.854
614.735; 1506.595;  -55.087;  -17.843
615.010;  341.878;   43.912;  -82.841
615.284;  540.776;  360.892;  246.195
615.559;  689.121; -792.092; -955.835
615.833;  580.413;  -76.099;  -87.822
616.108;   22.741; -225.090; -390.837
616.382;  314.098;  274.913;  402.156
616.656;  319.742; -241.090; -232.837
616.931; 1002.714; -785.099; -700.822
617.205; 1918.443; -973.104; -979.813
617.480; 1815.323;  -91.125;    6.225
617.754;  358.619; -396.125; -128.774
618.028;   47.568; -369.129; -382.768
618.302;  169.073;   73.892;  -25.805
618.577;  -84.546; -371.103; -518.815
618.851;  -50.443; -399.109; -600.803
619.125;  -96.007; -335.134; -378.759
619.399;  -42.356; -244.104; -374.813
619.673;  -67.234; -330.115; -515.792
619.947;  -60.209; -333.114; -448.795
620.222;   11.341; -198.110; -204.801
620.496;   -0.814;  -47.121;  -96.782
620.770;   65.772; -187.122;  -93.781
621.044;  467.117;  323.895;  346.190
621.318; 1421.791; -653.120; -614.783
621.592; 1272.587; -430.121; -409.783
621.866;  652.222; -476.112; -572.799
622.140;   67.555; -207.116; -356.791
622.413;  146.230;  138.889;  112.200
622.687;  -51.921; -746.101; -492.817
622.961;   67.873; -130.108; -143.805
623.235; -123.869; -633.111; -661.800
623.509; -170.272; -816.105; -848.811
623.783;   50.488;  -12.107;   48.193
624.056;   -5.907; -254.120; -280.783
624.330;  160.411;   63.888;   -3.797
624.604;  171.950; -271.116; -355.790
624.877;  158.649;  180.890;   26.198
625.151;   97.782; -249.114; -238.794
625.425;  -25.353; -150.103; -283.814
625.698; -103.091; -367.119; -374.785
625.972; -165.547; -799.110; -765.802
626.245;  175.453;  685.884;  484.210
626.519;  -68.100; -426.120; -340.784
626.792;  -41.106; -192.107; -380.807
627.066; -149.740; -485.122; -662.779
627.339; -185.654; -736.110; -663.802
627.613;  119.597;  351.880;  148.216
627.886;  150.756;  187.891; -612.803
628.160;    0.090;  312.880; -161.783
628.433; -165.972; -695.125; -703.775
628.706; -102.100; -517.120; -615.784
628.979;   98.139;  296.876;  117.223
629.253; -136.483; -785.119; -833.786
629.526;  767.001; -334.126; -253.772
629.799;  656.951; -641.123; -479.778
630.072;  291.771; -497.128; -516.769
630.346; -101.747;-1115.116;-1080.790
630.619;  896.196; -467.107; -545.808
630.892; 1202.332;  709.889;  593.200
631.165;  691.844;  790.896;  679.187
631.438; -139.583;-1092.112;-1055.798
631.711;  129.956;  453.877;  257.221
631.984;  -88.355; -523.117; -624.789
632.257; -102.961; -636.117; -681.789
632.530;  -50.591; -412.119; -433.785
632.803;   83.678; -109.115;    7.207
633.076;  -91.555; -360.123; -422.777
633.349;   39.378;  173.872;  121.231
633.622;  -59.493; -187.119; -240.785
633.895; -207.308; -903.120; -823.783
634.167;  -97.995; -496.126; -525.773
634.440;    7.964;  -19.116; -137.792
634.713;   43.515;  -22.119; -120.786
634.986;  211.160;  593.871;  453.233
635.258; -124.125; -507.115; -597.793
635.531;  259.232;  742.882; -343.788
635.804;    3.643; -303.117; -318.789
636.077; -149.743; -830.116; -852.791
636.349;   15.173; -586.115; -474.793
636.622;  818.100; 1695.874; 1392.228
636.894;  473.900; -474.120; -909.784
637.167;  296.690; -836.127; -789.771
637.439;   81.983; -278.128; -213.770
637.712;  -55.097; -312.126; -293.772
637.984; -151.342; -635.116; -707.791
638.257;  784.246;  515.877;  488.222
638.529; 1019.929; -881.125; -924.776
638.802;  488.271; -508.128; -449.769
639.074; -196.930; -927.122; -952.781
639.346; -215.322; -942.135; -930.757
639.619;   65.967;  -79.142; -319.744
639.891;   31.560;  -83.122; -168.779
640.163; -130.837; -689.122; -756.780
640.435;  121.566;  273.878;  103.220
640.708;   52.969;  -72.122; -132.780
640.980;  -15.428; -366.122; -362.781
641.252;  421.675;  -25.121;  -71.781
641.524; 3475.879;  580.879;  573.219
641.796; 3299.282;-1094.121; -907.782
642.068;  610.385; -191.121; -300.782
642.340;  -62.512; -486.121; -566.783
642.613;  110.791;  294.880;  323.217
642.885; -142.306; -787.120; -878.783
643.157;  -43.903; -810.120; -658.784
643.428;  161.100;  170.880;  218.216
643.700;  -94.496; -498.120; -425.784
643.972;  -15.993;  -16.119; -133.785
644.244; -129.790; -474.119; -559.785
644.516;  -42.387; -250.119; -114.786
644.788;  169.616;  662.881;  548.214
645.060;  -12.381;  -12.119; -124.786
645.332; -165.878; -525.118; -535.787
645.603;  154.925;  479.882;  342.213
645.875; -111.871; -334.118; -369.787
646.147;  373.132; 1487.882; 1242.212
646.418;  -84.065; -931.117; -918.788
646.690;  249.638; -714.117; -715.789
646.962;   92.641; -413.117; -451.789
647.233;    3.544;   15.883;   11.211
647.505; -147.453; -595.117; -475.790
647.776;  103.150;  328.884;  229.210
648.048;    3.554; -248.116; -418.790
648.320; -128.543; -752.116; -679.791
648.591; -296.040;-1055.116; -958.791
648.862; -148.637; -505.116; -577.792
649.134;  123.266;  115.885;  198.208
649.405;  -56.031; -661.115; -618.792
649.677; -109.328; -475.115; -598.793
649.948;   23.575; -181.115; -296.793
650.219;    5.578;  -37.115; -147.793
650.491; -127.418; -431.114; -520.794
650.762; -183.115; -705.114; -731.794
651.033; -108.912; -437.114; -424.795
651.304; -145.809; -743.114; -728.795
651.576; -120.206; -680.114; -645.795
651.847;  -42.403; -250.113; -140.796
652.118;    0.100;  -32.113; -189.796
652.389; -172.097; -639.113; -722.796
652.660;  -34.793; -147.113;  -89.797
652.931; -243.390; -897.112; -871.797
653.202; -123.887; -382.112; -541.798
653.473;  -96.184; -633.112; -533.798
653.744;  295.819; -595.112; -590.798
654.015;  271.322; -356.112; -303.799
654.286; -100.975; -642.111; -663.799
654.557;  -97.272; -586.111; -521.799
654.828; -259.668;-1114.111;-1088.800
655.099; -140.465; -404.111; -291.800
655.370; -146.862; -427.111; -543.801
655.641; -198.959; -656.110; -714.801
655.911; -158.156; -618.110; -638.801
656.182;  174.147;  437.890;  387.198
656.453;  239.850;  830.890;  746.198
656.724;  -90.747; -466.110; -426.802
656.994; -133.943; -553.109; -568.803
657.265; -196.440; -862.109; -873.803
657.536; -126.337; -500.109; -377.804
657.806; -141.734; -561.109; -593.804
658.077; -246.931; -866.109; -950.804
658.347; -154.328; -523.108; -598.805
658.618; -191.425; -646.108; -694.805
658.888;  -33.322;  -41.108;  112.195
659.159; -126.618; -432.108; -548.806
659.429;    2.985; -292.108; -349.806
659.700;   41.388; -435.107; -390.807
659.970;   11.391; -370.107; -359.807
660.241;   62.194; -754.107; -921.807
660.511;  954.297; -147.107; -174.808
660.781;  199.000; -793.106; -748.808
661.052;  -39.497; -222.106; -381.808
661.322;   -8.793;   21.894;   -9.809
661.592;   82.910;  257.894;  148.191
661.862;  -96.287; -369.106; -382.810
662.133; -137.984; -551.105; -502.810
662.403; -196.181; -770.105; -676.810
662.673;  -61.578; -256.105; -213.811
662.943; -152.875; -612.105; -551.811
663.213;    4.728;  -85.105;  -81.811
663.483; -100.368; -593.104; -568.812
663.753;  -36.165; -194.104; -152.812
664.023;   47.138;   68.896;  -32.813
664.293;  -83.559; -319.104; -126.813
664.563; -200.056; -694.104; -648.813
664.833; -205.753; -743.103; -608.814
665.103; -221.250; -730.103; -793.814
665.373; -197.947; -766.103; -806.814
665.643; -120.643; -863.103; -918.815
665.913;  118.460; -534.103; -714.815
666.182;  287.663; -685.102; -719.816
666.452;  478.966;  -22.102;  -89.816
666.722;  -32.931; -724.102; -784.816
666.992; -223.028; -948.102; -921.817
667.261; -127.625; -824.102; -808.817
667.531;  462.578;  134.899;   45.183
667.801;  968.082; -440.101; -412.818
668.070;  511.685;  714.899;  697.182
668.340; -128.012; -883.101; -840.819
668.609;  220.791;  588.900;  301.181
668.879; -118.406; -490.100; -558.819
669.149;  -95.603; -539.100; -516.820
669.418; -173.300; -698.100; -726.820
669.688;    2.803; -482.100; -666.820
669.957;  133.307; -423.099; -546.821
670.226;   -1.490; -268.099; -331.821
670.496; -139.587; -431.099; -635.822
670.765;  -73.784; -418.099; -501.822
671.034; -231.581; -872.099; -828.822
671.304;    7.822;   55.902; -111.823
671.573; -273.975;-1085.098; -957.823
671.842;  201.228; -380.098; -294.823
672.112;   58.932; -692.098; -586.824
672.381;   38.335; -239.098; -214.824
672.650; -214.462;-1005.097;-1021.825
672.919; -175.359; -631.097; -507.825
673.188; -148.856; -681.097; -878.825
673.457; -246.153;-1101.097;-1143.826
673.726; -141.750; -579.096; -646.826
673.995;  -23.347; -533.096; -479.826
674.265;   10.757; -263.096; -333.827
674.534;   27.660; -183.096; -235.827
674.802;   71.263; -618.096; -703.828
675.071; 2086.566; -886.095; -801.828
675.340; 7022.669; -464.095; -339.828
675.609; 2555.572;  103.905;   82.171
675.878;  175.275; -949.095; -893.829
676.147;   58.178;  -26.095;   -8.829
676.416;  263.582; -210.094; -294.830
676.685; 1408.685; 1000.906; -622.830
676.953;  231.288; -603.094; -452.831
677.222;   -1.209; -193.094; -273.831
677.491;  -15.606;  -24.094; -127.831
677.759;   12.997;   11.907;  172.168
678.028;   -4.100; -279.093; -222.832
678.297;   45.103;   71.907;  197.168
678.565; -260.893; -898.093; -944.833
678.834; -101.490; -311.093; -268.833
679.102; -128.787; -411.092; -391.834
679.371; -235.484; -898.092; -727.834
679.639; -229.981; -797.092; -786.834
679.908; -200.678; -794.092; -724.835
680.176; -261.275; -895.091; -941.835
680.445;  -89.972; -346.091; -352.835
680.713;   -2.768;  -58.091;  -23.836
680.982; -167.165; -523.091; -525.836
681.250; -167.762; -578.091; -507.837
681.518; -170.659; -534.090; -751.837
681.787;  -12.656; -204.090; -167.837
682.055;  -74.053; -490.090; -422.838
682.323; -269.350; -993.090; -992.838
682.591;   99.053; -216.090; -538.838
682.859;  193.557;    9.911;  -35.839
683.128;   82.660;  232.911;  497.161
683.396; -292.837;-1102.089;-1122.840
683.664;  -39.834; -241.089;   21.160
683.932;   44.369;  144.911;  -76.840
684.200; -117.028; -576.088; -320.841
684.468;    9.775;  -73.088; -124.841
684.736;  -12.922; -214.088; -175.841
685.004; -199.018;-1024.088; -982.842
685.272;  -79.915; -880.088; -774.842
685.540;  -91.012; -499.087; -557.843
685.808;  -95.609; -651.087; -682.843
686.076; -181.906; -894.087; -969.843
686.343;  -92.903; -601.087; -815.844
686.611;  123.000; -195.087; -224.844
686.879; 1038.403; -530.086; -553.844
687.147; 6002.707; -483.086; -480.845
687.414; 1747.810;  -12.086; -169.845
687.682;   71.013; -658.086; -757.846
687.950;  585.216;  259.915;  263.154
688.217;   46.219; -792.085; -760.846
688.485;   61.822; -632.085; -636.847
688.753; 1019.925;  -11.085; -102.847
689.020;  296.528; -820.085; -851.847
689.288; -153.568; -853.084; -787.848
689.555;    8.735; -195.084; -148.848
689.823;  -20.762; -241.084; -345.849
690.090; -154.859; -546.084; -651.849
690.358; -242.656; -877.084; -897.849
690.625;   51.647;  120.917;   45.150
690.892;  -84.650; -403.083; -369.850
691.160;   25.253;   72.917;  -35.850
691.427;   53.257;  141.917;  130.149
691.694; -215.240; -855.083; -929.851
691.962; -237.437;-1177.082;-1060.852
692.229;   75.266;  127.918;   56.148
692.496;  197.369;  130.918;  -49.852
692.763;   95.872; -164.082; -201.853
693.031; -102.825; -739.082; -716.853
693.298;  -48.022; -509.081; -368.853
693.565;  698.382; -155.081; -163.854
693.832; 2273.685;   -5.081;   -9.854
694.099;  308.588; -643.081; -642.855
694.366;  -63.609; -882.081; -896.855
694.633;  -80.306; -920.080; -633.855
694.900; 1652.697; 4367.920; -114.856
695.167;  820.600; -214.080; -380.856
695.434;  236.803; -646.080; -623.856
695.701;  414.107;  121.921;  -61.857
695.968;  944.310; -365.079; -361.857
696.234; 2065.613; -415.079; -646.858
696.501;19442.216; -776.079; -614.858
696.768; 9276.219; -554.079; -617.858
697.035;  641.522; -632.078; -667.859
697.302;  143.025; -448.078; -552.859
697.568;  103.628; -458.078; -497.859
697.835;  -33.068; -683.078; -624.860
698.102;   -9.965; -498.078; -407.860
698.368;  197.038;  384.923;  396.139
698.635;   12.741;  -47.077; -424.861
698.901;    8.944; -240.077; -348.861
699.168;  181.647; -534.077; -456.862
699.435;  204.150;  -72.077;  -13.862
699.701; -185.447; -868.076; -764.862
699.968;  -37.744;  144.924; -441.863
700.234; -156.140; -783.076; -822.863
700.500;  -34.937; -448.076; -539.864
700.767;   80.366;   -1.075;   26.136
701.033; -227.531;-1015.075; -963.864
701.299;  -59.028; -450.075; -483.865
701.566;  327.875;  950.925;  763.135
701.832;  111.578;  -31.075;  -76.865
702.098; -156.919;-1054.074;-1034.866
702.365; -124.615;-1098.074;-1030.866
702.631;  -17.412;-1038.074;-1063.867
702.897; 2663.991; -765.074; -676.867
703.163; 3930.694;  348.926;  254.133
703.429;  317.097; -256.073; -273.868
703.695;  -30.500; -796.073; -792.868
703.961;  101.903; -214.073; -210.868
704.227;  -57.494; -630.073; -725.869
704.493;  313.510;  613.927;  510.131
704.759;    1.813; -565.072; -540.870
705.025;   87.516; -203.072; -194.870
705.291;   12.319; -666.072; -562.870
705.557;  426.322;  719.928;   34.129
705.823;   61.725; -742.072; -694.871
706.089;  315.028; -307.071; -326.871
706.355;  834.431; -315.071; -244.872
706.620;10698.635; -776.071; -729.872
706.886;13823.538; -309.071; -362.873
707.152; 1345.841; -818.070; -973.873
707.418;  -11.156;-1153.070;-1186.873
707.683;   34.647; -550.070; -530.874
707.949;   -7.150; -547.070; -578.874
708.215;   38.653; -129.070; -207.874
708.480;   -7.244; -520.069; -420.875
708.746;  227.660;   68.931;   28.125
709.011;  -65.937; -578.069; -612.876
709.277;  -98.934; -538.069; -543.876
709.542;  -24.131; -428.069; -387.876
709.808;   33.572;  -59.068;   89.123
710.073; -137.825; -577.068; -695.877
710.339;    7.178; -242.068; -228.877
710.604;  167.881; -780.068; -845.878
710.869;  579.185; -277.068; -366.878
711.135;  -95.812; -715.067; -628.879
711.400; -115.109; -507.067; -608.879
711.665;  -71.006; -404.067; -479.879
711.931; -156.103; -661.067; -677.880
712.196; -202.500; -876.067; -954.880
712.461;  246.703; -402.066; -490.880
712.726;  234.106; -727.066; -771.881
712.991; -128.790; -647.066; -664.881
713.256;  -42.987; -350.066; -332.882
713.521;  -74.284; -417.065; -381.882
713.787;  -66.181; -454.065; -472.882
714.052;  -25.378; -214.065; -400.883
714.317; -169.675;-1045.065; -981.883
714.581; 1994.628; -374.065; -268.883
714.846; 2437.831; -822.064; -888.884
715.111;  331.535;  261.936;  257.116
715.376;   19.238;  -86.064; -223.885
715.641;   22.341; -365.064; -367.885
715.906;  557.744;   15.936; -551.885
716.171;  334.547;  221.937;  209.114
716.436;  105.550;  -78.063; -104.886
716.700; -160.947; -818.063; -692.886
716.965; -198.544; -794.063; -807.887
717.230;  -93.540; -339.063; -392.887
717.494;    1.263;  -40.062; -134.888
717.759; -139.634; -784.062; -640.888
718.024;  106.069;  269.938;  250.112
718.288;  195.572;  685.938;  395.111
718.553; -245.925; -803.062; -977.889
718.817; -228.622; -883.061; -899.889
719.082;    9.381; -115.061; -125.890
719.346; -236.915;-1000.061; -947.890
719.611;  -51.312; -300.061; -255.891
719.875; -139.509; -568.060; -537.891
720.140;  -94.306; -453.060; -603.891
720.404;  165.697; -136.060; -249.892
720.668; 1584.900; -475.060; -411.892
720.933;  611.303;  146.940;  137.108
721.197; -132.894; -667.059; -600.893
721.461; -201.990; -851.059; -826.893
721.725;   12.913;  -21.059; -250.894
721.990;  -31.784; -284.059; -204.894
722.254;   14.919;  -26.059; -108.894
722.518;  -43.578; -286.058; -442.895
722.782; -121.175; -743.058; -594.895
723.046;  296.428;  614.942;  570.105
723.310;  144.931;  374.942;  210.104
723.574; -153.165; -654.058; -614.896
723.838; -141.262; -576.057; -642.897
724.102;  -55.159; -226.057; -239.897
724.366; -209.156;-1032.057; -978.897
724.630; -172.353; -749.057; -571.898
724.894;  -73.450; -722.057; -514.898
725.158;   21.153;   38.944; -295.898
725.422;  -69.144; -394.056; -327.899
725.685;  -74.340; -441.056; -349.899
725.949; -114.437; -566.056; -519.900
726.213;  -98.034; -732.056; -811.900
726.477;  329.569;-1020.055; -933.900
726.740;  334.372; -274.055; -104.901
727.004;  728.975; -384.055; -510.901
727.268; 6103.478; -442.055; -400.901
727.531; 1553.581; -961.055; -775.902
727.795;  -30.915; -713.054; -673.902
728.059;  -91.912; -552.054; -557.903
728.322;  -88.909; -841.054; -669.903
728.586;   99.394; -692.054; -701.903
728.849; -108.703; -695.053; -756.904
729.112; -182.300; -812.053; -912.904
729.376; -179.397; -959.053; -905.904
729.639; -102.294; -536.053; -536.905
729.903; -158.690; -733.053; -699.905
730.166;  -24.187; -437.052; -399.906
730.429;   22.516; -317.052; -468.906
730.693;  -80.681; -355.052; -894.906
730.956;  510.722;  810.948;  651.093
731.219; 1288.225; -310.052; -103.907
731.482;  265.728;-1003.051; -894.907
731.745;  206.231; -794.051; -935.908
732.009;   90.935;  -30.051;   50.092
732.272; -126.262; -904.051; -771.909
732.535;  -24.159; -300.051; -310.909
732.798; -253.156;-1083.050;-1166.909
733.061;  -86.453; -430.050; -456.910
733.324;   71.450;   31.950; -180.910
733.587;  188.953;  290.950;  365.090
733.850;  -67.144; -973.049;-1050.911
734.113;  132.760;   33.951;   32.089
734.376;   39.163; -328.049; -447.912
734.639;  471.266; 1188.951; 1011.088
734.901;  219.469; -180.049; -402.912
735.164; 1075.072; -883.048; -837.913
735.427; 2321.475; -166.048; -355.913
735.690;  306.678; -205.048; -234.913
735.952;  -41.319; -923.048; -925.914
736.215;  -27.315;-1113.048;-1009.914
736.478;  125.088; -771.047; -774.915
736.740;  476.991;   33.953;  129.085
737.003; 1547.194; -658.047; -672.915
737.266; 7225.097;  -94.047;   46.084
737.528;  830.000; -682.047; -660.916
737.791;  655.003; -316.046; -327.916
738.053; 1680.106;  465.954;  649.083
738.316;20800.310; -162.046; -136.917
738.578;12893.813; -770.046; -736.918
738.841;  893.116; -382.046; -446.918
739.103;  393.519; -875.045; -777.918
739.365;  916.622;   79.955;  -69.919
739.628;   82.825; -884.045; -805.919
739.890;   13.428; -758.045; -710.919
740.152;  -38.269; -692.044; -754.920
740.414;   34.735; -408.044; -359.920
740.677;  -27.362; -785.044; -634.921
740.939;  -24.159; -587.044; -487.921
741.201;  542.744; -432.044; -572.921
741.463;  100.347; -689.043; -745.922
741.725;  115.350;  -21.043; -199.922
741.987;  190.153;  220.957;  116.078
742.249;   76.356; -751.043; -859.923
742.511;  437.260; -703.043; -794.923
742.773;   83.863; -546.042; -546.924
743.035;  313.566;  796.958;  533.076
743.297;  -18.631; -963.042;-1013.924
743.559; 1429.972; -278.042; -262.925
743.821;  102.775; -735.042; -744.925
744.083;  115.478;  -44.041; -149.925
744.345; -115.819; -869.041; -892.926
744.607;  145.185;   75.959;  122.074
744.868;  -67.812; -490.041; -554.927
745.130; -139.009; -994.041;-1008.927
745.392;  124.494;   -1.040;  -44.927
745.653;   42.097; -411.040; -378.928
745.915;  370.100;  896.960;  631.072
746.177;  195.103;   35.960;  -43.928
746.438;   37.806; -428.040; -543.929
746.700;  -54.290; -947.039; -988.929
746.961;   77.213; -659.039; -740.930
747.223;  295.916; -190.039;  -74.930
747.484;  211.519; -391.039; -471.930
747.746;  369.622;  -23.038; -106.931
748.007;  279.225; -647.038; -689.931
748.269;  616.328; -468.038; -440.931
748.530;  874.531; -852.038; -638.932
748.791;  586.434; -354.038; -420.932
749.053;  890.338;  286.963;  163.067
749.314;  929.341; -236.037; -169.933
749.575;  980.244; -945.037; -905.933
749.836; 1655.947; -217.037;   86.066
750.098; 5402.050;  -60.037;  -21.934
750.359;64276.953;  414.964;  555.066
750.620;15402.956; -121.036; -220.935
750.881; 2008.859; -585.036; -513.935
751.142; 2777.963; -950.036; -938.936
751.403;31878.366; -789.036; -705.936
751.664;12350.569;-1034.035; -999.936
751.925;  979.472; -175.035; -262.937
752.186;  590.975; -298.035; -278.937
752.447;  313.678; -590.035; -445.937
752.708;  155.581; -532.035; -648.938
752.969;  124.584; -566.034; -576.938
753.230;   36.888; -777.034; -672.939
753.491;   71.291; -650.034; -631.939
753.751;  230.594;  109.966;   19.061
754.012;  263.497;  258.967;  181.060
754.273;  198.000; -174.033;  -71.940
754.534;   85.103; -487.033; -580.940
754.794;  -99.694; -926.033; -911.941
755.055;  359.509; 1051.967;  881.059
755.316;  -30.287; -700.032; -566.942
755.576;   47.516; -606.032; -576.942
755.837;  -50.781; -527.032; -695.942
756.097;   -4.678; -530.032; -564.943
756.358;  -88.075; -725.032; -770.943
756.618;  -39.472; -705.031; -641.943
756.879;   74.231; -254.031; -349.944
757.139; -178.066;-1098.031;-1116.944
757.400;  -44.762; -538.031; -553.945
757.660;   36.241; -365.031; -401.945
757.920;   90.944; -266.030; -228.945
758.181;   56.047; -468.030; -351.946
758.441; -125.550; -870.030; -809.946
758.701;  -10.247; -308.030; -215.946
758.961;   28.956; -220.030; -278.947
759.222;  -66.541; -574.029; -502.947
759.482;  -97.637; -683.029; -723.948
759.742; -133.634; -706.029; -547.948
760.002;   81.469;  -83.029; -143.948
760.262;  107.872;   50.972;  182.051
760.522;  -53.025; -498.028; -574.949
760.782;  -16.922; -738.028; -612.949
761.042;   -3.619; -618.028; -573.950
761.302;  160.384;   55.972;  -18.950
761.562;  149.488; -164.027; -154.951
761.822;  231.991; -710.027; -551.951
762.082;  -45.406;-1104.027;-1093.951
762.342;  197.697; -328.027; -403.952
762.601;  178.300; -567.027; -506.952
762.861;  715.403; -281.026; -207.952
763.121;  859.106; -406.026; -411.953
763.381;15046.809; -499.026; -485.953
763.640;14079.213; -139.026; -307.954
763.900;  745.216; -242.026; -203.954
764.160;  199.619; -458.025; -491.954
764.419;   22.822; -726.025; -782.955
764.679;  -83.075; -795.025; -726.955
764.939;   28.428; -124.025; -210.955
765.198;  -84.769; -608.025; -563.956
765.458;  -66.566; -710.024; -612.956
765.717; -100.162; -454.024; -590.957
765.976;  -35.659; -428.024; -411.957
766.236; -122.156; -475.024; -610.957
766.495;  110.447;  260.977;   73.042
766.755; -145.650;-1090.023; -987.958
767.014;   52.253; -594.023; -665.958
767.273;  -36.744; -373.023; -397.959
767.533;  -34.741; -228.023; -307.959
767.792;   14.263; -151.022; -188.960
768.051;  -31.534; -228.022; -276.960
768.310;  -95.231; -546.022; -650.960
768.569;   67.672; -161.022;    4.039
768.828;   33.275; -285.022; -363.961
769.088; -171.022;-1050.021; -942.961
769.347;  -72.519; -755.021; -599.962
769.606; -144.216; -876.021; -857.962
769.865; -198.712;-1016.021;-1033.963
770.124;   46.491; -411.021; -336.963
770.383;  -35.406; -778.020; -910.963
770.641;   36.697; -398.020; -400.964
770.900;  -92.100; -953.020; -846.964
771.159;  -55.597; -851.020; -951.964
771.418;   39.906; -917.020; -779.965
771.677;  304.009; -224.019; -293.965
771.936;  318.513; -794.019; -865.966
772.194; 4846.716; -465.019; -437.966
772.453;19303.719; -213.019; -391.966
772.712; 1456.522;  416.982;  329.033
772.970;  278.925;   32.982;   63.033
773.229;  252.228;  -22.018;  102.033
773.488; -117.869; -814.018; -770.968
773.746;  207.934;  296.982;  335.032
774.005;   75.238;  190.983;  -22.969
774.263;   60.141;  243.983;  177.031
774.522; -120.056; -422.017; -548.969
774.780;  -93.453; -484.017; -417.970
775.039; -103.650; -551.017; -531.970
775.297;    8.053; -135.016; -351.970
775.555; -170.744; -489.016; -612.971
775.814; -192.041; -618.016; -570.971
776.072; -189.837; -749.016; -740.971
776.330; -124.834; -630.016; -520.972
776.589; -177.031; -703.015; -721.972
776.847; -193.628; -645.015; -624.973
777.105; -270.225;-1016.015;-1032.973
777.363; -105.122; -459.015; -454.973
777.621; -219.119; -660.015; -717.974
777.879;   16.584;  -42.014;   32.026
778.138; -123.312; -554.014; -717.974
778.396; -187.009; -585.014; -526.975
778.654; -291.806;-1015.014; -970.975
778.912;  -86.303; -269.014; -371.976
779.170; -199.800; -880.013; -803.976
779.427; -241.997; -922.013; -897.976
779.685; -207.594; -880.013; -832.977
779.943; -118.991; -654.013; -593.977
780.201; -275.587; -964.012; -883.978
780.459; -178.884; -651.012; -610.978
780.717; -137.381; -440.012; -390.978
780.974; -155.478; -449.012; -490.979
781.232;  -79.075; -358.012; -338.979
781.490;  -96.772; -551.011; -472.979
781.747; -131.269; -555.011; -476.980
782.005;  131.734;  462.989;  254.020
782.263; -279.762; -542.011;-1004.981
782.520;  -82.759; -326.011; -501.981
782.778; -269.556;-1013.010;-1051.981
783.035; -266.853; -962.010; -938.982
783.293;  -64.450; -248.010; -206.982
783.550;  -51.947; -134.010; -198.982
783.808; -180.344; -764.010; -776.983
784.065; -267.841; -745.009; -874.983
784.322;    1.463;   25.991;  -86.984
784.580; -235.534; -915.009; -771.984
784.837; -122.731; -392.009; -466.984
785.094; -211.928; -783.009; -762.985
785.352;  -93.225; -304.008; -404.985
785.609; -160.322; -934.008; -839.985
785.866; -110.519; -345.008; -401.986
786.123; -105.416; -639.008; -583.986
786.380; -135.912; -665.008; -604.987
786.637;   -9.809; -225.007; -380.987
786.895;   14.094; -456.007; -543.987
787.152;  -32.303; -135.007; -267.988
787.409;  -17.100; -123.007; -225.988
787.666; -110.897; -299.006; -378.988
787.923; -144.294; -616.006; -695.989
788.179; -127.191; -551.006; -584.989
788.436; -147.187; -585.006; -585.990
788.693;  -18.584;  -92.006;  -87.990
788.950;  375.419; -125.005; -112.990
789.207;  417.322; -381.005; -372.991
789.464;  -75.775; -161.005; -301.991
789.720;   55.728;  150.995;  110.009
789.977; -266.469;-1003.005; -671.992
790.234;   14.334;   44.996;  -66.992
790.490; -250.962; -884.004;-1031.993
790.747;    3.341;  -85.004;   22.007
791.004;   12.444; -426.004; -348.993
791.260; -100.453; -430.004; -560.994
791.517; -150.050; -843.003; -788.994
791.773;  -44.247; -379.003; -342.994
792.030; -144.644; -596.003; -660.995
792.286; -149.341; -686.003; -636.995
792.543;   42.263;  -74.002; -159.995
792.799;  -46.834; -584.002; -382.996
793.055; -213.531;-1179.002;-1210.996
793.312;  -98.028; -827.002; -816.997
793.568;  -77.825; -746.002; -599.997
793.824;   80.278; -226.001; -284.997
794.081;   78.881; -447.001; -508.998
794.337;  169.484; -664.001; -561.998
794.593; 3159.588; -319.001; -271.999
794.849;12107.491; -746.001; -772.999
795.105;  634.594; -270.000; -261.999
795.361;   50.297; -490.000; -457.000
795.617;  -38.200; -875.000; -945.000
795.873;  -23.900; -360.000; -407.000
796.129;   -3.300; -368.000; -306.000
796.385;   29.400; -124.000; -156.000
796.641;  196.700;  412.000;  550.000
796.897; -104.700; -666.000; -635.000
797.153;  206.800;  453.000;  357.000
797.409; -146.300; -785.000; -868.000
797.665;  -90.800; -625.000; -732.000
797.921;  -76.700; -775.000; -762.000
798.176;  -30.300; -744.000; -747.000
798.432;  -59.000; -824.000; -596.000
798.688;  -90.600;-1174.000;-1078.000
798.943;  204.900; -165.000; -147.000
799.199;   32.600;-1005.000; -959.000
799.455;  520.400;  369.000;  316.000
799.710;  275.300; -813.000; -380.000
799.966;  580.300; -162.000; -160.000
800.221;  978.900; -638.000; -721.000
800.477;21058.200; -743.000; -710.000
800.732;15090.100; -773.000; -800.000
800.988; 1201.100;  205.000;  -19.000
801.243; 4099.500; -454.000; -344.000
801.498;13772.300; -814.000; -739.000
801.754;  804.000; -289.000; -163.000
802.009;  212.200; -257.000; -335.000
802.264;  -40.800; -967.000;-1033.000
802.520;   97.400;  222.000;   -3.000
802.775;  -22.800; -524.000; -359.000
803.030;  202.000;  395.000;  356.000
803.285; -168.100; -840.000; -903.000
803.540;  -71.900; -686.000; -699.000
803.795;  -35.400; -648.000; -583.000
804.051;  -12.800; -279.000; -346.000
804.306;  130.900;  168.000;  128.000
804.561;  369.400;  451.000;  362.000
804.816;  341.800;  714.000;  861.000
805.071;  118.000; -185.000; -280.000
805.325;  437.600; -257.000; -427.000
805.580; -132.100; -841.000; -877.000
805.835;   31.100; -204.000; -297.000
806.090;  -77.500; -760.000; -676.000
806.345;   -6.600; -344.000; -264.000
806.600;   -0.600; -549.000; -632.000
806.854;   -1.100; -408.000; -538.000
807.109;   43.600; -493.000; -577.000
807.364;   60.900; -407.000; -328.000
807.618;   54.700; -415.000; -381.000
807.873;  137.500; -470.000; -494.000
808.128;  261.400; -257.000; -518.000
808.382;  259.600; -224.000; -332.000
808.637;  218.400; -440.000; -511.000
808.891;  410.500; -257.000; -180.000
809.146;  245.300; -902.000; -794.000
809.400;  564.600; -848.000; -923.000
809.654;  633.700; -779.000; -551.000
809.909;  999.400; -841.000; -927.000
810.163;14617.800; -813.000; -651.000
810.418;29827.600; -940.000; -861.000
810.672; 1941.300; -685.000; -690.000
810.926; 1425.800; -993.000; -973.000
811.180; 2911.700; -439.000; -372.000
811.434;60131.100;  240.000;  135.000
811.689;19592.500; -231.000; -365.000
811.943; 1114.700; -936.000; -953.000
812.197;  645.300; -893.000; -671.000
812.451;  281.000; -379.000; -514.000
812.705;   28.600; -809.000; -619.000
812.959;  -51.900; -263.000; -388.000
813.213;   81.600; -283.000; -209.000
813.467;  187.500;  470.000;  253.000
813.721; -127.500; -764.000; -792.000
813.975; -174.700; -826.000; -877.000
814.229;  179.500;  430.000;  353.000
814.482;  -61.100; -517.000; -566.000
814.736; -177.700; -766.000; -744.000
814.990; -194.800; -779.000; -872.000
815.244;   -6.000; -228.000; -285.000
815.497;  -96.500; -636.000; -601.000
815.751;   71.000; -141.000;   82.000
816.005; -118.900; -470.000; -586.000
816.258;  -84.500; -510.000; -363.000
816.512; -134.600; -693.000; -610.000
816.766;  103.700;  121.000;  157.000
817.019;  122.600;  148.000;  149.000
817.273; -175.900;-1000.000; -802.000
817.526;   36.000; -206.000; -173.000
817.779;    6.400;-1049.000; -960.000
818.033; -130.100; -693.000; -807.000
818.286; -169.100; -725.000; -792.000
818.540; -109.800; -403.000; -403.000
818.793;  -66.600; -402.000; -489.000
819.046; -130.100; -582.000; -520.000
819.299;   -6.600; -157.000; -166.000
819.553; -134.100; -552.000; -592.000
819.806; -267.800;-1016.000; -838.000
820.059;  -71.600; -334.000; -354.000
820.312;  108.000;  152.000;  185.000
820.565;   36.500;  110.000;  -27.000
820.818;  -25.300;  -59.000; -173.000
821.071; -236.600;-1041.000; -957.000
821.324; -115.600; -536.000; -540.000
821.577; -140.100; -457.000; -483.000
821.830;  -64.800; -270.000; -172.000
822.083; -196.800; -733.000; -288.000
822.336;  -28.600; -261.000; -167.000
822.589; -215.500; -805.000; -688.000
822.842; -238.900; -875.000; -770.000
823.094; -305.900;-1076.000;-1114.000
823.347; -211.000; -925.000; -729.000
823.600;  114.400;  402.000;  187.000
823.853;  -26.900; -311.000; -267.000
824.105;  -96.200; -331.000; -575.000
824.358; -145.900; -617.000; -716.000
824.611;  110.800;  234.000;   40.000
824.863;  -31.800; -612.000; -591.000
825.116;  116.500;  -33.000;   27.000
825.368;  217.300; -366.000; -372.000
825.621;  345.400; -186.000; -240.000
825.873;  197.900; -704.000; -737.000
826.126; 1301.900; -669.000; -641.000
826.378;22424.300; -389.000; -505.000
826.630; 4180.800; -890.000; -898.000
826.883;  111.300; -754.000; -693.000
827.135;  161.400; -279.000; -270.000
827.387; -165.200; -893.000; -839.000
827.639;   -5.400;  -86.000;   32.000
827.892; -178.500; -742.000; -582.000
828.144; -237.100; -848.000; -804.000
828.396;  -10.500;  104.000;  -80.000
828.648; -136.500; -440.000; -333.000
828.900; -248.100; -702.000; -795.000
829.152; -170.500; -684.000; -683.000
829.404;  -36.400; -215.000; -267.000
829.656;   74.000;  321.000;  214.000
829.908;   24.300;  393.000;  229.000
830.160; -287.100;-1064.000;-1047.000
830.412; -130.600; -481.000; -430.000
830.664; -150.800; -557.000; -665.000
830.916;  -83.300; -268.000; -206.000
831.167; -282.600;-1073.000; -951.000
831.419; -175.000; -623.000; -566.000
831.671; -222.000; -764.000; -809.000
831.923;  -80.700; -311.000; -447.000
832.174; -101.100; -273.000; -331.000
832.426; -172.800; -493.000; -582.000
832.678; -297.700;-1043.000;-1091.000
832.929; -260.000; -947.000; -935.000
833.181;  -36.300; -575.000; -677.000
833.432;  -53.900;  -59.000; -186.000
833.684;   18.300;  112.000;  -27.000
833.935; -159.700; -610.000; -566.000
834.187; -194.000; -829.000; -823.000
834.438;  -15.000;  -58.000;  -25.000
834.689;  -28.800; -255.000; -123.000
834.941;  -35.100; -343.000; -244.000
835.192; -151.500; -590.000; -533.000
835.443;  -93.800; -419.000; -506.000
835.695;   52.100;  138.000;  -16.000
835.946; -111.400; -608.000; -378.000
836.197; -161.700; -599.000; -622.000
836.448; -123.000; -528.000; -395.000
836.699;  -32.600; -253.000; -341.000
836.950;   70.000;   72.000;    7.000
837.201; -237.500;-1003.000; -987.000
837.452;  -29.900; -356.000; -170.000
837.703; -167.700; -791.000; -737.000
837.954;   -5.800; -205.000; -365.000
838.205; -112.000;-1029.000;-1008.000
838.456;  359.100; -196.000; -282.000
838.707;   57.100; -423.000; -519.000
838.958;   65.600; -634.000; -647.000
839.209;  614.900;   18.000;   40.000
839.460;  269.800; -439.000; -201.000
839.710;  340.500; -135.000; -297.000
839.961;  892.700;  730.000;  612.000
840.212;  694.100; -382.000; -497.000
840.462; 2384.900; -328.000; -277.000
840.713;35050.500; -571.000; -536.000
840.964;11058.600;  -62.000; -143.000
841.214;  974.000; -384.000; -624.000
841.465; 1097.500; -214.000; -141.000
841.715;  976.500; -417.000; -380.000
841.966; 1313.500; -746.000; -685.000
842.216;20483.000; -330.000; -431.000
842.466;59324.300; -169.000; -313.000
842.717; 2449.900; -964.000; -952.000
842.967;  655.700; -635.000; -641.000
843.217;  594.100;   20.000;   28.000
843.468;  219.500; -104.000; -132.000
843.718;    3.500; -718.000; -726.000
843.968; -107.000; -837.000; -765.000
844.218;  113.900; -315.000; -262.000
844.469;  -67.600; -577.000; -561.000
844.719; -167.400; -537.000; -682.000
844.969; -120.100; -550.000; -580.000
845.219; -221.700; -814.000; -862.000
845.469;  -80.800; -392.000; -342.000
845.719; -233.700; -792.000; -884.000
845.969;   47.600;  119.000;  174.000
846.219; -169.800; -738.000; -720.000
846.469;  128.700;  464.000;  432.000
846.718;   -3.500; -115.000;   31.000
846.968; -189.800; -827.000; -827.000
847.218;  -11.100; -224.000; -371.000
847.468; -161.700; -586.000; -555.000
847.718; -238.300; -827.000; -798.000
847.967; -205.800; -826.000; -915.000
848.217; -110.400; -449.000; -569.000
848.467;  -74.300; -405.000; -376.000
848.716; -142.000; -708.000; -725.000
848.966;   67.800; -372.000; -358.000
849.215;  -63.200; -428.000; -419.000
849.465; -122.500; -785.000; -615.000
849.714; -217.000;-1132.000;-1150.000
849.964;  -53.700; -551.000; -613.000
850.213;   29.400; -393.000; -355.000
850.463;  242.600;  137.000;  340.000
850.712;   39.100; -542.000; -567.000
850.961;   89.600; -739.000; -678.000
851.211;  217.200; -513.000; -504.000
851.460;  333.500; -635.000; -650.000
851.709; 1145.200;  -25.000;   18.000
851.958;21770.000; -912.000; -750.000
852.208;20813.700; -859.000; -879.000
852.457;  787.000; -181.000;  -13.000
852.706;  174.600; -791.000; -823.000
852.955;   89.600; -507.000; -528.000
853.204;  -72.500; -521.000; -461.000
853.453; -101.100; -418.000; -458.000
853.702; -193.700; -660.000; -750.000
853.951; -142.400; -532.000; -520.000
854.200; -149.200; -613.000; -562.000
854.449; -208.800; -695.000; -661.000
854.698; -111.100; -340.000; -279.000
854.946;  -80.500; -181.000; -284.000
855.195; -212.400; -843.000; -868.000
855.444; -118.300; -395.000; -420.000
855.693; -174.300; -345.000; -432.000
855.941; -121.800; -387.000; -516.000
856.190;  -34.000; -256.000; -382.000
856.439; -197.000; -652.000; -703.000
856.687;  -27.000;  -99.000;  -72.000
856.936; -179.600; -621.000; -323.000
857.184; -291.200;-1067.000;-1020.000
857.433; -140.800; -423.000; -512.000
857.681; -263.400; -989.000; -953.000
857.930;  -77.000; -282.000; -433.000
858.178; -270.000; -856.000; -929.000
858.427; -245.100; -802.000; -781.000
858.675; -162.300; -377.000; -544.000
858.923; -151.900; -527.000; -819.000
859.172; -285.700;-1094.000;-1070.000
859.420; -131.500; -339.000; -239.000
859.668; -197.500; -624.000; -628.000
859.916;   11.900;  109.000;  115.000
860.164; -143.300; -699.000; -603.000
860.413;  696.700; -878.000; -696.000
860.661;  354.800; -709.000; -577.000
860.909; -107.400; -339.000; -325.000
861.157; -107.400; -277.000; -444.000
861.405; -163.400; -534.000; -670.000
861.653;  131.500;  310.000;  310.000
861.901;  472.300; -543.000; -613.000
862.149;  -26.800; -801.000; -824.000
862.396;  -86.400; -297.000; -187.000
862.644; -112.600; -368.000; -347.000
862.892;   -4.000;   98.000;  138.000
863.140; -161.200; -549.000; -530.000
863.388; -233.800; -815.000; -759.000
863.635; -182.400; -642.000; -601.000
863.883;   28.300;  231.000;  190.000
864.131; -150.500; -288.000; -357.000
864.378; -211.700; -675.000; -540.000
864.626; -117.200; -347.000; -415.000
864.873; -163.600; -556.000; -505.000
865.121; -226.800; -714.000; -799.000
865.368;    7.600; -173.000;   75.000
865.616;  -33.800;  -33.000;  -40.000
865.863;  -81.000; -462.000; -506.000
866.111; -164.100; -795.000; -824.000
866.358;  131.100; -426.000; -420.000
866.605; 4818.100;  -64.000; -804.000
866.853; 3788.400; -621.000; -537.000
867.100;  -65.500; -728.000; -775.000
867.347; -140.300; -672.000; -611.000
867.594;  -85.000; -740.000; -714.000
867.841;  229.700;   97.000;   17.000
868.089; -231.900; -746.000; -698.000
868.336; -142.400; -477.000; -420.000
868.583; -192.200; -637.000; -741.000
868.830;  -23.200; -131.000; -170.000
869.077; -260.400; -859.000; -787.000
869.324; -164.900; -502.000; -458.000
869.571; -194.900; -398.000; -430.000
869.818; -162.100; -485.000; -439.000
870.065; -122.500; -439.000; -513.000
870.311; -163.300; -456.000; -542.000
870.558; -132.700; -332.000; -311.000
870.805;  -75.200; -320.000; -384.000
871.052; -132.600; -494.000; -369.000
871.298;  -19.600; -204.000; -131.000
871.545;  -62.900; -151.000; -185.000
871.792; -119.100; -173.000; -222.000
872.038;  -49.900;   43.000; -126.000
872.285; -200.500; -496.000; -387.000
872.532; -131.000; -357.000; -387.000
872.778;   82.200;  556.000;  403.000
873.025; -140.600; -384.000; -359.000
873.271;  131.000;  501.000;  578.000
873.517;   35.400; -133.000; -209.000
873.764;   -3.200; -193.000;  -80.000
874.010;  -79.300; -143.000; -230.000
874.257;   -1.100;  123.000;   90.000
874.503; -193.200; -579.000; -479.000
874.749;  -56.300;   31.000;  275.000
874.995;  -89.900;  -80.000;  -20.000
875.242; -154.900; -540.000; -478.000
875.488; -145.400; -414.000; -439.000
875.734;  -36.800; -106.000; -234.000
875.980;  523.600; -872.000;-1032.000
876.226;  666.700; -157.000; -255.000
876.472;   78.100;  343.000;  237.000
876.718;  -28.100;  184.000;  158.000
876.964;   32.500;   56.000;   55.000
877.210; -222.100; -547.000; -677.000
877.456; -219.700; -630.000; -557.000
877.702; -266.800; -821.000; -832.000
877.948; -154.300; -377.000; -497.000
878.193;  134.500;  361.000;  255.000
878.439; -103.700; -487.000; -472.000
878.685;  -84.400; -272.000; -343.000
878.931; -183.000; -618.000; -676.000
879.176;  -71.400; -201.000; -201.000
879.422; -288.500; -933.000; -820.000
879.668;  244.100;   10.000;   79.000
879.913;  346.000;   53.000;  137.000
880.159;  -48.200; -112.000;  -17.000
880.404;  -33.200; -152.000; -162.000
880.650;   14.100;   91.000;  141.000
880.895; -244.900; -670.000; -710.000
881.141; -198.100; -454.000; -428.000
881.386; -233.300; -503.000; -658.000
881.631; -156.900; -311.000; -166.000
881.877;  -10.300;  112.000;  -13.000
882.122; -202.100; -684.000; -600.000
882.367;  -89.000; -136.000; -186.000
882.612;  -50.800;  -80.000; -176.000
882.858; -266.000; -877.000; -823.000
883.103; -123.700; -297.000; -267.000
883.348; -279.400; -759.000; -852.000
883.593; -248.400; -677.000; -602.000
883.838;  -35.100; -311.000;  -24.000
884.083;  137.100;  353.000;  288.000
884.328; -122.700; -564.000; -545.000
884.573;  -32.900; -196.000; -143.000
884.818;  559.500; -694.000; -531.000
885.063;  343.300; -348.000; -315.000
885.308; -150.800; -475.000; -398.000
885.553;   54.300;  245.000;  325.000
885.797; -197.300; -545.000; -615.000
886.042;  -21.500;    8.000;   58.000
886.287;  -89.100; -253.000; -211.000
886.532;  -23.300;   26.000;  204.000
886.776; -146.000; -407.000; -525.000
887.021; -194.000; -621.000; -574.000
887.265; -239.600; -685.000; -689.000
887.510; -188.600; -557.000; -496.000
887.755; -116.100; -194.000; -164.000
887.999; -218.500; -552.000; -575.000
888.244;  -70.700;  -58.000;  161.000
888.488;   51.700;  371.000;  393.000
888.732; -169.600; -368.000; -520.000
888.977; -200.000; -622.000; -567.000
889.221; -249.400; -683.000; -659.000
889.465; -166.700; -422.000; -566.000
889.710;  -68.300;  -56.000; -299.000
889.954;   70.200;  579.000;  467.000
890.198; -241.400; -584.000; -707.000
890.442; -257.600; -716.000; -712.000
890.687; -262.500; -800.000; -753.000
890.931;  -94.000; -273.000; -210.000
891.175; -201.800; -502.000; -500.000
891.419;  -58.300; -105.000; -110.000
891.663;  -75.200; -239.000; -112.000
891.907; -243.000; -801.000; -545.000
892.151; -281.100; -920.000; -815.000
892.395; -142.900; -274.000; -387.000
892.638;   58.500;  408.000;  291.000
892.882; -297.600; -780.000; -867.000
893.126;  121.900;  758.000;  558.000
893.370; -109.300; -167.000; -168.000
893.614; -253.900; -714.000; -715.000
893.857; -109.600; -183.000; -197.000
894.101; -222.100; -527.000; -631.000
894.345;  -30.300;  300.000;  150.000
894.588;  109.500;  569.000;  380.000
894.832;  -65.900; -178.000;  -84.000
895.075; -107.300;   15.000;  -92.000
895.319; -215.600; -552.000; -420.000
895.563; -180.500; -413.000; -353.000
895.806; -216.500; -628.000; -741.000
896.049;  -48.900; -576.000; -368.000
896.293;  298.600;  527.000;  405.000
896.536; -104.600; -465.000; -468.000
896.779;  -49.400; -149.000;   -1.000
897.023; -209.800; -751.000; -714.000
897.266;   22.600;  325.000;  269.000
897.509; -296.800; -900.000; -901.000
897.752;  -17.300;  149.000;  171.000
897.996; -285.500; -972.000; -864.000
898.239;  -15.900;  168.000;  102.000
898.482; -196.400; -431.000; -453.000
898.725;   14.200;  101.000;   53.000
898.968; -260.100; -609.000; -744.000
899.211; -161.900; -513.000; -361.000
899.454; -174.800; -633.000; -539.000
899.697;  -55.600;   90.000;  -43.000
899.940; -276.300; -761.000; -757.000
900.182; -126.400; -335.000; -405.000
900.425;  -99.800; -150.000; -298.000
900.668;   35.900;  491.000;  350.000
900.911; -132.600; -292.000; -345.000
901.154;  -21.400;  141.000;   -3.000
901.396; -203.500; -407.000; -412.000
901.639; -204.300; -430.000; -496.000
901.882; -320.500; -790.000; -809.000
902.124;  -91.500;  -29.000; -143.000
902.367; -148.200; -315.000; -361.000
902.609; -188.000; -476.000; -453.000
902.852;  -84.200; -108.000; -260.000
903.094; -174.500; -458.000; -337.000
903.337;  -48.500;  -26.000;   53.000
903.579; -158.700; -228.000; -441.000
903.821; -245.700; -597.000; -744.000
904.064;  -37.900;   85.000;  127.000
904.306; -108.600; -126.000; -166.000
904.548; -129.100; -152.000; -366.000
904.790; -148.800; -195.000; -340.000
905.033; -206.700; -625.000; -577.000
905.275; -190.800; -513.000; -524.000
905.517;  191.800;  468.000;  256.000
905.759;  -72.600; -667.000; -761.000
906.001; -133.400; -322.000; -369.000
906.243;   -9.000; -162.000; -224.000
906.485;  379.400; -265.000; -207.000
906.727;  257.600; -499.000; -542.000
906.969;   -8.300;  -30.000; -135.000
907.211;  386.300; -316.000; -382.000
907.453;  619.400; -188.000; -237.000
907.695;   52.500; -158.000; -385.000
907.936;  174.900;  818.000;  706.000
908.178;  -57.700;   92.000; -135.000
908.420;  -82.700; -111.000; -162.000
908.662; -187.500; -633.000; -682.000
908.903;  -97.900; -208.000; -123.000
909.145;  -67.200; -240.000; -305.000
909.386;   90.600;  315.000;  280.000
909.628;  150.100;  363.000;  397.000
909.870;  105.200;   29.000;  264.000
910.111; -123.500; -809.000; -949.000
910.353;  114.900; -123.000; -161.000
910.594;   25.100; -574.000; -606.000
910.835;  214.200; -265.000; -326.000
911.077;  374.100; -503.000; -604.000
911.318;  602.400; -505.000; -471.000
911.559;  962.200; -577.000; -880.000
911.801; 2945.200; -284.000; -280.000
912.042;24835.000;  -50.000; -159.000
912.283;52241.500;  404.000;  371.000
912.524; 6468.300; -396.000; -457.000
912.765; 1025.200; -193.000;   79.000
913.006;  581.200; -307.000; -338.000
913.247;  153.200; -270.000; -290.000
913.488;   78.500;  -43.000;   30.000
913.729;  -70.600; -373.000; -373.000
913.970;  -43.400;  -96.000; -292.000
914.211;  -67.200; -160.000; -198.000
914.452;  -43.500; -118.000;  -11.000
914.693;  113.300;  510.000;  592.000
914.934;  100.000;  510.000;  440.000
915.175;  -25.400;   53.000;  -95.000
915.415;  -69.500; -137.000;   27.000
915.656;  -50.200;  -28.000;  192.000
915.897;  -98.900; -252.000;  -82.000
916.137;  -63.500;   74.000;   -9.000
916.378; -166.800; -573.000; -517.000
916.619;  -94.300; -159.000;  -63.000
916.859;   31.200;  303.000;  330.000
917.100;  381.700; 1655.000; 1070.000
917.340;  167.600;  930.000;  728.000
917.581;  162.700;  965.000;  789.000
917.821;   10.700; -171.000;  143.000
918.061;   55.200; -199.000;  -72.000
918.302;  -15.700; -152.000; -211.000
918.542;   32.900;  -22.000;    3.000
918.782;  168.300;  369.000;  377.000
919.023;  375.400;  360.000;  427.000
919.263; 3045.800; 8131.000;  202.000
919.503; 2247.500; -137.000;  -54.000
919.743; 1364.900;  390.000;  266.000
919.983;  502.100; -134.000;  -26.000
920.223;  210.800;  135.000;   14.000
920.463;  363.500;  631.000;  554.000
920.703;  304.800;   84.000;   39.000
920.943;  373.200; -110.000;   90.000
921.183;  479.900; -414.000; -405.000
921.423; 1046.000;  307.000;  546.000
921.663; 1465.400; -174.000; -257.000
921.903; 3270.800;  237.000;  173.000
922.143;20008.300;  372.000;  389.000
922.383;64333.200;  158.000;  115.000
922.622;18155.900; -120.000;  -15.000
922.862; 2238.900;  796.000;  785.000
923.102;  954.800;  -51.000;   33.000
923.341;  387.600;   59.000;   74.000
923.581;  238.000;  450.000;  360.000
923.821;  108.400;  301.000;  398.000
924.060;  108.700;  351.000;  193.000
924.300;  -58.900;  -16.000; -128.000
924.539;   36.300;  584.000;  473.000
924.779;  102.400;  812.000;  597.000
925.018;  -21.900;  247.000;  353.000
925.257;   62.900;  595.000;  666.000
925.497;  -11.100;  447.000;  412.000
925.736;  -66.800;  -35.000;  102.000
925.975;   90.900;  687.000;  669.000
926.214;  145.800;  907.000;  850.000
926.454;  114.400;  706.000;  757.000
926.693;   29.800;  419.000;  543.000
926.932;  160.800; 1021.000;  825.000
927.171;  239.900; 1107.000; 1044.000
927.410;  219.900; 1144.000;  967.000
927.649;  119.300;  924.000;  742.000
927.888;   63.700;  590.000;  564.000
928.127;   50.200;  680.000;  678.000
928.366;  144.500;  842.000;  826.000
928.605;  180.500;  831.000;  737.000
928.844;  588.100; 1451.000; 1393.000
929.083; 1332.800;  770.000;  613.000
929.321;  649.700; 1335.000; 1359.000
929.560;  242.900; 1158.000; 1122.000
929.799;   52.500;  574.000;  475.000
930.038;  216.700; 1025.000; 1394.000
930.276;   -1.000;  334.000;  397.000
930.515;   97.000;  827.000;  681.000
930.753;   34.700;  614.000;  589.000
930.992;   20.500;  664.000;  717.000
931.230;  112.000;  847.000;  847.000
931.469;  440.100; 2162.000;  892.000
931.707;  246.600;  840.000;  751.000
931.946;  208.300; 1278.000; 1344.000
932.184;  221.400; 1437.000; 1175.000
932.423;  189.100; 1265.000;  963.000
932.661;  282.100; 1296.000; 1428.000
932.899;  114.100;  987.000;  821.000
933.137;  113.000;  754.000;  564.000
933.376;  373.900; 1664.000; 1335.000
933.614;  391.600; 1759.000; 1196.000
933.852;  165.200; 1357.000; 1171.000
934.090;  368.900; 1722.000; 1747.000
934.328;  298.100; 1252.000; 1457.000
934.566;  270.200; 1431.000; 1110.000
934.804;  373.000; 1263.000; 1309.000
935.042; 1029.700; 1861.000; 1850.000
935.280; 4015.600; 2088.000; 2063.000
935.518; 3184.100; 2113.000; 2007.000
935.756;  680.300; 2481.000; 2316.000
935.994;  382.200; 1808.000; 1751.000
936.231;  752.900; 2890.000; 2950.000
936.469;  463.200; 2367.000; 2378.000
936.707;  473.000; 2220.000; 2167.000
936.945;  564.700; 2825.000; 2882.000
937.182;  504.700; 2679.000; 2741.000
937.420;  725.700; 3602.000; 3031.000
937.657;  951.700; 3365.000; 3478.000
937.895;  794.200; 3331.000; 3488.000
938.133;  711.700; 3540.000; 3528.000
938.370;  810.300; 3896.000; 4191.000
938.607;  894.800; 4488.000; 4205.000
938.845; 1194.300; 5587.000; 5549.000
939.082; 1047.000; 5387.000; 5177.000
939.320; 1194.800; 5799.000; 5728.000
939.557; 1411.500; 6549.000; 6491.000
939.794; 1588.800; 7285.000; 7097.000
940.031; 1975.300; 8421.000; 8368.000
940.269; 2293.200; 9552.000; 9107.000
940.506; 2379.400;10901.000;10507.000

