
Integration time [ms]: 100.000
Averaging Nr. [scans]: 40
Smoothing Nr. [pixels]: 0
Data measured with spectrometer [name]: 2101013U2
Wave   ;Sample   ;Dark     ;Reference
[nm]   ;[counts] ;[counts] ;[counts] 

394.013;   30.818; -450.257; -315.536
394.305;  172.915; -461.258; -419.536
394.596; 1526.092; -676.269; -527.514
394.887; 4128.087; -796.268; -654.518
395.178; 1464.599;  145.736;   11.476
395.470;   79.062; -210.263; -356.526
395.761;  131.630;  305.734;  394.479
396.052;  110.594; -545.284; -306.489
396.343;   78.352; -557.276; -454.503
396.634;   20.589; -200.279; -290.497
396.926;    6.309; -618.268; -565.517
397.217;   40.907;   11.725;  -17.504
397.508;    9.076; -366.273; -154.507
397.799;   -6.436; -555.279; -571.497
398.090;   -9.592; -973.280; -902.495
398.381;   72.729;   11.708;  -11.473
398.672;  -24.719; -585.292; -742.473
398.963;   13.572; -348.279; -373.498
399.254;   78.891;   54.709; -209.475
399.545;  -38.949;-1017.266; -883.520
399.836;   41.314; -407.277; -343.501
400.127;   33.051; -205.295; -209.468
400.418;   31.694; -423.274; -392.506
400.709;   27.467; -359.281; -333.493
401.000;   23.896; -268.291; -309.476
401.290;   88.125;  225.698;  115.545
401.581;   66.298; -166.286; -228.485
401.872;   16.193; -542.298; -486.462
402.163;   54.717; -313.296; -252.467
402.454;   82.417; -123.291; -163.475
402.744;   29.807; -844.297; -813.465
403.035;  208.394; -226.293;  -86.471
403.326;  294.834; -366.292; -384.474
403.617;  300.536;  204.701;  165.539
403.907;  322.150; -593.283; -679.490
404.198; 3508.021; -545.307; -599.446
404.489; 9000.331; -618.283; -588.491
404.779; 2520.055; -618.302; -660.456
405.070;  260.504;  -67.304; -174.451
405.360;  471.046; -259.293; -238.472
405.651;  441.343;  125.699;   98.542
405.942;  144.967;  209.714;  127.516
406.232;   66.285; -432.285; -413.487
406.523;  222.488;  641.706;  758.530
406.813;   52.070; -579.286; -644.484
407.104;  166.953;  261.708;  144.527
407.394;   53.663; -604.299; -591.462
407.685;  133.409;  336.715;  222.513
407.975;   54.854; -400.283; -382.490
408.265;   97.459; -134.289; -190.478
408.556;   45.863; -472.291; -459.475
408.846;  163.564;  474.706;  429.530
409.137;   93.169;   -1.288; -216.480
409.427;   62.284; -193.285; -271.487
409.717;   29.055; -776.273; -692.508
410.007;  141.927;    4.715; -170.486
410.298;   99.154; -360.295; -342.469
410.588;   85.481; -495.285; -510.486
410.878;   30.108; -792.287; -873.482
411.168;   99.196; -481.298; -478.463
411.459;  125.173; -295.283; -242.489
411.749;   86.187; -609.292; -507.474
412.039;   69.092; -755.289; -386.480
412.329;  201.830;   40.722;  132.501
412.619;  205.495;  -62.286; -148.485
412.909;  354.663;  639.711;  594.521
413.199;  302.758; -130.280; -251.495
413.490;  371.576;  521.710;  352.523
413.780;  203.688;-1013.279; -913.496
414.070;  384.953;  -46.276;  235.497
414.360;  389.176; -729.278; -666.498
414.650;  516.153; -726.288; -688.482
414.940;  728.037; -538.280; -441.496
415.230; 1185.074;   50.712;   74.519
415.520; 8311.917;  155.730;   66.486
415.809;33621.667; -305.281; -125.493
416.099;25408.216; -388.277; -229.501
416.389; 7623.717;  435.726;  236.494
416.679; 4424.416;   91.738;   85.473
416.969;  740.513; -527.287; -503.483
417.259;  619.965;  341.721;  171.503
417.549;  841.840;  522.718;  318.508
417.838; 2360.962; -205.268; -147.518
418.128; 8110.058;  650.710;  492.522
418.418; 6684.487; -491.272; -579.509
418.708; 4416.342;    9.726;  -48.506
418.997;17425.012; -474.275; -480.505
419.287;17871.525; -733.273; -790.507
419.577;17542.122; -160.283; -123.489
419.866;56216.439; -588.277; -498.501
420.156;54477.387; -242.270;  -55.513
420.446; 9086.957; -112.263;  -26.526
420.735;  861.280; -376.271; -446.512
421.025;  893.500; 1830.722;  315.502
421.314;  537.677; -203.271; -226.512
421.604;  656.953;   89.732;  233.484
421.893;  379.323; -705.271; -602.511
422.183;  290.558; -487.263; -461.526
422.472;  376.025;  -36.271; -107.511
422.762;  375.183; -416.266; -379.521
423.051;  249.053; -916.276; -916.503
423.341;  305.652; -491.273; -439.507
423.630;  391.115; -121.265;   15.477
423.919;  415.761;   58.725;   49.495
424.209;  478.189;  -31.263;   56.473
424.498;  619.909;   68.732;  161.483
424.787; 1453.991; -535.267; -601.518
425.077; 4276.788;   34.735;   29.478
425.366; 4706.546; -734.262; -744.528
425.655;13597.003;  639.727;  259.493
425.945;34783.474; -313.247; -268.554
426.234;18433.998;  117.741;  300.467
426.523; 7124.454;  -86.259; -350.534
426.812; 9711.153;  107.734;  159.480
427.101;14761.599; -127.269; -323.515
427.390;17226.591;  -55.270;  -86.514
427.680; 2476.002; -624.257; -411.538
427.969;  482.890; -330.255; -301.540
428.258;  361.942; -385.257; -477.536
428.547;  494.667;  449.728;  397.490
428.836;  694.734; -421.253; -398.543
429.125;  971.106; -199.259;  -72.534
429.414;  773.636; -330.251; -294.548
429.703; 4445.736; -231.251; -213.548
429.992;13726.840; -938.250; -828.549
430.281; 8699.949; -397.264; -331.524
430.570;  574.175;  -21.252;   32.454
430.859;  405.078;  279.741;  352.466
431.148;  384.594;  636.752;  631.446
431.437;  308.199;  391.748;  367.454
431.725;  202.919; -544.257; -481.536
432.014;  212.593; -845.253; -756.545
432.303;  408.184; -149.239; -105.569
432.592;  528.982; -460.263; -178.525
432.881; 1404.045; -601.248; -437.554
433.169; 9422.216; -343.255;  -61.540
433.458;19090.924;  445.765;  540.424
433.747; 7471.427; -397.261; -289.529
434.036;  912.355; -275.242; -280.564
434.324; 2856.855; -395.249; -379.551
434.613; 5180.773;   40.757;  159.437
434.902; 1490.222;  333.760;  439.433
435.190;  270.908;   75.761;  295.431
435.479;  158.976;  -52.245;   83.441
435.767;   94.436; -411.244; -427.561
436.056;  198.950; -340.242; -294.563
436.345;  471.575; -372.240; -223.568
436.633;  440.850;   60.750;  383.450
436.922;  173.028;  208.760;  414.432
437.210;  191.062; -194.236;    1.426
437.499;  439.447; -583.235; -432.576
437.787;  520.012; -339.236;  -10.574
438.075;  168.114;   56.761;  162.430
438.364;  202.967;  -44.238;  250.429
438.652;   90.467; -286.226; -138.592
438.941;   74.674;    3.770;  269.415
439.229;  -30.103; -665.252; -466.545
439.517;   29.207; -160.234;  -85.577
439.806;   -8.064; -501.225; -290.595
440.094;  131.741;  377.766;  650.421
440.382;   25.346; -653.233; -302.580
440.670;   30.422; -361.235; -285.576
440.959;    0.406; -347.223; -170.599
441.247;   30.263; -151.229; -109.587
441.535;   34.630; -266.235;   31.423
441.823;  -13.212; -497.234; -305.578
442.111;  152.943;  173.771;  327.412
442.400;  271.775; -628.245; -335.559
442.688;  494.891; -111.234; -620.579
442.976;  205.960; -786.213; -450.617
443.264;   32.293; -324.224; -364.597
443.552;   50.793; -258.226;   51.408
443.840;  126.728;  602.765;  876.423
444.128;   76.070;  265.767;  269.420
444.416;  -19.129; -694.228; -312.588
444.704;    7.316; -465.219;  -92.605
444.992;   47.022;   -0.226;  240.407
445.280;    7.775; -517.230;  -94.585
445.568;  -14.610; -694.212; -396.618
445.856;  125.423; -174.221;  357.398
446.143;  228.287;  -54.220;   -7.604
446.431;  203.675;  -25.228;  625.411
446.719;  157.239;  489.783;  675.391
447.007;  136.143;  481.769;  705.416
447.295;  166.453;  597.777;  871.402
447.583;   72.235; -464.229;  -34.587
447.870;  110.169; -434.221; -202.601
448.158;  227.498; -104.230;  129.415
448.446;  128.663; -800.219; -338.604
448.733;  131.270;   13.776;  269.403
449.021;  180.164;   60.788;  341.382
449.309;  152.607; -296.210;  208.379
449.596;  213.260;  128.783;   59.392
449.884;  189.211; -571.222; -325.600
450.172;  270.957; -756.227; -406.590
450.459;  638.591;  645.786;  780.387
450.747; 3749.258; -411.218; -147.608
451.034;12015.402;  493.772;  889.411
451.322; 9709.119; -413.214; -170.614
451.609;  728.747;  292.777;  508.403
451.897;  853.607; -550.203; -183.634
452.184; 2696.378; -622.223; -400.598
452.472; 2395.807;   97.792;  269.375
452.759;  333.214;  512.781;  864.395
453.047;   77.186; -407.212; -125.617
453.334;   29.448; -732.219; -216.606
453.621;   32.872; -438.214; -161.615
453.909;   85.847;   13.796;  384.368
454.196;  103.626; -299.199; -123.641
454.483;  212.222;  317.798;  540.364
454.771;  117.586; -215.208;  196.374
455.058;   34.265; -316.207;  102.374
455.345;  135.592;   71.807;  344.347
455.632;  112.094; -128.207;  235.373
455.919;   55.153;  -82.196;  182.354
456.207;  -67.068; -774.198; -450.642
456.494;  -14.388; -475.200;  -66.639
456.781;   15.492; -399.202; -198.635
457.068;   42.227; -253.206;  -29.628
457.355;  -21.247; -698.206; -401.629
457.642;   -6.441; -552.205; -290.630
457.929;    1.281; -778.194; -417.651
458.216;   95.162; -575.212; -354.617
458.503;  380.787; -173.193;  -19.652
458.790;  431.258; -864.208; -630.625
459.077;  363.623;  -77.202;  110.364
459.364; 1170.598; -350.195; -210.649
459.651; 2487.299;  -46.206;  220.372
459.938; 1127.547; -864.209; -665.623
460.225;  101.327;  132.799;  276.363
460.512;  -48.300; -836.197; -688.645
460.799;  115.607;  -32.218;  320.392
461.086;   90.417; -370.200; -251.640
461.372;    5.557; -509.198; -279.642
461.659;   49.254; -165.196;  108.354
461.946;   37.535; -445.193;  -54.651
462.233;  208.614;  842.800;  888.361
462.519;  482.211; -814.201; -464.639
462.806; 1494.275; -768.197; -497.645
463.093; 1262.860; -445.191;  -66.656
463.380;   -7.091; -920.186; -824.664
463.666;   34.352; -259.197;  -18.646
463.953;  111.392; -406.195; -243.648
464.239;  274.842; -173.195;  -77.648
464.526;  401.179;  413.806;  743.350
464.813;  330.273; -565.190; -304.658
465.099;  328.036;  606.807;  607.348
465.386;  253.391;  903.807;  921.348
465.672;   -5.250; -694.197; -522.645
465.959;   14.670; -598.188; -520.662
466.245;  -19.784; -468.193; -359.652
466.532;   40.614; -109.195;   63.352
466.818;   17.983; -357.186; -216.664
467.104;  -10.594; -488.182; -415.672
467.391;  -19.524; -628.189; -459.658
467.677;   16.238; -289.186;    9.335
467.964;   -2.117; -682.189; -471.660
468.250;   10.116; -331.186; -160.665
468.536;   58.177;   90.811;  180.341
468.822;  -41.570; -821.184; -574.668
469.109;  140.502;  351.827;  471.311
469.395;  197.503;  729.808;  787.346
469.681;  216.756;   46.811;  156.341
469.967; 1765.411; -699.188; -382.660
470.254; 3969.796; -494.188; -306.662
470.540; 2470.778; -601.196; -476.646
470.826;  367.944; -488.181; -397.675
471.112;  407.659;  288.816;  113.331
471.398;   89.590; -253.183;  -58.670
471.684;   39.253; -626.177; -447.680
471.970;   31.349; -918.180; -981.675
472.256;   40.176; -521.192; -441.654
472.542;   17.565; -499.171; -434.691
472.828;   28.401; -743.182; -607.672
473.114;   28.092; -380.166; -283.700
473.400;   16.247; -504.175; -293.684
473.686;   20.399; -452.166; -400.701
473.972;   44.940; -230.174; -131.687
474.258;  -16.573; -925.173; -843.689
474.544;  329.543; -183.178;   -2.679
474.830;  510.324;  -65.175;   45.316
475.116;  811.875; -123.190; -196.658
475.401; 1116.451; -558.180; -467.676
475.687;  282.975; -725.180; -718.676
475.973;  -14.789; -673.181; -770.673
476.259;  222.002;  736.825;  764.315
476.544;  541.337; -539.176; -437.682
476.830; 1382.810; -398.172; -322.690
477.116; 1231.386; -430.177; -336.682
477.401;  148.651;  346.820;  358.324
477.687;  -18.477; -289.175; -405.684
477.973;   24.890;   21.819;   28.326
478.258;  -17.927; -448.163; -348.706
478.544;   28.147;   21.815;   61.334
478.829;  -60.454; -818.171; -738.692
479.115;  -61.665; -749.172; -651.690
479.401;  -10.941; -444.174; -449.686
479.686;   45.799; -253.180;  -74.676
479.972;   -1.751; -886.178; -776.680
480.257;   35.043; -258.166;  -65.700
480.542;   12.651; -614.170; -469.693
480.828;  224.795; 1288.824; 1392.317
481.113;  -33.907; -464.176; -426.683
481.399;  -16.948; -236.161; -202.711
481.684;  -51.282; -620.166; -462.700
481.969;    0.492; -158.159;  -73.713
482.255;  -11.086; -439.169; -285.695
482.540;   12.149; -569.178; -441.680
482.825;   15.153; -395.187; -404.663
483.110;  134.043;  -85.169; -105.696
483.396;  373.993; -840.157; -652.718
483.681;  741.040;  543.826;  730.313
483.966;  304.160; -696.160; -700.712
484.251;  -12.261; -404.174; -310.687
484.536;    5.955; -356.165; -378.703
484.822;   24.117; -205.173; -218.687
485.107;  -33.562; -599.152; -502.726
485.392;  119.037;  662.836;  541.296
485.677;   68.079;  354.832;  163.302
485.962;   93.665;  160.843;  270.283
486.247;   93.158;  -14.162;   -8.707
486.532;   56.620; -178.166; -325.701
486.817;  178.895;  381.839;  431.291
487.102;  146.818; -453.154; -514.722
487.387; 1049.045; -637.156; -652.718
487.672; 1978.643; -154.164;  -38.705
487.957; 1204.228; -394.160; -286.711
488.241;  306.158; -290.150; -314.729
488.526; 1200.440; -280.152; -148.726
488.811; 2002.952; -881.177; -818.680
489.096; 1386.521; -666.154; -702.723
489.381;  713.336;    3.847;  162.275
489.666;  648.926; -428.161; -510.710
489.950;  195.100;  558.846;  627.277
490.235;  -43.773; -480.151; -458.728
490.520;  -54.400; -756.161; -723.710
490.804;  -33.677; -827.156; -736.719
491.089;   15.102; -469.149; -299.732
491.374;   38.842; -132.164;  -75.704
491.658;  -15.009; -817.147; -717.735
491.943;  119.845; -657.152; -609.727
492.227;  209.813; -178.155;  -38.721
492.512;   36.140; -294.157; -341.717
492.797;  -57.830; -713.149; -716.731
493.081;  -44.431; -588.147; -598.735
493.366;  -42.248; -751.161; -635.711
493.650;  214.432;  831.859;  917.254
493.935;   60.140; -648.147; -447.734
494.219;  -26.483; -778.142; -687.743
494.503;  -45.561; -585.150; -487.730
494.788;   53.955;   46.842;   74.285
495.072;  122.685;  184.850;  434.271
495.356;  221.531; -463.148; -343.733
495.641;  529.127; -812.146; -736.736
495.925;  451.404; -976.156; -903.719
496.209;    5.476; -599.149; -451.732
496.494;  -42.683; -763.142; -544.744
496.778;   -5.132; -364.154; -360.722
497.062;  -50.847; -819.156; -627.719
497.346;    5.430; -869.160; -640.711
497.631;  175.160;  580.852;  560.266
497.915;   64.364;  -64.145;  175.261
498.199;   31.568; -341.157; -277.718
498.483;   32.388; -562.152; -508.725
498.767;  247.611;  301.850;  300.271
499.051;  297.149; -126.149; -100.732
499.335;   58.746; -693.149; -739.731
499.619;  -38.398; -381.129; -423.767
499.903;    2.537; -272.155;  -65.721
500.187;   23.077; -588.153; -316.724
500.471;   33.969; -796.152; -595.727
500.755;  104.925;   62.839;  -96.710
501.039;    2.887; -270.155; -357.721
501.323;   45.384;  -21.141;  264.254
501.607;   10.949; -447.163; -503.706
501.891;    0.270; -607.156; -512.718
502.174;  -35.598; -726.144; -585.741
502.458;   62.374;   89.849;  370.273
502.742;   53.187; -180.138; -191.751
503.026;  195.364; -412.147; -254.734
503.310;  319.266; -437.159; -375.713
503.593;  201.566; -464.147; -325.735
503.877;  135.710; -232.133; -156.760
504.161;  163.555;    2.847;  -50.724
504.444;  186.382; -841.158; -710.716
504.728;  760.866; -487.164; -522.704
505.012; 1084.507; -257.150;  -76.729
505.295;  792.327; -417.161; -212.711
505.579;  818.928; -256.156; -496.719
505.862; 1266.310; -555.145; -333.738
506.146; 1291.969; -681.159; -758.714
506.429;  571.970;  568.841;  461.286
506.713;  114.604; -732.151; -667.728
506.996;  471.493;   90.846;  295.278
507.280;  569.835; -633.165; -474.703
507.563;  372.385; -469.155; -261.721
507.847;  176.228; -423.153; -112.724
508.130;  168.627; -665.161; -456.711
508.413;  225.888; -758.167; -577.700
508.697;  385.913; -151.167;   12.300
508.980;  256.554; -422.153; -312.724
509.263;   10.581; -466.155; -450.720
509.547;   61.232; -124.150;   82.271
509.830;   43.255; -172.160;  140.289
510.113;   77.153;  128.844;  298.281
510.396;   40.136; -530.152; -300.725
510.680;   50.086; -818.145; -812.738
510.963;  186.173;  184.846;  180.277
511.246;  108.591; -493.150; -357.730
511.529;  287.317; -482.145;  -83.739
511.812;  629.656; -250.134;   10.241
512.095;  474.926; -740.151; -396.728
512.378;  107.121; -317.147; -245.736
512.661;   69.146; -703.137; -623.753
512.944;   89.494; -750.142; -637.744
513.227;  109.643; -170.137; -171.752
513.510;   57.202; -479.144; -671.741
513.793;   35.064; -485.140; -435.747
514.076;  163.677;  -43.127;  -39.771
514.359;  166.252; -294.149; -135.732
514.642;  144.873; -442.142; -567.744
514.925; 1118.362;  581.860;  561.253
515.208; 1667.177; -498.134; -443.758
515.491; 1043.543; -276.133; -182.761
515.773;  600.482; -410.143; -337.742
516.056; 3314.704;  249.864;  409.246
516.339; 4327.034; -754.136; -652.755
516.622; 2028.013; -518.150; -488.730
516.904;  540.115;  882.857;  975.257
517.187;  199.167; -730.138; -523.752
517.470;  435.614; -568.143; -510.743
517.752;  713.912; -624.136; -470.756
518.035;  596.702; -708.139; -725.749
518.318;  631.534; -799.136; -744.755
518.600; 4049.572; -300.132; -325.762
518.883; 5525.647;  310.858;   88.256
519.165; 2525.608; -585.138; -426.751
519.448;  427.097;  -61.132;  -19.762
519.730;  193.386; -573.126; -415.773
520.013;  242.364;  588.867;  664.240
520.295;  290.908;  -94.134;  -15.759
520.578;  624.537; -335.131; -305.764
520.860;  838.672; -254.132;   56.238
521.143;  617.014; -763.135; -584.756
521.425;  585.601; -251.125; -279.775
521.707;  979.252; -622.127; -380.771
521.990; 2802.953; -199.127;  167.229
522.272; 3254.191; -116.140;   -4.748
522.554; 1188.658; -237.143; -157.742
522.836;  241.105;  -24.134;   99.241
523.119;  202.363; -496.148; -189.734
523.401;  170.946; -448.130; -314.766
523.683;  156.472; -865.137; -693.753
523.965;  425.889;  408.862;  260.248
524.247;  439.251;   54.878;  170.220
524.529;  317.958; -451.134; -367.759
524.812;  504.598;   -3.130;  191.234
525.094; 1399.388; -773.138; -631.751
525.376; 2228.837; -143.124;   78.223
525.658; 1329.355; -441.136; -339.754
525.940;   94.733; -805.131; -671.764
526.222;   16.685; -188.136;  -88.755
526.504;   57.531; -190.131;   32.237
526.786;   34.661; -960.133; -647.760
527.068;  114.393; -124.123;  -67.778
527.349;   -6.299; -865.137; -774.754
527.631;  133.347; -137.132;   22.238
527.913;  235.751; -664.127; -450.771
528.195;  312.218; -761.125; -639.774
528.477;  379.802;  -93.134;  -30.758
528.759;  266.648; -648.130; -522.766
529.040;  152.092; -569.123; -293.778
529.322;   83.171; -235.125;  -10.774
529.604;   86.450;  -47.130;   93.233
529.886;   43.010; -546.126; -302.773
530.167;   75.015;  232.870;  192.235
530.449;   41.720;    1.853;   63.265
530.731;   87.425; -572.122; -459.779
531.012;  142.300; -513.120; -216.784
531.294;  131.496; -118.116;  -43.792
531.575;  202.001;  290.875;  538.225
531.857;  125.271; -548.135; -266.757
532.138;  108.632; -113.141;   40.254
532.420;  105.566;  294.865;  403.244
532.701;   75.764; -722.133; -751.760
532.983;  205.867;  232.867;  182.239
533.264;   49.533; -243.126;  175.228
533.546;  -43.041; -491.136; -508.755
533.827;   23.510;  173.867;   -1.759
534.109;   14.696; -352.135;  -80.757
534.390;   87.752; -725.132; -582.762
534.671;  305.466; -270.135;  -82.756
534.953;  212.570; -751.123; -611.779
535.234;   50.378; -426.117; -255.789
535.515;  -40.890; -891.119; -735.785
535.796;   -7.529; -431.128; -193.770
536.078; -100.814;-1050.124; -904.777
536.359;    0.121;  -22.123;    3.221
536.640;  -32.931; -480.125; -197.774
536.921;  172.832;  225.871;  143.232
537.202;  551.560;  -87.138;  -16.751
537.483;  703.287;  251.869;  377.236
537.764;  264.366;   17.870;   98.235
538.045;  -41.074; -543.134; -371.758
538.326;  -17.966; -596.129; -447.768
538.607;   70.603; -686.127; -476.771
538.888;  261.989;   98.879;    5.218
539.169;  324.833; -704.122; -535.781
539.450;  402.555;  236.871;   16.233
539.731;  263.419; -361.121; -182.783
540.012;  148.875;  199.880;  412.216
540.293;   92.455;   82.876;  158.224
540.574;   -4.754; -895.113; -717.796
540.855;  496.217;  435.879;  377.218
541.136;  666.904;   47.878;  139.220
541.416;  388.673; -161.130; -220.766
541.697;  301.982; -274.131; -170.763
541.978; 1666.444; -270.135; -315.757
542.259; 2106.828; -211.127; -236.771
542.539;  961.939; -191.116; -186.790
542.820;  218.100;  461.875;  480.225
543.101;  147.288;  -52.145;  -77.738
543.381;   45.803; -638.127; -591.771
543.662;  363.300;  159.873; -254.771
543.942;  950.498; -751.127; -830.770
544.223; 1658.456;  193.878;  161.219
544.504; 1092.311; -275.124; -182.777
544.784;  875.785; -592.126; -408.773
545.065; 2495.893;  104.884; -254.791
545.345; 2944.035;  227.881;   14.215
545.626; 1931.270;  -14.113; -108.796
545.906; 1398.265;   77.869;   98.235
546.186;  579.790;   92.874;  -95.773
546.467;  318.864;   99.877;  -95.778
546.747;  496.163;  264.884;  327.210
547.027;  574.109;   91.876;  111.223
547.308;  567.822; -376.127; -530.770
547.588;  584.609;  299.871;  371.232
547.868;  242.941;  458.870;  588.235
548.149;  255.527;  609.885;  593.207
548.429;  233.126; -347.127; -299.771
548.709;  380.599; -645.120; -461.784
548.989;  779.396;   84.882;   88.213
549.269; 3350.120;   10.868;  139.239
549.550; 7830.919;  215.877;  117.222
549.830; 6986.616; -758.111; -556.799
550.110; 1384.650; -468.110; -320.801
550.390; 1309.425; -128.122;  -56.779
550.670; 1879.765; -868.114; -783.795
550.950; 1311.416; -509.121; -471.782
551.230;  253.287;  549.879;  460.218
551.510;   35.815; -381.121; -326.782
551.790;   60.784; -173.109; -127.803
552.070;  341.489;  940.877; 1181.223
552.350;  707.964; -492.119; -377.786
552.630;  978.134;   -2.121;   77.219
552.909;  542.369;  181.884;   73.209
553.189;  394.878;  -49.132;   33.237
553.469;  388.339; -703.119; -514.786
553.749;  368.155; -469.127; -357.772
554.029;  286.208;   33.883;  -24.790
554.308;  250.182; -154.115;  -37.794
554.588;  150.695; -196.128; -204.770
554.868;  141.742; -366.121;  -47.782
555.147;  252.279; -114.115;  -46.793
555.427;  962.146; -260.116; -250.792
555.707; 6290.226; -284.115; -200.793
555.986; 7755.545; -719.111; -538.800
556.266; 3942.762;   23.884;   72.210
556.546;  246.140; -888.121; -675.782
556.825;  453.562; -657.114; -556.794
557.105; 2926.593; -125.128;   17.230
557.384; 3421.317;  122.884;  187.209
557.664; 1336.971; -717.116; -508.792
557.943;  240.917; -557.121; -411.782
558.222;  321.650; -345.118; -344.788
558.502;  413.105; -116.115;  -76.793
558.781;  734.975;  194.885;  499.208
559.061;  684.499; -232.118; -227.788
559.340;  470.580;  302.883;  353.211
559.619; 1171.237;   93.884;  148.210
559.899; 1744.732; -239.117; -266.789
560.178; 1542.605; -778.115; -593.793
560.457; 4802.734; -623.117; -562.790
560.736; 6917.571; -472.111; -482.800
561.015; 4530.490; -500.128; -502.769
561.295;  553.158;  180.893;  215.193
561.574;  441.627;  119.885;  116.207
561.853;  700.064;  274.891;  303.197
562.132;  808.233;  -45.114;  182.206
562.411;  674.085;  396.879;  553.219
562.690;  286.574; -592.115; -458.792
562.969;  187.353;  472.888;  630.203
563.248;  550.332; 2966.878; 2487.219
563.527;  477.045; -290.111; -408.800
563.806;  665.851; -650.127; -521.771
564.085;  738.276; -297.105; -206.810
564.364;  435.286; -594.117; -405.790
564.643;  814.685; -276.121; -223.781
564.922; 3022.357;  221.890;  397.198
565.201; 3145.086; -640.109; -700.803
565.479; 1331.098; -297.115; -219.792
565.758;  585.368; -810.128; -712.770
566.037;  776.988; -155.109; -100.803
566.316;  393.568; -286.116;  -28.791
566.595;   77.601;  -17.115;  -12.793
566.873;  115.898; -166.111;  -79.801
567.152;  -31.098; -490.113; -590.797
567.431;   33.788; -113.116;    6.210
567.709;   47.433; -344.107; -212.807
567.988;  458.962; -810.114; -769.794
568.266;  869.301; -160.115;  -68.793
568.545;  654.806; -644.100; -514.819
568.824;  958.772;  160.885;  356.208
569.102;  997.786; -351.114; -235.794
569.381;  441.746; -492.116; -407.792
569.659;  -20.427; -553.113; -553.796
569.938;  122.980; -743.122; -465.780
570.216;  198.866; -225.109; -225.804
570.494;   22.915; -632.114; -572.795
570.773;   43.590;  202.879;  114.218
571.051;   54.692; -373.123; -357.778
571.330;  114.120; -221.113; -174.796
571.608;   79.177; -181.098; -173.823
571.886;  -20.386; -671.111; -581.799
572.164;  -29.358; -739.121; -621.782
572.443;   -7.495; -562.105; -512.811
572.721;  -28.815; -399.117; -289.790
572.999;   -0.423; -280.117; -168.788
573.277;  105.197;  379.894;  620.191
573.555;  458.925;   94.894;   37.190
573.834; 2266.726;  -86.117; -114.788
574.112; 2554.086;  880.893;  811.193
574.390;  767.197; -143.111;  -96.801
574.668;   40.954;  -91.112;  -61.797
574.946;   20.575; -165.106; -187.810
575.224;   23.511;   71.891;  -16.803
575.502;   -3.160; -200.116; -204.791
575.780;  -62.670; -767.112; -829.798
576.058;  228.771; 1589.889; 1004.200
576.336;   -9.073; -210.110; -129.801
576.614;  -49.720; -511.112; -340.798
576.891;  145.231; -711.115; -823.794
577.169;  841.150; -158.108; -285.805
577.447;  932.910;  169.893;  202.193
577.725;  365.686;  629.888;  854.201
578.003;   40.808;  -71.112; -371.798
578.280;  143.666; -208.104; -242.812
578.558;  112.380; -450.115; -422.793
578.836;  149.690; -210.114; -145.795
579.114;  101.053; -630.112; -670.797
579.391;   80.979;   -6.117;  -18.789
579.669;  -35.893; -595.114; -704.794
579.947;  289.581; -326.107; -127.806
580.224;  585.556; -692.107; -524.806
580.502;  508.461;  127.893;   76.193
580.779;   38.436;  -42.117;   75.210
581.057;  -71.009; -584.109; -470.804
581.334;  -83.892; -726.102; -695.815
581.612;   33.926;   54.895;  511.190
581.889;  -14.051;  -83.101; -129.818
582.167;  -22.759; -298.099; -190.821
582.444;  -82.558; -845.102; -814.817
582.721;  100.893;  657.899;  715.183
582.999;  100.988; -326.100; -167.821
583.276;  938.872; -812.123; -713.779
583.553; 1230.087; -364.102; -294.816
583.831;  456.837; -607.104; -631.812
584.108;   75.998;  349.892;  174.195
584.385;   37.258; -122.102;  -98.815
584.662;  -23.152; -651.111; -828.801
584.940;   44.447;  204.889;  204.199
585.217;  -18.177;  -73.113; -303.796
585.494;   62.133;   71.890;  118.198
585.771;  336.017; -250.109; -354.804
586.048;  800.247; -196.113;  -76.796
586.325;  532.901; -721.110; -773.801
586.602;  116.041;  230.896;  213.188
586.879;   30.684; -499.100; -580.820
587.156;   94.602; -156.105; -331.810
587.433;   10.565; -701.102; -667.817
587.710;  104.656;  152.888;  234.202
587.987;  439.508; -264.105; -236.811
588.264; 1153.633;  315.888;  387.202
588.541; 1948.019;  -61.104;   26.187
588.818; 3980.570;   72.892;  171.196
589.095; 3414.389; -163.104; -174.812
589.371;  577.365; -459.109; -414.804
589.648;   57.111; -581.107; -437.807
589.925;  102.466; -517.114; -621.795
590.202;   93.581; -741.112; -607.798
590.478;  144.335; -166.105;  -73.811
590.755;  405.227; -241.108; -132.806
591.032; 3757.829; -741.110; -699.802
591.308; 5392.125; -732.094; -790.831
591.585; 2756.628; -573.110; -560.802
591.862;  316.417;-1056.102; -950.817
592.138;  136.849; -475.108; -474.805
592.415;  261.417; -486.104; -495.813
592.691; 2136.389;  460.896;  518.188
592.968; 2880.905; -208.098; -123.824
593.244; 1363.088; -695.116; -595.790
593.521;  119.417; -105.102;  -42.817
593.797;   41.977; -810.122; -720.780
594.074;  546.220; -611.096; -588.826
594.350;  946.283;  828.905;  729.172
594.626;  460.098; -303.111; -283.801
594.903;  238.643; -643.101; -645.817
595.179;  268.421;  243.896;  418.187
595.455;   27.387; -136.107; -150.807
595.731;   16.223;  -19.103;  -38.814
596.008;  -15.683; -464.111; -434.800
596.284;   87.786; -187.100; -242.820
596.560;  131.783; -501.093; -493.833
596.836;  331.329; -173.105;  -70.810
597.112;  578.650; -582.108; -437.805
597.388;  455.642;  -49.097;  -48.826
597.665;  145.251;  437.887;  530.203
597.941;  -32.308; -572.089; -658.839
598.217;   55.832; -323.110; -293.802
598.493;  418.419;   61.891; -204.804
598.769;  832.955; -175.100;  -50.819
599.045;  518.253; -490.108; -562.806
599.321;  124.460; -193.100; -261.820
599.597;  276.793; -355.109; -476.804
599.872;  758.894;  409.896;  429.187
600.148;  613.894;  -61.097; -172.826
600.424;  426.884;   91.893;  202.193
600.700;  414.712; -170.107; -280.807
600.976;  225.712; -442.097; -464.825
601.252;  412.764; -226.109; -272.803
601.527;  397.320; -833.104; -840.813
601.803;  255.386; -453.105; -404.812
602.079;  309.130; -124.100; -118.819
602.354;  896.494; -620.092; -531.835
602.630; 1313.423; -140.113; -482.796
602.906; 3488.924; -910.101; -863.818
603.181;10633.114; -627.119; -534.786
603.457; 8882.166;   98.903; -278.826
603.733; 1321.845; -605.120; -626.783
604.008; 1447.726; -245.106; -164.810
604.284; 4787.820; -636.101; -580.817
604.559; 4132.686;   -3.112;  -42.799
604.835;  768.679; -163.105; -225.810
605.110;  700.991; -732.099; -892.821
605.385; 1082.236;  224.907;  267.167
605.661; 1071.411; -625.095; -729.829
605.936; 2004.029; -664.108; -737.806
606.211; 1615.806;  -17.103; -170.815
606.487;  360.735; -329.114; -376.794
606.762;  109.689; -791.119; -745.786
607.037;   13.829; -501.105; -433.810
607.313;  -29.922; -589.096; -574.828
607.588;   17.275; -375.106; -137.810
607.863;   74.823;  -28.101; -143.818
608.138;  243.981;  513.890;  516.198
608.413;  126.196; -576.099; -592.822
608.688;  113.949; -203.108; -267.805
608.964;  352.368; -509.106; -218.809
609.239;  425.751; -107.105; -212.810
609.514;  382.010;  281.895;  240.188
609.789; 1034.291; -187.104; -716.812
610.064; 1356.202; -435.096; -609.827
610.339; 1457.615; -855.109; -799.804
610.614; 1977.436; -131.100; -315.820
610.889; 1077.411;  215.895;  107.188
611.163;  117.437; -407.104; -591.812
611.438;  152.561;   81.886; -167.794
611.713;   67.595; -467.101; -499.817
611.988;  112.972; -144.101; -328.818
612.263;   39.983; -771.102; -717.815
612.538;  307.497;  385.887;  251.204
612.812;  359.162; -832.100; -911.820
613.087;  235.177; -358.098; -338.823
613.362;  -17.688; -497.107; -557.807
613.637;   56.327;  261.897;  138.186
613.911;   18.020; -256.092; -345.835
614.186;  234.535; -249.107; -292.807
614.460; 1186.281; -842.081; -758.854
614.735; 1312.345;  -55.087;  -17.843
615.010;  276.158;   43.912;  -82.841
615.284;  329.649;  360.892;  246.195
615.559;  638.144; -792.092; -955.835
615.833;  450.769;  -76.099;  -87.822
616.108;   37.733; -225.090; -390.837
616.382;  200.647;  274.913;  402.156
616.656;  283.733; -241.090; -232.837
616.931;  828.269; -785.099; -700.822
617.205; 1717.521; -973.104; -979.813
617.480; 1563.623;  -91.125;    6.225
617.754;  295.820; -396.125; -128.774
618.028;   62.360; -369.129; -382.768
618.302;  111.197;   73.892;  -25.805
618.577;  -12.997; -371.103; -518.815
618.851;  -43.890; -399.109; -600.803
619.125;  -38.492; -335.134; -378.759
619.399;   -4.654; -244.104; -374.813
619.673;  -26.753; -330.115; -515.792
619.947;  -26.635; -333.114; -448.795
620.222;   10.175; -198.110; -204.801
620.496;   35.242;  -47.121;  -96.782
620.770;   59.307; -187.122;  -93.781
621.044;  309.402;  323.895;  346.190
621.318; 1159.795; -653.120; -614.783
621.592; 1060.468; -430.121; -409.783
621.866;  651.112; -476.112; -572.799
622.140;   79.615; -207.116; -356.791
622.413;   96.542;  138.889;  112.200
622.687;  -11.555; -746.101; -492.817
622.961;   33.547; -130.108; -143.805
623.235;  -19.932; -633.111; -661.800
623.509;  -71.190; -816.105; -848.811
623.783;   28.732;  -12.107;   48.193
624.056;   -3.803; -254.120; -280.783
624.330;   89.204;   63.888;   -3.797
624.604;  104.286; -271.116; -355.790
624.877;  135.380;  180.890;   26.198
625.151;   86.933; -249.114; -238.794
625.425;  -19.452; -150.103; -283.814
625.698;  -38.942; -367.119; -374.785
625.972;  -80.367; -799.110; -765.802
626.245;   87.088;  685.884;  484.210
626.519;  -36.924; -426.120; -340.784
626.792;  -18.588; -192.107; -380.807
627.066;  -72.726; -485.122; -662.779
627.339;  -81.897; -736.110; -663.802
627.613;   49.175;  351.880;  148.216
627.886;   82.385;  187.891; -612.803
628.160;    9.195;  312.880; -161.783
628.433;  -86.523; -695.125; -703.775
628.706;  -83.149; -517.120; -615.784
628.979;   26.759;  296.876;  117.223
629.253;  -52.087; -785.119; -833.786
629.526;  632.283; -334.126; -253.772
629.799;  640.268; -641.123; -479.778
630.072;  310.087; -497.128; -516.769
630.346;   -3.412;-1115.116;-1080.790
630.619;  747.738; -467.107; -545.808
630.892;  960.593;  709.889;  593.200
631.165;  490.171;  790.896;  679.187
631.438;  -10.967;-1092.112;-1055.798
631.711;   61.346;  453.877;  257.221
631.984;  -27.792; -523.117; -624.789
632.257;  -54.846; -636.117; -681.789
632.530;  -51.442; -412.119; -433.785
632.803;   28.806; -109.115;    7.207
633.076;  -56.161; -360.123; -422.777
633.349;   14.742;  173.872;  121.231
633.622;  -22.668; -187.119; -240.785
633.895; -109.029; -903.120; -823.783
634.167;  -52.289; -496.126; -525.773
634.440;  -12.404;  -19.116; -137.792
634.713;   15.212;  -22.119; -120.786
634.986;   76.655;  593.871;  453.233
635.258;  -69.696; -507.115; -597.793
635.531;   82.074;  742.882; -343.788
635.804;  -20.844; -303.117; -318.789
636.077;  -89.434; -830.116; -852.791
636.349;   36.427; -586.115; -474.793
636.622;  461.982; 1695.874; 1392.228
636.894;  432.752; -474.120; -909.784
637.167;  289.525; -836.127; -789.771
637.439;   75.046; -278.128; -213.770
637.712;  -38.441; -312.126; -293.772
637.984;  -56.308; -635.116; -707.791
638.257;  485.439;  515.877;  488.222
638.529;  861.003; -881.125; -924.776
638.802;  395.187; -508.128; -449.769
639.074;  -96.544; -927.122; -952.781
639.346; -111.677; -942.135; -930.757
639.619;    7.871;  -79.142; -319.744
639.891;  -11.676;  -83.122; -168.779
640.163;  -63.899; -689.122; -756.780
640.435;   44.703;  273.878;  103.220
640.708;   22.380;  -72.122; -132.780
640.980;   -6.993; -366.122; -362.781
641.252;  242.660;  -25.121;  -71.781
641.524; 2434.987;  580.879;  573.219
641.796; 2609.789;-1094.121; -907.782
642.068;  461.666; -191.121; -300.782
642.340;  -44.707; -486.121; -566.783
642.613;   45.070;  294.880;  323.217
642.885;  -82.452; -787.120; -878.783
643.157;    1.475; -810.120; -658.784
643.428;   76.002;  170.880;  218.216
643.700;  -60.821; -498.120; -425.784
643.972;  -35.519;  -16.119; -133.785
644.244;  -96.942; -474.119; -559.785
644.516;  -45.289; -250.119; -114.786
644.788;   60.238;  662.881;  548.214
645.060;  -11.160;  -12.119; -124.786
645.332;  -97.158; -525.118; -535.787
645.603;   22.169;  479.882;  342.213
645.875;  -71.254; -334.118; -369.787
646.147;  142.649; 1487.882; 1242.212
646.418;   18.551; -931.117; -918.788
646.690;  327.803; -714.117; -715.789
646.962;  123.930; -413.117; -451.789
647.233;   -8.543;   15.883;   11.211
647.505; -101.316; -595.117; -475.790
647.776;   24.287;  328.884;  229.210
648.048;   10.239; -248.116; -418.790
648.320;  -57.884; -752.116; -679.791
648.591; -134.832;-1055.116; -958.791
648.862;  -86.755; -505.116; -577.792
649.134;   16.822;  115.885;  198.208
649.405;   -9.100; -661.115; -618.792
649.677;  -21.023; -475.115; -598.793
649.948;   12.979; -181.115; -296.793
650.219;    9.606;  -37.115; -147.793
650.491;  -77.342; -431.114; -520.794
650.762; -114.690; -705.114; -731.794
651.033;  -80.737; -437.114; -424.795
651.304;  -63.360; -743.114; -728.795
651.576;  -42.983; -680.114; -645.795
651.847;  -43.431; -250.113; -140.796
652.118;  -15.654;  -32.113; -189.796
652.389; -109.802; -639.113; -722.796
652.660;  -38.549; -147.113;  -89.797
652.931; -121.997; -897.112; -871.797
653.202;  -70.295; -382.112; -541.798
653.473;  -55.293; -633.112; -533.798
653.744;  288.009; -595.112; -590.798
654.015;  258.461; -356.112; -303.799
654.286;  -41.361; -642.111; -663.799
654.557;  -16.534; -586.111; -521.799
654.828; -128.582;-1114.111;-1088.800
655.099;  -77.755; -404.111; -291.800
655.370;  -99.853; -427.111; -543.801
655.641; -123.626; -656.110; -714.801
655.911; -106.573; -618.110; -638.801
656.182;   44.654;  437.890;  387.198
656.453;   82.856;  830.890;  746.198
656.724;  -63.067; -466.110; -426.802
656.994;  -76.065; -553.109; -568.803
657.265;  -95.213; -862.109; -873.803
657.536;  -73.810; -500.109; -377.804
657.806;  -96.633; -561.109; -593.804
658.077; -128.606; -866.109; -950.804
658.347;  -92.204; -523.108; -598.805
658.618; -108.177; -646.108; -694.805
658.888;  -32.225;  -41.108;  112.195
659.159;  -71.847; -432.108; -548.806
659.429;   14.630; -292.108; -349.806
659.700;   52.657; -435.107; -390.807
659.970;   21.834; -370.107; -359.807
660.241;   78.586; -754.107; -921.807
660.511;  796.488; -147.107; -174.808
660.781;  201.966; -793.106; -748.808
661.052;  -42.857; -222.106; -381.808
661.322;  -13.555;   21.894;   -9.809
661.592;    7.297;  257.894;  148.191
661.862;  -85.301; -369.106; -382.810
662.133; -100.099; -551.105; -502.810
662.403; -109.746; -770.105; -676.810
662.673;  -54.794; -256.105; -213.811
662.943; -100.092; -612.105; -551.811
663.213;    6.035;  -85.105;  -81.811
663.483;  -70.463; -593.104; -568.812
663.753;  -65.461; -194.104; -152.812
664.023;   -5.158;   68.896;  -32.813
664.293;  -56.581; -319.104; -126.813
664.563;  -97.304; -694.104; -648.813
664.833; -124.252; -743.103; -608.814
665.103; -108.350; -730.103; -793.814
665.373; -107.023; -766.103; -806.814
665.643;  -31.220; -863.103; -918.815
665.913;  111.507; -534.103; -714.815
666.182;  254.709; -685.102; -719.816
666.452;  428.961;  -22.102;  -89.816
666.722;   28.588; -724.102; -784.816
666.992; -109.710; -948.102; -921.817
667.261;  -66.582; -824.102; -808.817
667.531;  252.120;  134.899;   45.183
667.801;  812.272; -440.101; -412.818
668.070;  284.699;  714.899;  697.182
668.340;  -82.724; -883.101; -840.819
668.609;  124.103;  588.900;  301.181
668.879;  -63.869; -490.100; -558.819
669.149;  -53.817; -539.100; -516.820
669.418; -104.140; -698.100; -726.820
669.688;    1.987; -482.100; -666.820
669.957;  161.039; -423.099; -546.821
670.226;   -2.009; -268.099; -331.821
670.496;  -95.856; -431.099; -635.822
670.765;  -74.529; -418.099; -501.822
671.034; -115.777; -872.099; -828.822
671.304;  -16.150;   55.902; -111.823
671.573; -133.873;-1085.098; -957.823
671.842;  151.729; -380.098; -294.823
672.112;  117.632; -692.098; -586.824
672.381;   27.059; -239.098; -214.824
672.650; -114.614;-1005.097;-1021.825
672.919;  -77.287; -631.097; -507.825
673.188;  -70.785; -681.097; -878.825
673.457; -118.033;-1101.097;-1143.826
673.726;  -42.055; -579.096; -646.826
673.995;  -22.728; -533.096; -479.826
674.265;   19.024; -263.096; -333.827
674.534;   44.026; -183.096; -235.827
674.802;   60.203; -618.096; -703.828
675.071; 1468.955; -886.095; -801.828
675.340; 6258.183; -464.095; -339.828
675.609; 2035.810;  103.905;   82.171
675.878;  200.837; -949.095; -893.829
676.147;   62.339;  -26.095;   -8.829
676.416;  158.191; -210.094; -294.830
676.685; 1016.243; 1000.906; -622.830
676.953;  213.321; -603.094; -452.831
677.222;  -27.627; -193.094; -273.831
677.491;  -12.050;  -24.094; -127.831
677.759;   -6.873;   11.907;  172.168
678.028;    8.379; -279.093; -222.832
678.297;   -4.194;   71.907;  197.168
678.565; -129.441; -898.093; -944.833
678.834;  -60.289; -311.093; -268.833
679.102;  -71.437; -411.092; -391.834
679.371; -133.835; -898.092; -727.834
679.639; -129.608; -797.092; -786.834
679.908; -101.756; -794.092; -724.835
680.176; -144.928; -895.091; -941.835
680.445;  -73.676; -346.091; -352.835
680.713;  -24.249;  -58.091;  -23.836
680.982;  -88.272; -523.091; -525.836
681.250;  -93.220; -578.091; -507.837
681.518;  -85.643; -534.090; -751.837
681.787;    6.810; -204.090; -167.837
682.055;  -36.388; -490.090; -422.838
682.323; -120.486; -993.090; -992.838
682.591;   59.566; -216.090; -538.838
682.859;  159.018;    9.911;  -35.839
683.128;   31.095;  232.911;  497.161
683.396; -140.452;-1102.089;-1122.840
683.664;  -30.725; -241.089;   21.160
683.932;   -0.648;  144.911;  -76.840
684.200;  -77.721; -576.088; -320.841
684.468;  -23.119;  -73.088; -124.841
684.736;  -38.542; -214.088; -175.841
685.004;  -86.989;-1024.088; -982.842
685.272;   -2.812; -880.088; -774.842
685.540;  -43.360; -499.087; -557.843
685.808;  -54.733; -651.087; -682.843
686.076;  -78.181; -894.087; -969.843
686.343;  -24.279; -601.087; -815.844
686.611;   87.874; -195.087; -224.844
686.879;  626.551; -530.086; -553.844
687.147; 4925.328; -483.086; -480.845
687.414; 1452.455;  -12.086; -169.845
687.682;   70.107; -658.086; -757.846
687.950;  460.784;  259.915;  263.154
688.217;   90.187; -792.085; -760.846
688.485;   48.964; -632.085; -636.847
688.753;  840.241;  -11.085; -102.847
689.020;  371.443; -820.085; -851.847
689.288;  -64.830; -853.084; -787.848
689.555;  -26.378; -195.084; -148.848
689.823;  -29.800; -241.084; -345.849
690.090;  -73.248; -546.084; -651.849
690.358; -142.446; -877.084; -897.849
690.625;    3.081;  120.917;   45.150
690.892;  -69.017; -403.083; -369.850
691.160;   -1.015;   72.917;  -35.850
691.427;   -1.062;  141.917;  130.149
691.694; -111.410; -855.083; -929.851
691.962; -130.808;-1177.082;-1060.852
692.229;   23.669;  127.918;   56.148
692.496;  128.721;  130.918;  -49.852
692.763;   48.423; -164.082; -201.853
693.031;  -51.124; -739.082; -716.853
693.298;   -1.372; -509.081; -368.853
693.565;  439.730; -155.081; -163.854
693.832; 2024.057;   -5.081;   -9.854
694.099;  299.459; -643.081; -642.855
694.366;  -32.489; -882.081; -896.855
694.633;  -23.211; -920.080; -633.855
694.900;  745.016; 4367.920; -114.856
695.167;  629.043; -214.080; -380.856
695.434;  180.445; -646.080; -623.856
695.701;  247.897;  121.921;  -61.857
695.968;  664.799; -365.079; -361.857
696.234; 1160.277; -415.079; -646.858
696.501;11904.754; -776.079; -614.858
696.768; 6565.481; -554.079; -617.858
697.035;  405.008; -632.078; -667.859
697.302;   81.260; -448.078; -552.859
697.568;   34.537; -458.078; -497.859
697.835;  -24.185; -683.078; -624.860
698.102;  -12.383; -498.078; -407.860
698.368;   86.694;  384.923;  396.139
698.635;  -17.229;  -47.077; -424.861
698.901;    1.373; -240.077; -348.861
699.168;  141.800; -534.077; -456.862
699.435;  121.178;  -72.077;  -13.862
699.701;  -84.020; -868.076; -764.862
699.968;   25.657;  144.924; -441.863
700.234;  -75.566; -783.076; -822.863
700.500;  -43.689; -448.076; -539.864
700.767;    7.863;   -1.075;   26.136
701.033; -116.734;-1015.075; -963.864
701.299;  -42.282; -450.075; -483.865
701.566;  116.720;  950.925;  763.135
701.832;   40.172;  -31.075;  -76.865
702.098;  -69.326;-1054.074;-1034.866
702.365;  -48.424;-1098.074;-1030.866
702.631;   34.929;-1038.074;-1063.867
702.897; 1771.306; -765.074; -676.867
703.163; 3241.608;  348.926;  254.133
703.429;  260.135; -256.073; -273.868
703.695;    9.462; -796.073; -792.868
703.961;   41.739; -214.073; -210.868
704.227;  -44.833; -630.073; -725.869
704.493;  140.644;  613.927;  510.131
704.759;   -4.879; -565.072; -540.870
705.025;   45.598; -203.072; -194.870
705.291;   12.675; -666.072; -562.870
705.557;  204.302;  719.928;   34.129
705.823;   79.780; -742.072; -694.871
706.089;  181.357; -307.071; -326.871
706.355;  402.509; -315.071; -244.872
706.620; 5921.961; -776.071; -729.872
706.886; 9653.663; -309.071; -362.873
707.152; 1024.915; -818.070; -973.873
707.418;   36.493;-1153.070;-1186.873
707.683;   16.870; -550.070; -530.874
707.949;  -21.203; -547.070; -578.874
708.215;   -3.926; -129.070; -207.874
708.480;    9.601; -520.069; -420.875
708.746;  139.253;   68.931;   28.125
709.011;  -54.769; -578.069; -612.876
709.277;  -61.817; -538.069; -543.876
709.542;  -31.840; -428.069; -387.876
709.808;   13.862;  -59.068;   89.123
710.073;  -68.961; -577.068; -695.877
710.339;  -12.084; -242.068; -228.877
710.604;  127.644; -780.068; -845.878
710.869;  499.221; -277.068; -366.878
711.135;  -56.452; -715.067; -628.879
711.400;  -70.675; -507.067; -608.879
711.665;  -54.498; -404.067; -479.879
711.931;  -68.571; -661.067; -677.880
712.196; -110.218; -876.067; -954.880
712.461;  191.134; -402.066; -490.880
712.726;  300.436; -727.066; -771.881
712.991;  -71.737; -647.066; -664.881
713.256;  -38.435; -350.066; -332.882
713.521;  -55.833; -417.065; -381.882
713.787;  -58.130; -454.065; -472.882
714.052;   -8.003; -214.065; -400.883
714.317;  -78.726;-1045.065; -981.883
714.581; 1160.826; -374.065; -268.883
714.846; 1848.653; -822.064; -888.884
715.111;  163.005;  261.936;  257.116
715.376;  -12.142;  -86.064; -223.885
715.641;   -0.790; -365.064; -367.885
715.906;  480.862;   15.936; -551.885
716.171;  188.489;  221.937;  209.114
716.436;   59.141;  -78.063; -104.886
716.700;  -93.032; -818.063; -692.886
716.965; -116.954; -794.063; -807.887
717.230;  -60.627; -339.063; -392.887
717.494;  -19.550;  -40.062; -134.888
717.759;  -71.423; -784.062; -640.888
718.024;   19.479;  269.938;  250.112
718.288;   83.731;  685.938;  395.111
718.553; -137.466; -803.062; -977.889
718.817; -136.314; -883.061; -899.889
719.082;  -27.387; -115.061; -125.890
719.346; -130.010;-1000.061; -947.890
719.611;  -41.808; -300.061; -255.891
719.875;  -84.156; -568.060; -537.891
720.140;  -59.353; -453.060; -603.891
720.404;   70.124; -136.060; -249.892
720.668; 1248.701; -475.060; -411.892
720.933;  546.703;  146.940;  137.108
721.197;  -78.270; -667.059; -600.893
721.461; -127.968; -851.059; -826.893
721.725;   -3.540;  -21.059; -250.894
721.990;  -58.638; -284.059; -204.894
722.254;  -35.961;  -26.059; -108.894
722.518;  -68.559; -286.058; -442.895
722.782;  -72.732; -743.058; -594.895
723.046;  159.120;  614.942;  570.105
723.310;   35.998;  374.942;  210.104
723.574;  -88.225; -654.058; -614.896
723.838;  -95.873; -576.057; -642.897
724.102;  -40.571; -226.057; -239.897
724.366; -127.469;-1032.057; -978.897
724.630;  -85.042; -749.057; -571.898
724.894;  -63.789; -722.057; -514.898
725.158;   -6.587;   38.944; -295.898
725.422;  -48.710; -394.056; -327.899
725.685;  -52.158; -441.056; -349.899
725.949;  -53.906; -566.056; -519.900
726.213;  -45.454; -732.056; -811.900
726.477;  342.299;-1020.055; -933.900
726.740;  246.626; -274.055; -104.901
727.004;  429.153; -384.055; -510.901
727.268; 4027.055; -442.055; -400.901
727.531; 1315.107; -961.055; -775.902
727.795;  -14.491; -713.054; -673.902
728.059;  -36.988; -552.054; -557.903
728.322;  -54.986; -841.054; -669.903
728.586;   93.516; -692.054; -701.903
728.849;  -48.832; -695.053; -756.904
729.112;  -92.880; -812.053; -912.904
729.376; -110.003; -959.053; -905.904
729.639;  -66.825; -536.053; -536.905
729.903;  -91.023; -733.053; -699.905
730.166;  -41.871; -437.052; -399.906
730.429;  -24.869; -317.052; -468.906
730.693;  -57.242; -355.052; -894.906
730.956;  240.135;  810.948;  651.093
731.219; 1042.963; -310.052; -103.907
731.482;  247.990;-1003.051; -894.907
731.745;  245.817; -794.051; -935.908
732.009;   45.269;  -30.051;   50.092
732.272;  -88.004; -904.051; -771.909
732.535;  -26.952; -300.051; -310.909
732.798; -130.399;-1083.050;-1166.909
733.061;  -45.172; -430.050; -456.910
733.324;   26.180;   31.950; -180.910
733.587;   76.732;  290.950;  365.090
733.850;  -39.841; -973.049;-1050.911
734.113;   42.486;   33.951;   32.089
734.376;   41.764; -328.049; -447.912
734.639;  251.591; 1188.951; 1011.088
734.901;  125.018; -180.049; -402.912
735.164;  736.020; -883.048; -837.913
735.427; 2052.172; -166.048; -355.913
735.690;  191.599; -205.048; -234.913
735.952;   34.152; -923.048; -925.914
736.215;   35.704;-1113.048;-1009.914
736.478;  125.006; -771.047; -774.915
736.740;  309.708;   33.953;  129.085
737.003;  890.560; -658.047; -672.915
737.266; 6070.687;  -94.047;   46.084
737.528;  700.765; -682.047; -660.916
737.791;  441.267; -316.046; -327.916
738.053;  970.594;  465.954;  649.083
738.316;12748.896; -162.046; -136.917
738.578;10570.423; -770.046; -736.918
738.841;  646.750; -382.046; -446.918
739.103;  274.728; -875.045; -777.918
739.365;  727.205;   79.955;  -69.919
739.628;   67.082; -884.045; -805.919
739.890;    8.134; -758.045; -710.919
740.152;  -12.714; -692.044; -754.920
740.414;    8.163; -408.044; -359.920
740.677;  -19.659; -785.044; -634.921
740.939;  -15.557; -587.044; -487.921
741.201;  445.745; -432.044; -572.921
741.463;  139.972; -689.043; -745.922
741.725;   40.199;  -21.043; -199.922
741.987;   64.726;  220.957;  116.078
742.249;   78.929; -751.043; -859.923
742.511;  372.106; -703.043; -794.923
742.773;   87.683; -546.042; -546.924
743.035;  161.285;  796.958;  533.076
743.297;    5.237; -963.042;-1013.924
743.559; 1053.714; -278.042; -262.925
743.821;  184.142; -735.042; -744.925
744.083;   31.944;  -44.041; -149.925
744.345;  -60.404; -869.041; -892.926
744.607;   48.973;   75.959;  122.074
744.868;  -18.725; -490.041; -554.927
745.130;  -79.348; -994.041;-1008.927
745.392;   54.730;   -1.040;  -44.927
745.653;   17.882; -411.040; -378.928
745.915;  175.734;  896.960;  631.072
746.177;   84.811;   35.960;  -43.928
746.438;   46.213; -428.040; -543.929
746.700;    3.640; -947.039; -988.929
746.961;   45.893; -659.039; -740.930
747.223;  208.620; -190.039;  -74.930
747.484;  167.372; -391.039; -471.930
747.746;  228.824;  -23.038; -106.931
748.007;  218.376; -647.038; -689.931
748.269;  448.903; -468.038; -440.931
748.530;  777.881; -852.038; -638.932
748.791;  403.058; -354.038; -420.932
749.053;  601.460;  286.963;  163.067
749.314;  660.087; -236.037; -169.933
749.575;  790.289; -945.037; -905.933
749.836; 1189.216; -217.037;   86.066
750.098; 3105.419;  -60.037;  -21.934
750.359;49438.696;  414.964;  555.066
750.620;15157.373; -121.036; -220.935
750.881; 1493.625; -585.036; -513.935
751.142; 1921.602; -950.036; -938.936
751.403;20863.879; -789.036; -705.936
751.664;11160.032;-1034.035; -999.936
751.925;  703.659; -175.035; -262.937
752.186;  413.286; -298.035; -278.937
752.447;  228.788; -590.035; -445.937
752.708;  130.790; -532.035; -648.938
752.969;   73.192; -566.034; -576.938
753.230;   39.695; -777.034; -672.939
753.491;   46.672; -650.034; -631.939
753.751;  112.224;  109.966;   19.061
754.012;  126.076;  258.967;  181.060
754.273;   98.828; -174.033;  -71.940
754.534;   61.330; -487.033; -580.940
754.794;  -24.167; -926.033; -911.941
755.055;  157.410; 1051.967;  881.059
755.316;  -23.938; -700.032; -566.942
755.576;   -9.536; -606.032; -576.942
755.837;  -19.934; -527.032; -695.942
756.097;   -6.382; -530.032; -564.943
756.358;  -34.254; -725.032; -770.943
756.618;  -26.327; -705.031; -641.943
756.879;   38.050; -254.031; -349.944
757.139;  -83.923;-1098.031;-1116.944
757.400;  -20.446; -538.031; -553.945
757.660;    3.381; -365.031; -401.945
757.920;   69.459; -266.030; -228.945
758.181;   11.936; -468.030; -351.946
758.441;  -59.612; -870.030; -809.946
758.701;   -9.960; -308.030; -215.946
758.961;  -14.333; -220.030; -278.947
759.222;  -29.131; -574.029; -502.947
759.482;  -59.503; -683.029; -723.948
759.742;  -76.076; -706.029; -547.948
760.002;   25.126;  -83.029; -143.948
760.262;   49.403;   50.972;  182.051
760.522;  -14.320; -498.028; -574.949
760.782;  -48.018; -738.028; -612.949
761.042;  -22.340; -618.028; -573.950
761.302;   51.587;   55.972;  -18.950
761.562;   58.189; -164.027; -154.951
761.822;  145.966; -710.027; -551.951
762.082;  -14.632;-1104.027;-1093.951
762.342;   93.120; -328.027; -403.952
762.601;  102.273; -567.027; -506.952
762.861;  452.500; -281.026; -207.952
763.121;  416.477; -406.026; -411.953
763.381; 6681.854; -499.026; -485.953
763.640; 9087.231; -139.026; -307.954
763.900;  392.958; -242.026; -203.954
764.160;   97.361; -458.025; -491.954
764.419;   19.913; -726.025; -782.955
764.679;  -66.210; -795.025; -726.955
764.939;   -7.133; -124.025; -210.955
765.198;  -61.281; -608.025; -563.956
765.458;  -70.154; -710.024; -612.956
765.717;  -77.476; -454.024; -590.957
765.976;  -65.499; -428.024; -411.957
766.236;  -58.472; -475.024; -610.957
766.495;   25.505;  260.977;   73.042
766.755;  -39.118;-1090.023; -987.958
767.014;   50.859; -594.023; -665.958
767.273;  -41.213; -373.023; -397.959
767.533;  -37.036; -228.023; -307.959
767.792;  -25.684; -151.022; -188.960
768.051;  -46.857; -228.022; -276.960
768.310;  -84.205; -546.022; -650.960
768.569;   -9.903; -161.022;    4.039
768.828;  -11.900; -285.022; -363.961
769.088;  -95.998;-1050.021; -942.961
769.347;  -63.921; -755.021; -599.962
769.606;  -84.994; -876.021; -857.962
769.865;  -97.242;-1016.021;-1033.963
770.124;    5.460; -411.021; -336.963
770.383;  -23.912; -778.020; -910.963
770.641;   24.940; -398.020; -400.964
770.900;  -49.133; -953.020; -846.964
771.159;  -25.906; -851.020; -951.964
771.418;    2.221; -917.020; -779.965
771.677;  151.573; -224.019; -293.965
771.936;  173.351; -794.019; -865.966
772.194; 1959.928; -465.019; -437.966
772.453;12763.305; -213.019; -391.966
772.712;  985.832;  416.982;  329.033
772.970;  155.809;   32.982;   63.033
773.229;   86.886;  -22.018;  102.033
773.488;  -80.911; -814.018; -770.968
773.746;   54.316;  296.982;  335.032
774.005;    7.718;  190.983;  -22.969
774.263;   17.045;  243.983;  177.031
774.522;  -42.903; -422.017; -548.969
774.780;  -79.126; -484.017; -417.970
775.039;  -74.923; -551.017; -531.970
775.297;  -26.171; -135.016; -351.970
775.555; -107.694; -489.016; -612.971
775.814; -115.492; -618.016; -570.971
776.072; -107.065; -749.016; -740.971
776.330; -105.188; -630.016; -520.972
776.589; -121.435; -703.015; -721.972
776.847; -112.108; -645.015; -624.973
777.105; -160.406;-1016.015;-1032.973
777.363;  -85.604; -459.015; -454.973
777.621; -123.427; -660.015; -717.974
777.879;  -28.550;  -42.014;   32.026
778.138; -102.197; -554.014; -717.974
778.396;  -98.570; -585.014; -526.975
778.654; -158.443;-1015.014; -970.975
778.912;  -64.016; -269.014; -371.976
779.170; -117.414; -880.013; -803.976
779.427; -139.087; -922.013; -897.976
779.685; -130.084; -880.013; -832.977
779.943;  -57.982; -654.013; -593.977
780.201; -154.380; -964.012; -883.978
780.459; -106.728; -651.012; -610.978
780.717;  -92.726; -440.012; -390.978
780.974; -101.399; -449.012; -490.979
781.232;  -74.221; -358.012; -338.979
781.490;  -52.944; -551.011; -472.979
781.747; -100.542; -555.011; -476.980
782.005;    3.535;  462.989;  254.020
782.263; -161.988; -542.011;-1004.981
782.520;  -94.861; -326.011; -501.981
782.778; -167.908;-1013.010;-1051.981
783.035; -171.331; -962.010; -938.982
783.293;  -66.304; -248.010; -206.982
783.550;  -54.052; -134.010; -198.982
783.808; -129.075; -764.010; -776.983
784.065; -162.648; -745.009; -874.983
784.322;  -50.820;   25.991;  -86.984
784.580; -135.268; -915.009; -771.984
784.837; -102.216; -392.009; -466.984
785.094; -127.489; -783.009; -762.985
785.352;  -52.587; -304.008; -404.985
785.609;  -80.060; -934.008; -839.985
785.866;  -71.257; -345.008; -401.986
786.123;  -53.330; -639.008; -583.986
786.380;  -75.103; -665.008; -604.987
786.637;  -41.851; -225.007; -380.987
786.895;   22.901; -456.007; -543.987
787.152;  -47.697; -135.007; -267.988
787.409;  -48.994; -123.007; -225.988
787.666;  -81.967; -299.006; -378.988
787.923; -100.840; -616.006; -695.989
788.179;  -97.338; -551.006; -584.989
788.436;  -76.136; -585.006; -585.990
788.693;  -28.159;  -92.006;  -87.990
788.950;  202.369; -125.005; -112.990
789.207;  441.246; -381.005; -372.991
789.464;  -35.427; -161.005; -301.991
789.720;   -3.850;  150.995;  110.009
789.977; -165.048;-1003.005; -671.992
790.234;  -36.446;   44.996;  -66.992
790.490; -134.943; -884.004;-1031.993
790.747;  -25.716;  -85.004;   22.007
791.004;    1.711; -426.004; -348.993
791.260;  -66.387; -430.004; -560.994
791.517;  -84.035; -843.003; -788.994
791.773;  -33.133; -379.003; -342.994
792.030; -108.605; -596.003; -660.995
792.286;  -97.028; -686.003; -636.995
792.543;  -15.626;  -74.002; -159.995
792.799;  -47.724; -584.002; -382.996
793.055; -155.047;-1179.002;-1210.996
793.312;  -72.245; -827.002; -816.997
793.568;  -49.442; -746.002; -599.997
793.824;   22.985; -226.001; -284.997
794.081;   35.387; -447.001; -508.998
794.337;   73.064; -664.001; -561.998
794.593; 1146.016; -319.001; -271.999
794.849; 7478.318; -746.001; -772.999
795.105;  459.446; -270.000; -261.999
795.361;   26.723; -490.000; -457.000
795.617;  -48.575; -875.000; -945.000
795.873;  -27.275; -360.000; -407.000
796.129;  -19.075; -368.000; -306.000
796.385;  -18.025; -124.000; -156.000
796.641;   73.175;  412.000;  550.000
796.897;  -67.350; -666.000; -635.000
797.153;   53.550;  453.000;  357.000
797.409;  -87.050; -785.000; -868.000
797.665;  -57.300; -625.000; -732.000
797.921;  -65.550; -775.000; -762.000
798.176;  -41.775; -744.000; -747.000
798.432;  -37.275; -824.000; -596.000
798.688;  -48.600;-1174.000;-1078.000
798.943;   92.025; -165.000; -147.000
799.199;   29.000;-1005.000; -959.000
799.455;  255.925;  369.000;  316.000
799.710;  169.750; -813.000; -380.000
799.966;  362.100; -162.000; -160.000
800.221;  549.550; -638.000; -721.000
800.477;10894.325; -743.000; -710.000
800.732;12540.650; -773.000; -800.000
800.988;  737.150;  205.000;  -19.000
801.243; 1436.675; -454.000; -344.000
801.498; 7836.475; -814.000; -739.000
801.754;  547.575; -289.000; -163.000
802.009;   81.350; -257.000; -335.000
802.264;  -19.375; -967.000;-1033.000
802.520;   36.025;  222.000;   -3.000
802.775;  -41.750; -524.000; -359.000
803.030;   60.425;  395.000;  356.000
803.285; -106.525; -840.000; -903.000
803.540;  -46.100; -686.000; -699.000
803.795;   -8.900; -648.000; -583.000
804.051;  -38.925; -279.000; -346.000
804.306;   14.425;  168.000;  128.000
804.561;  200.300;  451.000;  362.000
804.816;  154.400;  714.000;  861.000
805.071;   17.225; -185.000; -280.000
805.325;  356.000; -257.000; -427.000
805.580;  -66.050; -841.000; -877.000
805.835;   -6.050; -204.000; -297.000
806.090;  -66.625; -760.000; -676.000
806.345;    3.925; -344.000; -264.000
806.600;   -0.450; -549.000; -632.000
806.854;  -18.575; -408.000; -538.000
807.109;   -7.075; -493.000; -577.000
807.364;   16.500; -407.000; -328.000
807.618;   14.125; -415.000; -381.000
807.873;   94.325; -470.000; -494.000
808.128;  129.000; -257.000; -518.000
808.382;  138.575; -224.000; -332.000
808.637;  104.300; -440.000; -511.000
808.891;  221.225; -257.000; -180.000
809.146;  150.100; -902.000; -794.000
809.400;  328.850; -848.000; -923.000
809.654;  436.750; -779.000; -551.000
809.909;  594.000; -841.000; -927.000
810.163; 6986.900; -813.000; -651.000
810.418;23822.900; -940.000; -861.000
810.672; 1411.450; -685.000; -690.000
810.926;  751.825; -993.000; -973.000
811.180; 1279.000; -439.000; -372.000
811.434;26770.850;  240.000;  135.000
811.689;14259.175; -231.000; -365.000
811.943;  749.400; -936.000; -953.000
812.197;  339.650; -893.000; -671.000
812.451;  150.425; -379.000; -514.000
812.705;  -15.300; -809.000; -619.000
812.959;   12.975; -263.000; -388.000
813.213;   12.350; -283.000; -209.000
813.467;   61.075;  470.000;  253.000
813.721;  -94.300; -764.000; -792.000
813.975;  -97.225; -826.000; -877.000
814.229;   40.825;  430.000;  353.000
814.482;  -53.250; -517.000; -566.000
814.736; -103.075; -766.000; -744.000
814.990; -119.775; -779.000; -872.000
815.244;  -44.475; -228.000; -285.000
815.497;  -97.025; -636.000; -601.000
815.751;   -6.050; -141.000;   82.000
816.005;  -71.975; -470.000; -586.000
816.258;  -72.350; -510.000; -363.000
816.512; -103.350; -693.000; -610.000
816.766;   -0.050;  121.000;  157.000
817.019;   20.625;  148.000;  149.000
817.273; -101.350;-1000.000; -802.000
817.526;  -29.725; -206.000; -173.000
817.779;   15.800;-1049.000; -960.000
818.033;  -15.125; -693.000; -807.000
818.286; -112.050; -725.000; -792.000
818.540;  -84.100; -403.000; -403.000
818.793;  -80.025; -402.000; -489.000
819.046; -100.550; -582.000; -520.000
819.299;  -39.325; -157.000; -166.000
819.553;  -99.450; -552.000; -592.000
819.806; -150.050;-1016.000; -838.000
820.059;  -59.175; -334.000; -354.000
820.312;   16.600;  152.000;  185.000
820.565;  -15.775;  110.000;  -27.000
820.818;  -42.925;  -59.000; -173.000
821.071; -155.275;-1041.000; -957.000
821.324;  -95.675; -536.000; -540.000
821.577;  -89.225; -457.000; -483.000
821.830;  -70.775; -270.000; -172.000
822.083; -115.225; -733.000; -288.000
822.336;  -54.625; -261.000; -167.000
822.589; -132.800; -805.000; -688.000
822.842; -144.500; -875.000; -770.000
823.094; -170.900;-1076.000;-1114.000
823.347; -124.025; -925.000; -729.000
823.600;   16.250;  402.000;  187.000
823.853;  -42.025; -311.000; -267.000
824.105;  -64.025; -331.000; -575.000
824.358;  -92.800; -617.000; -716.000
824.611;   37.725;  234.000;   40.000
824.863;  -23.875; -612.000; -591.000
825.116;   65.750;  -33.000;   27.000
825.368;  133.900; -366.000; -372.000
825.621;  232.975; -186.000; -240.000
825.873;  151.350; -704.000; -737.000
826.126;  655.450; -669.000; -641.000
826.378;13713.300; -389.000; -505.000
826.630; 4667.150; -890.000; -898.000
826.883;  128.600; -754.000; -693.000
827.135;   86.625; -279.000; -270.000
827.387;  -85.350; -893.000; -839.000
827.639;  -30.475;  -86.000;   32.000
827.892; -114.950; -742.000; -582.000
828.144; -133.700; -848.000; -804.000
828.396;  -21.675;  104.000;  -80.000
828.648;  -86.000; -440.000; -333.000
828.900; -136.975; -702.000; -795.000
829.152; -116.225; -684.000; -683.000
829.404;  -57.725; -215.000; -267.000
829.656;   -5.625;  321.000;  214.000
829.908;  -22.600;  393.000;  229.000
830.160; -171.375;-1064.000;-1047.000
830.412;  -73.100; -481.000; -430.000
830.664; -113.425; -557.000; -665.000
830.916;  -70.475; -268.000; -206.000
831.167; -160.125;-1073.000; -951.000
831.419;  -97.700; -623.000; -566.000
831.671; -145.875; -764.000; -809.000
831.923;  -89.425; -311.000; -447.000
832.174;  -75.975; -273.000; -331.000
832.426; -105.350; -493.000; -582.000
832.678; -176.950;-1043.000;-1091.000
832.929; -158.300; -947.000; -935.000
833.181;  -26.900; -575.000; -677.000
833.432;  -48.825;  -59.000; -186.000
833.684;  -33.575;  112.000;  -27.000
833.935; -107.050; -610.000; -566.000
834.187; -126.725; -829.000; -823.000
834.438;  -35.625;  -58.000;  -25.000
834.689;  -70.825; -255.000; -123.000
834.941;  -44.975; -343.000; -244.000
835.192;  -88.325; -590.000; -533.000
835.443;  -81.125; -419.000; -506.000
835.695;  -18.725;  138.000;  -16.000
835.946;  -78.725; -608.000; -378.000
836.197;  -96.500; -599.000; -622.000
836.448;  -86.950; -528.000; -395.000
836.699;  -41.250; -253.000; -341.000
836.950;   -4.625;   72.000;    7.000
837.201; -125.025;-1003.000; -987.000
837.452;  -34.650; -356.000; -170.000
837.703;  -79.100; -791.000; -737.000
837.954;  -28.075; -205.000; -365.000
838.205;  -60.200;-1029.000;-1008.000
838.456;  268.525; -196.000; -282.000
838.707;   59.525; -423.000; -519.000
838.958;   46.425; -634.000; -647.000
839.209;  394.500;   18.000;   40.000
839.460;  178.650; -439.000; -201.000
839.710;  243.975; -135.000; -297.000
839.961;  544.150;  730.000;  612.000
840.212;  463.500; -382.000; -497.000
840.462; 1310.000; -328.000; -277.000
840.713;20613.425; -571.000; -536.000
840.964;11131.100;  -62.000; -143.000
841.214;  737.175; -384.000; -624.000
841.465;  772.600; -214.000; -141.000
841.715;  702.850; -417.000; -380.000
841.966;  879.925; -746.000; -685.000
842.216; 9477.500; -330.000; -431.000
842.466;46701.325; -169.000; -313.000
842.717; 3635.850; -964.000; -952.000
842.967;  460.850; -635.000; -641.000
843.217;  396.800;   20.000;   28.000
843.468;  114.550; -104.000; -132.000
843.718;    7.225; -718.000; -726.000
843.968;  -65.325; -837.000; -765.000
844.218;   65.275; -315.000; -262.000
844.469;   -2.325; -577.000; -561.000
844.719;  -92.400; -537.000; -682.000
844.969;  -78.225; -550.000; -580.000
845.219; -127.925; -814.000; -862.000
845.469;  -77.000; -392.000; -342.000
845.719; -131.825; -792.000; -884.000
845.969;   -1.475;  119.000;  174.000
846.219; -108.450; -738.000; -720.000
846.469;   18.400;  464.000;  432.000
846.718;  -46.950; -115.000;   31.000
846.968; -120.575; -827.000; -827.000
847.218;  -28.475; -224.000; -371.000
847.468;   -2.800; -586.000; -555.000
847.718; -135.675; -827.000; -798.000
847.967; -133.575; -826.000; -915.000
848.217;  -69.450; -449.000; -569.000
848.467;  -51.050; -405.000; -376.000
848.716;  -96.150; -708.000; -725.000
848.966;   34.900; -372.000; -358.000
849.215;  -34.800; -428.000; -419.000
849.465;  -94.625; -785.000; -615.000
849.714; -101.000;-1132.000;-1150.000
849.964;  -49.600; -551.000; -613.000
850.213;   -5.050; -393.000; -355.000
850.463;  100.950;  137.000;  340.000
850.712;   35.475; -542.000; -567.000
850.961;   64.600; -739.000; -678.000
851.211;  172.575; -513.000; -504.000
851.460;  246.000; -635.000; -650.000
851.709;  686.675;  -25.000;   18.000
851.958;11248.425; -912.000; -750.000
852.208;18437.900; -859.000; -879.000
852.457;  753.475; -181.000;  -13.000
852.706;  148.300; -791.000; -823.000
852.955;   66.600; -507.000; -528.000
853.204;  -46.825; -521.000; -461.000
853.453;  -66.200; -418.000; -458.000
853.702; -118.475; -660.000; -750.000
853.951;  -85.925; -532.000; -520.000
854.200; -116.000; -613.000; -562.000
854.449; -116.350; -695.000; -661.000
854.698;  -94.425; -340.000; -279.000
854.946;  -71.825; -181.000; -284.000
855.195; -152.025; -843.000; -868.000
855.444;  -90.750; -395.000; -420.000
855.693; -118.500; -345.000; -432.000
855.941; -106.350; -387.000; -516.000
856.190;  -40.650; -256.000; -382.000
856.439; -116.900; -652.000; -703.000
856.687;  -48.900;  -99.000;  -72.000
856.936; -113.225; -621.000; -323.000
857.184; -172.000;-1067.000;-1020.000
857.433; -115.050; -423.000; -512.000
857.681; -165.325; -989.000; -953.000
857.930;  -66.900; -282.000; -433.000
858.178; -166.450; -856.000; -929.000
858.427; -145.750; -802.000; -781.000
858.675; -120.875; -377.000; -544.000
858.923; -110.450; -527.000; -819.000
859.172; -172.950;-1094.000;-1070.000
859.420;  -74.050; -339.000; -239.000
859.668; -133.525; -624.000; -628.000
859.916;  -33.525;  109.000;  115.000
860.164;  -90.775; -699.000; -603.000
860.413;  441.275; -878.000; -696.000
860.661;  524.350; -709.000; -577.000
860.909;  -61.425; -339.000; -325.000
861.157;  -70.600; -277.000; -444.000
861.405; -114.125; -534.000; -670.000
861.653;   20.075;  310.000;  310.000
861.901;  278.800; -543.000; -613.000
862.149;  137.375; -801.000; -824.000
862.396;  -55.925; -297.000; -187.000
862.644;  -89.925; -368.000; -347.000
862.892;  -37.150;   98.000;  138.000
863.140; -114.975; -549.000; -530.000
863.388; -155.250; -815.000; -759.000
863.635; -130.275; -642.000; -601.000
863.883;  -11.675;  231.000;  190.000
864.131;  -97.550; -288.000; -357.000
864.378; -131.100; -675.000; -540.000
864.626; -106.825; -347.000; -415.000
864.873; -116.875; -556.000; -505.000
865.121; -147.200; -714.000; -799.000
865.368;  -50.475; -173.000;   75.000
865.616;  -47.200;  -33.000;  -40.000
865.863;  -72.750; -462.000; -506.000
866.111; -105.800; -795.000; -824.000
866.358;   30.800; -426.000; -420.000
866.605; 2128.200;  -64.000; -804.000
866.853; 2881.375; -621.000; -537.000
867.100;  -16.425; -728.000; -775.000
867.347;  -95.650; -672.000; -611.000
867.594;  -76.475; -740.000; -714.000
867.841;  125.950;   97.000;   17.000
868.089; -136.050; -746.000; -698.000
868.336; -102.825; -477.000; -420.000
868.583; -138.275; -637.000; -741.000
868.830;  -59.675; -131.000; -170.000
869.077; -158.350; -859.000; -787.000
869.324; -132.600; -502.000; -458.000
869.571; -136.375; -398.000; -430.000
869.818; -115.025; -485.000; -439.000
870.065;  -94.025; -439.000; -513.000
870.311; -113.025; -456.000; -542.000
870.558; -105.375; -332.000; -311.000
870.805;  -91.150; -320.000; -384.000
871.052; -106.450; -494.000; -369.000
871.298;  -38.900; -204.000; -131.000
871.545;  -58.400; -151.000; -185.000
871.792;  -88.600; -173.000; -222.000
872.038;  -81.525;   43.000; -126.000
872.285; -110.025; -496.000; -387.000
872.532; -103.750; -357.000; -387.000
872.778;   -6.950;  556.000;  403.000
873.025;  -92.575; -384.000; -359.000
873.271;   18.325;  501.000;  578.000
873.517;  -17.775; -133.000; -209.000
873.764;  -19.000; -193.000;  -80.000
874.010;  -59.700; -143.000; -230.000
874.257;  -40.075;  123.000;   90.000
874.503; -131.800; -579.000; -479.000
874.749;  -77.825;   31.000;  275.000
874.995;  -76.975;  -80.000;  -20.000
875.242; -131.975; -540.000; -478.000
875.488; -104.750; -414.000; -439.000
875.734;  -51.000; -106.000; -234.000
875.980;  325.225; -872.000;-1032.000
876.226;  686.625; -157.000; -255.000
876.472;    4.600;  343.000;  237.000
876.718;  -41.075;  184.000;  158.000
876.964;  -42.525;   56.000;   55.000
877.210; -143.300; -547.000; -677.000
877.456; -139.650; -630.000; -557.000
877.702; -166.425; -821.000; -832.000
877.948; -113.725; -377.000; -497.000
878.193;   -5.725;  361.000;  255.000
878.439;  -84.975; -487.000; -472.000
878.685;  -90.825; -272.000; -343.000
878.931; -125.950; -618.000; -676.000
879.176;  -89.825; -201.000; -201.000
879.422; -175.450; -933.000; -820.000
879.668;   48.750;   10.000;   79.000
879.913;  234.825;   53.000;  137.000
880.159;  -48.275; -112.000;  -17.000
880.404;  -57.525; -152.000; -162.000
880.650;  -46.675;   91.000;  141.000
880.895; -154.900; -670.000; -710.000
881.141; -119.525; -454.000; -428.000
881.386; -137.925; -503.000; -658.000
881.631;  -75.725; -311.000; -166.000
881.877;  -28.875;  112.000;  -13.000
882.122; -130.800; -684.000; -600.000
882.367;  -83.575; -136.000; -186.000
882.612;  -69.100;  -80.000; -176.000
882.858; -162.300; -877.000; -823.000
883.103; -101.000; -297.000; -267.000
883.348; -156.150; -759.000; -852.000
883.593; -151.575; -677.000; -602.000
883.838;  -51.575; -311.000;  -24.000
884.083;   35.750;  353.000;  288.000
884.328;  -93.500; -564.000; -545.000
884.573;  -43.250; -196.000; -143.000
884.818;  291.000; -694.000; -531.000
885.063;  390.600; -348.000; -315.000
885.308;  -86.125; -475.000; -398.000
885.553;  -31.875;  245.000;  325.000
885.797; -118.400; -545.000; -615.000
886.042;  -63.800;    8.000;   58.000
886.287;  -79.900; -253.000; -211.000
886.532;  -51.600;   26.000;  204.000
886.776; -108.625; -407.000; -525.000
887.021; -158.425; -621.000; -574.000
887.265; -136.075; -685.000; -689.000
887.510; -149.175; -557.000; -496.000
887.755;  -88.975; -194.000; -164.000
887.999; -135.775; -552.000; -575.000
888.244;  -70.375;  -58.000;  161.000
888.488;  -20.625;  371.000;  393.000
888.732; -130.325; -368.000; -520.000
888.977; -132.025; -622.000; -567.000
889.221; -135.350; -683.000; -659.000
889.465; -122.450; -422.000; -566.000
889.710;  -81.100;  -56.000; -299.000
889.954;   -5.475;  579.000;  467.000
890.198; -148.225; -584.000; -707.000
890.442; -161.550; -716.000; -712.000
890.687; -162.150; -800.000; -753.000
890.931; -107.675; -273.000; -210.000
891.175; -131.925; -502.000; -500.000
891.419;  -83.875; -105.000; -110.000
891.663;  -97.650; -239.000; -112.000
891.907; -151.850; -801.000; -545.000
892.151; -170.800; -920.000; -815.000
892.395; -120.725; -274.000; -387.000
892.638;  -29.550;  408.000;  291.000
892.882; -166.950; -780.000; -867.000
893.126;    1.575;  758.000;  558.000
893.370;  -90.650; -167.000; -168.000
893.614; -146.825; -714.000; -715.000
893.857;  -99.000; -183.000; -197.000
894.101; -134.325; -527.000; -631.000
894.345;  -68.400;  300.000;  150.000
894.588;   13.550;  569.000;  380.000
894.832;  -93.025; -178.000;  -84.000
895.075;  -87.250;   15.000;  -92.000
895.319; -138.375; -552.000; -420.000
895.563; -131.800; -413.000; -353.000
895.806; -131.450; -628.000; -741.000
896.049;  -47.850; -576.000; -368.000
896.293;  141.900;  527.000;  405.000
896.536;  -25.950; -465.000; -468.000
896.779;  -59.075; -149.000;   -1.000
897.023; -127.550; -751.000; -714.000
897.266;  -35.425;  325.000;  269.000
897.509; -171.450; -900.000; -901.000
897.752;  -51.775;  149.000;  171.000
897.996; -190.375; -972.000; -864.000
898.239;  -54.200;  168.000;  102.000
898.482; -119.175; -431.000; -453.000
898.725;  -25.050;  101.000;   53.000
898.968; -149.200; -609.000; -744.000
899.211; -106.925; -513.000; -361.000
899.454; -102.600; -633.000; -539.000
899.697;  -80.875;   90.000;  -43.000
899.940; -165.325; -761.000; -757.000
900.182; -113.900; -335.000; -405.000
900.425; -104.875; -150.000; -298.000
900.668;  -29.375;  491.000;  350.000
900.911; -109.850; -292.000; -345.000
901.154;  -55.900;  141.000;   -3.000
901.396; -131.850; -407.000; -412.000
901.639; -146.550; -430.000; -496.000
901.882; -178.575; -790.000; -809.000
902.124;  -91.325;  -29.000; -143.000
902.367; -120.975; -315.000; -361.000
902.609; -133.025; -476.000; -453.000
902.852;  -77.200; -108.000; -260.000
903.094; -138.825; -458.000; -337.000
903.337;  -71.675;  -26.000;   53.000
903.579; -111.750; -228.000; -441.000
903.821; -156.275; -597.000; -744.000
904.064;  -63.075;   85.000;  127.000
904.306;  -88.525; -126.000; -166.000
904.548; -107.650; -152.000; -366.000
904.790; -113.025; -195.000; -340.000
905.033; -117.425; -625.000; -577.000
905.275; -122.825; -513.000; -524.000
905.517;   44.800;  468.000;  256.000
905.759;  -22.525; -667.000; -761.000
906.001;  -79.350; -322.000; -369.000
906.243;  -37.325; -162.000; -224.000
906.485;  193.575; -265.000; -207.000
906.727;  279.200; -499.000; -542.000
906.969;    2.750;  -30.000; -135.000
907.211;  195.250; -316.000; -382.000
907.453;  450.825; -188.000; -237.000
907.695;   93.450; -158.000; -385.000
907.936;   64.750;  818.000;  706.000
908.178;  -51.300;   92.000; -135.000
908.420;  -71.100; -111.000; -162.000
908.662; -126.425; -633.000; -682.000
908.903;  -86.250; -208.000; -123.000
909.145;  -57.375; -240.000; -305.000
909.386;   -1.850;  315.000;  280.000
909.628;   30.500;  363.000;  397.000
909.870;  -12.225;   29.000;  264.000
910.111;  -88.325; -809.000; -949.000
910.353;   13.750; -123.000; -161.000
910.594;   17.000; -574.000; -606.000
910.835;   80.975; -265.000; -326.000
911.077;  195.575; -503.000; -604.000
911.318;  286.175; -505.000; -471.000
911.559;  473.050; -577.000; -880.000
911.801; 1273.050; -284.000; -280.000
912.042; 9243.525;  -50.000; -159.000
912.283;28704.225;  404.000;  371.000
912.524; 5770.650; -396.000; -457.000
912.765;  589.975; -193.000;   79.000
913.006;  278.975; -307.000; -338.000
913.247;   67.700; -270.000; -290.000
913.488;    7.600;  -43.000;   30.000
913.729;  -78.450; -373.000; -373.000
913.970;  -61.650;  -96.000; -292.000
914.211;  -70.500; -160.000; -198.000
914.452;  -58.750; -118.000;  -11.000
914.693;   16.125;  510.000;  592.000
914.934;    4.675;  510.000;  440.000
915.175;  -78.750;   53.000;  -95.000
915.415;  -75.800; -137.000;   27.000
915.656;  -69.700;  -28.000;  192.000
915.897;  -80.250; -252.000;  -82.000
916.137;  -66.050;   74.000;   -9.000
916.378; -135.100; -573.000; -517.000
916.619;  -73.675; -159.000;  -63.000
916.859;  -28.600;  303.000;  330.000
917.100;  120.875; 1655.000; 1070.000
917.340;   49.025;  930.000;  728.000
917.581;   45.475;  965.000;  789.000
917.821;    2.375; -171.000;  143.000
918.061;   60.400; -199.000;  -72.000
918.302;  -30.175; -152.000; -211.000
918.542;  -22.600;  -22.000;    3.000
918.782;   47.850;  369.000;  377.000
919.023;  168.575;  360.000;  427.000
919.263; 1470.225; 8131.000;  202.000
919.503; 1693.650; -137.000;  -54.000
919.743;  951.325;  390.000;  266.000
919.983;  493.275; -134.000;  -26.000
920.223;  137.800;  135.000;   14.000
920.463;  171.700;  631.000;  554.000
920.703;  171.500;   84.000;   39.000
920.943;  215.875; -110.000;   90.000
921.183;  286.875; -414.000; -405.000
921.423;  583.700;  307.000;  546.000
921.663;  845.275; -174.000; -257.000
921.903; 1746.825;  237.000;  173.000
922.143; 9053.825;  372.000;  389.000
922.383;37936.325;  158.000;  115.000
922.622;16729.475; -120.000;  -15.000
922.862; 1708.375;  796.000;  785.000
923.102;  593.975;  -51.000;   33.000
923.341;  248.675;   59.000;   74.000
923.581;  115.025;  450.000;  360.000
923.821;   40.075;  301.000;  398.000
924.060;   17.325;  351.000;  193.000
924.300;  -46.300;  -16.000; -128.000
924.539;  -15.500;  584.000;  473.000
924.779;   22.350;  812.000;  597.000
925.018;  -42.175;  247.000;  353.000
925.257;  -20.850;  595.000;  666.000
925.497;  -49.825;  447.000;  412.000
925.736;  -76.975;  -35.000;  102.000
925.975;   -5.350;  687.000;  669.000
926.214;   34.825;  907.000;  850.000
926.454;   10.700;  706.000;  757.000
926.693;  -40.500;  419.000;  543.000
926.932;   34.025; 1021.000;  825.000
927.171;   73.150; 1107.000; 1044.000
927.410;   41.550; 1144.000;  967.000
927.649;   38.100;  924.000;  742.000
927.888;    0.425;  590.000;  564.000
928.127;   -1.300;  680.000;  678.000
928.366;   30.025;  842.000;  826.000
928.605;   43.750;  831.000;  737.000
928.844;  265.975; 1451.000; 1393.000
929.083;  795.250;  770.000;  613.000
929.321;  482.675; 1335.000; 1359.000
929.560;   99.475; 1158.000; 1122.000
929.799;  -21.950;  574.000;  475.000
930.038;   85.825; 1025.000; 1394.000
930.276;  -32.050;  334.000;  397.000
930.515;   -4.800;  827.000;  681.000
930.753;   -3.050;  614.000;  589.000
930.992;  -27.550;  664.000;  717.000
931.230;    7.275;  847.000;  847.000
931.469;  168.050; 2162.000;  892.000
931.707;   62.850;  840.000;  751.000
931.946;   49.600; 1278.000; 1344.000
932.184;   47.275; 1437.000; 1175.000
932.423;   43.850; 1265.000;  963.000
932.661;  105.825; 1296.000; 1428.000
932.899;   35.725;  987.000;  821.000
933.137;   37.000;  754.000;  564.000
933.376;  171.300; 1664.000; 1335.000
933.614;  188.500; 1759.000; 1196.000
933.852;   60.425; 1357.000; 1171.000
934.090;  114.050; 1722.000; 1747.000
934.328;   98.325; 1252.000; 1457.000
934.566;  108.700; 1431.000; 1110.000
934.804;  134.800; 1263.000; 1309.000
935.042;  479.175; 1861.000; 1850.000
935.280; 1827.450; 2088.000; 2063.000
935.518; 2098.500; 2113.000; 2007.000
935.756;  468.850; 2481.000; 2316.000
935.994;  196.350; 1808.000; 1751.000
936.231;  391.200; 2890.000; 2950.000
936.469;  209.150; 2367.000; 2378.000
936.707;  179.050; 2220.000; 2167.000
936.945;  244.075; 2825.000; 2882.000
937.182;  201.875; 2679.000; 2741.000
937.420;  326.150; 3602.000; 3031.000
937.657;  467.300; 3365.000; 3478.000
937.895;  414.750; 3331.000; 3488.000
938.133;  318.500; 3540.000; 3528.000
938.370;  339.475; 3896.000; 4191.000
938.607;  399.725; 4488.000; 4205.000
938.845;  544.000; 5587.000; 5549.000
939.082;  479.275; 5387.000; 5177.000
939.320;  534.675; 5799.000; 5728.000
939.557;  647.475; 6549.000; 6491.000
939.794;  728.000; 7285.000; 7097.000
940.031;  935.900; 8421.000; 8368.000
940.269; 1172.075; 9552.000; 9107.000
940.506; 1145.600;10901.000;10507.000

