
Integration time [ms]: 200.000
Averaging Nr. [scans]: 10
Smoothing Nr. [pixels]: 0
Data measured with spectrometer [name]: 2101013U2
Wave   ;Sample   ;Dark     ;Reference
[nm]   ;[counts] ;[counts] ;[counts] 

394.013;  -64.345; -450.257; -315.536
394.305; -119.945; -461.258; -419.536
394.596; -168.356; -676.269; -527.514
394.887; -182.854; -796.268; -654.518
395.178;   23.649;  145.736;   11.476
395.470;  -57.650; -210.263; -356.526
395.761;  115.847;  305.734;  394.479
396.052; -126.770; -545.284; -306.489
396.343; -127.962; -557.276; -454.503
396.634;  -84.566; -200.279; -290.497
396.926; -132.955; -618.268; -565.517
397.217;   11.638;   11.725;  -17.504
397.508;  -65.960; -366.273; -154.507
397.799; -154.166; -555.279; -571.497
398.090; -231.766; -973.280; -902.495
398.381;   33.422;   11.708;  -11.473
398.672; -171.378; -585.292; -742.473
398.963; -108.665; -348.279; -373.498
399.254;   17.823;   54.709; -209.475
399.545; -232.853;-1017.266; -883.520
399.836;  -81.163; -407.277; -343.501
400.127;  -20.180; -205.295; -209.468
400.418;  -93.161; -423.274; -392.506
400.709;  -64.868; -359.281; -333.493
401.000;  -15.276; -268.291; -309.476
401.290;   73.713;  225.698;  115.545
401.581;  -27.172; -166.286; -228.485
401.872; -129.683; -542.298; -486.462
402.163;  -42.681; -313.296; -252.467
402.454;  -45.377; -123.291; -163.475
402.744; -211.482; -844.297; -813.465
403.035;  -94.779; -226.293;  -86.471
403.326;  -80.977; -366.292; -384.474
403.617;   73.016;  204.701;  165.539
403.907; -134.769; -593.283; -679.490
404.198; -137.592; -545.307; -599.446
404.489; -115.169; -618.283; -588.491
404.779; -188.787; -618.302; -660.456
405.070;    0.811;  -67.304; -174.451
405.360;  -45.879; -259.293; -238.472
405.651;   64.814;  125.699;   98.542
405.942;   40.728;  209.714;  127.516
406.232; -108.071; -432.285; -413.487
406.523;  231.621;  641.706;  758.530
406.813; -159.472; -579.286; -644.484
407.104;   95.122;  261.708;  144.527
407.394; -161.684; -604.299; -591.462
407.685;   58.929;  336.715;  222.513
407.975; -104.469; -400.283; -382.490
408.265;  -31.375; -134.289; -190.478
408.556; -109.377; -472.291; -459.475
408.846;  150.821;  474.706;  429.530
409.137;    9.026;   -1.288; -216.480
409.427;  -94.471; -193.285; -271.487
409.717; -188.360; -776.273; -692.508
410.007;   -3.271;    4.715; -170.486
410.298; -109.180; -360.295; -342.469
410.588; -135.371; -495.285; -510.486
410.878; -211.173; -792.287; -873.482
411.168; -129.583; -481.298; -478.463
411.459;  -55.969; -295.283; -242.489
411.749; -171.677; -609.292; -507.474
412.039; -184.374; -755.289; -386.480
412.329;   58.136;   40.722;  132.501
412.619;  -55.772;  -62.286; -148.485
412.909;  174.225;  639.711;  594.521
413.199;  -37.766; -130.280; -251.495
413.490;  112.824;  521.710;  352.523
413.780; -233.666;-1013.279; -913.496
414.070;   32.438;  -46.276;  235.497
414.360; -154.765; -729.278; -666.498
414.650; -193.473; -726.288; -688.482
414.940; -120.466; -538.280; -441.496
415.230;   20.326;   50.712;   74.519
415.520;   46.244;  155.730;   66.486
415.809;  -30.468; -305.281; -125.493
416.099; -149.363; -388.277; -229.501
416.389;  124.339;  435.726;  236.494
416.679;   38.351;   91.738;   85.473
416.969; -114.973; -527.287; -503.483
417.259;   82.534;  341.721;  171.503
417.549;   93.432;  522.718;  318.508
417.838;  -22.154; -205.268; -147.518
418.128;  166.925;  650.710;  492.522
418.418; -161.959; -491.272; -579.509
418.708;   23.939;    9.726;  -48.506
418.997; -117.261; -474.275; -480.505
419.287; -226.960; -733.273; -790.507
419.577;  -48.269; -160.283; -123.489
419.866; -149.363; -588.277; -498.501
420.156;  -51.657; -242.270;  -55.513
420.446;  -19.150; -112.263;  -26.526
420.735; -130.357; -376.271; -446.512
421.025;  531.835; 1830.722;  315.502
421.314;  -36.458; -203.271; -226.512
421.604;   33.545;   89.732;  233.484
421.893; -187.058; -705.271; -602.511
422.183; -128.350; -487.263; -461.526
422.472;  -42.658;  -36.271; -107.511
422.762; -113.852; -416.266; -379.521
423.051; -251.362; -916.276; -916.503
423.341; -140.360; -491.273; -439.507
423.630;   -4.552; -121.265;   15.477
423.919;   -0.661;   58.725;   49.495
424.209;   -7.550;  -31.263;   56.473
424.498;    6.445;   68.732;  161.483
424.787; -148.954; -535.267; -601.518
425.077;   13.548;   34.735;   29.478
425.366; -185.549; -734.262; -744.528
425.655;  146.840;  639.727;  259.493
425.945;  -90.935; -313.247; -268.554
426.234;    7.753;  117.741;  300.467
426.523;  -66.846;  -86.259; -350.534
426.812;   82.747;  107.734;  159.480
427.101;    2.844; -127.269; -323.515
427.390;    0.344;  -55.270;  -86.514
427.680; -122.444; -624.257; -411.538
427.969;  -78.243; -330.255; -301.540
428.258; -134.045; -385.257; -477.536
428.547;   77.542;  449.728;  397.490
428.836; -130.541; -421.253; -398.543
429.125;  -66.746; -199.259;  -72.534
429.414;  -84.338; -330.251; -294.548
429.703;  -82.038; -231.251; -213.548
429.992; -252.838; -938.250; -828.549
430.281; -120.851; -397.264; -331.524
430.570;    1.061;  -21.252;   32.454
430.859;   49.454;  279.741;  352.466
431.148;  173.365;  636.752;  631.446
431.437;   82.960;  391.748;  367.454
431.725; -127.145; -544.257; -481.536
432.014; -256.140; -845.253; -756.545
432.303;  -31.627; -149.239; -105.569
432.592; -112.050; -460.263; -178.525
432.881; -186.035; -601.248; -437.554
433.169;  -54.243; -343.255;  -61.540
433.458;  131.776;  445.765;  540.424
433.747; -126.148; -397.261; -289.529
434.036; -115.330; -275.242; -280.564
434.324; -126.837; -395.249; -379.551
434.613;   24.469;   40.757;  159.437
434.902;   94.872;  333.760;  439.433
435.190;   17.973;   75.761;  295.431
435.479;  -54.833;  -52.245;   83.441
435.767; -116.632; -411.244; -427.561
436.056; -112.030; -340.242; -294.563
436.345; -113.628; -372.240; -223.568
436.633;   58.563;   60.750;  383.450
436.922;   90.172;  208.760;  414.432
437.210;  -66.225; -194.236;    1.426
437.499; -173.924; -583.235; -432.576
437.787;  -67.625; -339.236;  -10.574
438.075;   15.073;   56.761;  162.430
438.364;  -21.426;  -44.238;  250.429
438.652;  -60.115; -286.226; -138.592
438.941;    4.581;    3.770;  269.415
439.229; -168.640; -665.252; -466.545
439.517;  -87.123; -160.234;  -85.577
439.806; -178.313; -501.225; -290.595
440.094;   74.578;  377.766;  650.421
440.382; -170.422; -653.233; -302.580
440.670; -109.724; -361.235; -285.576
440.959; -153.512; -347.223; -170.599
441.247;  -53.918; -151.229; -109.587
441.535;  -88.123; -266.235;   31.423
441.823; -179.222; -497.234; -305.578
442.111;   55.183;  173.771;  327.412
442.400; -154.933; -628.245; -335.559
442.688;  -47.322; -111.234; -620.579
442.976; -240.302; -786.213; -450.617
443.264; -124.113; -324.224; -364.597
443.552;  -63.715; -258.226;   51.408
443.840;  146.777;  602.765;  876.423
444.128;   57.478;  265.767;  269.420
444.416; -172.417; -694.228; -312.588
444.704; -113.008; -465.219;  -92.605
444.992;  -54.615;   -0.226;  240.407
445.280; -130.219; -517.230;  -94.585
445.568; -170.502; -694.212; -396.618
445.856;  -62.510; -174.221;  357.398
446.143;  -59.009;  -54.220;   -7.604
446.431;   23.283;  -25.228;  625.411
446.719;  156.594;  489.783;  675.391
447.007;  131.480;  481.769;  705.416
447.295;  121.388;  597.777;  871.402
447.583; -105.418; -464.229;  -34.587
447.870; -120.910; -434.221; -202.601
448.158;  -23.419; -104.230;  129.415
448.446; -203.609; -800.219; -338.604
448.733;  -70.113;   13.776;  269.403
449.021;    6.598;   60.788;  341.382
449.309;  -66.800; -296.210;  208.379
449.596;   31.493;  128.783;   59.392
449.884; -175.511; -571.222; -325.600
450.172; -228.616; -756.227; -406.590
450.459;  154.096;  645.786;  780.387
450.747; -155.407; -411.218; -147.608
451.034;  153.683;  493.772;  889.411
451.322; -147.804; -413.214; -170.614
451.609;   22.288;  292.777;  508.403
451.897; -161.793; -550.203; -183.634
452.184; -209.612; -622.223; -400.598
452.472;  -28.698;   97.792;  269.375
452.759;  147.091;  512.781;  864.395
453.047; -127.402; -407.212; -125.617
453.334; -176.008; -732.219; -216.606
453.621; -145.003; -438.214; -161.615
453.909;    3.506;   13.796;  384.368
454.196;  -72.689; -299.199; -123.641
454.483;   20.508;  317.798;  540.364
454.771;  -61.097; -215.208;  196.374
455.058;  -77.497; -316.207;  102.374
455.345;   20.117;   71.807;  344.347
455.632;  -76.497; -128.207;  235.373
455.919;  -44.287;  -82.196;  182.354
456.207; -222.589; -774.198; -450.642
456.494; -146.891; -475.200;  -66.639
456.781; -130.892; -399.202; -198.635
457.068;  -84.396; -253.206;  -29.628
457.355; -190.196; -698.206; -401.629
457.642; -154.195; -552.205; -290.630
457.929; -177.784; -778.194; -417.651
458.216; -192.002; -575.212; -354.617
458.503;  -65.484; -173.193;  -19.652
458.790; -234.898; -864.208; -630.625
459.077;  -46.792;  -77.202;  110.364
459.364; -137.285; -350.195; -210.649
459.651;  -21.196;  -46.206;  220.372
459.938; -238.599; -864.209; -665.623
460.225;   11.809;  132.799;  276.363
460.512; -224.187; -836.197; -688.645
460.799;  -13.007;  -32.218;  320.392
461.086; -125.290; -370.200; -251.640
461.372; -137.889; -509.198; -279.642
461.659;  -16.487; -165.196;  108.354
461.946; -112.084; -445.193;  -54.651
462.233;  204.710;  842.800;  888.361
462.519; -228.791; -814.201; -464.639
462.806; -229.287; -768.197; -497.645
463.093; -121.682; -445.191;  -66.656
463.380; -280.277; -920.186; -824.664
463.666;  -48.587; -259.197;  -18.646
463.953;  -97.986; -406.195; -243.648
464.239;  -69.286; -173.195;  -77.648
464.526;  108.116;  413.806;  743.350
464.813; -150.180; -565.190; -304.658
465.099;   76.016;  606.807;  607.348
465.386;  195.717;  903.807;  921.348
465.672; -215.887; -694.197; -522.645
465.959; -174.578; -598.188; -520.662
466.245; -149.683; -468.193; -359.652
466.532;  -46.586; -109.195;   63.352
466.818;  -78.477; -357.186; -216.664
467.104; -172.273; -488.182; -415.672
467.391; -155.980; -628.189; -459.658
467.677; -101.977; -289.186;    9.335
467.964; -170.779; -682.189; -471.660
468.250;  -84.676; -331.186; -160.665
468.536;    3.320;   90.811;  180.341
468.822; -182.175; -821.184; -574.668
469.109;  129.536;  351.827;  471.311
469.395;  212.118;  729.808;  787.346
469.681;   20.620;   46.811;  156.341
469.967; -170.179; -699.188; -382.660
470.254; -112.978; -494.188; -306.662
470.540; -180.687; -601.196; -476.646
470.826; -125.172; -488.181; -397.675
471.112;   26.925;  288.816;  113.331
471.398;  -43.574; -253.183;  -58.670
471.684; -150.069; -626.177; -447.680
471.970; -286.571; -918.180; -981.675
472.256; -158.882; -521.192; -441.654
472.542; -139.863; -499.171; -434.691
472.828; -180.773; -743.182; -607.672
473.114; -106.358; -380.166; -283.700
473.400; -149.467; -504.175; -293.684
473.686; -127.257; -452.166; -400.701
473.972;  -25.365; -230.174; -131.687
474.258; -247.164; -925.173; -843.689
474.544;  -25.169; -183.178;   -2.679
474.830;  -35.567;  -65.175;   45.316
475.116;  -57.880; -123.190; -196.658
475.401; -144.071; -558.180; -467.676
475.687; -196.071; -725.180; -718.676
475.973; -193.272; -673.181; -770.673
476.259;  144.034;  736.825;  764.315
476.544; -154.768; -539.176; -437.682
476.830; -203.363; -398.172; -322.690
477.116;  -93.068; -430.177; -336.682
477.401;  115.229;  346.820;  358.324
477.687; -134.967; -289.175; -405.684
477.973;  -11.572;   21.819;   28.326
478.258; -133.355; -448.163; -348.706
478.544;  -15.776;   21.815;   61.334
478.829; -214.262; -818.171; -738.692
479.115; -203.663; -749.172; -651.690
479.401; -118.966; -444.174; -449.686
479.686;  -57.271; -253.180;  -74.676
479.972; -231.569; -886.178; -776.680
480.257;  -66.258; -258.166;  -65.700
480.542; -143.762; -614.170; -469.693
480.828;  317.433; 1288.824; 1392.317
481.113; -138.667; -464.176; -426.683
481.399;  -66.753; -236.161; -202.711
481.684; -175.358; -620.166; -462.700
481.969;  -27.151; -158.159;  -73.713
482.255; -151.061; -439.169; -285.695
482.540; -151.569; -569.178; -441.680
482.825; -118.978; -395.187; -404.663
483.110;  -37.360;  -85.169; -105.696
483.396; -179.149; -840.157; -652.718
483.681;  180.735;  543.826;  730.313
483.966; -208.052; -696.160; -700.712
484.251; -141.565; -404.174; -310.687
484.536; -102.457; -356.165; -378.703
484.822;  -94.065; -205.173; -218.687
485.107; -169.545; -599.152; -502.726
485.392;  165.444;  662.836;  541.296
485.677;   55.141;  354.832;  163.302
485.962;   44.951;  160.843;  270.283
486.247;   15.446;  -14.162;   -8.707
486.532; -120.958; -178.166; -325.701
486.817;   76.847;  381.839;  431.291
487.102; -175.847; -453.154; -514.722
487.387; -174.249; -637.156; -652.718
487.672;  -60.256; -154.164;  -38.705
487.957;  -82.853; -394.160; -286.711
488.241;  -98.943; -290.150; -314.729
488.526;  -71.145; -280.152; -148.726
488.811; -260.069; -881.177; -818.680
489.096; -225.246; -666.154; -702.723
489.381;    5.255;    3.847;  162.275
489.666; -140.053; -428.161; -510.710
489.950;  153.454;  558.846;  627.277
490.235; -142.743; -480.151; -458.728
490.520; -191.653; -756.161; -723.710
490.804; -227.248; -827.156; -736.719
491.089; -172.841; -469.149; -299.732
491.374;  -21.256; -132.164;  -75.704
491.658; -209.140; -817.147; -717.735
491.943; -209.044; -657.152; -609.727
492.227;  -56.147; -178.155;  -38.721
492.512; -128.849; -294.157; -341.717
492.797; -199.542; -713.149; -716.731
493.081; -185.740; -588.147; -598.735
493.366; -212.753; -751.161; -635.711
493.650;  198.266;  831.859;  917.254
493.935; -156.940; -648.147; -447.734
494.219; -194.435; -778.142; -687.743
494.503; -181.542; -585.150; -487.730
494.788;    9.250;   46.842;   74.285
495.072;  102.957;  184.850;  434.271
495.356; -119.941; -463.148; -343.733
495.641; -233.039; -812.146; -736.736
495.925; -275.848; -976.156; -903.719
496.209; -158.141; -599.149; -451.732
496.494; -199.435; -763.142; -544.744
496.778;  -89.047; -364.154; -360.722
497.062; -236.348; -819.156; -627.719
497.346; -217.152; -869.160; -640.711
497.631;  153.559;  580.852;  560.266
497.915;   -9.938;  -64.145;  175.261
498.199; -116.449; -341.157; -277.718
498.483; -136.345; -562.152; -508.725
498.767;   82.057;  301.850;  300.271
499.051;  -41.342; -126.149; -100.732
499.335; -201.442; -693.149; -739.731
499.619; -132.523; -381.129; -423.767
499.903;  -65.447; -272.155;  -65.721
500.187; -146.246; -588.153; -316.724
500.471; -250.544; -796.152; -595.727
500.755;  -65.253;   62.839;  -96.710
501.039;  -94.847; -270.155; -357.721
501.323;   41.166;  -21.141;  264.254
501.607; -154.855; -447.163; -503.706
501.891; -168.949; -607.156; -512.718
502.174; -170.437; -726.144; -585.741
502.458;   48.356;   89.849;  370.273
502.742;  -40.831; -180.138; -191.751
503.026; -110.640; -412.147; -254.734
503.310; -123.451; -437.159; -375.713
503.593; -120.340; -464.147; -325.735
503.877;  -60.427; -232.133; -156.760
504.161;  -54.046;    2.847;  -50.724
504.444; -245.550; -841.158; -710.716
504.728; -166.556; -487.164; -522.704
505.012;  -63.443; -257.150;  -76.729
505.295; -113.353; -417.161; -212.711
505.579;  -86.748; -256.156; -496.719
505.862; -139.438; -555.145; -333.738
506.146; -212.551; -681.159; -758.714
506.429;  116.149;  568.841;  461.286
506.713; -199.043; -732.151; -667.728
506.996;    9.353;   90.846;  295.278
507.280; -150.856; -633.165; -474.703
507.563; -118.547; -469.155; -261.721
507.847; -149.446; -423.153; -112.724
508.130; -181.353; -665.161; -456.711
508.413; -181.458; -758.167; -577.700
508.697;  -29.058; -151.167;   12.300
508.980; -131.946; -422.153; -312.724
509.263; -152.048; -466.155; -450.720
509.547;  -45.843; -124.150;   82.271
509.830;    0.848; -172.160;  140.289
510.113;   24.152;  128.844;  298.281
510.396; -165.045; -530.152; -300.725
510.680; -251.238; -818.145; -812.738
510.963;   20.454;  184.846;  180.277
511.246; -144.842; -493.150; -357.730
511.529;  -98.638; -482.145;  -83.739
511.812;  -65.827; -250.134;   10.241
512.095; -184.044; -740.151; -396.728
512.378; -121.839; -317.147; -245.736
512.661; -204.130; -703.137; -623.753
512.944; -197.635; -750.142; -637.744
513.227; -100.531; -170.137; -171.752
513.510; -158.037; -479.144; -671.741
513.793; -154.933; -485.140; -435.747
514.076;  -33.221;  -43.127;  -39.771
514.359;  -96.741; -294.149; -135.732
514.642; -175.935; -442.142; -567.744
514.925;  124.567;  581.860;  561.253
515.208; -137.428; -498.134; -443.758
515.491;  -78.026; -276.133; -182.761
515.773; -136.636; -410.143; -337.742
516.056;   65.770;  249.864;  409.246
516.339; -242.829; -754.136; -652.755
516.622; -160.842; -518.150; -488.730
516.904;  256.865;  882.857;  975.257
517.187; -195.531; -730.138; -523.752
517.470; -164.636; -568.143; -510.743
517.752; -183.029; -624.136; -470.756
518.035; -222.532; -708.139; -725.749
518.318; -255.629; -799.136; -744.755
518.600; -117.826; -300.132; -325.762
518.883;   36.265;  310.858;   88.256
519.165; -183.232; -585.138; -426.751
519.448;  -57.526;  -61.132;  -19.762
519.730; -188.920; -573.126; -415.773
520.013;  166.074;  588.867;  664.240
520.295;  -65.927;  -94.134;  -15.759
520.578; -117.124; -335.131; -305.764
520.860;  -39.626; -254.132;   56.238
521.143; -221.429; -763.135; -584.756
521.425; -115.919; -251.125; -279.775
521.707; -154.121; -622.127; -380.771
521.990;  -41.421; -199.127;  167.229
522.272;  -65.233; -116.140;   -4.748
522.554;  -85.636; -237.143; -157.742
522.836;  -61.227;  -24.134;   99.241
523.119; -135.740; -496.148; -189.734
523.401; -157.124; -448.130; -314.766
523.683; -241.830; -865.137; -693.753
523.965;   18.469;  408.862;  260.248
524.247;  -21.616;   54.878;  170.220
524.529; -168.427; -451.134; -367.759
524.812;  -26.423;   -3.130;  191.234
525.094; -260.831; -773.138; -631.751
525.376;  -48.018; -143.124;   78.223
525.658; -163.730; -441.136; -339.754
525.940; -260.025; -805.131; -671.764
526.222; -112.729; -188.136;  -88.755
526.504;  -81.625; -190.131;   32.237
526.786; -277.427; -960.133; -647.760
527.068;  -82.317; -124.123;  -67.778
527.349; -261.530; -865.137; -774.754
527.631;  -72.426; -137.132;   22.238
527.913; -198.721; -664.127; -450.771
528.195; -244.419; -761.125; -639.774
528.477;  -65.128;  -93.134;  -30.758
528.759; -221.323; -648.130; -522.766
529.040; -167.617; -569.123; -293.778
529.322; -101.519; -235.125;  -10.774
529.604;  -40.723;  -47.130;   93.233
529.886; -141.820; -546.126; -302.773
530.167;   50.976;  232.870;  192.235
530.449;  -28.740;    1.853;   63.265
530.731; -207.616; -572.122; -459.779
531.012; -175.514; -513.120; -216.784
531.294;  -63.410; -118.116;  -43.792
531.575;   61.781;  290.875;  538.225
531.857; -160.928; -548.135; -266.757
532.138;  -64.434; -113.141;   40.254
532.420;   48.071;  294.865;  403.244
532.701; -234.326; -722.133; -751.760
532.983;   71.574;  232.867;  182.239
533.264;  -21.820; -243.126;  175.228
533.546; -120.129; -491.136; -508.755
533.827;  -19.227;  173.867;   -1.759
534.109; -152.028; -352.135;  -80.757
534.390; -218.925; -725.132; -582.762
534.671; -109.529; -270.135;  -82.756
534.953; -227.217; -751.123; -611.779
535.234; -152.411; -426.117; -255.789
535.515; -270.613; -891.119; -735.785
535.796; -162.421; -431.128; -193.770
536.078; -311.018;-1050.124; -904.777
536.359;  -31.317;  -22.123;    3.221
536.640; -145.819; -480.125; -197.774
536.921;   29.977;  225.871;  143.232
537.202;  -74.131;  -87.138;  -16.751
537.483;   53.276;  251.869;  377.236
537.764;   -5.224;   17.870;   98.235
538.045; -153.828; -543.134; -371.758
538.326; -183.022; -596.129; -447.768
538.607; -224.521; -686.127; -476.771
538.888;  -60.815;   98.879;    5.218
539.169; -243.816; -704.122; -535.781
539.450;   35.477;  236.871;   16.233
539.731; -120.215; -361.121; -182.783
540.012;    4.586;  199.880;  412.216
540.293;  -43.618;   82.876;  158.224
540.574; -261.408; -895.113; -717.796
540.855;   37.085;  435.879;  377.218
541.136;  -53.016;   47.878;  139.220
541.416;  -98.123; -161.130; -220.766
541.697; -120.525; -274.131; -170.763
541.978; -131.028; -270.135; -315.757
542.259; -107.021; -211.127; -236.771
542.539; -131.911; -191.116; -186.790
542.820;   83.981;  461.875;  480.225
543.101;  -98.638;  -52.145;  -77.738
543.381; -255.221; -638.127; -591.771
543.662;  -39.921;  159.873; -254.771
543.942; -271.421; -751.127; -830.770
544.223;  -13.316;  193.878;  161.219
544.504; -130.918; -275.124; -182.777
544.784; -162.920; -592.126; -408.773
545.065; -151.410;  104.884; -254.791
545.345;  -42.013;  227.881;   14.215
545.626;  -67.608;  -14.113; -108.796
545.906;  -36.024;   77.869;   98.235
546.186; -130.819;   92.874;  -95.773
546.467;  -73.717;   99.877;  -95.778
546.747;   66.589;  264.884;  327.210
547.027;  -17.318;   91.876;  111.223
547.308; -179.621; -376.127; -530.770
547.588;   29.078;  299.871;  371.232
547.868;  100.576;  458.870;  588.235
548.149;  117.591;  609.885;  593.207
548.429; -133.521; -347.127; -299.771
548.709; -220.214; -645.120; -461.784
548.989;  -46.812;   84.882;   88.213
549.269; -121.026;   10.868;  139.239
549.550;  -36.917;  215.877;  117.222
549.830; -221.906; -758.111; -556.799
550.110; -139.605; -468.110; -320.801
550.390;  -86.516; -128.122;  -56.779
550.670; -299.608; -868.114; -783.795
550.950; -199.315; -509.121; -471.782
551.230;  108.685;  549.879;  460.218
551.510; -129.115; -381.121; -326.782
551.790;  -81.904; -173.109; -127.803
552.070;  272.383;  940.877; 1181.223
552.350; -155.213; -492.119; -377.786
552.630;  -17.915;   -2.121;   77.219
552.909;    6.190;  181.884;   73.209
553.189;  -89.325;  -49.132;   33.237
553.469; -220.513; -703.119; -514.786
553.749; -176.720; -469.127; -357.772
554.029;  -25.511;   33.883;  -24.790
554.308;  -49.809; -154.115;  -37.794
554.588; -115.821; -196.128; -204.770
554.868; -109.215; -366.121;  -47.782
555.147;  -68.809; -114.115;  -46.793
555.427; -134.510; -260.116; -250.792
555.707; -115.309; -284.115; -200.793
555.986; -226.705; -719.111; -538.800
556.266;  -11.411;   23.884;   72.210
556.546; -240.615; -888.121; -675.782
556.825; -218.508; -657.114; -556.794
557.105;  -81.722; -125.128;   17.230
557.384;   -9.010;  122.884;  187.209
557.664; -221.110; -717.116; -508.792
557.943; -128.415; -557.121; -411.782
558.222; -141.312; -345.118; -344.788
558.502;  -77.109; -116.115;  -76.793
558.781;   52.191;  194.885;  499.208
559.061;  -89.812; -232.118; -227.788
559.340;  -14.311;  302.883;  353.211
559.619;  -51.211;   93.884;  148.210
559.899; -135.911; -239.117; -266.789
560.178; -226.409; -778.115; -593.793
560.457; -230.111; -623.117; -562.790
560.736; -183.105; -472.111; -482.800
561.015; -191.722; -500.128; -502.769
561.295;  -38.002;  180.893;  215.193
561.574;  -26.309;  119.885;  116.207
561.853;    5.696;  274.891;  303.197
562.132;  -50.509;  -45.114;  182.206
562.411;  110.285;  396.879;  553.219
562.690; -169.710; -592.115; -458.792
562.969;   99.193;  472.888;  630.203
563.248;  669.284; 2966.878; 2487.219
563.527; -142.805; -290.111; -408.800
563.806; -221.821; -650.127; -521.771
564.085; -116.900; -297.105; -206.810
564.364; -202.711; -594.117; -405.790
564.643; -109.215; -276.121; -223.781
564.922;    5.196;  221.890;  397.198
565.201; -221.704; -640.109; -700.803
565.479; -111.210; -297.115; -219.792
565.758; -246.622; -810.128; -712.770
566.037;  -71.904; -155.109; -100.803
566.316; -119.110; -286.116;  -28.791
566.595;  -43.709;  -17.115;  -12.793
566.873;  101.595; -166.111;  -79.801
567.152; -197.307; -490.113; -590.797
567.431;  -78.111; -113.116;    6.210
567.709;  -91.602; -344.107; -212.807
567.988; -280.808; -810.114; -769.794
568.266; -164.109; -160.115;  -68.793
568.545; -212.195; -644.100; -514.819
568.824;   70.590;  160.885;  356.208
569.102; -144.108; -351.114; -235.794
569.381; -156.410; -492.116; -407.792
569.659; -187.507; -553.113; -553.796
569.938; -224.416; -743.122; -465.780
570.216;  -91.403; -225.109; -225.804
570.494; -216.708; -632.114; -572.795
570.773;    3.385;  202.879;  114.218
571.051; -167.917; -373.123; -357.778
571.330;  -74.008; -221.113; -174.796
571.608;  -85.993; -181.098; -173.823
571.886; -230.806; -671.111; -581.799
572.164; -219.415; -739.121; -621.782
572.443; -150.700; -562.105; -512.811
572.721; -130.711; -399.117; -289.790
572.999; -116.312; -280.117; -168.788
573.277;   90.799;  379.894;  620.191
573.555;  -46.200;   94.894;   37.190
573.834;  -81.812;  -86.117; -114.788
574.112;  180.498;  880.893;  811.193
574.390;  -71.805; -143.111;  -96.801
574.668;  -90.207;  -91.112;  -61.797
574.946; -105.400; -165.106; -187.810
575.224;  -61.604;   71.891;  -16.803
575.502;  -82.610; -200.116; -204.791
575.780; -229.107; -767.112; -829.798
576.058;  370.695; 1589.889; 1004.200
576.336;  -91.405; -210.110; -129.801
576.614; -199.807; -511.112; -340.798
576.891; -254.809; -711.115; -823.794
577.169; -119.703; -158.108; -285.805
577.447;   21.098;  169.893;  202.193
577.725;  167.394;  629.888;  854.201
578.003;  -69.506;  -71.112; -371.798
578.280;  -69.199; -208.104; -242.812
578.558; -161.109; -450.115; -422.793
578.836;  -84.708; -210.114; -145.795
579.114; -234.307; -630.112; -670.797
579.391;  -72.311;   -6.117;  -18.789
579.669; -238.309; -595.114; -704.794
579.947;  -92.302; -326.107; -127.806
580.224; -199.302; -692.107; -524.806
580.502;  -46.002;  127.893;   76.193
580.779;  -39.611;  -42.117;   75.210
581.057; -172.103; -584.109; -470.804
581.334; -216.197; -726.102; -695.815
581.612;   34.000;   54.895;  511.190
581.889;  -87.696;  -83.101; -129.818
582.167; -102.694; -298.099; -190.821
582.444; -243.796; -845.102; -814.817
582.721;  156.104;  657.899;  715.183
582.999;  -96.495; -326.100; -167.821
583.276; -233.717; -812.123; -713.779
583.553; -104.897; -364.102; -294.816
583.831; -220.799; -607.104; -631.812
584.108;    6.797;  349.892;  174.195
584.385;  -79.897; -122.102;  -98.815
584.662; -229.705; -651.111; -828.801
584.940;  -31.005;  204.889;  204.199
585.217;  -96.507;  -73.113; -303.796
585.494;  -12.404;   71.890;  118.198
585.771; -145.003; -250.109; -354.804
586.048;  -92.007; -196.113;  -76.796
586.325; -228.205; -721.110; -773.801
586.602;   15.901;  230.896;  213.188
586.879; -196.695; -499.100; -580.820
587.156;  -97.200; -156.105; -331.810
587.433; -239.797; -701.102; -667.817
587.710;  -31.207;  152.888;  234.202
587.987; -123.200; -264.105; -236.811
588.264;   39.094;  315.888;  387.202
588.541;  -38.199;  -61.104;   26.187
588.818;  -56.603;   72.892;  171.196
589.095;  -51.399; -163.104; -174.812
589.371; -172.504; -459.109; -414.804
589.648; -165.202; -581.107; -437.807
589.925; -210.708; -517.114; -621.795
590.202; -238.107; -741.112; -607.798
590.478; -106.999; -166.105;  -73.811
590.755;  -98.102; -241.108; -132.806
591.032; -223.205; -741.110; -699.802
591.308; -227.389; -732.094; -790.831
591.585; -186.905; -573.110; -560.802
591.862; -296.597;-1056.102; -950.817
592.138; -162.103; -475.108; -474.805
592.415; -177.199; -486.104; -495.813
592.691;   65.501;  460.896;  518.188
592.968;  -98.893; -208.098; -123.824
593.244; -224.211; -695.116; -595.790
593.521;  -77.896; -105.102;  -42.817
593.797; -248.316; -810.122; -720.780
594.074; -232.992; -611.096; -588.826
594.350;  172.709;  828.905;  729.172
594.626; -124.605; -303.111; -283.801
594.903; -186.996; -643.101; -645.817
595.179;   64.102;  243.896;  418.187
595.455;  -76.102; -136.107; -150.807
595.731;  -23.398;  -19.103;  -38.814
596.008; -199.706; -464.111; -434.800
596.284; -107.795; -187.100; -242.820
596.560; -165.788; -501.093; -493.833
596.836; -112.400; -173.105;  -70.810
597.112; -171.503; -582.108; -437.805
597.388;  -69.392;  -49.097;  -48.826
597.665;   33.993;  437.887;  530.203
597.941; -225.585; -572.089; -658.839
598.217; -109.304; -323.110; -293.802
598.493; -106.703;   61.891; -204.804
598.769; -113.495; -175.100;  -50.819
599.045; -223.802; -490.108; -562.806
599.321; -140.795; -193.100; -261.820
599.597; -164.203; -355.109; -476.804
599.872;   53.801;  409.896;  429.187
600.148;  -63.792;  -61.097; -172.826
600.424;    2.598;   91.893;  202.193
600.700; -105.302; -170.107; -280.807
600.976; -164.792; -442.097; -464.825
601.252; -138.404; -226.109; -272.803
601.527; -263.899; -833.104; -840.813
601.803; -140.599; -453.105; -404.812
602.079;  -73.595; -124.100; -118.819
602.354; -165.087; -620.092; -531.835
602.630;  -89.607; -140.113; -482.796
602.906; -233.696; -910.101; -863.818
603.181; -180.713; -627.119; -534.786
603.457;  -66.592;   98.903; -278.826
603.733; -197.415; -605.120; -626.783
604.008;  -72.500; -245.106; -164.810
604.284; -208.296; -636.101; -580.817
604.559;  -54.706;   -3.112;  -42.799
604.835; -130.900; -163.105; -225.810
605.110; -277.294; -732.099; -892.821
605.385;   73.112;  224.907;  267.167
605.661; -233.090; -625.095; -729.829
605.936; -234.802; -664.108; -737.806
606.211;  -65.798;  -17.103; -170.815
606.487; -153.609; -329.114; -376.794
606.762; -241.913; -791.119; -745.786
607.037; -172.800; -501.105; -433.810
607.313; -182.791; -589.096; -574.828
607.588;  -74.000; -375.106; -137.810
607.863;  -58.996;  -28.101; -143.818
608.138;   84.996;  513.890;  516.198
608.413; -191.394; -576.099; -592.822
608.688; -128.403; -203.108; -267.805
608.964; -130.301; -509.106; -218.809
609.239;  -79.400; -107.105; -212.810
609.514;    6.001;  281.895;  240.188
609.789; -236.899; -187.104; -716.812
610.064; -175.191; -435.096; -609.827
610.339; -261.304; -855.109; -799.804
610.614; -118.895; -131.100; -315.820
610.889;   16.201;  215.895;  107.188
611.163; -157.399; -407.104; -591.812
611.438;  -92.408;   81.886; -167.794
611.713; -202.196; -467.101; -499.817
611.988; -103.896; -144.101; -328.818
612.263; -251.497; -771.102; -717.815
612.538;   60.693;  385.887;  251.204
612.812; -256.095; -832.100; -911.820
613.087; -134.993; -358.098; -338.823
613.362; -188.802; -497.107; -557.807
613.637;    7.502;  261.897;  138.186
613.911; -109.987; -256.092; -345.835
614.186; -134.602; -249.107; -292.807
614.460; -258.577; -842.081; -758.854
614.735;  -63.383;  -55.087;  -17.843
615.010;  -63.084;   43.912;  -82.841
615.284;   38.197;  360.892;  246.195
615.559; -255.987; -792.092; -955.835
615.833;  -50.394;  -76.099;  -87.822
616.108;  -81.586; -225.090; -390.837
616.382;   81.718;  274.913;  402.156
616.656;  -90.986; -241.090; -232.837
616.931; -268.994; -785.099; -700.822
617.205; -303.098; -973.104; -979.813
617.480;  -85.119;  -91.125;    6.225
617.754; -139.619; -396.125; -128.774
618.028; -157.322; -369.129; -382.768
618.302;  -38.703;   73.892;  -25.805
618.577; -209.498; -371.103; -518.815
618.851; -174.004; -399.109; -600.803
619.125; -130.527; -335.134; -378.759
619.399; -101.298; -244.104; -374.813
619.673; -139.010; -330.115; -515.792
619.947; -142.008; -333.114; -448.795
620.222;  -54.205; -198.110; -204.801
620.496;  -42.315;  -47.121;  -96.782
620.770;  -76.416; -187.122;  -93.781
621.044;   51.900;  323.895;  346.190
621.318; -204.814; -653.120; -614.783
621.592; -151.415; -430.121; -409.783
621.866; -228.506; -476.112; -572.799
622.140; -121.010; -207.116; -356.791
622.413;   -5.706;  138.889;  112.200
622.687; -183.196; -746.101; -492.817
622.961;  -39.603; -130.108; -143.805
623.235; -206.406; -633.111; -661.800
623.509; -254.699; -816.105; -848.811
623.783;  -18.402;  -12.107;   48.193
624.056; -128.814; -254.120; -280.783
624.330;   -9.207;   63.888;   -3.797
624.604; -111.911; -271.116; -355.790
624.877;  -17.704;  180.890;   26.198
625.151; -109.609; -249.114; -238.794
625.425;  -87.598; -150.103; -283.814
625.698; -198.413; -367.119; -374.785
625.972; -229.304; -799.110; -765.802
626.245;  106.489;  685.884;  484.210
626.519; -137.514; -426.120; -340.784
626.792;  -91.202; -192.107; -380.807
627.066; -208.716; -485.122; -662.779
627.339; -227.905; -736.110; -663.802
627.613;   29.786;  351.880;  148.216
627.886;   34.396;  187.891; -612.803
628.160;  -97.815;  312.880; -161.783
628.433; -203.918; -695.125; -703.775
628.706; -192.314; -517.120; -615.784
628.979;   21.982;  296.876;  117.223
629.253; -283.113; -785.119; -833.786
629.526; -137.720; -334.126; -253.772
629.799; -177.617; -641.123; -479.778
630.072; -167.022; -497.128; -516.769
630.346; -314.711;-1115.116;-1080.790
630.619; -133.101; -467.107; -545.808
630.892;  118.894;  709.889;  593.200
631.165;  146.402;  790.896;  679.187
631.438; -331.506;-1092.112;-1055.798
631.711;   54.683;  453.877;  257.221
631.984; -176.311; -523.117; -624.789
632.257; -154.311; -636.117; -681.789
632.530; -135.313; -412.119; -433.785
632.803;   -6.509; -109.115;    7.207
633.076; -128.617; -360.123; -422.777
633.349;    9.378;  173.872;  121.231
633.622;  -79.013; -187.119; -240.785
633.895; -306.514; -903.120; -823.783
634.167; -151.120; -496.126; -525.773
634.440;  -40.110;  -19.116; -137.792
634.713;  -68.113;  -22.119; -120.786
634.986;  113.177;  593.871;  453.233
635.258; -165.809; -507.115; -597.793
635.531;  160.388;  742.882; -343.788
635.804; -110.611; -303.117; -318.789
636.077; -256.310; -830.116; -852.791
636.349; -195.409; -586.115; -474.793
636.622;  458.280; 1695.874; 1392.228
636.894; -159.914; -474.120; -909.784
637.167; -262.321; -836.127; -789.771
637.439;  -47.221; -278.128; -213.770
637.712; -100.020; -312.126; -293.772
637.984; -227.510; -635.116; -707.791
638.257;  110.583;  515.877;  488.222
638.529; -281.218; -881.125; -924.776
638.802; -184.022; -508.128; -449.769
639.074; -301.716; -927.122; -952.781
639.346; -299.528; -942.135; -930.757
639.619;  -49.735;  -79.142; -319.744
639.891;  -63.116;  -83.122; -168.779
640.163; -214.516; -689.122; -756.780
640.435;   -4.916;  273.878;  103.220
640.708;  -41.816;  -72.122; -132.780
640.980; -156.916; -366.122; -362.781
641.252;  -35.915;  -25.121;  -71.781
641.524;  120.885;  580.879;  573.219
641.796; -314.215;-1094.121; -907.782
642.068;  -90.315; -191.121; -300.782
642.340; -150.815; -486.121; -566.783
642.613;   66.086;  294.880;  323.217
642.885; -252.214; -787.120; -878.783
643.157; -225.914; -810.120; -658.784
643.428;   24.286;  170.880;  218.216
643.700; -157.514; -498.120; -425.784
643.972;  -62.413;  -16.119; -133.785
644.244; -177.413; -474.119; -559.785
644.516;  -59.613; -250.119; -114.786
644.788;  158.487;  662.881;  548.214
645.060;  -18.113;  -12.119; -124.786
645.332; -187.312; -525.118; -535.787
645.603;   81.488;  479.882;  342.213
645.875; -147.612; -334.118; -369.787
646.147;  318.388; 1487.882; 1242.212
646.418; -302.012; -931.117; -918.788
646.690; -215.511; -714.117; -715.789
646.962; -143.611; -413.117; -451.789
647.233;   15.989;   15.883;   11.211
647.505; -199.911; -595.117; -475.790
647.776;   42.289;  328.884;  229.210
648.048; -120.611; -248.116; -418.790
648.320; -251.910; -752.116; -679.791
648.591; -298.110;-1055.116; -958.791
648.862; -158.910; -505.116; -577.792
649.134;   48.090;  115.885;  198.208
649.405; -193.610; -661.115; -618.792
649.677; -179.709; -475.115; -598.793
649.948; -129.909; -181.115; -296.793
650.219;   -4.909;  -37.115; -147.793
650.491; -144.509; -431.114; -520.794
650.762; -222.509; -705.114; -731.794
651.033; -175.308; -437.114; -424.795
651.304; -248.708; -743.114; -728.795
651.576; -195.608; -680.114; -645.795
651.847;  -84.708; -250.113; -140.796
652.118;  -57.708;  -32.113; -189.796
652.389; -200.507; -639.113; -722.796
652.660;  -65.507; -147.113;  -89.797
652.931; -284.807; -897.112; -871.797
653.202; -170.807; -382.112; -541.798
653.473; -158.607; -633.112; -533.798
653.744; -172.106; -595.112; -590.798
654.015; -121.206; -356.112; -303.799
654.286; -196.606; -642.111; -663.799
654.557; -186.006; -586.111; -521.799
654.828; -324.106;-1114.111;-1088.800
655.099; -139.605; -404.111; -291.800
655.370; -159.305; -427.111; -543.801
655.641; -224.805; -656.110; -714.801
655.911; -174.805; -618.110; -638.801
656.182;   98.695;  437.890;  387.198
656.453;  148.996;  830.890;  746.198
656.724; -130.404; -466.110; -426.802
656.994; -180.604; -553.109; -568.803
657.265; -243.604; -862.109; -873.803
657.536; -168.704; -500.109; -377.804
657.806; -189.003; -561.109; -593.804
658.077; -262.203; -866.109; -950.804
658.347; -177.303; -523.108; -598.805
658.618; -203.803; -646.108; -694.805
658.888;  -57.703;  -41.108;  112.195
659.159; -133.502; -432.108; -548.806
659.429; -141.302; -292.108; -349.806
659.700; -141.702; -435.107; -390.807
659.970; -143.402; -370.107; -359.807
660.241; -267.602; -754.107; -921.807
660.511;  -73.501; -147.107; -174.808
660.781; -240.901; -793.106; -748.808
661.052;  -98.801; -222.106; -381.808
661.322;  -20.501;   21.894;   -9.809
661.592;   39.699;  257.894;  148.191
661.862; -162.200; -369.106; -382.810
662.133; -182.200; -551.105; -502.810
662.403; -248.200; -770.105; -676.810
662.673; -105.600; -256.105; -213.811
662.943; -192.300; -612.105; -551.811
663.213;  -58.599;  -85.105;  -81.811
663.483; -165.299; -593.104; -568.812
663.753;  -80.999; -194.104; -152.812
664.023;   25.001;   68.896;  -32.813
664.293;  -97.799; -319.104; -126.813
664.563; -224.398; -694.104; -648.813
664.833; -239.098; -743.103; -608.814
665.103; -248.198; -730.103; -793.814
665.373; -237.098; -766.103; -806.814
665.643; -272.398; -863.103; -918.815
665.913; -200.297; -534.103; -714.815
666.182; -219.897; -685.102; -719.816
666.452;  -85.197;  -22.102;  -89.816
666.722; -235.897; -724.102; -784.816
666.992; -297.797; -948.102; -921.817
667.261; -250.396; -824.102; -808.817
667.531;  -31.396;  134.899;   45.183
667.801; -135.996; -440.101; -412.818
668.070;  168.304;  714.899;  697.182
668.340; -255.496; -883.101; -840.819
668.609;  106.005;  588.900;  301.181
668.879; -199.295; -490.100; -558.819
669.149; -162.195; -539.100; -516.820
669.418; -220.095; -698.100; -726.820
669.688; -205.695; -482.100; -666.820
669.957; -172.594; -423.099; -546.821
670.226; -119.494; -268.099; -331.821
670.496; -204.394; -431.099; -635.822
670.765; -130.894; -418.099; -501.822
671.034; -259.794; -872.099; -828.822
671.304;  -47.094;   55.902; -111.823
671.573; -305.293;-1085.098; -957.823
671.842;  -92.293; -380.098; -294.823
672.112; -209.193; -692.098; -586.824
672.381;  -92.393; -239.098; -214.824
672.650; -277.793;-1005.097;-1021.825
672.919; -199.892; -631.097; -507.825
673.188; -206.392; -681.097; -878.825
673.457; -329.692;-1101.097;-1143.826
673.726; -200.592; -579.096; -646.826
673.995; -141.292; -533.096; -479.826
674.265; -106.691; -263.096; -333.827
674.534; -109.591; -183.096; -235.827
674.802; -137.591; -618.096; -703.828
675.071; -246.091; -886.095; -801.828
675.340; -152.491; -464.095; -339.828
675.609;    5.410;  103.905;   82.171
675.878; -233.990; -949.095; -893.829
676.147;  -19.590;  -26.095;   -8.829
676.416;  -86.890; -210.094; -294.830
676.685;  295.710; 1000.906; -622.830
676.953; -166.489; -603.094; -452.831
677.222; -106.889; -193.094; -273.831
677.491;  -57.989;  -24.094; -127.831
677.759;  -70.289;   11.907;  172.168
678.028;  -87.489; -279.093; -222.832
678.297;  -32.288;   71.907;  197.168
678.565; -269.688; -898.093; -944.833
678.834; -100.288; -311.093; -268.833
679.102; -136.988; -411.092; -391.834
679.371; -257.688; -898.092; -727.834
679.639; -256.687; -797.092; -786.834
679.908; -252.087; -794.092; -724.835
680.176; -279.187; -895.091; -941.835
680.445; -120.587; -346.091; -352.835
680.713;   -6.087;  -58.091;  -23.836
680.982; -200.186; -523.091; -525.836
681.250; -200.286; -578.091; -507.837
681.518; -186.986; -534.090; -751.837
681.787;  -53.286; -204.090; -167.837
682.055; -135.886; -490.090; -422.838
682.323; -306.085; -993.090; -992.838
682.591;  -87.885; -216.090; -538.838
682.859;  -89.885;    9.911;  -35.839
683.128;    3.215;  232.911;  497.161
683.396; -305.485;-1102.089;-1122.840
683.664;  -48.584; -241.089;   21.160
683.932;   40.416;  144.911;  -76.840
684.200; -175.684; -576.088; -320.841
684.468;  -65.784;  -73.088; -124.841
684.736;  -66.184; -214.088; -175.841
685.004; -306.283;-1024.088; -982.842
685.272; -230.983; -880.088; -774.842
685.540; -198.183; -499.087; -557.843
685.808; -194.483; -651.087; -682.843
686.076; -283.283; -894.087; -969.843
686.343; -208.282; -601.087; -815.844
686.611;  -64.782; -195.087; -224.844
686.879; -167.582; -530.086; -553.844
687.147; -159.282; -483.086; -480.845
687.414;  -63.682;  -12.086; -169.845
687.682; -212.281; -658.086; -757.846
687.950;   31.019;  259.915;  263.154
688.217; -232.081; -792.085; -760.846
688.485; -206.581; -632.085; -636.847
688.753;  -37.181;  -11.085; -102.847
689.020; -292.480; -820.085; -851.847
689.288; -229.780; -853.084; -787.848
689.555;  -95.880; -195.084; -148.848
689.823; -120.180; -241.084; -345.849
690.090; -176.980; -546.084; -651.849
690.358; -284.579; -877.084; -897.849
690.625;  -15.779;  120.917;   45.150
690.892; -166.379; -403.083; -369.850
691.160;  -49.579;   72.917;  -35.850
691.427;   -5.579;  141.917;  130.149
691.694; -289.778; -855.083; -929.851
691.962; -301.878;-1177.082;-1060.852
692.229;  -12.878;  127.918;   56.148
692.496;  -10.078;  130.918;  -49.852
692.763;  -71.078; -164.082; -201.853
693.031; -227.977; -739.082; -716.853
693.298; -180.077; -509.081; -368.853
693.565;  -74.677; -155.081; -163.854
693.832;  -57.677;   -5.081;   -9.854
694.099; -181.577; -643.081; -642.855
694.366; -251.277; -882.081; -896.855
694.633; -265.776; -920.080; -633.855
694.900; 1262.624; 4367.920; -114.856
695.167;  -36.776; -214.080; -380.856
695.434; -209.476; -646.080; -623.856
695.701;   -2.876;  121.921;  -61.857
695.968; -124.575; -365.079; -361.857
696.234; -210.075; -415.079; -646.858
696.501; -188.575; -776.079; -614.858
696.768; -181.175; -554.079; -617.858
697.035; -191.975; -632.078; -667.859
697.302; -193.974; -448.078; -552.859
697.568; -151.774; -458.078; -497.859
697.835; -203.074; -683.078; -624.860
698.102; -146.274; -498.078; -407.860
698.368;   81.726;  384.923;  396.139
698.635; -133.173;  -47.077; -424.861
698.901; -109.673; -240.077; -348.861
699.168; -136.373; -534.077; -456.862
699.435;  -47.373;  -72.077;  -13.862
699.701; -288.473; -868.076; -764.862
699.968; -132.072;  144.924; -441.863
700.234; -264.572; -783.076; -822.863
700.500; -159.072; -448.076; -539.864
700.767;  -53.972;   -1.075;   26.136
701.033; -299.272;-1015.075; -963.864
701.299; -154.471; -450.075; -483.865
701.566;  198.329;  950.925;  763.135
701.832;  -28.171;  -31.075;  -76.865
702.098; -290.171;-1054.074;-1034.866
702.365; -304.471;-1098.074;-1030.866
702.631; -311.970;-1038.074;-1063.867
702.897; -220.270; -765.074; -676.867
703.163;   34.630;  348.926;  254.133
703.429; -101.970; -256.073; -273.868
703.695; -237.470; -796.073; -792.868
703.961;  -85.269; -214.073; -210.868
704.227; -205.469; -630.073; -725.869
704.493;  128.731;  613.927;  510.131
704.759; -140.369; -565.072; -540.870
705.025;  -79.069; -203.072; -194.870
705.291; -193.968; -666.072; -562.870
705.557;  158.432;  719.928;   34.129
705.823; -219.868; -742.072; -694.871
706.089; -126.568; -307.071; -326.871
706.355; -102.368; -315.071; -244.872
706.620; -247.267; -776.071; -729.872
706.886;  -97.267; -309.071; -362.873
707.152; -253.167; -818.070; -973.873
707.418; -363.067;-1153.070;-1186.873
707.683; -156.867; -550.070; -530.874
707.949; -179.066; -547.070; -578.874
708.215;  -80.366; -129.070; -207.874
708.480; -155.966; -520.069; -420.875
708.746;   12.134;   68.931;   28.125
709.011; -175.666; -578.069; -612.876
709.277; -190.365; -538.069; -543.876
709.542; -132.965; -428.069; -387.876
709.808;  -36.065;  -59.068;   89.123
710.073; -166.865; -577.068; -695.877
710.339; -111.765; -242.068; -228.877
710.604; -261.264; -780.068; -845.878
710.869; -121.364; -277.068; -366.878
711.135; -202.464; -715.067; -628.879
711.400; -179.164; -507.067; -608.879
711.665; -143.764; -404.067; -479.879
711.931; -216.563; -661.067; -677.880
712.196; -262.563; -876.067; -954.880
712.461; -160.363; -402.066; -490.880
712.726; -239.263; -727.066; -771.881
712.991; -230.763; -647.066; -664.881
713.256;  -93.762; -350.066; -332.882
713.521; -167.162; -417.065; -381.882
713.787; -168.862; -454.065; -472.882
714.052; -138.862; -214.065; -400.883
714.317; -306.462;-1045.065; -981.883
714.581; -150.361; -374.065; -268.883
714.846; -270.061; -822.064; -888.884
715.111;   45.239;  261.936;  257.116
715.376;  -78.661;  -86.064; -223.885
715.641; -152.161; -365.064; -367.885
715.906; -149.660;   15.936; -551.885
716.171;   21.440;  221.937;  209.114
716.436;  -19.960;  -78.063; -104.886
716.700; -233.660; -818.063; -692.886
716.965; -229.860; -794.063; -807.887
717.230; -157.260; -339.063; -392.887
717.494;  -43.359;  -40.062; -134.888
717.759; -204.459; -784.062; -640.888
718.024;   42.241;  269.938;  250.112
718.288;  140.641;  685.938;  395.111
718.553; -261.059; -803.062; -977.889
718.817; -272.758; -883.061; -899.889
719.082;  -49.758; -115.061; -125.890
719.346; -273.458;-1000.061; -947.890
719.611;  -83.258; -300.061; -255.891
719.875; -205.658; -568.060; -537.891
720.140; -144.057; -453.060; -603.891
720.404;  -93.457; -136.060; -249.892
720.668; -115.757; -475.060; -411.892
720.933;  -26.857;  146.940;  137.108
721.197; -257.057; -667.059; -600.893
721.461; -260.456; -851.059; -826.893
721.725;    1.944;  -21.059; -250.894
721.990;  -77.056; -284.059; -204.894
722.254;  -37.156;  -26.059; -108.894
722.518; -137.556; -286.058; -442.895
722.782; -174.055; -743.058; -594.895
723.046;  128.345;  614.942;  570.105
723.310;   43.545;  374.942;  210.104
723.574; -214.155; -654.058; -614.896
723.838; -194.655; -576.057; -642.897
724.102;  -65.754; -226.057; -239.897
724.366; -277.554;-1032.057; -978.897
724.630; -157.354; -749.057; -571.898
724.894; -186.354; -722.057; -514.898
725.158;  -54.754;   38.944; -295.898
725.422; -133.053; -394.056; -327.899
725.685; -157.653; -441.056; -349.899
725.949; -205.953; -566.056; -519.900
726.213; -260.953; -732.056; -811.900
726.477; -322.453;-1020.055; -933.900
726.740;  -70.152; -274.055; -104.901
727.004; -139.352; -384.055; -510.901
727.268; -147.652; -442.055; -400.901
727.531; -266.752; -961.055; -775.902
727.795; -209.352; -713.054; -673.902
728.059; -182.251; -552.054; -557.903
728.322; -245.051; -841.054; -669.903
728.586; -206.351; -692.054; -701.903
728.849; -231.451; -695.053; -756.904
729.112; -228.251; -812.053; -912.904
729.376; -242.250; -959.053; -905.904
729.639; -177.150; -536.053; -536.905
729.903; -225.250; -733.053; -699.905
730.166; -117.150; -437.052; -399.906
730.429;  -65.850; -317.052; -468.906
730.693; -147.949; -355.052; -894.906
730.956;  147.851;  810.948;  651.093
731.219;  -89.249; -310.052; -103.907
731.482; -279.649;-1003.051; -894.907
731.745; -261.349; -794.051; -935.908
732.009;  -25.648;  -30.051;   50.092
732.272; -221.748; -904.051; -771.909
732.535; -129.748; -300.051; -310.909
732.798; -325.748;-1083.050;-1166.909
733.061; -164.948; -430.050; -456.910
733.324;  -45.747;   31.950; -180.910
733.587;   87.453;  290.950;  365.090
733.850; -180.547; -973.049;-1050.911
734.113;  -42.647;   33.951;   32.089
734.376;  -89.947; -328.049; -447.912
734.639;  249.254; 1188.951; 1011.088
734.901;  -95.146; -180.049; -402.912
735.164; -247.246; -883.048; -837.913
735.427;  -65.846; -166.048; -355.913
735.690;  -89.946; -205.048; -234.913
735.952; -300.645; -923.048; -925.914
736.215; -316.245;-1113.048;-1009.914
736.478; -254.445; -771.047; -774.915
736.740;  -33.545;   33.953;  129.085
737.003; -209.745; -658.047; -672.915
737.266;  201.156;  -94.047;   46.084
737.528; -222.144; -682.047; -660.916
737.791; -124.544; -316.046; -327.916
738.053;   71.356;  465.954;  649.083
738.316; -107.144; -162.046; -136.917
738.578; -226.243; -770.046; -736.918
738.841; -151.543; -382.046; -446.918
739.103; -225.543; -875.045; -777.918
739.365;  -37.743;   79.955;  -69.919
739.628; -231.543; -884.045; -805.919
739.890; -207.443; -758.045; -710.919
740.152; -214.942; -692.044; -754.920
740.414; -158.142; -408.044; -359.920
740.677; -191.842; -785.044; -634.921
740.939; -233.642; -587.044; -487.921
741.201; -179.642; -432.044; -572.921
741.463; -175.941; -689.043; -745.922
741.725;  -62.941;  -21.043; -199.922
741.987;   28.259;  220.957;  116.078
742.249; -276.241; -751.043; -859.923
742.511; -242.041; -703.043; -794.923
742.773; -172.640; -546.042; -546.924
743.035;  125.060;  796.958;  533.076
743.297; -302.540; -963.042;-1013.924
743.559;  -86.540; -278.042; -262.925
743.821; -233.340; -735.042; -744.925
744.083;  -64.139;  -44.041; -149.925
744.345; -285.039; -869.041; -892.926
744.607;  -11.239;   75.959;  122.074
744.868; -182.139; -490.041; -554.927
745.130; -311.839; -994.041;-1008.927
745.392;    0.862;   -1.040;  -44.927
745.653; -121.238; -411.040; -378.928
745.915;  174.862;  896.960;  631.072
746.177;  -74.338;   35.960;  -43.928
746.438; -176.338; -428.040; -543.929
746.700; -274.637; -947.039; -988.929
746.961; -258.237; -659.039; -740.930
747.223;  -90.837; -190.039;  -74.930
747.484; -154.837; -391.039; -471.930
747.746;  -78.437;  -23.038; -106.931
748.007; -231.636; -647.038; -689.931
748.269; -115.636; -468.038; -440.931
748.530; -219.836; -852.038; -638.932
748.791; -131.236; -354.038; -420.932
749.053;   59.364;  286.963;  163.067
749.314;  -82.235; -236.037; -169.933
749.575; -295.535; -945.037; -905.933
749.836;  -49.135; -217.037;   86.066
750.098;  -79.835;  -60.037;  -21.934
750.359;   79.765;  414.964;  555.066
750.620;  -94.134; -121.036; -220.935
750.881; -207.534; -585.036; -513.935
751.142; -284.234; -950.036; -938.936
751.403; -220.434; -789.036; -705.936
751.664; -298.634;-1034.035; -999.936
751.925; -112.533; -175.035; -262.937
752.186;  -75.233; -298.035; -278.937
752.447; -183.233; -590.035; -445.937
752.708; -191.233; -532.035; -648.938
752.969; -209.833; -566.034; -576.938
753.230; -257.332; -777.034; -672.939
753.491; -226.332; -650.034; -631.939
753.751;    4.268;  109.966;   19.061
754.012;   52.468;  258.967;  181.060
754.273;  -94.332; -174.033;  -71.940
754.534; -203.531; -487.033; -580.940
754.794; -281.531; -926.033; -911.941
755.055;  238.469; 1051.967;  881.059
755.316; -209.031; -700.032; -566.942
755.576; -182.031; -606.032; -576.942
755.837; -164.530; -527.032; -695.942
756.097; -201.030; -530.032; -564.943
756.358; -261.330; -725.032; -770.943
756.618; -225.430; -705.031; -641.943
756.879; -124.530; -254.031; -349.944
757.139; -344.229;-1098.031;-1116.944
757.400; -204.829; -538.031; -553.945
757.660; -120.429; -365.031; -401.945
757.920; -102.329; -266.030; -228.945
758.181; -135.529; -468.030; -351.946
758.441; -261.428; -870.030; -809.946
758.701; -131.528; -308.030; -215.946
758.961;  -79.828; -220.030; -278.947
759.222; -157.228; -574.029; -502.947
759.482; -233.028; -683.029; -723.948
759.742; -266.727; -706.029; -547.948
760.002;  -33.927;  -83.029; -143.948
760.262;  -30.327;   50.972;  182.051
760.522; -207.927; -498.028; -574.949
760.782; -229.727; -738.028; -612.949
761.042; -189.426; -618.028; -573.950
761.302;  -22.626;   55.972;  -18.950
761.562;  -55.926; -164.027; -154.951
761.822; -184.726; -710.027; -551.951
762.082; -331.626;-1104.027;-1093.951
762.342; -136.026; -328.027; -403.952
762.601; -179.625; -567.027; -506.952
762.861; -103.425; -281.026; -207.952
763.121; -116.925; -406.026; -411.953
763.381; -172.625; -499.026; -485.953
763.640;  -88.025; -139.026; -307.954
763.900; -103.424; -242.026; -203.954
764.160; -147.724; -458.025; -491.954
764.419; -231.724; -726.025; -782.955
764.679; -275.624; -795.025; -726.955
764.939;  -97.124; -124.025; -210.955
765.198; -207.623; -608.025; -563.956
765.458; -226.223; -710.024; -612.956
765.717; -204.423; -454.024; -590.957
765.976; -138.223; -428.024; -411.957
766.236; -186.523; -475.024; -610.957
766.495;  -41.122;  260.977;   73.042
766.755; -330.822;-1090.023; -987.958
767.014; -215.422; -594.023; -665.958
767.273; -125.522; -373.023; -397.959
767.533; -124.822; -228.023; -307.959
767.792;  -81.521; -151.022; -188.960
768.051; -129.621; -228.022; -276.960
768.310; -201.021; -546.022; -650.960
768.569;  -51.121; -161.022;    4.039
768.828; -111.421; -285.022; -363.961
769.088; -318.720;-1050.021; -942.961
769.347; -226.720; -755.021; -599.962
769.606; -263.820; -876.021; -857.962
769.865; -321.820;-1016.021;-1033.963
770.124; -117.820; -411.021; -336.963
770.383; -290.519; -778.020; -910.963
770.641; -165.119; -398.020; -400.964
770.900; -302.419; -953.020; -846.964
771.159; -287.719; -851.020; -951.964
771.418; -291.219; -917.020; -779.965
771.677;  -50.518; -224.019; -293.965
771.936; -257.818; -794.019; -865.966
772.194; -251.818; -465.019; -437.966
772.453; -128.718; -213.019; -391.966
772.712;   66.782;  416.982;  329.033
772.970;  -55.517;   32.982;   63.033
773.229;  -37.117;  -22.018;  102.033
773.488; -256.017; -814.018; -770.968
773.746;   39.983;  296.982;  335.032
774.005;  -15.117;  190.983;  -22.969
774.263;    9.484;  243.983;  177.031
774.522; -191.316; -422.017; -548.969
774.780; -159.816; -484.017; -417.970
775.039; -180.116; -551.017; -531.970
775.297;  -65.316; -135.016; -351.970
775.555; -239.415; -489.016; -612.971
775.814; -258.015; -618.016; -570.971
776.072; -213.815; -749.016; -740.971
776.330; -219.215; -630.016; -520.972
776.589; -242.515; -703.015; -721.972
776.847; -251.514; -645.015; -624.973
777.105; -325.614;-1016.015;-1032.973
777.363; -151.414; -459.015; -454.973
777.621; -265.214; -660.015; -717.974
777.879;  -35.514;  -42.014;   32.026
778.138; -182.713; -554.014; -717.974
778.396; -201.713; -585.014; -526.975
778.654; -324.213;-1015.014; -970.975
778.912; -128.313; -269.014; -371.976
779.170; -248.713; -880.013; -803.976
779.427; -284.012; -922.013; -897.976
779.685; -296.512; -880.013; -832.977
779.943; -217.212; -654.013; -593.977
780.201; -306.212; -964.012; -883.978
780.459; -230.212; -651.012; -610.978
780.717; -128.711; -440.012; -390.978
780.974; -173.511; -449.012; -490.979
781.232; -132.111; -358.012; -338.979
781.490; -196.211; -551.011; -472.979
781.747; -190.611; -555.011; -476.980
782.005;   45.290;  462.989;  254.020
782.263; -308.810; -542.011;-1004.981
782.520; -123.610; -326.011; -501.981
782.778; -306.910;-1013.010;-1051.981
783.035; -316.810; -962.010; -938.982
783.293; -124.009; -248.010; -206.982
783.550;  -85.209; -134.010; -198.982
783.808; -241.009; -764.010; -776.983
784.065; -301.209; -745.009; -874.983
784.322;  -52.409;   25.991;  -86.984
784.580; -269.309; -915.009; -771.984
784.837; -165.908; -392.009; -466.984
785.094; -242.508; -783.009; -762.985
785.352; -149.508; -304.008; -404.985
785.609; -256.208; -934.008; -839.985
785.866; -137.708; -345.008; -401.986
786.123; -231.207; -639.008; -583.986
786.380; -190.607; -665.008; -604.987
786.637; -123.207; -225.007; -380.987
786.895; -185.207; -456.007; -543.987
787.152;  -87.007; -135.007; -267.988
787.409;  -51.606; -123.007; -225.988
787.666; -160.906; -299.006; -378.988
787.923; -189.706; -616.006; -695.989
788.179; -182.106; -551.006; -584.989
788.436; -221.106; -585.006; -585.990
788.693;  -65.705;  -92.006;  -87.990
788.950;  -61.705; -125.005; -112.990
789.207; -168.605; -381.005; -372.991
789.464; -110.305; -161.005; -301.991
789.720;    7.895;  150.995;  110.009
789.977; -320.904;-1003.005; -671.992
790.234;  -35.604;   44.996;  -66.992
790.490; -276.804; -884.004;-1031.993
790.747;  -22.804;  -85.004;   22.007
791.004; -150.504; -426.004; -348.993
791.260; -154.603; -430.004; -560.994
791.517; -238.503; -843.003; -788.994
791.773; -160.203; -379.003; -342.994
792.030; -198.103; -596.003; -660.995
792.286; -212.203; -686.003; -636.995
792.543;  -67.102;  -74.002; -159.995
792.799; -151.502; -584.002; -382.996
793.055; -365.102;-1179.002;-1210.996
793.312; -281.402; -827.002; -816.997
793.568; -185.802; -746.002; -599.997
793.824; -113.201; -226.001; -284.997
794.081; -159.701; -447.001; -508.998
794.337; -147.901; -664.001; -561.998
794.593; -140.301; -319.001; -271.999
794.849; -260.601; -746.001; -772.999
795.105; -143.500; -270.000; -261.999
795.361; -145.300; -490.000; -457.000
795.617; -266.400; -875.000; -945.000
795.873; -160.400; -360.000; -407.000
796.129; -122.400; -368.000; -306.000
796.385;  -71.600; -124.000; -156.000
796.641;   90.800;  412.000;  550.000
796.897; -206.300; -666.000; -635.000
797.153;  104.000;  453.000;  357.000
797.409; -247.200; -785.000; -868.000
797.665; -231.200; -625.000; -732.000
797.921; -260.200; -775.000; -762.000
798.176; -244.800; -744.000; -747.000
798.432; -234.500; -824.000; -596.000
798.688; -324.800;-1174.000;-1078.000
798.943;  -80.200; -165.000; -147.000
799.199; -293.400;-1005.000; -959.000
799.455;  134.000;  369.000;  316.000
799.710; -259.800; -813.000; -380.000
799.966; -101.200; -162.000; -160.000
800.221; -224.000; -638.000; -721.000
800.477; -238.600; -743.000; -710.000
800.732; -267.500; -773.000; -800.000
800.988;    2.500;  205.000;  -19.000
801.243; -137.900; -454.000; -344.000
801.498; -256.800; -814.000; -739.000
801.754; -104.400; -289.000; -163.000
802.009; -106.300; -257.000; -335.000
802.264; -334.100; -967.000;-1033.000
802.520;  -51.800;  222.000;   -3.000
802.775; -183.700; -524.000; -359.000
803.030;   77.700;  395.000;  356.000
803.285; -281.400; -840.000; -903.000
803.540; -219.900; -686.000; -699.000
803.795; -216.300; -648.000; -583.000
804.051; -116.800; -279.000; -346.000
804.306;   -8.700;  168.000;  128.000
804.561;   10.700;  451.000;  362.000
804.816;  158.400;  714.000;  861.000
805.071;  -84.900; -185.000; -280.000
805.325; -160.900; -257.000; -427.000
805.580; -297.500; -841.000; -877.000
805.835; -100.700; -204.000; -297.000
806.090; -243.900; -760.000; -676.000
806.345; -121.600; -344.000; -264.000
806.600; -195.000; -549.000; -632.000
806.854; -161.600; -408.000; -538.000
807.109; -131.200; -493.000; -577.000
807.364; -120.200; -407.000; -328.000
807.618; -177.500; -415.000; -381.000
807.873; -190.800; -470.000; -494.000
808.128; -108.300; -257.000; -518.000
808.382; -111.300; -224.000; -332.000
808.637; -193.300; -440.000; -511.000
808.891;  -88.700; -257.000; -180.000
809.146; -296.300; -902.000; -794.000
809.400; -291.700; -848.000; -923.000
809.654; -228.900; -779.000; -551.000
809.909; -298.900; -841.000; -927.000
810.163; -234.700; -813.000; -651.000
810.418; -296.700; -940.000; -861.000
810.672; -219.500; -685.000; -690.000
810.926; -280.100; -993.000; -973.000
811.180; -183.000; -439.000; -372.000
811.434;   30.500;  240.000;  135.000
811.689; -127.300; -231.000; -365.000
811.943; -320.600; -936.000; -953.000
812.197; -253.000; -893.000; -671.000
812.451; -125.400; -379.000; -514.000
812.705; -297.900; -809.000; -619.000
812.959; -113.500; -263.000; -388.000
813.213; -108.000; -283.000; -209.000
813.467;   77.900;  470.000;  253.000
813.721; -250.000; -764.000; -792.000
813.975; -253.100; -826.000; -877.000
814.229;   22.800;  430.000;  353.000
814.482; -190.900; -517.000; -566.000
814.736; -272.500; -766.000; -744.000
814.990; -286.100; -779.000; -872.000
815.244; -133.700; -228.000; -285.000
815.497; -214.900; -636.000; -601.000
815.751;  -42.900; -141.000;   82.000
816.005; -182.700; -470.000; -586.000
816.258; -135.300; -510.000; -363.000
816.512; -277.300; -693.000; -610.000
816.766;  -43.600;  121.000;  157.000
817.019;   28.700;  148.000;  149.000
817.273; -320.500;-1000.000; -802.000
817.526;  -92.900; -206.000; -173.000
817.779; -329.800;-1049.000; -960.000
818.033; -253.400; -693.000; -807.000
818.286; -227.200; -725.000; -792.000
818.540; -213.400; -403.000; -403.000
818.793; -171.900; -402.000; -489.000
819.046; -217.100; -582.000; -520.000
819.299;  -48.400; -157.000; -166.000
819.553; -199.200; -552.000; -592.000
819.806; -321.200;-1016.000; -838.000
820.059; -121.200; -334.000; -354.000
820.312;  -43.300;  152.000;  185.000
820.565;  -39.400;  110.000;  -27.000
820.818;  -76.700;  -59.000; -173.000
821.071; -313.300;-1041.000; -957.000
821.324; -213.700; -536.000; -540.000
821.577; -185.700; -457.000; -483.000
821.830; -126.100; -270.000; -172.000
822.083; -245.900; -733.000; -288.000
822.336; -100.600; -261.000; -167.000
822.589; -275.300; -805.000; -688.000
822.842; -295.900; -875.000; -770.000
823.094; -337.600;-1076.000;-1114.000
823.347; -282.400; -925.000; -729.000
823.600;   18.200;  402.000;  187.000
823.853; -150.000; -311.000; -267.000
824.105; -161.500; -331.000; -575.000
824.358; -259.200; -617.000; -716.000
824.611;  -13.000;  234.000;   40.000
824.863; -203.700; -612.000; -591.000
825.116;  -28.800;  -33.000;   27.000
825.368; -188.600; -366.000; -372.000
825.621;  -92.500; -186.000; -240.000
825.873; -252.400; -704.000; -737.000
826.126; -218.700; -669.000; -641.000
826.378; -173.000; -389.000; -505.000
826.630; -302.300; -890.000; -898.000
826.883; -249.600; -754.000; -693.000
827.135; -126.500; -279.000; -270.000
827.387; -288.900; -893.000; -839.000
827.639;  -85.900;  -86.000;   32.000
827.892; -244.800; -742.000; -582.000
828.144; -274.700; -848.000; -804.000
828.396;  -37.900;  104.000;  -80.000
828.648; -177.700; -440.000; -333.000
828.900; -237.400; -702.000; -795.000
829.152; -243.600; -684.000; -683.000
829.404; -113.100; -215.000; -267.000
829.656;   36.000;  321.000;  214.000
829.908;  -14.900;  393.000;  229.000
830.160; -320.700;-1064.000;-1047.000
830.412; -172.300; -481.000; -430.000
830.664; -253.100; -557.000; -665.000
830.916; -119.300; -268.000; -206.000
831.167; -319.700;-1073.000; -951.000
831.419; -194.300; -623.000; -566.000
831.671; -256.400; -764.000; -809.000
831.923; -154.800; -311.000; -447.000
832.174; -140.000; -273.000; -331.000
832.426; -212.200; -493.000; -582.000
832.678; -352.400;-1043.000;-1091.000
832.929; -313.700; -947.000; -935.000
833.181; -208.000; -575.000; -677.000
833.432; -107.800;  -59.000; -186.000
833.684;  -20.100;  112.000;  -27.000
833.935; -199.700; -610.000; -566.000
834.187; -226.800; -829.000; -823.000
834.438;  -69.400;  -58.000;  -25.000
834.689;  -99.400; -255.000; -123.000
834.941; -109.500; -343.000; -244.000
835.192; -217.700; -590.000; -533.000
835.443; -178.000; -419.000; -506.000
835.695;  -30.300;  138.000;  -16.000
835.946; -180.400; -608.000; -378.000
836.197; -208.300; -599.000; -622.000
836.448; -207.900; -528.000; -395.000
836.699; -118.700; -253.000; -341.000
836.950;  -43.700;   72.000;    7.000
837.201; -336.800;-1003.000; -987.000
837.452; -129.800; -356.000; -170.000
837.703; -293.200; -791.000; -737.000
837.954; -134.100; -205.000; -365.000
838.205; -313.300;-1029.000;-1008.000
838.456; -131.000; -196.000; -282.000
838.707; -142.500; -423.000; -519.000
838.958; -250.100; -634.000; -647.000
839.209;  -30.900;   18.000;   40.000
839.460; -123.200; -439.000; -201.000
839.710; -116.900; -135.000; -297.000
839.961;   94.600;  730.000;  612.000
840.212; -175.800; -382.000; -497.000
840.462; -150.000; -328.000; -277.000
840.713; -197.600; -571.000; -536.000
840.964;  -96.700;  -62.000; -143.000
841.214; -196.700; -384.000; -624.000
841.465; -103.600; -214.000; -141.000
841.715; -121.600; -417.000; -380.000
841.966; -226.100; -746.000; -685.000
842.216; -148.200; -330.000; -431.000
842.466; -119.300; -169.000; -313.000
842.717; -338.400; -964.000; -952.000
842.967; -192.600; -635.000; -641.000
843.217;  -73.400;   20.000;   28.000
843.468;  -84.200; -104.000; -132.000
843.718; -266.400; -718.000; -726.000
843.968; -315.700; -837.000; -765.000
844.218; -131.300; -315.000; -262.000
844.469; -215.900; -577.000; -561.000
844.719; -218.600; -537.000; -682.000
844.969; -203.400; -550.000; -580.000
845.219; -286.900; -814.000; -862.000
845.469; -141.600; -392.000; -342.000
845.719; -296.100; -792.000; -884.000
845.969;  -34.600;  119.000;  174.000
846.219; -233.500; -738.000; -720.000
846.469;   65.200;  464.000;  432.000
846.718; -108.200; -115.000;   31.000
846.968; -268.700; -827.000; -827.000
847.218;  -82.200; -224.000; -371.000
847.468; -226.700; -586.000; -555.000
847.718; -275.300; -827.000; -798.000
847.967; -282.800; -826.000; -915.000
848.217; -166.400; -449.000; -569.000
848.467; -131.900; -405.000; -376.000
848.716; -254.200; -708.000; -725.000
848.966; -147.700; -372.000; -358.000
849.215; -174.100; -428.000; -419.000
849.465; -246.200; -785.000; -615.000
849.714; -353.800;-1132.000;-1150.000
849.964; -197.800; -551.000; -613.000
850.213; -174.800; -393.000; -355.000
850.463;   20.800;  137.000;  340.000
850.712; -218.900; -542.000; -567.000
850.961; -254.900; -739.000; -678.000
851.211; -177.000; -513.000; -504.000
851.460; -227.600; -635.000; -650.000
851.709;  -35.600;  -25.000;   18.000
851.958; -252.800; -912.000; -750.000
852.208; -281.100; -859.000; -879.000
852.457;  -87.500; -181.000;  -13.000
852.706; -280.500; -791.000; -823.000
852.955; -195.200; -507.000; -528.000
853.204; -212.300; -521.000; -461.000
853.453; -190.500; -418.000; -458.000
853.702; -253.400; -660.000; -750.000
853.951; -164.100; -532.000; -520.000
854.200; -204.300; -613.000; -562.000
854.449; -256.200; -695.000; -661.000
854.698; -165.300; -340.000; -279.000
854.946;  -78.500; -181.000; -284.000
855.195; -253.400; -843.000; -868.000
855.444; -167.200; -395.000; -420.000
855.693; -193.500; -345.000; -432.000
855.941; -201.100; -387.000; -516.000
856.190; -139.400; -256.000; -382.000
856.439; -227.800; -652.000; -703.000
856.687;  -67.700;  -99.000;  -72.000
856.936; -212.800; -621.000; -323.000
857.184; -324.400;-1067.000;-1020.000
857.433; -176.300; -423.000; -512.000
857.681; -319.000; -989.000; -953.000
857.930; -129.400; -282.000; -433.000
858.178; -304.200; -856.000; -929.000
858.427; -263.000; -802.000; -781.000
858.675; -186.900; -377.000; -544.000
858.923; -160.500; -527.000; -819.000
859.172; -342.500;-1094.000;-1070.000
859.420; -150.900; -339.000; -239.000
859.668; -237.500; -624.000; -628.000
859.916;  -25.700;  109.000;  115.000
860.164; -213.300; -699.000; -603.000
860.413; -274.700; -878.000; -696.000
860.661; -254.700; -709.000; -577.000
860.909; -155.000; -339.000; -325.000
861.157; -136.300; -277.000; -444.000
861.405; -236.000; -534.000; -670.000
861.653;   46.700;  310.000;  310.000
861.901; -240.600; -543.000; -613.000
862.149; -290.500; -801.000; -824.000
862.396; -134.700; -297.000; -187.000
862.644; -153.900; -368.000; -347.000
862.892;  -28.100;   98.000;  138.000
863.140; -194.500; -549.000; -530.000
863.388; -274.100; -815.000; -759.000
863.635; -223.200; -642.000; -601.000
863.883;   -6.900;  231.000;  190.000
864.131; -148.000; -288.000; -357.000
864.378; -221.400; -675.000; -540.000
864.626; -182.200; -347.000; -415.000
864.873; -218.300; -556.000; -505.000
865.121; -273.100; -714.000; -799.000
865.368;  -91.100; -173.000;   75.000
865.616;  -95.100;  -33.000;  -40.000
865.863; -210.500; -462.000; -506.000
866.111; -320.500; -795.000; -824.000
866.358; -143.200; -426.000; -420.000
866.605;  -62.500;  -64.000; -804.000
866.853; -204.800; -621.000; -537.000
867.100; -247.000; -728.000; -775.000
867.347; -243.400; -672.000; -611.000
867.594; -250.600; -740.000; -714.000
867.841;  -28.500;   97.000;   17.000
868.089; -276.600; -746.000; -698.000
868.336; -186.500; -477.000; -420.000
868.583; -229.500; -637.000; -741.000
868.830;  -70.900; -131.000; -170.000
869.077; -302.800; -859.000; -787.000
869.324; -212.300; -502.000; -458.000
869.571; -221.600; -398.000; -430.000
869.818; -192.900; -485.000; -439.000
870.065; -162.600; -439.000; -513.000
870.311; -180.000; -456.000; -542.000
870.558; -153.200; -332.000; -311.000
870.805; -128.200; -320.000; -384.000
871.052; -171.900; -494.000; -369.000
871.298;  -98.700; -204.000; -131.000
871.545; -105.500; -151.000; -185.000
871.792; -134.400; -173.000; -222.000
872.038;  -69.900;   43.000; -126.000
872.285; -194.000; -496.000; -387.000
872.532; -175.900; -357.000; -387.000
872.778;   72.000;  556.000;  403.000
873.025; -119.900; -384.000; -359.000
873.271;   85.600;  501.000;  578.000
873.517;  -65.900; -133.000; -209.000
873.764;  -78.800; -193.000;  -80.000
874.010; -112.300; -143.000; -230.000
874.257;  -31.200;  123.000;   90.000
874.503; -217.800; -579.000; -479.000
874.749;  -90.900;   31.000;  275.000
874.995;  -67.200;  -80.000;  -20.000
875.242; -228.800; -540.000; -478.000
875.488; -201.000; -414.000; -439.000
875.734; -102.900; -106.000; -234.000
875.980; -325.200; -872.000;-1032.000
876.226; -106.300; -157.000; -255.000
876.472;   30.600;  343.000;  237.000
876.718;  -44.600;  184.000;  158.000
876.964;  -44.800;   56.000;   55.000
877.210; -269.200; -547.000; -677.000
877.456; -233.700; -630.000; -557.000
877.702; -292.000; -821.000; -832.000
877.948; -180.400; -377.000; -497.000
878.193;   39.000;  361.000;  255.000
878.439; -183.200; -487.000; -472.000
878.685; -121.200; -272.000; -343.000
878.931; -213.600; -618.000; -676.000
879.176; -147.200; -201.000; -201.000
879.422; -296.800; -933.000; -820.000
879.668;   65.000;   10.000;   79.000
879.913;  -44.900;   53.000;  137.000
880.159;  -84.900; -112.000;  -17.000
880.404;  -93.900; -152.000; -162.000
880.650;  -11.700;   91.000;  141.000
880.895; -262.600; -670.000; -710.000
881.141; -198.000; -454.000; -428.000
881.386; -251.500; -503.000; -658.000
881.631; -126.600; -311.000; -166.000
881.877;  -35.600;  112.000;  -13.000
882.122; -195.900; -684.000; -600.000
882.367; -112.200; -136.000; -186.000
882.612;  -70.100;  -80.000; -176.000
882.858; -283.600; -877.000; -823.000
883.103; -183.300; -297.000; -267.000
883.348; -271.300; -759.000; -852.000
883.593; -243.600; -677.000; -602.000
883.838;  -89.900; -311.000;  -24.000
884.083;   -9.100;  353.000;  288.000
884.328; -156.700; -564.000; -545.000
884.573; -129.300; -196.000; -143.000
884.818; -229.900; -694.000; -531.000
885.063; -167.900; -348.000; -315.000
885.308; -192.000; -475.000; -398.000
885.553;   24.000;  245.000;  325.000
885.797; -190.400; -545.000; -615.000
886.042;  -81.500;    8.000;   58.000
886.287;  -93.400; -253.000; -211.000
886.532;  -11.600;   26.000;  204.000
886.776; -154.900; -407.000; -525.000
887.021; -238.500; -621.000; -574.000
887.265; -245.300; -685.000; -689.000
887.510; -208.300; -557.000; -496.000
887.755; -112.900; -194.000; -164.000
887.999; -223.800; -552.000; -575.000
888.244;  -44.800;  -58.000;  161.000
888.488;   38.400;  371.000;  393.000
888.732; -223.700; -368.000; -520.000
888.977; -205.700; -622.000; -567.000
889.221; -250.100; -683.000; -659.000
889.465; -198.900; -422.000; -566.000
889.710; -110.400;  -56.000; -299.000
889.954;   33.900;  579.000;  467.000
890.198; -255.300; -584.000; -707.000
890.442; -239.500; -716.000; -712.000
890.687; -269.800; -800.000; -753.000
890.931; -118.600; -273.000; -210.000
891.175; -221.800; -502.000; -500.000
891.419;  -74.600; -105.000; -110.000
891.663; -117.700; -239.000; -112.000
891.907; -278.100; -801.000; -545.000
892.151; -272.300; -920.000; -815.000
892.395; -147.400; -274.000; -387.000
892.638;   37.400;  408.000;  291.000
892.882; -298.500; -780.000; -867.000
893.126;  117.300;  758.000;  558.000
893.370; -107.600; -167.000; -168.000
893.614; -237.000; -714.000; -715.000
893.857; -137.600; -183.000; -197.000
894.101; -215.200; -527.000; -631.000
894.345;  -39.000;  300.000;  150.000
894.588;   86.200;  569.000;  380.000
894.832; -115.900; -178.000;  -84.000
895.075; -106.200;   15.000;  -92.000
895.319; -230.700; -552.000; -420.000
895.563; -155.900; -413.000; -353.000
895.806; -255.800; -628.000; -741.000
896.049; -167.000; -576.000; -368.000
896.293;   41.600;  527.000;  405.000
896.536; -211.400; -465.000; -468.000
896.779; -127.300; -149.000;   -1.000
897.023; -258.400; -751.000; -714.000
897.266;  -42.000;  325.000;  269.000
897.509; -314.400; -900.000; -901.000
897.752;  -49.200;  149.000;  171.000
897.996; -319.800; -972.000; -864.000
898.239;  -33.500;  168.000;  102.000
898.482; -183.800; -431.000; -453.000
898.725;  -54.900;  101.000;   53.000
898.968; -286.000; -609.000; -744.000
899.211; -232.000; -513.000; -361.000
899.454; -219.500; -633.000; -539.000
899.697;  -66.100;   90.000;  -43.000
899.940; -281.900; -761.000; -757.000
900.182; -163.000; -335.000; -405.000
900.425;  -90.500; -150.000; -298.000
900.668;    9.000;  491.000;  350.000
900.911; -148.900; -292.000; -345.000
901.154;  -23.300;  141.000;   -3.000
901.396; -220.800; -407.000; -412.000
901.639; -233.200; -430.000; -496.000
901.882; -314.300; -790.000; -809.000
902.124; -102.600;  -29.000; -143.000
902.367; -164.100; -315.000; -361.000
902.609; -219.100; -476.000; -453.000
902.852; -133.000; -108.000; -260.000
903.094; -188.300; -458.000; -337.000
903.337;  -32.500;  -26.000;   53.000
903.579; -152.600; -228.000; -441.000
903.821; -240.500; -597.000; -744.000
904.064;  -84.200;   85.000;  127.000
904.306;  -96.200; -126.000; -166.000
904.548; -146.300; -152.000; -366.000
904.790; -117.700; -195.000; -340.000
905.033; -236.600; -625.000; -577.000
905.275; -227.800; -513.000; -524.000
905.517;   -8.000;  468.000;  256.000
905.759; -256.300; -667.000; -761.000
906.001; -221.400; -322.000; -369.000
906.243; -148.400; -162.000; -224.000
906.485; -132.500; -265.000; -207.000
906.727; -210.900; -499.000; -542.000
906.969; -159.000;  -30.000; -135.000
907.211; -199.700; -316.000; -382.000
907.453; -116.500; -188.000; -237.000
907.695; -101.400; -158.000; -385.000
907.936;  129.700;  818.000;  706.000
908.178;  -79.100;   92.000; -135.000
908.420; -104.900; -111.000; -162.000
908.662; -270.700; -633.000; -682.000
908.903; -139.100; -208.000; -123.000
909.145; -132.100; -240.000; -305.000
909.386;  -21.600;  315.000;  280.000
909.628;   23.300;  363.000;  397.000
909.870;  -35.900;   29.000;  264.000
910.111; -324.400; -809.000; -949.000
910.353; -136.300; -123.000; -161.000
910.594; -241.400; -574.000; -606.000
910.835; -200.600; -265.000; -326.000
911.077; -248.800; -503.000; -604.000
911.318; -214.300; -505.000; -471.000
911.559; -264.100; -577.000; -880.000
911.801; -187.100; -284.000; -280.000
912.042;  -83.600;  -50.000; -159.000
912.283;   19.900;  404.000;  371.000
912.524; -192.300; -396.000; -457.000
912.765; -113.500; -193.000;   79.000
913.006; -156.100; -307.000; -338.000
913.247; -203.700; -270.000; -290.000
913.488;  -65.300;  -43.000;   30.000
913.729; -202.400; -373.000; -373.000
913.970; -148.300;  -96.000; -292.000
914.211; -124.500; -160.000; -198.000
914.452; -141.500; -118.000;  -11.000
914.693;   27.600;  510.000;  592.000
914.934;   63.900;  510.000;  440.000
915.175; -110.900;   53.000;  -95.000
915.415; -121.300; -137.000;   27.000
915.656;  -64.300;  -28.000;  192.000
915.897; -151.400; -252.000;  -82.000
916.137; -124.700;   74.000;   -9.000
916.378; -198.600; -573.000; -517.000
916.619; -143.800; -159.000;  -63.000
916.859;  -44.000;  303.000;  330.000
917.100;  292.200; 1655.000; 1070.000
917.340;  129.800;  930.000;  728.000
917.581;   96.100;  965.000;  789.000
917.821; -185.300; -171.000;  143.000
918.061; -113.200; -199.000;  -72.000
918.302; -142.700; -152.000; -211.000
918.542; -126.100;  -22.000;    3.000
918.782;   -2.900;  369.000;  377.000
919.023;   13.200;  360.000;  427.000
919.263; 1099.300; 8131.000;  202.000
919.503; -150.500; -137.000;  -54.000
919.743;    5.800;  390.000;  266.000
919.983; -101.200; -134.000;  -26.000
920.223;  -90.500;  135.000;   14.000
920.463;   11.900;  631.000;  554.000
920.703;  -37.200;   84.000;   39.000
920.943; -110.300; -110.000;   90.000
921.183; -208.000; -414.000; -405.000
921.423;   17.100;  307.000;  546.000
921.663; -164.400; -174.000; -257.000
921.903;  -14.700;  237.000;  173.000
922.143;   -5.600;  372.000;  389.000
922.383;  -56.900;  158.000;  115.000
922.622; -121.300; -120.000;  -15.000
922.862;   84.800;  796.000;  785.000
923.102; -122.600;  -51.000;   33.000
923.341; -103.300;   59.000;   74.000
923.581;  -20.900;  450.000;  360.000
923.821;   -4.300;  301.000;  398.000
924.060;   -2.800;  351.000;  193.000
924.300; -122.800;  -16.000; -128.000
924.539;   28.700;  584.000;  473.000
924.779;   71.500;  812.000;  597.000
925.018;  -52.500;  247.000;  353.000
925.257;   69.400;  595.000;  666.000
925.497;  -36.300;  447.000;  412.000
925.736; -109.000;  -35.000;  102.000
925.975;   55.300;  687.000;  669.000
926.214;  109.700;  907.000;  850.000
926.454;   79.800;  706.000;  757.000
926.693;  -28.000;  419.000;  543.000
926.932;  122.400; 1021.000;  825.000
927.171;  213.400; 1107.000; 1044.000
927.410;  166.600; 1144.000;  967.000
927.649;  106.600;  924.000;  742.000
927.888;   57.300;  590.000;  564.000
928.127;   30.700;  680.000;  678.000
928.366;   93.600;  842.000;  826.000
928.605;   80.100;  831.000;  737.000
928.844;  228.800; 1451.000; 1393.000
929.083;   24.800;  770.000;  613.000
929.321;  216.200; 1335.000; 1359.000
929.560;  207.400; 1158.000; 1122.000
929.799;  -12.900;  574.000;  475.000
930.038;  237.000; 1025.000; 1394.000
930.276;  -39.000;  334.000;  397.000
930.515;   35.000;  827.000;  681.000
930.753;   15.900;  614.000;  589.000
930.992;   52.600;  664.000;  717.000
931.230;   65.200;  847.000;  847.000
931.469;  394.300; 2162.000;  892.000
931.707;  204.700;  840.000;  751.000
931.946;  209.000; 1278.000; 1344.000
932.184;  166.800; 1437.000; 1175.000
932.423;  162.900; 1265.000;  963.000
932.661;  195.700; 1296.000; 1428.000
932.899;   32.900;  987.000;  821.000
933.137;   23.200;  754.000;  564.000
933.376;  219.000; 1664.000; 1335.000
933.614;  281.500; 1759.000; 1196.000
933.852;  111.900; 1357.000; 1171.000
934.090;  302.000; 1722.000; 1747.000
934.328;  225.500; 1252.000; 1457.000
934.566;  134.400; 1431.000; 1110.000
934.804;  134.100; 1263.000; 1309.000
935.042;  265.600; 1861.000; 1850.000
935.280;  353.100; 2088.000; 2063.000
935.518;  387.100; 2113.000; 2007.000
935.756;  383.400; 2481.000; 2316.000
935.994;  219.400; 1808.000; 1751.000
936.231;  560.500; 2890.000; 2950.000
936.469;  391.500; 2367.000; 2378.000
936.707;  418.300; 2220.000; 2167.000
936.945;  536.200; 2825.000; 2882.000
937.182;  459.300; 2679.000; 2741.000
937.420;  619.800; 3602.000; 3031.000
937.657;  721.900; 3365.000; 3478.000
937.895;  708.200; 3331.000; 3488.000
938.133;  705.600; 3540.000; 3528.000
938.370;  757.000; 3896.000; 4191.000
938.607;  822.600; 4488.000; 4205.000
938.845; 1184.500; 5587.000; 5549.000
939.082; 1023.200; 5387.000; 5177.000
939.320; 1147.300; 5799.000; 5728.000
939.557; 1379.900; 6549.000; 6491.000
939.794; 1499.200; 7285.000; 7097.000
940.031; 1775.600; 8421.000; 8368.000
940.269; 1984.600; 9552.000; 9107.000
940.506; 2191.000;10901.000;10507.000

