
Integration time [ms]: 200.000
Averaging Nr. [scans]: 10
Smoothing Nr. [pixels]: 0
Data measured with spectrometer [name]: 2101013U2
Wave   ;Sample   ;Dark     ;Reference
[nm]   ;[counts] ;[counts] ;[counts] 

394.013;  104.498; -450.257; -315.536
394.305;  461.795; -461.258; -419.536
394.596; 1925.844; -676.269; -527.514
394.887; 4581.368; -796.268; -654.518
395.178; 1786.313;  145.736;   11.476
395.470;  153.929; -210.263; -356.526
395.761;  402.590;  305.734;  394.479
396.052;  715.560; -545.284; -306.489
396.343;  674.863; -557.276; -454.503
396.634;  227.017; -200.279; -290.497
396.926;  182.964; -618.268; -565.517
397.217;  192.269;   11.725;  -17.504
397.508;   70.793; -366.273; -154.507
397.799;   63.717; -555.279; -571.497
398.090;  -38.691; -973.280; -902.495
398.381;  242.751;   11.708;  -11.473
398.672;  -34.548; -585.292; -742.473
398.963;   74.626; -348.279; -373.498
399.254;  201.865;   54.709; -209.475
399.545;  -87.415;-1017.266; -883.520
399.836;  137.047; -407.277; -343.501
400.127;   97.416; -205.295; -209.468
400.418;   93.984; -423.274; -392.506
400.709;  138.090; -359.281; -333.493
401.000;   62.271; -268.291; -309.476
401.290;  242.123;  225.698;  115.545
401.581;  119.035; -166.286; -228.485
401.872;   46.175; -542.298; -486.462
402.163;   57.905; -313.296; -252.467
402.454;  194.367; -123.291; -163.475
402.744;   90.992; -844.297; -813.465
403.035;  712.638; -226.293;  -86.471
403.326;  907.556; -366.292; -384.474
403.617;  633.167;  204.701;  165.539
403.907;  427.769; -593.283; -679.490
404.198; 4054.156; -545.307; -599.446
404.489;10508.776; -618.283; -588.491
404.779; 3648.728; -618.302; -660.456
405.070;  436.897;  -67.304; -174.451
405.360;  531.541; -259.293; -238.472
405.651;  619.744;  125.699;   98.542
405.942;  354.528;  209.714;  127.516
406.232;  462.250; -432.285; -413.487
406.523;  922.630;  641.706;  758.530
406.813;  146.731; -579.286; -644.484
407.104;  640.149;  261.708;  144.527
407.394;  290.068; -604.299; -591.462
407.685;  283.248;  336.715;  222.513
407.975;   90.074; -400.283; -382.490
408.265;  199.688; -134.289; -190.478
408.556;   73.862; -472.291; -459.475
408.846;  358.031;  474.706;  429.530
409.137;  145.400;   -1.288; -216.480
409.427;  117.649; -193.285; -271.487
409.717;   22.797; -776.273; -692.508
410.007;  282.740;    4.715; -170.486
410.298;  116.720; -360.295; -342.469
410.588;  119.145; -495.285; -510.486
410.878;   14.616; -792.287; -873.482
411.168;  213.978; -481.298; -478.463
411.459;  206.566; -295.283; -242.489
411.749;   73.360; -609.292; -507.474
412.039;   62.197; -755.289; -386.480
412.329;  399.036;   40.722;  132.501
412.619;  333.832;  -62.286; -148.485
412.909;  694.492;  639.711;  594.521
413.199;  567.509; -130.280; -251.495
413.490;  763.678;  521.710;  352.523
413.780;  210.015;-1013.279; -913.496
414.070;  590.764;  -46.276;  235.497
414.360;  571.331; -729.278; -666.498
414.650;  680.010; -726.288; -688.482
414.940;  877.214; -538.280; -441.496
415.230; 1557.606;   50.712;   74.519
415.520;10419.543;  155.730;   66.486
415.809;39990.289; -305.281; -125.493
416.099;31809.250; -388.277; -229.501
416.389; 8705.581;  435.726;  236.494
416.679; 5191.335;   91.738;   85.473
416.969;  948.223; -527.287; -503.483
417.259; 1045.417;  341.721;  171.503
417.549; 1226.087;  522.718;  318.508
417.838; 2782.267; -205.268; -147.518
418.128; 9104.886;  650.710;  492.522
418.418; 7694.107; -491.272; -579.509
418.708; 5227.281;    9.726;  -48.506
418.997;19199.575; -474.275; -480.505
419.287;20321.991; -733.273; -790.507
419.577;19093.365; -160.283; -123.489
419.866;60314.547; -588.277; -498.501
420.156;61906.037; -242.270;  -55.513
420.446;12004.824; -112.263;  -26.526
420.735; 1446.528; -376.271; -446.512
421.025; 1565.929; 1830.722;  315.502
421.314; 1122.525; -203.271; -226.512
421.604; 2338.557;   89.732;  233.484
421.893; 1356.720; -705.271; -602.511
422.183;  377.124; -487.263; -461.526
422.472;  663.722;  -36.271; -107.511
422.762;  768.494; -416.266; -379.521
423.051;  362.365; -916.276; -916.503
423.341;  512.794; -491.273; -439.507
423.630;  700.802; -121.265;   15.477
423.919;  684.274;   58.725;   49.495
424.209;  609.732;  -31.263;   56.473
424.498;  863.564;   68.732;  161.483
424.787; 1714.973; -535.267; -601.518
425.077; 5431.500;   34.735;   29.478
425.366; 7446.440; -734.262; -744.528
425.655;16102.995;  639.727;  259.493
425.945;34630.329; -313.247; -268.554
426.234;19983.473;  117.741;  300.467
426.523; 8416.581;  -86.259; -350.534
426.812;11709.988;  107.734;  159.480
427.101;16738.152; -127.269; -323.515
427.390;21170.742;  -55.270;  -86.514
427.680; 4717.210; -624.257; -411.538
427.969;  804.126; -330.255; -301.540
428.258;  515.697; -385.257; -477.536
428.547;  966.213;  449.728;  397.490
428.836; 1924.249; -421.253; -398.543
429.125; 2770.984; -199.259;  -72.534
429.414; 1317.882; -330.251; -294.548
429.703; 5168.682; -231.251; -213.548
429.992;15332.788; -938.250; -828.549
430.281;10349.313; -397.264; -331.524
430.570; 1091.268;  -21.252;   32.454
430.859;  988.480;  279.741;  352.466
431.148;  854.323;  636.752;  631.446
431.437;  555.168;  391.748;  367.454
431.725;  233.400; -544.257; -481.536
432.014;  192.060; -845.253; -756.545
432.303;  642.434; -149.239; -105.569
432.592;  972.223; -460.263; -178.525
432.881; 1654.325; -601.248; -437.554
433.169;10211.827; -343.255;  -61.540
433.458;20451.283;  445.765;  540.424
433.747; 8707.548; -397.261; -289.529
434.036; 1459.898; -275.242; -280.564
434.324; 3344.806; -395.249; -379.551
434.613; 5976.789;   40.757;  159.437
434.902; 2095.919;  333.760;  439.433
435.190;  960.532;   75.761;  295.431
435.479;  549.162;  -52.245;   83.441
435.767;  171.974; -411.244; -427.561
436.056;  357.492; -340.242; -294.563
436.345;  597.523; -372.240; -223.568
436.633;  730.999;   60.750;  383.450
436.922;  465.226;  208.760;  414.432
437.210;  972.968; -194.236;    1.426
437.499; 2942.480; -583.235; -432.576
437.787; 3262.268; -339.236;  -10.574
438.075;  917.340;   56.761;  162.430
438.364; 1162.544;  -44.238;  250.429
438.652;  707.097; -286.226; -138.592
438.941;  266.144;    3.770;  269.415
439.229;  -27.736; -665.252; -466.545
439.517;  120.793; -160.234;  -85.577
439.806;  -43.080; -501.225; -290.595
440.094;  369.604;  377.766;  650.421
440.382;  300.809; -653.233; -302.580
440.670;  356.880; -361.235; -285.576
440.959;   20.845; -347.223; -170.599
441.247;  129.461; -151.229; -109.587
441.535;  182.090; -266.235;   31.423
441.823;   63.800; -497.234; -305.578
442.111;  347.467;  173.771;  327.412
442.400;  837.261; -628.245; -335.559
442.688; 2121.403; -111.234; -620.579
442.976; 1525.374; -786.213; -450.617
443.264;  165.930; -324.224; -364.597
443.552;  169.899; -258.226;   51.408
443.840;  315.588;  602.765;  876.423
444.128;  210.408;  265.767;  269.420
444.416;  -21.029; -694.228; -312.588
444.704;   39.289; -465.219;  -92.605
444.992;  144.903;   -0.226;  240.407
445.280;   62.345; -517.230;  -94.585
445.568;   47.879; -694.212; -396.618
445.856;  560.566; -174.221;  357.398
446.143; 1148.783;  -54.220;   -7.604
446.431; 1014.376;  -25.228;  625.411
446.719;  406.717;  489.783;  675.391
447.007;  373.137;  481.769;  705.416
447.295;  336.741;  597.777;  871.402
447.583;  136.858; -464.229;  -34.587
447.870;  232.661; -434.221; -202.601
448.158;  675.743; -104.230;  129.415
448.446;  458.685; -800.219; -338.604
448.733;  286.632;   13.776;  269.403
449.021;  424.578;   60.788;  341.382
449.309;  318.800; -296.210;  208.379
449.596;  355.911;  128.783;   59.392
449.884;  208.751; -571.222; -325.600
450.172;  172.684; -756.227; -406.590
450.459;  746.649;  645.786;  780.387
450.747; 3850.209; -411.218; -147.608
451.034;12048.978;  493.772;  889.411
451.322;10097.954; -413.214; -170.614
451.609;  927.934;  292.777;  508.403
451.897;  952.393; -550.203; -183.634
452.184; 2769.141; -622.223; -400.598
452.472; 2779.332;   97.792;  269.375
452.759;  637.086;  512.781;  864.395
453.047;  143.075; -407.212; -125.617
453.334;  135.097; -732.219; -216.606
453.621;   74.257; -438.214; -161.615
453.909;  234.081;   13.796;  384.368
454.196;  156.747; -299.199; -123.641
454.483;  419.512;  317.798;  540.364
454.771;  200.136; -215.208;  196.374
455.058;   71.941; -316.207;  102.374
455.345;  169.028;   71.807;  344.347
455.632;  164.946; -128.207;  235.373
455.919;   87.180;  -82.196;  182.354
456.207; -103.846; -774.198; -450.642
456.494;  -43.171; -475.200;  -66.639
456.781;   29.105; -399.202; -198.635
457.068;   93.455; -253.206;  -29.628
457.355;  -30.943; -698.206; -401.629
457.642;  -16.035; -552.205; -290.630
457.929;  -11.485; -778.194; -417.651
458.216;   84.475; -575.212; -354.617
458.503;  371.622; -173.193;  -19.652
458.790;  289.433; -864.208; -630.625
459.077;  459.112;  -77.202;  110.364
459.364; 1292.404; -350.195; -210.649
459.651; 2682.852;  -46.206;  220.372
459.938; 1233.519; -864.209; -665.623
460.225;  272.117;  132.799;  276.363
460.512; -137.624; -836.197; -688.645
460.799;  202.308;  -32.218;  320.392
461.086;  104.036; -370.200; -251.640
461.372;   46.354; -509.198; -279.642
461.659;  177.182; -165.196;  108.354
461.946;  121.320; -445.193;  -54.651
462.233;  461.632;  842.800;  888.361
462.519;  537.828; -814.201; -464.639
462.806; 1564.977; -768.197; -497.645
463.093; 1436.550; -445.191;  -66.656
463.380;  -99.090; -920.186; -824.664
463.666;  127.779; -259.197;  -18.646
463.953;  137.297; -406.195; -243.648
464.239;  317.197; -173.195;  -77.648
464.526;  615.113;  413.806;  743.350
464.813;  512.667; -565.190; -304.658
465.099;  588.521;  606.807;  607.348
465.386;  621.827;  903.807;  921.348
465.672;   24.777; -694.197; -522.645
465.959;   35.793; -598.188; -520.662
466.245;    5.127; -468.193; -359.652
466.532;  179.094; -109.195;   63.352
466.818;   93.110; -357.186; -216.664
467.104;    3.768; -488.182; -415.672
467.391;  -93.031; -628.189; -459.658
467.677;   69.015; -289.186;    9.335
467.964;   11.879; -682.189; -471.660
468.250;  152.619; -331.186; -160.665
468.536;  147.771;   90.811;  180.341
468.822;  -58.864; -821.184; -574.668
469.109;  286.586;  351.827;  471.311
469.395;  431.941;  729.808;  787.346
469.681;  346.576;   46.811;  156.341
469.967; 2018.582; -699.188; -382.660
470.254; 4180.694; -494.188; -306.662
470.540; 2855.680; -601.196; -476.646
470.826;  376.485; -488.181; -397.675
471.112;  506.141;  288.816;  113.331
471.398;  166.648; -253.183;  -58.670
471.684;   59.226; -626.177; -447.680
471.970;  -25.010; -918.180; -981.675
472.256;   51.340; -521.192; -441.654
472.542;   49.802; -499.171; -434.691
472.828;    8.363; -743.182; -607.672
473.114;   52.066; -380.166; -283.700
473.400;   54.250; -504.175; -293.684
473.686;   47.975; -452.166; -400.701
473.972;  127.671; -230.174; -131.687
474.258; -109.513; -925.173; -843.689
474.544;  329.714; -183.178;   -2.679
474.830;  499.053;  -65.175;   45.316
475.116;  787.569; -123.190; -196.658
475.401;  989.394; -558.180; -467.676
475.687;  317.292; -725.180; -718.676
475.973;  -29.926; -673.181; -770.673
476.259;  479.956;  736.825;  764.315
476.544;  509.738; -539.176; -437.682
476.830; 1269.397; -398.172; -322.690
477.116; 1124.836; -430.177; -336.682
477.401;  331.893;  346.820;  358.324
477.687;  -22.950; -289.175; -405.684
477.973;   83.579;   21.819;   28.326
478.258;  -24.795; -448.163; -348.706
478.544;  127.627;   21.815;   61.334
478.829; -107.990; -818.171; -738.692
479.115;  -72.604; -749.172; -651.690
479.401;  -57.935; -444.174; -449.686
479.686;  108.191; -253.180;  -74.676
479.972;  -85.379; -886.178; -776.680
480.257;   68.368; -258.166;  -65.700
480.542;    3.516; -614.170; -469.693
480.828;  487.248; 1288.824; 1392.317
481.113;  -73.955; -464.176; -426.683
481.399;   -0.160; -236.161; -202.711
481.684; -103.933; -620.166; -462.700
481.969;   38.260; -158.159;  -73.713
482.255;  -16.468; -439.169; -285.695
482.540;   27.822; -569.178; -441.680
482.825;   -1.897; -395.187; -404.663
483.110;  205.637;  -85.169; -105.696
483.396;  278.191; -840.157; -652.718
483.681;  821.772;  543.826;  730.313
483.966;  201.551; -696.160; -700.712
484.251;   25.970; -404.174; -310.687
484.536;   20.083; -356.165; -378.703
484.822;   23.675; -205.173; -218.687
485.107;  -94.553; -599.152; -502.726
485.392;  300.591;  662.836;  541.296
485.677;  168.251;  354.832;  163.302
485.962;  234.487;  160.843;  270.283
486.247;  156.717;  -14.162;   -8.707
486.532;   92.470; -178.166; -325.701
486.817;  275.832;  381.839;  431.291
487.102;  175.822; -453.154; -514.722
487.387; 1009.294; -637.156; -652.718
487.672; 1761.499; -154.164;  -38.705
487.957; 1155.142; -394.160; -286.711
488.241;  351.871; -290.150; -314.729
488.526; 1169.149; -280.152; -148.726
488.811; 1780.025; -881.177; -818.680
489.096; 1351.726; -666.154; -702.723
489.381;  759.543;    3.847;  162.275
489.666;  583.339; -428.161; -510.710
489.950;  377.530;  558.846;  627.277
490.235;  -98.636; -480.151; -458.728
490.520;  -94.062; -756.161; -723.710
490.804; -154.703; -827.156; -736.719
491.089;    8.594; -469.149; -299.732
491.374;   49.597; -132.164;  -75.704
491.658;    6.611; -817.147; -717.735
491.943;  222.655; -657.152; -609.727
492.227;  387.716; -178.155;  -38.721
492.512;   79.387; -294.157; -341.717
492.797; -113.115; -713.149; -716.731
493.081; -135.785; -588.147; -598.735
493.366;  -70.860; -751.161; -635.711
493.650;  415.193;  831.859;  917.254
493.935;   42.410; -648.147; -447.734
494.219; -107.726; -778.142; -687.743
494.503;  -85.422; -585.150; -487.730
494.788;   52.575;   46.842;   74.285
495.072;  251.373;  184.850;  434.271
495.356;  239.499; -463.148; -343.733
495.641;  645.725; -812.146; -736.736
495.925;  597.804; -976.156; -903.719
496.209;   57.293; -599.149; -451.732
496.494;  -99.325; -763.142; -544.744
496.778;    9.622; -364.154; -360.722
497.062; -110.697; -819.156; -627.719
497.346;  -94.655; -869.160; -640.711
497.631;  314.304;  580.852;  560.266
497.915;  151.340;  -64.145;  175.261
498.199;   78.791; -341.157; -277.718
498.483;   98.046; -562.152; -508.725
498.767;  339.675;  301.850;  300.271
499.051;  329.690; -126.149; -100.732
499.335;   -4.813; -693.149; -739.731
499.619;  -44.860; -381.129; -423.767
499.903;   23.714; -272.155;  -65.721
500.187;   28.433; -588.153; -316.724
500.471;  -13.146; -796.152; -595.727
500.755;  198.439;   62.839;  -96.710
501.039;   34.615; -270.155; -357.721
501.323;  170.995;  -21.141;  264.254
501.607;   52.106; -447.163; -503.706
501.891;  -16.807; -607.156; -512.718
502.174;  -79.844; -726.144; -585.741
502.458;  138.260;   89.849;  370.273
502.742;   67.030; -180.138; -191.751
503.026;  161.109; -412.147; -254.734
503.310;  239.958; -437.159; -375.713
503.593;  187.212; -464.147; -325.735
503.877;  184.589; -232.133; -156.760
504.161;  268.536;    2.847;  -50.724
504.444;  134.478; -841.158; -710.716
504.728;  722.496; -487.164; -522.704
505.012; 1114.970; -257.150;  -76.729
505.295;  822.740; -417.161; -212.711
505.579;  814.603; -256.156; -496.719
505.862; 1103.535; -555.145; -333.738
506.146; 1086.561; -681.159; -758.714
506.429;  673.062;  568.841;  461.286
506.713;  139.366; -732.151; -667.728
506.996;  523.621;   90.846;  295.278
507.280;  512.589; -633.165; -474.703
507.563;  355.812; -469.155; -261.721
507.847;  149.234; -423.153; -112.724
508.130;  127.941; -665.161; -456.711
508.413;  148.562; -758.167; -577.700
508.697;  391.662; -151.167;   12.300
508.980;  206.336; -422.153; -312.724
509.263;    1.607; -466.155; -450.720
509.547;   52.970; -124.150;   82.271
509.830;  120.044; -172.160;  140.289
510.113;  167.003;  128.844;  298.281
510.396;   32.144; -530.152; -300.725
510.680;  176.237; -818.145; -812.738
510.963;  972.528;  184.846;  180.277
511.246;  761.581; -493.150; -357.730
511.529;  432.844; -482.145;  -83.739
511.812;  577.984; -250.134;   10.241
512.095;  355.962; -740.151; -396.728
512.378;  142.618; -317.147; -245.736
512.661;   35.941; -703.137; -623.753
512.944;    4.977; -750.142; -637.744
513.227;  160.437; -170.137; -171.752
513.510;   40.256; -479.144; -671.741
513.793;   35.301; -485.140; -435.747
514.076;  223.071;  -43.127;  -39.771
514.359;  204.995; -294.149; -135.732
514.642;  110.381; -442.142; -567.744
514.925; 1186.599;  581.860;  561.253
515.208; 1485.279; -498.134; -443.758
515.491; 1079.999; -276.133; -182.761
515.773;  548.562; -410.143; -337.742
516.056; 3290.051;  249.864;  409.246
516.339; 4197.756; -754.136; -652.755
516.622; 2924.078; -518.150; -488.730
516.904; 2025.472;  882.857;  975.257
517.187;  884.535; -730.138; -523.752
517.470;  643.070; -568.143; -510.743
517.752;  659.260; -624.136; -470.756
518.035;  459.317; -708.139; -725.749
518.318;  531.856; -799.136; -744.755
518.600; 3664.804; -300.132; -325.762
518.883; 4967.780;  310.858;   88.256
519.165; 2402.025; -585.138; -426.751
519.448;  640.603;  -61.132;  -19.762
519.730;  263.682; -573.126; -415.773
520.013;  577.593;  588.867;  664.240
520.295; 1249.686;  -94.134;  -15.759
520.578; 2730.523; -335.131; -305.764
520.860; 3173.104; -254.132;   56.238
521.143; 1585.764; -763.135; -584.756
521.425;  710.401; -251.125; -279.775
521.707; 1066.271; -622.127; -380.771
521.990; 2631.672; -199.127;  167.229
522.272; 3102.004; -116.140;   -4.748
522.554; 1379.863; -237.143; -157.742
522.836;  564.283;  -24.134;   99.241
523.119;  323.108; -496.148; -189.734
523.401;  232.933; -448.130; -314.766
523.683;   93.042; -865.137; -693.753
523.965;  456.532;  408.862;  260.248
524.247;  422.132;   54.878;  170.220
524.529;  314.586; -451.134; -367.759
524.812;  567.735;   -3.130;  191.234
525.094; 1251.531; -773.138; -631.751
525.376; 1970.914; -143.124;   78.223
525.658; 1266.852; -441.136; -339.754
525.940;   -2.082; -805.131; -671.764
526.222;   75.558; -188.136;  -88.755
526.504;  206.315; -190.131;   32.237
526.786;  265.190; -960.133; -647.760
527.068;  472.822; -124.123;  -67.778
527.349;  185.347; -865.137; -774.754
527.631;  203.603; -137.132;   22.238
527.913;  198.670; -664.127; -450.771
528.195;  158.890; -761.125; -639.774
528.477;  369.879;  -93.134;  -30.758
528.759;  159.835; -648.130; -522.766
529.040;   59.320; -569.123; -293.778
529.322;   96.694; -235.125;  -10.774
529.604;  216.638;  -47.130;   93.233
529.886;  159.281; -546.126; -302.773
530.167;  216.026;  232.870;  192.235
530.449;  101.517;    1.853;   63.265
530.731;   43.730; -572.122; -459.779
531.012;   51.461; -513.120; -216.784
531.294;  149.318; -118.116;  -43.792
531.575;  245.501;  290.875;  538.225
531.857;   45.671; -548.135; -266.757
532.138;  126.793; -113.141;   40.254
532.420;  290.666;  294.865;  403.244
532.701;  296.993; -722.133; -751.760
532.983;  560.998;  232.867;  182.239
533.264;  206.978; -243.126;  175.228
533.546;  -63.443; -491.136; -508.755
533.827;  114.188;  173.867;   -1.759
534.109;   32.171; -352.135;  -80.757
534.390;   98.209; -725.132; -582.762
534.671;  378.166; -270.135;  -82.756
534.953;  144.524; -751.123; -611.779
535.234;   26.496; -426.117; -255.789
535.515; -175.727; -891.119; -735.785
535.796;    7.364; -431.128; -193.770
536.078; -245.287;-1050.124; -904.777
536.359;   15.425;  -22.123;    3.221
536.640;  -34.407; -480.125; -197.774
536.921;  251.746;  225.871;  143.232
537.202;  567.027;  -87.138;  -16.751
537.483;  732.122;  251.869;  377.236
537.764;  278.426;   17.870;   98.235
538.045;  -85.922; -543.134; -371.758
538.326;  -73.551; -596.129; -447.768
538.607;   -0.527; -686.127; -476.771
538.888;  260.048;   98.879;    5.218
539.169;  250.740; -704.122; -535.781
539.450;  507.445;  236.871;   16.233
539.731;  308.853; -361.121; -182.783
540.012;  224.961;  199.880;  412.216
540.293;  149.106;   82.876;  158.224
540.574;  -34.352; -895.113; -717.796
540.855;  704.051;  435.879;  377.218
541.136;  789.336;   47.878;  139.220
541.416;  426.036; -161.130; -220.766
541.697;  274.315; -274.131; -170.763
541.978; 1565.969; -270.135; -315.757
542.259; 1960.772; -211.127; -236.771
542.539;  980.109; -191.116; -186.790
542.820;  340.900;  461.875;  480.225
543.101;  204.639;  -52.145;  -77.738
543.381;  -19.728; -638.127; -591.771
543.662;  446.369;  159.873; -254.771
543.942;  873.366; -751.127; -830.770
544.223; 1549.838;  193.878;  161.219
544.504;  992.013; -275.124; -182.777
544.784;  918.181; -592.126; -408.773
545.065; 2458.014;  104.884; -254.791
545.345; 2883.873;  227.881;   14.215
545.626; 1971.847;  -14.113; -108.796
545.906; 1306.726;   77.869;   98.235
546.186;  605.888;   92.874;  -95.773
546.467;  376.817;   99.877;  -95.778
546.747;  506.508;  264.884;  327.210
547.027;  611.911;   91.876;  111.223
547.308;  428.665; -376.127; -530.770
547.588;  666.950;  299.871;  371.232
547.868;  323.427;  458.870;  588.235
548.149;  398.525;  609.885;  593.207
548.429;  197.970; -347.127; -299.771
548.709;  298.460; -645.120; -461.784
548.989;  757.587;   84.882;   88.213
549.269; 3155.001;   10.868;  139.239
549.550; 7087.623;  215.877;  117.222
549.830; 6351.873; -758.111; -556.799
550.110; 1331.384; -468.110; -320.801
550.390; 1259.331; -128.122;  -56.779
550.670; 1559.441; -868.114; -783.795
550.950; 1182.651; -509.121; -471.782
551.230;  351.445;  549.879;  460.218
551.510;  -13.751; -381.121; -326.782
551.790;   58.796; -173.109; -127.803
552.070;  535.317;  940.877; 1181.223
552.350;  583.879; -492.119; -377.786
552.630;  876.742;   -2.121;   77.219
552.909;  565.615;  181.884;   73.209
553.189;  388.511;  -49.132;   33.237
553.469;  241.878; -703.119; -514.786
553.749;  276.574; -469.127; -357.772
554.029;  258.402;   33.883;  -24.790
554.308;  253.231; -154.115;  -37.794
554.588;   89.463; -196.128; -204.770
554.868;  114.552; -366.121;  -47.782
555.147;  225.327; -114.115;  -46.793
555.427;  972.618; -260.116; -250.792
555.707; 5804.024; -284.115; -200.793
555.986; 6736.578; -719.111; -538.800
556.266; 3756.307;   23.884;   72.210
556.546;  129.949; -888.121; -675.782
556.825;  346.838; -657.114; -556.794
557.105; 2718.760; -125.128;   17.230
557.384; 3146.913;  122.884;  187.209
557.664; 1214.017; -717.116; -508.792
557.943;  157.151; -557.121; -411.782
558.222;  257.992; -345.118; -344.788
558.502;  464.229; -116.115;  -76.793
558.781;  761.223;  194.885;  499.208
559.061;  591.391; -232.118; -227.788
559.340;  498.098;  302.883;  353.211
559.619; 1029.706;   93.884;  148.210
559.899; 1503.601; -239.117; -266.789
560.178; 1342.528; -778.115; -593.793
560.457; 4659.804; -623.117; -562.790
560.736; 6372.380; -472.111; -482.800
561.015; 4407.157; -500.128; -502.769
561.295;  591.024;  180.893;  215.193
561.574;  541.125;  119.885;  116.207
561.853;  778.302;  274.891;  303.197
562.132;  747.332;  -45.114;  182.206
562.411;  684.842;  396.879;  553.219
562.690;  187.722; -592.115; -458.792
562.969;  315.557;  472.888;  630.203
563.248;  992.239; 2966.878; 2487.219
563.527;  357.179; -290.111; -408.800
563.806;  558.370; -650.127; -521.771
564.085;  660.047; -297.105; -206.810
564.364;  325.206; -594.117; -405.790
564.643;  746.543; -276.121; -223.781
564.922; 2855.193;  221.890;  397.198
565.201; 2713.498; -640.109; -700.803
565.479; 1224.420; -297.115; -219.792
565.758;  422.160; -810.128; -712.770
566.037;  696.400; -155.109; -100.803
566.316;  379.814; -286.116;  -28.791
566.595;   74.424;  -17.115;  -12.793
566.873;  204.982; -166.111;  -79.801
567.152;  -69.844; -490.113; -590.797
567.431;   50.508; -113.116;    6.210
567.709;   21.625; -344.107; -212.807
567.988;  317.137; -810.114; -769.794
568.266;  763.724; -160.115;  -68.793
568.545;  537.015; -644.100; -514.819
568.824;  962.019;  160.885;  356.208
569.102;  701.637; -351.114; -235.794
569.381;  330.918; -492.116; -407.792
569.659; -103.149; -553.113; -553.796
569.938;   35.236; -743.122; -465.780
570.216;  188.904; -225.109; -225.804
570.494;  -60.758; -632.114; -572.795
570.773;   85.249;  202.879;  114.218
571.051;   30.821; -373.123; -357.778
571.330;   62.648; -221.113; -174.796
571.608;   67.741; -181.098; -173.823
571.886; -146.730; -671.111; -581.799
572.164; -140.648; -739.121; -621.782
572.443;  -86.648; -562.105; -512.811
572.721;  -26.796; -399.117; -289.790
572.999;  -66.006; -280.117; -168.788
573.277;  186.143;  379.894;  620.191
573.555;  444.446;   94.894;   37.190
573.834; 2006.894;  -86.117; -114.788
574.112; 2344.528;  880.893;  811.193
574.390;  738.580; -143.111;  -96.801
574.668;   27.758;  -91.112;  -61.797
574.946;    0.946; -165.106; -187.810
575.224;    0.398;   71.891;  -16.803
575.502;  -14.189; -200.116; -204.791
575.780; -183.940; -767.112; -829.798
576.058;  322.079; 1589.889; 1004.200
576.336;  -45.013; -210.110; -129.801
576.614;  -94.040; -511.112; -340.798
576.891;   48.431; -711.115; -823.794
577.169;  744.715; -158.108; -285.805
577.447;  859.727;  169.893;  202.193
577.725;  470.367;  629.888;  854.201
578.003;   33.164;  -71.112; -371.798
578.280;  139.665; -208.104; -242.812
578.558;   77.529; -450.115; -422.793
578.836;  212.741; -210.114; -145.795
579.114;   20.858; -630.112; -670.797
579.391;  165.096;   -6.117;  -18.789
579.669; -126.468; -595.114; -704.794
579.947;  262.523; -326.107; -127.806
580.224;  417.522; -692.107; -524.806
580.502;  524.828;  127.893;   76.193
580.779;   47.205;  -42.117;   75.210
581.057; -135.796; -584.109; -470.804
581.334; -180.013; -726.102; -695.815
581.612;  132.147;   54.895;  511.190
581.889;  -45.994;  -83.101; -129.818
582.167;  -41.573; -298.099; -190.821
582.444; -201.702; -845.102; -814.817
582.721;  232.399;  657.899;  715.183
582.999;   69.623; -326.100; -167.821
583.276;  713.327; -812.123; -713.779
583.553;  988.491; -364.102; -294.816
583.831;  322.160; -607.104; -631.812
584.108;  133.612;  349.892;  174.195
584.385;   55.986; -122.102;  -98.815
584.662; -143.918; -651.111; -828.801
584.940;   93.181;  204.889;  204.199
585.217;  -39.849;  -73.113; -303.796
585.494;  111.994;   71.890;  118.198
585.771;  268.905; -250.109; -354.804
586.048;  711.550; -196.113;  -76.796
586.325;  401.386; -721.110; -773.801
586.602;  168.266;  230.896;  213.188
586.879;  -73.782; -499.100; -580.820
587.156;   50.748; -156.105; -331.810
587.433;  -88.305; -701.102; -667.817
587.710;  141.561;  152.888;  234.202
587.987;  426.256; -264.105; -236.811
588.264; 1189.563;  315.888;  387.202
588.541; 2094.069;  -61.104;   26.187
588.818; 3929.008;   72.892;  171.196
589.095; 3419.963; -163.104; -174.812
589.371;  531.302; -459.109; -414.804
589.648;    2.428; -581.107; -437.807
589.925;   51.943; -517.114; -621.795
590.202;  -12.840; -741.112; -607.798
590.478;  184.758; -166.105;  -73.811
590.755;  449.117; -241.108; -132.806
591.032; 3651.989; -741.110; -699.802
591.308; 4841.400; -732.094; -790.831
591.585; 2581.688; -573.110; -560.802
591.862;  127.497;-1056.102; -950.817
592.138;   84.814; -475.108; -474.805
592.415;  224.967; -486.104; -495.813
592.691; 2289.164;  460.896;  518.188
592.968; 2705.344; -208.098; -123.824
593.244; 1336.808; -695.116; -595.790
593.521;  120.198; -105.102;  -42.817
593.797;  -10.267; -810.122; -720.780
594.074;  472.362; -611.096; -588.826
594.350; 1059.379;  828.905;  729.172
594.626;  442.082; -303.111; -283.801
594.903;  154.699; -643.101; -645.817
595.179;  321.272;  243.896;  418.187
595.455;   20.930; -136.107; -150.807
595.731;   60.575;  -19.103;  -38.814
596.008;  -43.526; -464.111; -434.800
596.284;   48.521; -187.100; -242.820
596.560;   82.709; -501.093; -493.833
596.836;  308.251; -173.105;  -70.810
597.112;  497.615; -582.108; -437.805
597.388;  424.159;  -49.097;  -48.826
597.665;  211.754;  437.887;  530.203
597.941; -127.448; -572.089; -658.839
598.217;   22.594; -323.110; -293.802
598.493;  388.707;   61.891; -204.804
598.769;  757.613; -175.100;  -50.819
599.045;  396.919; -490.108; -562.806
599.321;   79.320; -193.100; -261.820
599.597;  178.706; -355.109; -476.804
599.872;  770.969;  409.896;  429.187
600.148;  550.961;  -61.097; -172.826
600.424;  497.926;   91.893;  202.193
600.700;  325.529; -170.107; -280.807
600.976;  156.153; -442.097; -464.825
601.252;  372.101; -226.109; -272.803
601.527;  243.670; -833.104; -840.813
601.803;  217.459; -453.105; -404.812
602.079;  300.613; -124.100; -118.819
602.354;  795.423; -620.092; -531.835
602.630; 1204.951; -140.113; -482.796
602.906; 3527.506; -910.101; -863.818
603.181; 9535.679; -627.119; -534.786
603.457; 8230.958;   98.903; -278.826
603.733; 1208.255; -605.120; -626.783
604.008; 1487.047; -245.106; -164.810
604.284; 4307.701; -636.101; -580.817
604.559; 3807.366;   -3.112;  -42.799
604.835;  736.851; -163.105; -225.810
605.110;  552.528; -732.099; -892.821
605.385; 1038.313;  224.907;  267.167
605.661;  953.483; -625.095; -729.829
605.936; 1556.419; -664.108; -737.806
606.211; 1433.384;  -17.103; -170.815
606.487;  302.935; -329.114; -376.794
606.762;  -28.821; -791.119; -745.786
607.037;   -0.349; -501.105; -433.810
607.313;  -86.927; -589.096; -574.828
607.588;    1.946; -375.106; -137.810
607.863;   73.805;  -28.101; -143.818
608.138;  358.392;  513.890;  516.198
608.413;   -4.367; -576.099; -592.822
608.688;   61.414; -203.108; -267.805
608.964;  292.038; -509.106; -218.809
609.239;  338.047; -107.105; -212.810
609.514;  404.559;  281.895;  240.188
609.789;  938.665; -187.104; -716.812
610.064; 1233.671; -435.096; -609.827
610.339; 1239.802; -855.109; -799.804
610.614; 1620.420; -131.100; -315.820
610.889; 1030.659;  215.895;  107.188
611.163;   23.360; -407.104; -591.812
611.438;  147.837;   81.886; -167.794
611.713;  -61.699; -467.101; -499.817
611.988;   98.104; -144.101; -328.818
612.263;  -88.213; -771.102; -717.815
612.538;  369.450;  385.887;  251.204
612.812;  150.122; -832.100; -911.820
613.087;  211.841; -358.098; -338.823
613.362; -105.370; -497.107; -557.807
613.637;  135.679;  261.897;  138.186
613.911;   -9.576; -256.092; -345.835
614.186;  213.727; -249.107; -292.807
614.460;  906.461; -842.081; -758.854
614.735; 1126.386;  -55.087;  -17.843
615.010;  283.371;   43.912;  -82.841
615.284;  451.513;  360.892;  246.195
615.559;  472.823; -792.092; -955.835
615.833;  455.930;  -76.099;  -87.822
616.108;   21.640; -225.090; -390.837
616.382;  284.588;  274.913;  402.156
616.656;  243.440; -241.090; -232.837
616.931;  693.031; -785.099; -700.822
617.205; 1473.871; -973.104; -979.813
617.480; 1414.397;  -91.125;    6.225
617.754;  259.294; -396.125; -128.774
618.028;   19.851; -369.129; -382.768
618.302;  126.111;   73.892;  -25.805
618.577;  -64.220; -371.103; -518.815
618.851; -108.503; -399.109; -600.803
619.125;  -86.914; -335.134; -378.759
619.399;  -57.728; -244.104; -374.813
619.673;  -82.880; -330.115; -515.792
619.947;  -81.659; -333.114; -448.795
620.222;  -26.716; -198.110; -204.801
620.496;  -18.549;  -47.121;  -96.782
620.770;   16.339; -187.122;  -93.781
621.044;  320.148;  323.895;  346.190
621.318; 1053.455; -653.120; -614.783
621.592;  882.452; -430.121; -409.783
621.866;  484.868; -476.112; -572.799
622.140;   23.910; -207.116; -356.791
622.413;  113.674;  138.889;  112.200
622.687;  -75.199; -746.101; -492.817
622.961;   21.511; -130.108; -143.805
623.235; -116.425; -633.111; -661.800
623.509; -204.342; -816.105; -848.811
623.783;   11.924;  -12.107;   48.193
624.056;  -16.043; -254.120; -280.783
624.330;  131.558;   63.888;   -3.797
624.604;   91.906; -271.116; -355.790
624.877;   95.490;  180.890;   26.198
625.151;   72.633; -249.114; -238.794
625.425;  -72.726; -150.103; -283.814
625.698;  -78.229; -367.119; -374.785
625.972; -168.106; -799.110; -765.802
626.245;  185.408;  685.884;  484.210
626.519; -112.637; -426.120; -340.784
626.792;  -25.671; -192.107; -380.807
627.066; -165.671; -485.122; -662.779
627.339; -152.812; -736.110; -663.802
627.613;   93.861;  351.880;  148.216
627.886;  123.396;  187.891; -612.803
628.160;  -39.645;  312.880; -161.783
628.433; -177.498; -695.125; -703.775
628.706; -147.437; -517.120; -615.784
628.979;   86.711;  296.876;  117.223
629.253; -178.122; -785.119; -833.786
629.526;  575.279; -334.126; -253.772
629.799;  455.121; -641.123; -479.778
630.072;  248.053; -497.128; -516.769
630.346; -173.392;-1115.116;-1080.790
630.619;  629.131; -467.107; -545.808
630.892;  932.876;  709.889;  593.200
631.165;  556.171;  790.896;  679.187
631.438; -201.937;-1092.112;-1055.798
631.711;  143.026;  453.877;  257.221
631.984;  -99.398; -523.117; -624.789
632.257; -102.404; -636.117; -681.789
632.530;  -80.029; -412.119; -433.785
632.803;   86.330; -109.115;    7.207
633.076; -143.283; -360.123; -422.777
633.349;   76.459;  173.872;  121.231
633.622;  -55.731; -187.119; -240.785
633.895; -211.843; -903.120; -823.783
634.167; -108.018; -496.126; -525.773
634.440;   -4.982;  -19.116; -137.792
634.713;   31.676;  -22.119; -120.786
634.986;  215.544;  593.871;  453.233
635.258; -125.272; -507.115; -597.793
635.531;  239.491;  742.882; -343.788
635.804;  -66.400; -303.117; -318.789
636.077; -165.788; -830.116; -852.791
636.349;  -53.375; -586.115; -474.793
636.622;  782.978; 1695.874; 1392.228
636.894;  322.363; -474.120; -909.784
637.167;  194.369; -836.127; -789.771
637.439;   63.664; -278.128; -213.770
637.712;  -64.120; -312.126; -293.772
637.984; -151.987; -635.116; -707.791
638.257;  646.217;  515.877;  488.222
638.529;  737.003; -881.125; -924.776
638.802;  356.653; -508.128; -449.769
639.074; -223.062; -927.122; -952.781
639.346; -230.126; -942.135; -930.757
639.619;   10.079;  -79.142; -319.744
639.891;   53.229;  -83.122; -168.779
640.163; -179.968; -689.122; -756.780
640.435;   85.134;  273.878;  103.220
640.708;   24.037;  -72.122; -132.780
640.980;  -42.960; -366.122; -362.781
641.252;  329.642;  -25.121;  -71.781
641.524; 2750.245;  580.879;  573.219
641.796; 2514.248;-1094.121; -907.782
642.068;  498.350; -191.121; -300.782
642.340; -113.947; -486.121; -566.783
642.613;  104.356;  294.880;  323.217
642.885; -202.442; -787.120; -878.783
643.157;  -83.039; -810.120; -658.784
643.428;  129.064;  170.880;  218.216
643.700;  -94.334; -498.120; -425.784
643.972;  -47.531;  -16.119; -133.785
644.244; -128.428; -474.119; -559.785
644.516;  -88.126; -250.119; -114.786
644.788;  151.877;  662.881;  548.214
645.060;  -20.320;  -12.119; -124.786
645.332; -152.318; -525.118; -535.787
645.603;  127.585;  479.882;  342.213
645.875; -103.012; -334.118; -369.787
646.147;  348.190; 1487.882; 1242.212
646.418; -123.107; -931.117; -918.788
646.690;  153.796; -714.117; -715.789
646.962;   29.498; -413.117; -451.789
647.233;  -23.099;   15.883;   11.211
647.505; -175.496; -595.117; -475.790
647.776;  113.206;  328.884;  229.210
648.048;   13.209; -248.116; -418.790
648.320; -147.388; -752.116; -679.791
648.591; -253.986;-1055.116; -958.791
648.862; -163.783; -505.116; -577.792
649.134;   54.020;  115.885;  198.208
649.405; -103.878; -661.115; -618.792
649.677;  -65.775; -475.115; -598.793
649.948;   -9.072; -181.115; -296.793
650.219;   47.430;  -37.115; -147.793
650.491; -149.767; -431.114; -520.794
650.762; -195.464; -705.114; -731.794
651.033; -141.662; -437.114; -424.795
651.304; -180.259; -743.114; -728.795
651.576; -131.256; -680.114; -645.795
651.847;  -28.354; -250.113; -140.796
652.118;  -20.651;  -32.113; -189.796
652.389; -173.748; -639.113; -722.796
652.660;  -24.546; -147.113;  -89.797
652.931; -249.743; -897.112; -871.797
653.202; -154.740; -382.112; -541.798
653.473; -110.938; -633.112; -533.798
653.744;  199.165; -595.112; -590.798
654.015;  197.068; -356.112; -303.799
654.286; -133.830; -642.111; -663.799
654.557;  -84.627; -586.111; -521.799
654.828; -318.724;-1114.111;-1088.800
655.099; -128.022; -404.111; -291.800
655.370; -164.619; -427.111; -543.801
655.641; -192.416; -656.110; -714.801
655.911; -206.614; -618.110; -638.801
656.182;  148.889;  437.890;  387.198
656.453;  226.292;  830.890;  746.198
656.724; -102.806; -466.110; -426.802
656.994; -129.203; -553.109; -568.803
657.265; -202.500; -862.109; -873.803
657.536; -124.098; -500.109; -377.804
657.806; -173.895; -561.109; -593.804
658.077; -250.292; -866.109; -950.804
658.347; -139.090; -523.108; -598.805
658.618; -193.287; -646.108; -694.805
658.888;    7.116;  -41.108;  112.195
659.159; -151.482; -432.108; -548.806
659.429;  -27.579; -292.108; -349.806
659.700;   23.024; -435.107; -390.807
659.970;  -30.774; -370.107; -359.807
660.241;  -27.571; -754.107; -921.807
660.511;  673.632; -147.107; -174.808
660.781;   70.734; -793.106; -748.808
661.052;  -47.563; -222.106; -381.808
661.322;  -16.260;   21.894;   -9.809
661.592;   82.742;  257.894;  148.191
661.862; -131.255; -369.106; -382.810
662.133; -146.852; -551.105; -502.810
662.403; -253.350; -770.105; -676.810
662.673;  -66.547; -256.105; -213.811
662.943; -188.744; -612.105; -551.811
663.213;   15.458;  -85.105;  -81.811
663.483; -142.339; -593.104; -568.812
663.753;  -60.036; -194.104; -152.812
664.023;   10.766;   68.896;  -32.813
664.293;  -69.331; -319.104; -126.813
664.563; -197.428; -694.104; -648.813
664.833; -191.726; -743.103; -608.814
665.103; -246.823; -730.103; -793.814
665.373; -198.820; -766.103; -806.814
665.643; -202.918; -863.103; -918.815
665.913;   13.785; -534.103; -714.815
666.182;  158.788; -685.102; -719.816
666.452;  397.090;  -22.102;  -89.816
666.722;  -46.307; -724.102; -784.816
666.992; -236.904; -948.102; -921.817
667.261; -172.302; -824.102; -808.817
667.531;  318.701;  134.899;   45.183
667.801;  715.904; -440.101; -412.818
668.070;  450.306;  714.899;  697.182
668.340; -176.291; -883.101; -840.819
668.609;  221.212;  588.900;  301.181
668.879; -162.886; -490.100; -558.819
669.149;  -91.483; -539.100; -516.820
669.418; -209.780; -698.100; -726.820
669.688;  -24.978; -482.100; -666.820
669.957;   58.125; -423.099; -546.821
670.226;    8.528; -268.099; -331.821
670.496; -172.970; -431.099; -635.822
670.765;  -90.167; -418.099; -501.822
671.034; -231.264; -872.099; -828.822
671.304;   42.138;   55.902; -111.823
671.573; -296.359;-1085.098; -957.823
671.842;   83.744; -380.098; -294.823
672.112;   -6.354; -692.098; -586.824
672.381;   23.749; -239.098; -214.824
672.650; -231.048;-1005.097;-1021.825
672.919; -154.146; -631.097; -507.825
673.188; -206.543; -681.097; -878.825
673.457; -264.640;-1101.097;-1143.826
673.726; -160.538; -579.096; -646.826
673.995;  -66.435; -533.096; -479.826
674.265;  -36.732; -263.096; -333.827
674.534;   25.670; -183.096; -235.827
674.802;   -9.527; -618.096; -703.828
675.071; 1533.176; -886.095; -801.828
675.340; 5341.078; -464.095; -339.828
675.609; 1880.881;  103.905;   82.171
675.878;   27.084; -949.095; -893.829
676.147;   64.286;  -26.095;   -8.829
676.416;  153.889; -210.094; -294.830
676.685; 1172.692; 1000.906; -622.830
676.953;  131.694; -603.094; -452.831
677.222;  -32.103; -193.094; -273.831
677.491;   -5.500;  -24.094; -127.831
677.759;   26.402;   11.907;  172.168
678.028;  -23.195; -279.093; -222.832
678.297;   26.308;   71.907;  197.168
678.565; -261.690; -898.093; -944.833
678.834;  -83.387; -311.093; -268.833
679.102; -141.984; -411.092; -391.834
679.371; -249.182; -898.092; -727.834
679.639; -241.479; -797.092; -786.834
679.908; -218.476; -794.092; -724.835
680.176; -296.974; -895.091; -941.835
680.445;  -92.971; -346.091; -352.835
680.713;   20.232;  -58.091;  -23.836
680.982; -136.266; -523.091; -525.836
681.250; -174.263; -578.091; -507.837
681.518; -146.360; -534.090; -751.837
681.787;  -26.158; -204.090; -167.837
682.055;  -78.355; -490.090; -422.838
682.323; -262.652; -993.090; -992.838
682.591;   82.450; -216.090; -538.838
682.859;   78.153;    9.911;  -35.839
683.128;   89.456;  232.911;  497.161
683.396; -303.042;-1102.089;-1122.840
683.664;  -26.839; -241.089;   21.160
683.932;   41.464;  144.911;  -76.840
684.200; -101.334; -576.088; -320.841
684.468;  -14.331;  -73.088; -124.841
684.736;  -11.528; -214.088; -175.841
685.004; -231.526;-1024.088; -982.842
685.272; -116.023; -880.088; -774.842
685.540; -138.320; -499.087; -557.843
685.808; -141.218; -651.087; -682.843
686.076; -212.615; -894.087; -969.843
686.343;  -91.812; -601.087; -815.844
686.611;   93.290; -195.087; -224.844
686.879;  721.393; -530.086; -553.844
687.147; 4623.696; -483.086; -480.845
687.414; 1315.898;  -12.086; -169.845
687.682;  -64.899; -658.086; -757.846
687.950;  504.004;  259.915;  263.154
688.217;  -60.894; -792.085; -760.846
688.485;  -11.691; -632.085; -636.847
688.753;  762.712;  -11.085; -102.847
689.020;  192.214; -820.085; -851.847
689.288; -202.283; -853.084; -787.848
689.555;  -28.480; -195.084; -148.848
689.823;  -53.378; -241.084; -345.849
690.090; -137.775; -546.084; -651.849
690.358; -278.672; -877.084; -897.849
690.625;   73.930;  120.917;   45.150
690.892; -152.367; -403.083; -369.850
691.160;   39.036;   72.917;  -35.850
691.427;   70.038;  141.917;  130.149
691.694; -232.559; -855.083; -929.851
691.962; -289.956;-1177.082;-1060.852
692.229;   75.046;  127.918;   56.148
692.496;  161.749;  130.918;  -49.852
692.763;   37.952; -164.082; -201.853
693.031; -145.446; -739.082; -716.853
693.298;  -58.043; -509.081; -368.853
693.565;  482.360; -155.081; -163.854
693.832; 1752.662;   -5.081;   -9.854
694.099;  170.665; -643.081; -642.855
694.366; -108.832; -882.081; -896.855
694.633; -139.830; -920.080; -633.855
694.900; 1525.473; 4367.920; -114.856
695.167;  610.076; -214.080; -380.856
695.434;  114.578; -646.080; -623.856
695.701;  367.281;  121.921;  -61.857
695.968;  721.484; -365.079; -361.857
696.234; 1737.286; -415.079; -646.858
696.501;16214.089; -776.079; -614.858
696.768; 7704.092; -554.079; -617.858
697.035;  499.294; -632.078; -667.859
697.302;   24.797; -448.078; -552.859
697.568;   28.800; -458.078; -497.859
697.835;  -80.498; -683.078; -624.860
698.102;   -3.795; -498.078; -407.860
698.368;  151.808;  384.923;  396.139
698.635;   -7.690;  -47.077; -424.861
698.901;  -26.187; -240.077; -348.861
699.168;  125.016; -534.077; -456.862
699.435;  113.518;  -72.077;  -13.862
699.701; -231.479; -868.076; -764.862
699.968;  -89.376;  144.924; -441.863
700.234; -133.374; -783.076; -822.863
700.500; -120.571; -448.076; -539.864
700.767;   68.832;   -1.075;   26.136
701.033; -259.366;-1015.075; -963.864
701.299;  -67.963; -450.075; -483.865
701.566;  267.740;  950.925;  763.135
701.832;  117.442;  -31.075;  -76.865
702.098; -171.155;-1054.074;-1034.866
702.365; -144.952;-1098.074;-1030.866
702.631;  -69.050;-1038.074;-1063.867
702.897; 2059.653; -765.074; -676.867
703.163; 3087.056;  348.926;  254.133
703.429;  218.758; -256.073; -273.868
703.695;  -99.039; -796.073; -792.868
703.961;   45.864; -214.073; -210.868
704.227;  -84.634; -630.073; -725.869
704.493;  280.869;  613.927;  510.131
704.759;  -59.628; -565.072; -540.870
705.025;   70.874; -203.072; -194.870
705.291;  -32.423; -666.072; -562.870
705.557;  376.180;  719.928;   34.129
705.823;   13.782; -742.072; -694.871
706.089;  203.985; -307.071; -326.871
706.355;  645.288; -315.071; -244.872
706.620; 9088.890; -776.071; -729.872
706.886;11409.593; -309.071; -362.873
707.152; 1033.896; -818.070; -973.873
707.418;  -88.102;-1153.070;-1186.873
707.683;   30.301; -550.070; -530.874
707.949;  -72.396; -547.070; -578.874
708.215;   57.006; -129.070; -207.874
708.480;  -30.491; -520.069; -420.875
708.746;  182.712;   68.931;   28.125
709.011; -100.186; -578.069; -612.876
709.277; -114.483; -538.069; -543.876
709.542;  -70.480; -428.069; -387.876
709.808;   36.722;  -59.068;   89.123
710.073; -149.975; -577.068; -695.877
710.339;  -31.372; -242.068; -228.877
710.604;  108.930; -780.068; -845.878
710.869;  469.033; -277.068; -366.878
711.135; -157.664; -715.067; -628.879
711.400; -152.862; -507.067; -608.879
711.665;  -86.859; -404.067; -479.879
711.931; -157.456; -661.067; -677.880
712.196; -231.454; -876.067; -954.880
712.461;  136.649; -402.066; -490.880
712.726;  132.052; -727.066; -771.881
712.991; -166.446; -647.066; -664.881
713.256;  -82.743; -350.066; -332.882
713.521;  -66.940; -417.065; -381.882
713.787; -126.438; -454.065; -472.882
714.052;   -2.535; -214.065; -400.883
714.317; -204.332;-1045.065; -981.883
714.581; 1641.470; -374.065; -268.883
714.846; 1910.673; -822.064; -888.884
715.111;  265.776;  261.936;  257.116
715.376;  -24.922;  -86.064; -223.885
715.641;   14.081; -365.064; -367.885
715.906;  387.184;   15.936; -551.885
716.171;  276.286;  221.937;  209.114
716.436;   33.489;  -78.063; -104.886
716.700; -180.608; -818.063; -692.886
716.965; -231.806; -794.063; -807.887
717.230;  -95.403; -339.063; -392.887
717.494;  -19.600;  -40.062; -134.888
717.759; -125.798; -784.062; -640.888
718.024;   44.905;  269.938;  250.112
718.288;  171.708;  685.938;  395.111
718.553; -237.190; -803.062; -977.889
718.817; -231.387; -883.061; -899.889
719.082;  -27.484; -115.061; -125.890
719.346; -229.982;-1000.061; -947.890
719.611;  -44.479; -300.061; -255.891
719.875; -149.176; -568.060; -537.891
720.140; -129.674; -453.060; -603.891
720.404;  141.729; -136.060; -249.892
720.668; 1168.932; -475.060; -411.892
720.933;  473.934;  146.940;  137.108
721.197; -184.663; -667.059; -600.893
721.461; -222.760; -851.059; -826.893
721.725;   22.942;  -21.059; -250.894
721.990;  -43.155; -284.059; -204.894
722.254;  -15.652;  -26.059; -108.894
722.518;  -79.350; -286.058; -442.895
722.782; -144.747; -743.058; -594.895
723.046;  279.956;  614.942;  570.105
723.310;  131.158;  374.942;  210.104
723.574; -159.739; -654.058; -614.896
723.838; -191.536; -576.057; -642.897
724.102;  -18.234; -226.057; -239.897
724.366; -238.831;-1032.057; -978.897
724.630; -151.028; -749.057; -571.898
724.894; -116.226; -722.057; -514.898
725.158;   35.277;   38.944; -295.898
725.422;  -85.120; -394.056; -327.899
725.685; -100.418; -441.056; -349.899
725.949; -140.715; -566.056; -519.900
726.213; -115.512; -732.056; -811.900
726.477;  166.090;-1020.055; -933.900
726.740;  230.293; -274.055; -104.901
727.004;  551.796; -384.055; -510.901
727.268; 4922.198; -442.055; -400.901
727.531; 1181.601; -961.055; -775.902
727.795;  -82.796; -713.054; -673.902
728.059; -102.894; -552.054; -557.903
728.322;  -99.791; -841.054; -669.903
728.586;    8.412; -692.054; -701.903
728.849; -148.286; -695.053; -756.904
729.112; -194.083; -812.053; -912.904
729.376; -205.280; -959.053; -905.904
729.639; -139.478; -536.053; -536.905
729.903; -165.875; -733.053; -699.905
730.166;  -67.072; -437.052; -399.906
730.429;    4.830; -317.052; -468.906
730.693;  -84.967; -355.052; -894.906
730.956;  481.836;  810.948;  651.093
731.219;  951.338; -310.052; -103.907
731.482;  153.341;-1003.051; -894.907
731.745;   69.244; -794.051; -935.908
732.009;   62.346;  -30.051;   50.092
732.272; -175.251; -904.051; -771.909
732.535;  -35.048; -300.051; -310.909
732.798; -303.645;-1083.050;-1166.909
733.061;  -64.543; -430.050; -456.910
733.324;   35.360;   31.950; -180.910
733.587;  198.363;  290.950;  365.090
733.850; -129.635; -973.049;-1050.911
734.113;  116.368;   33.951;   32.089
734.376;   19.471; -328.049; -447.912
734.639;  492.973; 1188.951; 1011.088
734.901;  139.576; -180.049; -402.912
735.164;  784.679; -883.048; -837.913
735.427; 1728.081; -166.048; -355.913
735.690;  217.784; -205.048; -234.913
735.952; -122.513; -923.048; -925.914
736.215; -102.911;-1113.048;-1009.914
736.478;   44.592; -771.047; -774.915
736.740;  348.695;   33.953;  129.085
737.003; 1173.397; -658.047; -672.915
737.266; 5631.100;  -94.047;   46.084
737.528;  636.903; -682.047; -660.916
737.791;  475.405; -316.046; -327.916
738.053; 1351.508;  465.954;  649.083
738.316;16969.511; -162.046; -136.917
738.578;10301.313; -770.046; -736.918
738.841;  649.516; -382.046; -446.918
739.103;  253.919; -875.045; -777.918
739.365;  759.621;   79.955;  -69.919
739.628;  -29.776; -884.045; -805.919
739.890;  -32.373; -758.045; -710.919
740.152;  -59.571; -692.044; -754.920
740.414;   -3.768; -408.044; -359.920
740.677;  -88.465; -785.044; -634.921
740.939;  -71.963; -587.044; -487.921
741.201;  405.640; -432.044; -572.921
741.463;   25.443; -689.043; -745.922
741.725;   59.945;  -21.043; -199.922
741.987;  147.048;  220.957;  116.078
742.249;  -12.649; -751.043; -859.923
742.511;  289.253; -703.043; -794.923
742.773;  -41.344; -546.042; -546.924
743.035;  286.959;  796.958;  533.076
743.297;  -69.439; -963.042;-1013.924
743.559; 1081.864; -278.042; -262.925
743.821;   38.367; -735.042; -744.925
744.083;   93.269;  -44.041; -149.925
744.345; -158.728; -869.041; -892.926
744.607;   96.075;   75.959;  122.074
744.868;  -80.823; -490.041; -554.927
745.130; -217.620; -994.041;-1008.927
745.392;  119.683;   -1.040;  -44.927
745.653;   36.985; -411.040; -378.928
745.915;  346.988;  896.960;  631.072
746.177;  132.491;   35.960;  -43.928
746.438;  -24.507; -428.040; -543.929
746.700;  -73.704; -947.039; -988.929
746.961;   12.599; -659.039; -740.930
747.223;  272.801; -190.039;  -74.930
747.484;  119.104; -391.039; -471.930
747.746;  279.107;  -23.038; -106.931
748.007;  149.309; -647.038; -689.931
748.269;  471.412; -468.038; -440.931
748.530;  576.215; -852.038; -638.932
748.791;  408.517; -354.038; -420.932
749.053;  695.520;  286.963;  163.067
749.314;  678.923; -236.037; -169.933
749.575;  694.825; -945.037; -905.933
749.836; 1310.428; -217.037;   86.066
750.098; 4195.231;  -60.037;  -21.934
750.359;52235.233;  414.964;  555.066
750.620;11847.736; -121.036; -220.935
750.881; 1546.239; -585.036; -513.935
751.142; 2113.641; -950.036; -938.936
751.403;25697.744; -789.036; -705.936
751.664; 9746.847;-1034.035; -999.936
751.925;  761.149; -175.035; -262.937
752.186;  449.752; -298.035; -278.937
752.447;  225.655; -590.035; -445.937
752.708;   47.757; -532.035; -648.938
752.969;    7.060; -566.034; -576.938
753.230;  -33.337; -777.034; -672.939
753.491;    4.065; -650.034; -631.939
753.751;  157.568;  109.966;   19.061
754.012;  223.471;  258.967;  181.060
754.273;  140.973; -174.033;  -71.940
754.534;   53.976; -487.033; -580.940
754.794; -162.621; -926.033; -911.941
755.055;  360.481; 1051.967;  881.059
755.316;  -80.216; -700.032; -566.942
755.576;  -19.513; -606.032; -576.942
755.837;  -65.811; -527.032; -695.942
756.097;  -40.608; -530.032; -564.943
756.358; -152.005; -725.032; -770.943
756.618;  -52.803; -705.031; -641.943
756.879;   44.300; -254.031; -349.944
757.139; -221.397;-1098.031;-1116.944
757.400; -101.495; -538.031; -553.945
757.660;   -7.292; -365.031; -401.945
757.920;   22.511; -266.030; -228.945
758.181;   40.013; -468.030; -351.946
758.441; -206.884; -870.030; -809.946
758.701;   -6.081; -308.030; -215.946
758.961;    2.921; -220.030; -278.947
759.222;  -57.476; -574.029; -502.947
759.482; -148.773; -683.029; -723.948
759.742; -116.971; -706.029; -547.948
760.002;   67.032;  -83.029; -143.948
760.262;   90.035;   50.972;  182.051
760.522;  -73.163; -498.028; -574.949
760.782;  -73.660; -738.028; -612.949
761.042;  -12.857; -618.028; -573.950
761.302;  186.745;   55.972;  -18.950
761.562;  124.048; -164.027; -154.951
761.822;  130.451; -710.027; -551.951
762.082;  -92.547;-1104.027;-1093.951
762.342;  149.656; -328.027; -403.952
762.601;  161.059; -567.027; -506.952
762.861;  616.261; -281.026; -207.952
763.121;  797.064; -406.026; -411.953
763.381;13736.667; -499.026; -485.953
763.640;12592.269; -139.026; -307.954
763.900;  659.972; -242.026; -203.954
764.160;  154.775; -458.025; -491.954
764.419;   11.477; -726.025; -782.955
764.679; -107.920; -795.025; -726.955
764.939;   52.283; -124.025; -210.955
765.198; -113.715; -608.025; -563.956
765.458; -104.612; -710.024; -612.956
765.717; -121.909; -454.024; -590.957
765.976;  -42.107; -428.024; -411.957
766.236; -129.204; -475.024; -610.957
766.495;  132.999;  260.977;   73.042
766.755; -204.099;-1090.023; -987.958
767.014;    5.004; -594.023; -665.958
767.273;  -95.093; -373.023; -397.959
767.533;  -30.991; -228.023; -307.959
767.792;  -14.088; -151.022; -188.960
768.051;  -49.885; -228.022; -276.960
768.310; -132.583; -546.022; -650.960
768.569;   55.720; -161.022;    4.039
768.828;  -37.977; -285.022; -363.961
769.088; -173.675;-1050.021; -942.961
769.347; -122.372; -755.021; -599.962
769.606; -166.169; -876.021; -857.962
769.865; -219.467;-1016.021;-1033.963
770.124;   43.736; -411.021; -336.963
770.383; -152.461; -778.020; -910.963
770.641;   10.641; -398.020; -400.964
770.900; -121.156; -953.020; -846.964
771.159;  -87.353; -851.020; -951.964
771.418;  -45.551; -917.020; -779.965
771.677;  238.552; -224.019; -293.965
771.936;  195.455; -794.019; -865.966
772.194; 4196.857; -465.019; -437.966
772.453;16371.460; -213.019; -391.966
772.712; 1237.163;  416.982;  329.033
772.970;  255.565;   32.982;   63.033
773.229;  213.068;  -22.018;  102.033
773.488; -137.429; -814.018; -770.968
773.746;  164.573;  296.982;  335.032
774.005;   74.676;  190.983;  -22.969
774.263;   76.779;  243.983;  177.031
774.522; -138.619; -422.017; -548.969
774.780;  -97.716; -484.017; -417.970
775.039; -123.813; -551.017; -531.970
775.297;   -0.411; -135.016; -351.970
775.555; -184.708; -489.016; -612.971
775.814; -179.705; -618.016; -570.971
776.072; -200.803; -749.016; -740.971
776.330; -163.700; -630.016; -520.972
776.589; -186.397; -703.015; -721.972
776.847; -187.895; -645.015; -624.973
777.105; -290.292;-1016.015;-1032.973
777.363; -110.689; -459.015; -454.973
777.621; -235.887; -660.015; -717.974
777.879;    0.216;  -42.014;   32.026
778.138; -122.781; -554.014; -717.974
778.396; -141.079; -585.014; -526.975
778.654; -287.376;-1015.014; -970.975
778.912;  -45.173; -269.014; -371.976
779.170; -205.071; -880.013; -803.976
779.427; -246.768; -922.013; -897.976
779.685; -235.465; -880.013; -832.977
779.943; -128.763; -654.013; -593.977
780.201; -285.460; -964.012; -883.978
780.459; -164.557; -651.012; -610.978
780.717; -125.455; -440.012; -390.978
780.974; -132.152; -449.012; -490.979
781.232; -114.249; -358.012; -338.979
781.490; -110.447; -551.011; -472.979
781.747; -150.644; -555.011; -476.980
782.005;  139.859;  462.989;  254.020
782.263; -266.139; -542.011;-1004.981
782.520;  -96.036; -326.011; -501.981
782.778; -307.233;-1013.010;-1051.981
783.035; -320.431; -962.010; -938.982
783.293;  -81.028; -248.010; -206.982
783.550;  -64.225; -134.010; -198.982
783.808; -231.523; -764.010; -776.983
784.065; -266.120; -745.009; -874.983
784.322;  -16.617;   25.991;  -86.984
784.580; -240.915; -915.009; -771.984
784.837; -136.812; -392.009; -466.984
785.094; -187.309; -783.009; -762.985
785.352; -121.307; -304.008; -404.985
785.609; -183.404; -934.008; -839.985
785.866; -123.701; -345.008; -401.986
786.123; -109.599; -639.008; -583.986
786.380; -169.896; -665.008; -604.987
786.637;  -42.393; -225.007; -380.987
786.895;  -56.491; -456.007; -543.987
787.152;  -34.488; -135.007; -267.988
787.409;  -42.885; -123.007; -225.988
787.666; -126.383; -299.006; -378.988
787.923; -175.480; -616.006; -695.989
788.179; -155.677; -551.006; -584.989
788.436; -161.675; -585.006; -585.990
788.693;   15.228;  -92.006;  -87.990
788.950;  259.431; -125.005; -112.990
789.207;  284.333; -381.005; -372.991
789.464;  -67.464; -161.005; -301.991
789.720;   43.039;  150.995;  110.009
789.977; -281.159;-1003.005; -671.992
790.234;   20.944;   44.996;  -66.992
790.490; -223.053; -884.004;-1031.993
790.747;   21.649;  -85.004;   22.007
791.004;  -37.348; -426.004; -348.993
791.260; -106.245; -430.004; -560.994
791.517; -160.543; -843.003; -788.994
791.773;  -64.740; -379.003; -342.994
792.030; -177.237; -596.003; -660.995
792.286; -143.735; -686.003; -636.995
792.543;   21.568;  -74.002; -159.995
792.799;  -72.029; -584.002; -382.996
793.055; -315.227;-1179.002;-1210.996
793.312; -142.924; -827.002; -816.997
793.568;  -61.121; -746.002; -599.997
793.824;   23.181; -226.001; -284.997
794.081;   36.984; -447.001; -508.998
794.337;  116.887; -664.001; -561.998
794.593; 2732.589; -319.001; -271.999
794.849;10263.392; -746.001; -772.999
795.105;  503.995; -270.000; -261.999
795.361;   60.397; -490.000; -457.000
795.617; -133.000; -875.000; -945.000
795.873;  -44.400; -360.000; -407.000
796.129;  -40.000; -368.000; -306.000
796.385;   20.000; -124.000; -156.000
796.641;  196.200;  412.000;  550.000
796.897; -123.200; -666.000; -635.000
797.153;  189.700;  453.000;  357.000
797.409; -171.000; -785.000; -868.000
797.665; -115.100; -625.000; -732.000
797.921; -115.800; -775.000; -762.000
798.176; -106.200; -744.000; -747.000
798.432;  -74.200; -824.000; -596.000
798.688; -168.200;-1174.000;-1078.000
798.943;  170.300; -165.000; -147.000
799.199;  -57.800;-1005.000; -959.000
799.455;  424.200;  369.000;  316.000
799.710;  177.800; -813.000; -380.000
799.966;  464.400; -162.000; -160.000
800.221;  787.500; -638.000; -721.000
800.477;17787.800; -743.000; -710.000
800.732;12194.600; -773.000; -800.000
800.988; 1019.400;  205.000;  -19.000
801.243; 3574.300; -454.000; -344.000
801.498;12129.600; -814.000; -739.000
801.754;  679.300; -289.000; -163.000
802.009;  156.200; -257.000; -335.000
802.264;  -86.500; -967.000;-1033.000
802.520;  114.800;  222.000;   -3.000
802.775;  -59.200; -524.000; -359.000
803.030;  144.000;  395.000;  356.000
803.285; -210.800; -840.000; -903.000
803.540;  -65.500; -686.000; -699.000
803.795;  -76.900; -648.000; -583.000
804.051;  -36.700; -279.000; -346.000
804.306;   89.700;  168.000;  128.000
804.561;  292.100;  451.000;  362.000
804.816;  332.700;  714.000;  861.000
805.071;   66.400; -185.000; -280.000
805.325;  329.800; -257.000; -427.000
805.580; -161.200; -841.000; -877.000
805.835;   -8.600; -204.000; -297.000
806.090;  -96.600; -760.000; -676.000
806.345;   14.500; -344.000; -264.000
806.600;  -62.500; -549.000; -632.000
806.854;  -21.800; -408.000; -538.000
807.109;   32.800; -493.000; -577.000
807.364;   56.800; -407.000; -328.000
807.618;   54.500; -415.000; -381.000
807.873;  102.800; -470.000; -494.000
808.128;  186.700; -257.000; -518.000
808.382;  190.300; -224.000; -332.000
808.637;  160.900; -440.000; -511.000
808.891;  336.900; -257.000; -180.000
809.146;  161.500; -902.000; -794.000
809.400;  435.600; -848.000; -923.000
809.654;  575.900; -779.000; -551.000
809.909;  759.300; -841.000; -927.000
810.163;12303.000; -813.000; -651.000
810.418;24596.700; -940.000; -861.000
810.672; 1565.700; -685.000; -690.000
810.926; 1163.400; -993.000; -973.000
811.180; 2625.500; -439.000; -372.000
811.434;55721.700;  240.000;  135.000
811.689;17261.200; -231.000; -365.000
811.943;  931.000; -936.000; -953.000
812.197;  608.100; -893.000; -671.000
812.451;  233.900; -379.000; -514.000
812.705;  -19.900; -809.000; -619.000
812.959;  -84.600; -263.000; -388.000
813.213;   19.900; -283.000; -209.000
813.467;  196.300;  470.000;  253.000
813.721; -148.500; -764.000; -792.000
813.975; -214.500; -826.000; -877.000
814.229;  173.500;  430.000;  353.000
814.482; -111.100; -517.000; -566.000
814.736; -207.000; -766.000; -744.000
814.990; -222.600; -779.000; -872.000
815.244;  -23.200; -228.000; -285.000
815.497; -149.900; -636.000; -601.000
815.751;   38.200; -141.000;   82.000
816.005; -125.700; -470.000; -586.000
816.258;  -69.400; -510.000; -363.000
816.512; -181.900; -693.000; -610.000
816.766;  117.600;  121.000;  157.000
817.019;   96.100;  148.000;  149.000
817.273; -205.600;-1000.000; -802.000
817.526;    4.800; -206.000; -173.000
817.779;  -93.200;-1049.000; -960.000
818.033; -167.400; -693.000; -807.000
818.286; -196.700; -725.000; -792.000
818.540; -155.600; -403.000; -403.000
818.793;  -85.800; -402.000; -489.000
819.046; -150.700; -582.000; -520.000
819.299;  -10.900; -157.000; -166.000
819.553; -140.700; -552.000; -592.000
819.806; -264.800;-1016.000; -838.000
820.059;  -57.900; -334.000; -354.000
820.312;   94.500;  152.000;  185.000
820.565;   19.000;  110.000;  -27.000
820.818;  -24.900;  -59.000; -173.000
821.071; -272.200;-1041.000; -957.000
821.324; -142.000; -536.000; -540.000
821.577; -172.600; -457.000; -483.000
821.830;  -83.700; -270.000; -172.000
822.083; -205.200; -733.000; -288.000
822.336;  -26.100; -261.000; -167.000
822.589; -230.800; -805.000; -688.000
822.842; -215.100; -875.000; -770.000
823.094; -332.100;-1076.000;-1114.000
823.347; -201.300; -925.000; -729.000
823.600;   69.100;  402.000;  187.000
823.853;  -42.500; -311.000; -267.000
824.105;  -94.900; -331.000; -575.000
824.358; -171.000; -617.000; -716.000
824.611;   94.900;  234.000;   40.000
824.863;  -83.500; -612.000; -591.000
825.116;   91.400;  -33.000;   27.000
825.368;  156.500; -366.000; -372.000
825.621;  227.300; -186.000; -240.000
825.873;  117.200; -704.000; -737.000
826.126; 1105.700; -669.000; -641.000
826.378;18447.200; -389.000; -505.000
826.630; 3266.400; -890.000; -898.000
826.883;   77.000; -754.000; -693.000
827.135;   86.200; -279.000; -270.000
827.387; -195.100; -893.000; -839.000
827.639;  -13.100;  -86.000;   32.000
827.892; -212.700; -742.000; -582.000
828.144; -233.800; -848.000; -804.000
828.396;   10.900;  104.000;  -80.000
828.648; -152.300; -440.000; -333.000
828.900; -235.900; -702.000; -795.000
829.152; -224.900; -684.000; -683.000
829.404;  -64.600; -215.000; -267.000
829.656;  -39.700;  321.000;  214.000
829.908;   20.100;  393.000;  229.000
830.160; -299.300;-1064.000;-1047.000
830.412; -135.200; -481.000; -430.000
830.664; -178.900; -557.000; -665.000
830.916;  -85.200; -268.000; -206.000
831.167; -303.900;-1073.000; -951.000
831.419; -170.200; -623.000; -566.000
831.671; -241.700; -764.000; -809.000
831.923; -126.300; -311.000; -447.000
832.174;  -91.500; -273.000; -331.000
832.426; -198.900; -493.000; -582.000
832.678; -339.700;-1043.000;-1091.000
832.929; -269.700; -947.000; -935.000
833.181; -124.600; -575.000; -677.000
833.432;  -65.100;  -59.000; -186.000
833.684;   49.200;  112.000;  -27.000
833.935; -153.200; -610.000; -566.000
834.187; -183.900; -829.000; -823.000
834.438;  -11.500;  -58.000;  -25.000
834.689;  -61.900; -255.000; -123.000
834.941;  -42.700; -343.000; -244.000
835.192; -144.700; -590.000; -533.000
835.443; -108.200; -419.000; -506.000
835.695;    4.200;  138.000;  -16.000
835.946; -108.900; -608.000; -378.000
836.197; -171.300; -599.000; -622.000
836.448; -125.900; -528.000; -395.000
836.699;  -79.200; -253.000; -341.000
836.950;   72.300;   72.000;    7.000
837.201; -277.600;-1003.000; -987.000
837.452;  -68.000; -356.000; -170.000
837.703; -199.000; -791.000; -737.000
837.954;   -3.600; -205.000; -365.000
838.205; -153.300;-1029.000;-1008.000
838.456;  253.600; -196.000; -282.000
838.707;   33.000; -423.000; -519.000
838.958;    8.200; -634.000; -647.000
839.209;  439.200;   18.000;   40.000
839.460;  202.600; -439.000; -201.000
839.710;  304.100; -135.000; -297.000
839.961;  707.300;  730.000;  612.000
840.212;  532.800; -382.000; -497.000
840.462; 1983.800; -328.000; -277.000
840.713;29739.500; -571.000; -536.000
840.964; 8989.300;  -62.000; -143.000
841.214;  767.800; -384.000; -624.000
841.465;  936.400; -214.000; -141.000
841.715;  778.200; -417.000; -380.000
841.966; 1071.300; -746.000; -685.000
842.216;17602.800; -330.000; -431.000
842.466;51185.800; -169.000; -313.000
842.717; 1946.800; -964.000; -952.000
842.967;  559.800; -635.000; -641.000
843.217;  487.200;   20.000;   28.000
843.468;  187.200; -104.000; -132.000
843.718;  -39.000; -718.000; -726.000
843.968; -140.400; -837.000; -765.000
844.218;   34.100; -315.000; -262.000
844.469;  -58.300; -577.000; -561.000
844.719; -194.700; -537.000; -682.000
844.969; -124.400; -550.000; -580.000
845.219; -251.800; -814.000; -862.000
845.469; -110.500; -392.000; -342.000
845.719; -267.700; -792.000; -884.000
845.969;   76.300;  119.000;  174.000
846.219; -160.900; -738.000; -720.000
846.469;  151.700;  464.000;  432.000
846.718;  -28.900; -115.000;   31.000
846.968; -212.300; -827.000; -827.000
847.218;  -58.000; -224.000; -371.000
847.468; -155.500; -586.000; -555.000
847.718; -249.700; -827.000; -798.000
847.967; -240.600; -826.000; -915.000
848.217; -137.800; -449.000; -569.000
848.467;  -68.600; -405.000; -376.000
848.716; -167.100; -708.000; -725.000
848.966;   27.600; -372.000; -358.000
849.215;  -91.300; -428.000; -419.000
849.465; -144.600; -785.000; -615.000
849.714; -270.200;-1132.000;-1150.000
849.964;  -80.300; -551.000; -613.000
850.213;  -34.000; -393.000; -355.000
850.463;  190.500;  137.000;  340.000
850.712;   -9.200; -542.000; -567.000
850.961;   59.800; -739.000; -678.000
851.211;  153.000; -513.000; -504.000
851.460;  210.100; -635.000; -650.000
851.709;  934.900;  -25.000;   18.000
851.958;18132.000; -912.000; -750.000
852.208;16698.900; -859.000; -879.000
852.457;  668.400; -181.000;  -13.000
852.706;   51.600; -791.000; -823.000
852.955;   46.800; -507.000; -528.000
853.204; -100.500; -521.000; -461.000
853.453; -103.000; -418.000; -458.000
853.702; -226.200; -660.000; -750.000
853.951; -117.500; -532.000; -520.000
854.200; -182.400; -613.000; -562.000
854.449; -204.800; -695.000; -661.000
854.698; -146.800; -340.000; -279.000
854.946;  -63.300; -181.000; -284.000
855.195; -250.700; -843.000; -868.000
855.444; -104.800; -395.000; -420.000
855.693; -200.300; -345.000; -432.000
855.941; -154.300; -387.000; -516.000
856.190;  -65.800; -256.000; -382.000
856.439; -189.800; -652.000; -703.000
856.687;  -78.400;  -99.000;  -72.000
856.936; -164.700; -621.000; -323.000
857.184; -318.200;-1067.000;-1020.000
857.433; -159.000; -423.000; -512.000
857.681; -296.900; -989.000; -953.000
857.930;  -74.500; -282.000; -433.000
858.178; -284.900; -856.000; -929.000
858.427; -249.500; -802.000; -781.000
858.675; -177.800; -377.000; -544.000
858.923; -163.600; -527.000; -819.000
859.172; -318.100;-1094.000;-1070.000
859.420;  -90.800; -339.000; -239.000
859.668; -218.500; -624.000; -628.000
859.916;   18.800;  109.000;  115.000
860.164; -164.000; -699.000; -603.000
860.413;  478.300; -878.000; -696.000
860.661;  166.800; -709.000; -577.000
860.909; -109.400; -339.000; -325.000
861.157; -121.900; -277.000; -444.000
861.405; -173.800; -534.000; -670.000
861.653;   79.100;  310.000;  310.000
861.901;  289.100; -543.000; -613.000
862.149; -116.600; -801.000; -824.000
862.396;  -86.100; -297.000; -187.000
862.644; -125.300; -368.000; -347.000
862.892;   35.800;   98.000;  138.000
863.140; -153.900; -549.000; -530.000
863.388; -221.500; -815.000; -759.000
863.635; -225.800; -642.000; -601.000
863.883;   40.800;  231.000;  190.000
864.131; -153.800; -288.000; -357.000
864.378; -185.900; -675.000; -540.000
864.626; -141.100; -347.000; -415.000
864.873; -163.400; -556.000; -505.000
865.121; -240.200; -714.000; -799.000
865.368;    0.700; -173.000;   75.000
865.616;  -19.900;  -33.000;  -40.000
865.863;  -76.800; -462.000; -506.000
866.111; -193.700; -795.000; -824.000
866.358;  103.800; -426.000; -420.000
866.605; 4178.100;  -64.000; -804.000
866.853; 3083.400; -621.000; -537.000
867.100; -128.600; -728.000; -775.000
867.347; -129.000; -672.000; -611.000
867.594; -145.700; -740.000; -714.000
867.841;  198.400;   97.000;   17.000
868.089; -251.300; -746.000; -698.000
868.336; -157.400; -477.000; -420.000
868.583; -221.100; -637.000; -741.000
868.830;  -26.400; -131.000; -170.000
869.077; -245.900; -859.000; -787.000
869.324; -157.900; -502.000; -458.000
869.571; -197.000; -398.000; -430.000
869.818; -158.300; -485.000; -439.000
870.065; -166.200; -439.000; -513.000
870.311; -163.600; -456.000; -542.000
870.558; -141.400; -332.000; -311.000
870.805;  -77.800; -320.000; -384.000
871.052; -162.400; -494.000; -369.000
871.298;  -57.000; -204.000; -131.000
871.545;  -72.700; -151.000; -185.000
871.792;  -71.700; -173.000; -222.000
872.038;  -75.200;   43.000; -126.000
872.285; -170.300; -496.000; -387.000
872.532; -143.500; -357.000; -387.000
872.778;   92.100;  556.000;  403.000
873.025; -135.800; -384.000; -359.000
873.271;  144.800;  501.000;  578.000
873.517;    9.600; -133.000; -209.000
873.764;  -30.700; -193.000;  -80.000
874.010;  -71.600; -143.000; -230.000
874.257;  -11.300;  123.000;   90.000
874.503; -217.400; -579.000; -479.000
874.749;  -66.200;   31.000;  275.000
874.995;  -50.900;  -80.000;  -20.000
875.242; -186.600; -540.000; -478.000
875.488; -165.600; -414.000; -439.000
875.734;  -33.000; -106.000; -234.000
875.980;  314.000; -872.000;-1032.000
876.226;  445.000; -157.000; -255.000
876.472;   35.900;  343.000;  237.000
876.718;  -14.200;  184.000;  158.000
876.964;    2.200;   56.000;   55.000
877.210; -191.300; -547.000; -677.000
877.456; -210.100; -630.000; -557.000
877.702; -277.000; -821.000; -832.000
877.948; -189.100; -377.000; -497.000
878.193;  115.300;  361.000;  255.000
878.439; -203.800; -487.000; -472.000
878.685; -141.300; -272.000; -343.000
878.931; -203.600; -618.000; -676.000
879.176;  -86.500; -201.000; -201.000
879.422; -290.500; -933.000; -820.000
879.668;  206.500;   10.000;   79.000
879.913;  234.400;   53.000;  137.000
880.159;  -35.200; -112.000;  -17.000
880.404;  -68.500; -152.000; -162.000
880.650;   -1.000;   91.000;  141.000
880.895; -265.700; -670.000; -710.000
881.141; -150.100; -454.000; -428.000
881.386; -222.300; -503.000; -658.000
881.631; -132.800; -311.000; -166.000
881.877;   -3.000;  112.000;  -13.000
882.122; -200.600; -684.000; -600.000
882.367;  -89.300; -136.000; -186.000
882.612;  -50.600;  -80.000; -176.000
882.858; -280.000; -877.000; -823.000
883.103; -115.800; -297.000; -267.000
883.348; -237.100; -759.000; -852.000
883.593; -215.200; -677.000; -602.000
883.838;  -70.500; -311.000;  -24.000
884.083;   92.400;  353.000;  288.000
884.328; -115.800; -564.000; -545.000
884.573;  -18.500; -196.000; -143.000
884.818;  343.500; -694.000; -531.000
885.063;  242.100; -348.000; -315.000
885.308; -159.000; -475.000; -398.000
885.553;   45.100;  245.000;  325.000
885.797; -206.500; -545.000; -615.000
886.042;  -17.200;    8.000;   58.000
886.287; -153.600; -253.000; -211.000
886.532;  -35.000;   26.000;  204.000
886.776; -152.800; -407.000; -525.000
887.021; -202.700; -621.000; -574.000
887.265; -262.400; -685.000; -689.000
887.510; -209.700; -557.000; -496.000
887.755; -143.400; -194.000; -164.000
887.999; -236.200; -552.000; -575.000
888.244;  -48.700;  -58.000;  161.000
888.488;   69.300;  371.000;  393.000
888.732; -192.200; -368.000; -520.000
888.977; -176.600; -622.000; -567.000
889.221; -260.600; -683.000; -659.000
889.465; -157.100; -422.000; -566.000
889.710; -102.900;  -56.000; -299.000
889.954;   77.000;  579.000;  467.000
890.198; -222.400; -584.000; -707.000
890.442; -200.300; -716.000; -712.000
890.687; -274.400; -800.000; -753.000
890.931;  -98.200; -273.000; -210.000
891.175; -224.500; -502.000; -500.000
891.419;  -66.000; -105.000; -110.000
891.663; -113.200; -239.000; -112.000
891.907; -245.700; -801.000; -545.000
892.151; -293.100; -920.000; -815.000
892.395; -136.700; -274.000; -387.000
892.638;   71.100;  408.000;  291.000
892.882; -274.700; -780.000; -867.000
893.126;  126.000;  758.000;  558.000
893.370;  -92.800; -167.000; -168.000
893.614; -238.500; -714.000; -715.000
893.857;  -93.500; -183.000; -197.000
894.101; -182.500; -527.000; -631.000
894.345;  -41.500;  300.000;  150.000
894.588;  124.000;  569.000;  380.000
894.832;  -76.100; -178.000;  -84.000
895.075; -111.000;   15.000;  -92.000
895.319; -200.600; -552.000; -420.000
895.563; -171.200; -413.000; -353.000
895.806; -234.800; -628.000; -741.000
896.049;  -91.300; -576.000; -368.000
896.293;  237.400;  527.000;  405.000
896.536; -135.700; -465.000; -468.000
896.779;  -57.000; -149.000;   -1.000
897.023; -249.100; -751.000; -714.000
897.266;   29.800;  325.000;  269.000
897.509; -315.400; -900.000; -901.000
897.752;  -19.700;  149.000;  171.000
897.996; -315.300; -972.000; -864.000
898.239;   -1.000;  168.000;  102.000
898.482; -175.200; -431.000; -453.000
898.725;   -2.300;  101.000;   53.000
898.968; -265.500; -609.000; -744.000
899.211; -154.100; -513.000; -361.000
899.454; -204.600; -633.000; -539.000
899.697;  -48.400;   90.000;  -43.000
899.940; -250.000; -761.000; -757.000
900.182; -115.400; -335.000; -405.000
900.425; -137.200; -150.000; -298.000
900.668;   26.200;  491.000;  350.000
900.911; -123.000; -292.000; -345.000
901.154;   -4.800;  141.000;   -3.000
901.396; -203.400; -407.000; -412.000
901.639; -207.800; -430.000; -496.000
901.882; -321.600; -790.000; -809.000
902.124;  -89.900;  -29.000; -143.000
902.367; -190.800; -315.000; -361.000
902.609; -195.700; -476.000; -453.000
902.852; -110.300; -108.000; -260.000
903.094; -185.400; -458.000; -337.000
903.337;   -8.400;  -26.000;   53.000
903.579; -152.600; -228.000; -441.000
903.821; -263.400; -597.000; -744.000
904.064;  -52.000;   85.000;  127.000
904.306; -132.600; -126.000; -166.000
904.548; -129.700; -152.000; -366.000
904.790; -161.800; -195.000; -340.000
905.033; -207.700; -625.000; -577.000
905.275; -185.000; -513.000; -524.000
905.517;  139.200;  468.000;  256.000
905.759; -141.300; -667.000; -761.000
906.001; -154.600; -322.000; -369.000
906.243;  -63.700; -162.000; -224.000
906.485;  229.800; -265.000; -207.000
906.727;  110.500; -499.000; -542.000
906.969;  -13.400;  -30.000; -135.000
907.211;  235.900; -316.000; -382.000
907.453;  427.900; -188.000; -237.000
907.695;  -22.900; -158.000; -385.000
907.936;  174.500;  818.000;  706.000
908.178;  -57.900;   92.000; -135.000
908.420;  -97.200; -111.000; -162.000
908.662; -235.200; -633.000; -682.000
908.903;  -96.100; -208.000; -123.000
909.145;  -66.100; -240.000; -305.000
909.386;   64.800;  315.000;  280.000
909.628;  142.700;  363.000;  397.000
909.870;   64.700;   29.000;  264.000
910.111; -190.700; -809.000; -949.000
910.353;   89.900; -123.000; -161.000
910.594;   11.800; -574.000; -606.000
910.835;  198.000; -265.000; -326.000
911.077;  241.100; -503.000; -604.000
911.318;  566.000; -505.000; -471.000
911.559;  846.200; -577.000; -880.000
911.801; 2655.700; -284.000; -280.000
912.042;22922.200;  -50.000; -159.000
912.283;47276.100;  404.000;  371.000
912.524; 5559.600; -396.000; -457.000
912.765;  906.600; -193.000;   79.000
913.006;  434.200; -307.000; -338.000
913.247;  129.000; -270.000; -290.000
913.488;   28.700;  -43.000;   30.000
913.729; -114.900; -373.000; -373.000
913.970;  -81.200;  -96.000; -292.000
914.211;  -70.400; -160.000; -198.000
914.452;  -74.800; -118.000;  -11.000
914.693;   96.000;  510.000;  592.000
914.934;   86.900;  510.000;  440.000
915.175;   -9.400;   53.000;  -95.000
915.415; -105.800; -137.000;   27.000
915.656;  -46.800;  -28.000;  192.000
915.897; -116.600; -252.000;  -82.000
916.137;  -69.100;   74.000;   -9.000
916.378; -222.100; -573.000; -517.000
916.619; -146.200; -159.000;  -63.000
916.859;  -11.700;  303.000;  330.000
917.100;  382.000; 1655.000; 1070.000
917.340;  166.700;  930.000;  728.000
917.581;  181.900;  965.000;  789.000
917.821;  -34.800; -171.000;  143.000
918.061;   20.800; -199.000;  -72.000
918.302;  -67.800; -152.000; -211.000
918.542;    7.600;  -22.000;    3.000
918.782;   93.600;  369.000;  377.000
919.023;  285.700;  360.000;  427.000
919.263; 3546.500; 8131.000;  202.000
919.503; 1654.300; -137.000;  -54.000
919.743; 1078.400;  390.000;  266.000
919.983;  388.800; -134.000;  -26.000
920.223;  157.200;  135.000;   14.000
920.463;  344.800;  631.000;  554.000
920.703;  223.900;   84.000;   39.000
920.943;  336.300; -110.000;   90.000
921.183;  388.500; -414.000; -405.000
921.423;  913.300;  307.000;  546.000
921.663; 1207.200; -174.000; -257.000
921.903; 2812.400;  237.000;  173.000
922.143;17032.300;  372.000;  389.000
922.383;56858.900;  158.000;  115.000
922.622;14558.400; -120.000;  -15.000
922.862; 1825.600;  796.000;  785.000
923.102;  723.100;  -51.000;   33.000
923.341;  350.500;   59.000;   74.000
923.581;  141.600;  450.000;  360.000
923.821;   89.800;  301.000;  398.000
924.060;   76.100;  351.000;  193.000
924.300;  -68.300;  -16.000; -128.000
924.539;   64.200;  584.000;  473.000
924.779;   92.900;  812.000;  597.000
925.018;  -53.200;  247.000;  353.000
925.257;   31.700;  595.000;  666.000
925.497;  -18.400;  447.000;  412.000
925.736;  -59.600;  -35.000;  102.000
925.975;   70.000;  687.000;  669.000
926.214;  145.500;  907.000;  850.000
926.454;  111.000;  706.000;  757.000
926.693;   40.200;  419.000;  543.000
926.932;  165.800; 1021.000;  825.000
927.171;  257.100; 1107.000; 1044.000
927.410;  187.100; 1144.000;  967.000
927.649;  140.300;  924.000;  742.000
927.888;   31.700;  590.000;  564.000
928.127;   65.500;  680.000;  678.000
928.366;  131.700;  842.000;  826.000
928.605;  150.100;  831.000;  737.000
928.844;  507.500; 1451.000; 1393.000
929.083; 1036.100;  770.000;  613.000
929.321;  541.300; 1335.000; 1359.000
929.560;  276.300; 1158.000; 1122.000
929.799;   34.100;  574.000;  475.000
930.038;  261.800; 1025.000; 1394.000
930.276;  -43.400;  334.000;  397.000
930.515;  101.100;  827.000;  681.000
930.753;   -3.200;  614.000;  589.000
930.992;   12.800;  664.000;  717.000
931.230;   68.000;  847.000;  847.000
931.469;  472.900; 2162.000;  892.000
931.707;  222.100;  840.000;  751.000
931.946;  243.200; 1278.000; 1344.000
932.184;  222.000; 1437.000; 1175.000
932.423;  161.700; 1265.000;  963.000
932.661;  237.400; 1296.000; 1428.000
932.899;  137.300;  987.000;  821.000
933.137;   50.900;  754.000;  564.000
933.376;  364.800; 1664.000; 1335.000
933.614;  380.300; 1759.000; 1196.000
933.852;  189.000; 1357.000; 1171.000
934.090;  337.100; 1722.000; 1747.000
934.328;  275.200; 1252.000; 1457.000
934.566;  213.300; 1431.000; 1110.000
934.804;  329.800; 1263.000; 1309.000
935.042;  911.300; 1861.000; 1850.000
935.280; 3452.900; 2088.000; 2063.000
935.518; 2621.200; 2113.000; 2007.000
935.756;  685.000; 2481.000; 2316.000
935.994;  367.700; 1808.000; 1751.000
936.231;  781.600; 2890.000; 2950.000
936.469;  456.600; 2367.000; 2378.000
936.707;  429.900; 2220.000; 2167.000
936.945;  549.800; 2825.000; 2882.000
937.182;  512.400; 2679.000; 2741.000
937.420;  678.800; 3602.000; 3031.000
937.657;  913.000; 3365.000; 3478.000
937.895;  762.300; 3331.000; 3488.000
938.133;  738.100; 3540.000; 3528.000
938.370;  763.700; 3896.000; 4191.000
938.607;  889.600; 4488.000; 4205.000
938.845; 1203.500; 5587.000; 5549.000
939.082; 1087.300; 5387.000; 5177.000
939.320; 1146.400; 5799.000; 5728.000
939.557; 1351.300; 6549.000; 6491.000
939.794; 1579.000; 7285.000; 7097.000
940.031; 1907.500; 8421.000; 8368.000
940.269; 2241.200; 9552.000; 9107.000
940.506; 2350.400;10901.000;10507.000

