
Integration time [ms]: 200.000
Averaging Nr. [scans]: 10
Smoothing Nr. [pixels]: 0
Data measured with spectrometer [name]: 2101013U2
Wave   ;Sample   ;Dark     ;Reference
[nm]   ;[counts] ;[counts] ;[counts] 

394.013;  -34.461; -450.257; -315.536
394.305;   84.138; -461.258; -419.536
394.596;  535.757; -676.269; -527.514
394.887; 1312.670; -796.268; -654.518
395.178;  619.694;  145.736;   11.476
395.470;   19.003; -210.263; -356.526
395.761;  268.082;  305.734;  394.479
396.052;  220.859; -545.284; -306.489
396.343;  178.814; -557.276; -454.503
396.634;   47.789; -200.279; -290.497
396.926;   19.668; -618.268; -565.517
397.217;   85.017;   11.725;  -17.504
397.508;  -49.470; -366.273; -154.507
397.799;  -90.311; -555.279; -571.497
398.090; -169.915; -973.280; -902.495
398.381;  108.501;   11.708;  -11.473
398.672; -102.798; -585.292; -742.473
398.963;  -42.406; -348.279; -373.498
399.254;   67.809;   54.709; -209.475
399.545; -161.821;-1017.266; -883.520
399.836;  -21.695; -407.277; -343.501
400.127;   30.382; -205.295; -209.468
400.418;  -10.775; -423.274; -392.506
400.709;   -2.525; -359.281; -333.493
401.000;  -13.588; -268.291; -309.476
401.290;  146.633;  225.698;  115.545
401.581;   35.346; -166.286; -228.485
401.872;  -46.540; -542.298; -486.462
402.163;   41.476; -313.296; -252.467
402.454;   66.409; -123.291; -163.475
402.744;  -90.830; -844.297; -813.465
403.035;  252.894; -226.293;  -86.471
403.326;  340.804; -366.292; -384.474
403.617;  335.656;  204.701;  165.539
403.907;   58.664; -593.283; -679.490
404.198; 1230.697; -545.307; -599.446
404.489; 3239.868; -618.283; -588.491
404.779; 1148.935; -618.302; -660.456
405.070;  174.419;  -67.304; -174.451
405.360;  159.995; -259.293; -238.472
405.651;  298.944;  125.699;   98.542
405.942;  117.742;  209.714;  127.516
406.232;  104.654; -432.285; -413.487
406.523;  483.090;  641.706;  758.530
406.813;  -33.956; -579.286; -644.484
407.104;  307.700;  261.708;  144.527
407.394;   34.257; -604.299; -591.462
407.685;  184.353;  336.715;  222.513
407.975;  -31.733; -400.283; -382.490
408.265;  113.621; -134.289; -190.478
408.556;  -18.293; -472.291; -459.475
408.846;  233.791;  474.706;  429.530
409.137;   97.627;   -1.288; -216.480
409.427;    1.353; -193.285; -271.487
409.717;  -46.368; -776.273; -692.508
410.007;  119.648;    4.715; -170.486
410.298;   36.784; -360.295; -342.469
410.588;    5.551; -495.285; -510.486
410.878; -116.564; -792.287; -873.482
411.168;   28.262; -481.298; -478.463
411.459;   67.062; -295.283; -242.489
411.749;  -58.094; -609.292; -507.474
412.039;  -75.074; -755.289; -386.480
412.329;  171.600;   40.722;  132.501
412.619;  115.144;  -62.286; -148.485
412.909;  361.823;  639.711;  594.521
413.199;  172.885; -130.280; -251.495
413.490;  381.015;  521.710;  352.523
413.780;  -33.812;-1013.279; -913.496
414.070;  215.715;  -46.276;  235.497
414.360;   99.497; -729.278; -666.498
414.650;  134.033; -726.288; -688.482
414.940;  287.588; -538.280; -441.496
415.230;  586.930;   50.712;   74.519
415.520; 3562.657;  155.730;   66.486
415.809;13219.975; -305.281; -125.493
416.099;10525.507; -388.277; -229.501
416.389; 3054.224;  435.726;  236.494
416.679; 1834.806;   91.738;   85.473
416.969;  310.539; -527.287; -503.483
417.259;  443.590;  341.721;  171.503
417.549;  511.274;  522.718;  318.508
417.838;  949.170; -205.268; -147.518
418.128; 3020.219;  650.710;  492.522
418.418; 2331.837; -491.272; -579.509
418.708; 1805.124;    9.726;  -48.506
418.997; 6194.221; -474.275; -480.505
419.287; 6369.529; -733.273; -790.507
419.577; 6242.662; -160.283; -123.489
419.866;20296.906; -588.277; -498.501
420.156;21457.753; -242.270;  -55.513
420.446; 4301.500; -112.263;  -26.526
420.735;  535.449; -376.271; -446.512
421.025;  946.496; 1830.722;  315.502
421.314;  533.347; -203.271; -226.512
421.604; 1149.364;   89.732;  233.484
421.893;  560.944; -705.271; -602.511
422.183;   80.100; -487.263; -461.526
422.472;  298.945;  -36.271; -107.511
422.762;  257.684; -416.266; -379.521
423.051;   31.715; -916.276; -916.503
423.341;  156.131; -491.273; -439.507
423.630;  277.288; -121.265;   15.477
423.919;  246.220;   58.725;   49.495
424.209;  250.404;  -31.263;   56.473
424.498;  357.568;   68.732;  161.483
424.787;  571.573; -535.267; -601.518
425.077; 1935.887;   34.735;   29.478
425.366; 2681.808; -734.262; -744.528
425.655; 5722.331;  639.727;  259.493
425.945;10928.409; -313.247; -268.554
426.234; 6391.026;  117.741;  300.467
426.523; 2687.130;  -86.259; -350.534
426.812; 3975.380;  107.734;  159.480
427.101; 5934.761; -127.269; -323.515
427.390; 7567.456;  -55.270;  -86.514
427.680; 1865.246; -624.257; -411.538
427.969;  329.654; -330.255; -301.540
428.258;  145.139; -385.257; -477.536
428.547;  450.340;  449.728;  397.490
428.836;  813.967; -421.253; -398.543
429.125; 1267.032; -199.259;  -72.534
429.414;  573.884; -330.251; -294.548
429.703; 1838.184; -231.251; -213.548
429.992; 4962.387; -938.250; -828.549
430.281; 3443.194; -397.264; -331.524
430.570;  489.377;  -21.252;   32.454
430.859;  534.430;  279.741;  352.466
431.148;  516.306;  636.752;  631.446
431.437;  327.877;  391.748;  367.454
431.725;   69.940; -544.257; -481.536
432.014;  -42.428; -845.253; -756.545
432.303;  206.665; -149.239; -105.569
432.592;  341.099; -460.263; -178.525
432.881;  516.107; -601.248; -437.554
433.169; 3298.655; -343.255;  -61.540
433.458; 6581.291;  445.765;  540.424
433.747; 2856.713; -397.261; -289.529
434.036;  519.646; -275.242; -280.564
434.324; 1095.197; -395.249; -379.551
434.613; 1997.441;   40.757;  159.437
434.902;  849.457;  333.760;  439.433
435.190;  440.964;   75.761;  295.431
435.479;  291.927;  -52.245;   83.441
435.767;   31.233; -411.244; -427.561
436.056;  102.243; -340.242; -294.563
436.345;  209.159; -372.240; -223.568
436.633;  324.993;   60.750;  383.450
436.922;  307.461;  208.760;  414.432
437.210;  463.384; -194.236;    1.426
437.499; 1464.090; -583.235; -432.576
437.787; 1728.783; -339.236;  -10.574
438.075;  462.168;   56.761;  162.430
438.364;  519.970;  -44.238;  250.429
438.652;  290.452; -286.226; -138.592
438.941;  165.524;    3.770;  269.415
439.229;  -71.125; -665.252; -466.545
439.517;   32.596; -160.234;  -85.577
439.806;  -75.236; -501.225; -290.595
440.094;  201.402;  377.766;  650.421
440.382;   30.805; -653.233; -302.580
440.670;  111.090; -361.235; -285.576
440.959;  -58.822; -347.223; -170.599
441.247;   46.133; -151.229; -109.587
441.535;   56.995; -266.235;   31.423
441.823;  -22.400; -497.234; -305.578
442.111;  193.336;  173.771;  327.412
442.400;  299.326; -628.245; -335.559
442.688; 1064.502; -111.234; -620.579
442.976;  746.446; -786.213; -450.617
443.264;   27.370; -324.224; -364.597
443.552;   24.953; -258.226;   51.408
443.840;  249.694;  602.765;  876.423
444.128;  156.605;  265.767;  269.420
444.416;  -91.662; -694.228; -312.588
444.704;  -44.099; -465.219;  -92.605
444.992;   62.755;   -0.226;  240.407
445.280;    6.025; -517.230;  -94.585
445.568;  -66.151; -694.212; -396.618
445.856;  264.189; -174.221;  357.398
446.143;  561.998;  -54.220;   -7.604
446.431;  577.941;  -25.228;  625.411
446.719;  278.416;  489.783;  675.391
447.007;  253.720;  481.769;  705.416
447.295;  220.276;  597.777;  871.402
447.583;   24.231; -464.229;  -34.587
447.870;   29.886; -434.221; -202.601
448.158;  313.224; -104.230;  129.415
448.446;  130.599; -800.219; -338.604
448.733;   92.571;   13.776;  269.403
449.021;  210.749;   60.788;  341.382
449.309;  146.461; -296.210;  208.379
449.596;  206.313;  128.783;   59.392
449.884;   21.581; -571.222; -325.600
450.172;  -26.255; -756.227; -406.590
450.459;  399.533;  645.786;  780.387
450.747; 1207.612; -411.218; -147.608
451.034; 4007.442;  493.772;  889.411
451.322; 3251.736; -413.214; -170.614
451.609;  388.872;  292.777;  508.403
451.897;  249.210; -550.203; -183.634
452.184;  830.976; -622.223; -400.598
452.472; 1003.777;   97.792;  269.375
452.759;  368.399;  512.781;  864.395
453.047;   42.247; -407.212; -125.617
453.334;   -5.394; -732.219; -216.606
453.621;   -4.462; -438.214; -161.615
453.909;  122.203;   13.796;  384.368
454.196;  102.239; -299.199; -123.641
454.483;  258.720;  317.798;  540.364
454.771;  107.980; -215.208;  196.374
455.058;   33.182; -316.207;  102.374
455.345;  156.182;   71.807;  344.347
455.632;   88.685; -128.207;  235.373
455.919;  106.456;  -82.196;  182.354
456.207; -141.558; -774.198; -450.642
456.494;  -79.071; -475.200;  -66.639
456.781;  -27.284; -399.202; -198.635
457.068;   62.690; -253.206;  -29.628
457.355;  -88.609; -698.206; -401.629
457.642;  -62.105; -552.205; -290.630
457.929;  -98.325; -778.194; -417.651
458.216;  -41.353; -575.212; -354.617
458.503;  194.478; -173.193;  -19.652
458.790;   53.078; -864.208; -630.625
459.077;  197.220;  -77.202;  110.364
459.364;  458.569; -350.195; -210.649
459.651;  961.788;  -46.206;  220.372
459.938;  312.370; -864.209; -665.623
460.225;  168.423;  132.799;  276.363
460.512; -164.146; -836.197; -688.645
460.799;   90.511;  -32.218;  320.392
461.086;    9.733; -370.200; -251.640
461.372;  -47.457; -509.198; -279.642
461.659;  102.157; -165.196;  108.354
461.946;   14.477; -445.193;  -54.651
462.233;  352.931;  842.800;  888.361
462.519;  110.628; -814.201; -464.639
462.806;  431.955; -768.197; -497.645
463.093;  422.893; -445.191;  -66.656
463.380; -165.674; -920.186; -824.664
463.666;   31.856; -259.197;  -18.646
463.953;   66.565; -406.195; -243.648
464.239;  134.065; -173.195;  -77.648
464.526;  411.074;  413.806;  743.350
464.813;  186.303; -565.190; -304.658
465.099;  350.678;  606.807;  607.348
465.386;  459.681;  903.807;  921.348
465.672;  -62.345; -694.197; -522.645
465.959;  -33.083; -598.188; -520.662
466.245;   -7.619; -468.193; -359.652
466.532;   94.264; -109.195;   63.352
466.818;   34.425; -357.186; -216.664
467.104;  -79.143; -488.182; -415.672
467.391;  -69.096; -628.189; -459.658
467.677;   34.328; -289.186;    9.335
467.964;  -46.291; -682.189; -471.660
468.250;   52.330; -331.186; -160.665
468.536;  100.805;   90.811;  180.341
468.822;  -98.660; -821.184; -574.668
469.109;  243.020;  351.827;  471.311
469.395;  293.289;  729.808;  787.346
469.681;  149.807;   46.811;  156.341
469.967;  647.911; -699.188; -382.660
470.254; 1394.517; -494.188; -306.662
470.540;  921.756; -601.196; -476.646
470.826;  116.665; -488.181; -397.675
471.112;  264.142;  288.816;  113.331
471.398;   99.446; -253.183;  -58.670
471.684;  -22.113; -626.177; -447.680
471.970; -121.332; -918.180; -981.675
472.256;   11.788; -521.192; -441.654
472.542;  -38.772; -499.171; -434.691
472.828;  -82.346; -743.182; -607.672
473.114;    6.062; -380.166; -283.700
473.400;  -43.300; -504.175; -293.684
473.686;  -16.233; -452.166; -400.701
473.972;   53.612; -230.174; -131.687
474.258; -149.580; -925.173; -843.689
474.544;  162.481; -183.178;   -2.679
474.830;  256.002;  -65.175;   45.316
475.116;  333.404; -123.190; -196.658
475.401;  397.670; -558.180; -467.676
475.687;   54.169; -725.180; -718.676
475.973;  -60.040; -673.181; -770.673
476.259;  332.703;  736.825;  764.315
476.544;  221.294; -539.176; -437.682
476.830;  537.325; -398.172; -322.690
477.116;  479.393; -430.177; -336.682
477.401;  207.270;  346.820;  358.324
477.687;  -61.100; -289.175; -405.684
477.973;   62.663;   21.819;   28.326
478.258;  -62.717; -448.163; -348.706
478.544;   71.034;   21.815;   61.334
478.829; -165.367; -818.171; -738.692
479.115; -100.675; -749.172; -651.690
479.401;  -31.992; -444.174; -449.686
479.686;   32.769; -253.180;  -74.676
479.972; -110.115; -886.178; -776.680
480.257;   48.963; -258.166;  -65.700
480.542;  -63.764; -614.170; -469.693
480.828;  433.099; 1288.824; 1392.317
481.113;  -68.503; -464.176; -426.683
481.399;  -20.098; -236.161; -202.711
481.684; -110.237; -620.166; -462.700
481.969;   61.212; -158.159;  -73.713
482.255;  -33.156; -439.169; -285.695
482.540;  -51.315; -569.178; -441.680
482.825;  -32.278; -395.187; -404.663
483.110;   99.046;  -85.169; -105.696
483.396;   48.929; -840.157; -652.718
483.681;  470.512;  543.826;  730.313
483.966;   31.807; -696.160; -700.712
484.251;    2.411; -404.174; -310.687
484.536;   -3.929; -356.165; -378.703
484.822;  -22.687; -205.173; -218.687
485.107;  -83.841; -599.152; -502.726
485.392;  234.876;  662.836;  541.296
485.677;  126.454;  354.832;  163.302
485.962;  161.827;  160.843;  270.283
486.247;  111.789;  -14.162;   -8.707
486.532;   39.264; -178.166; -325.701
486.817;  209.997;  381.839;  431.291
487.102;   -0.555; -453.154; -514.722
487.387;  372.630; -637.156; -652.718
487.672;  724.780; -154.164;  -38.705
487.957;  443.403; -394.160; -286.711
488.241;  161.272; -290.150; -314.729
488.526;  555.660; -280.152; -148.726
488.811;  661.287; -881.177; -818.680
489.096;  519.947; -666.154; -702.723
489.381;  352.657;    3.847;  162.275
489.666;  219.701; -428.161; -510.710
489.950;  307.350;  558.846;  627.277
490.235;  -69.832; -480.151; -458.728
490.520; -114.199; -756.161; -723.710
490.804; -161.468; -827.156; -736.719
491.089;  -15.916; -469.149; -299.732
491.374;   50.779; -132.164;  -75.704
491.658; -112.507; -817.147; -717.735
491.943;   34.363; -657.152; -609.727
492.227;  176.942; -178.155;  -38.721
492.512;   24.127; -294.157; -341.717
492.797; -163.521; -713.149; -716.731
493.081; -108.905; -588.147; -598.735
493.366; -106.398; -751.161; -635.711
493.650;  326.036;  831.859;  917.254
493.935;  -47.508; -648.147; -447.734
494.219; -121.674; -778.142; -687.743
494.503; -106.725; -585.150; -487.730
494.788;   62.820;   46.842;   74.285
495.072;  179.273;  184.850;  434.271
495.356;   98.186; -463.148; -343.733
495.641;  265.700; -812.146; -736.736
495.925;  173.736; -976.156; -903.719
496.209;  -33.917; -599.149; -451.732
496.494; -107.173; -763.142; -544.744
496.778;  -24.855; -364.154; -360.722
497.062; -124.165; -819.156; -627.719
497.346;  -95.896; -869.160; -640.711
497.631;  232.689;  580.852;  560.266
497.915;  100.608;  -64.145;  175.261
498.199;   40.329; -341.157; -277.718
498.483;  -16.642; -562.152; -508.725
498.767;  210.773;  301.850;  300.271
499.051;  169.382; -126.149; -100.732
499.335;  -65.020; -693.149; -739.731
499.619;  -81.285; -381.129; -423.767
499.903;   27.741; -272.155;  -65.721
500.187;  -21.949; -588.153; -316.724
500.471;  -72.138; -796.152; -595.727
500.755;   86.501;   62.839;  -96.710
501.039;   17.441; -270.155; -357.721
501.323;  102.338;  -21.141;  264.254
501.607;  -36.717; -447.163; -503.706
501.891;  -89.570; -607.156; -512.718
502.174; -143.783; -726.144; -585.741
502.458;   94.165;   89.849;  370.273
502.742;    7.056; -180.138; -191.751
503.026;   43.892; -412.147; -254.734
503.310;  102.411; -437.159; -375.713
503.593;   47.293; -464.147; -325.735
503.877;   90.288; -232.133; -156.760
504.161;  169.553;    2.847;  -50.724
504.444;    5.822; -841.158; -710.716
504.728;  256.678; -487.164; -522.704
505.012;  454.471; -257.150;  -76.729
505.295;  311.002; -417.161; -212.711
505.579;  318.235; -256.156; -496.719
505.862;  480.705; -555.145; -333.738
506.146;  431.813; -681.159; -758.714
506.429;  432.113;  568.841;  461.286
506.713;  -20.431; -732.151; -667.728
506.996;  279.245;   90.846;  295.278
507.280;  201.574; -633.165; -474.703
507.563;  140.840; -469.155; -261.721
507.847;   55.052; -423.153; -112.724
508.130;  -25.198; -665.161; -456.711
508.413;   18.660; -758.167; -577.700
508.697;  230.360; -151.167;   12.300
508.980;   71.153; -422.153; -312.724
509.263;  -66.063; -466.155; -450.720
509.547;   35.171; -124.150;   82.271
509.830;   37.904; -172.160;  140.289
510.113;  108.935;  128.844;  298.281
510.396;  -23.243; -530.152; -300.725
510.680;   13.306; -818.145; -812.738
510.963;  580.648;  184.846;  180.277
511.246;  338.377; -493.150; -357.730
511.529;  171.910; -482.145;  -83.739
511.812;  251.285; -250.134;   10.241
512.095;  104.067; -740.151; -396.728
512.378;   23.896; -317.147; -245.736
512.661;  -62.338; -703.137; -623.753
512.944;  -94.172; -750.142; -637.744
513.227;   45.360; -170.137; -171.752
513.510;  -45.583; -479.144; -671.741
513.793;  -92.359; -485.140; -435.747
514.076;  108.231;  -43.127;  -39.771
514.359;   71.084; -294.149; -135.732
514.642;  -11.570; -442.142; -567.744
514.925;  594.940;  581.860;  561.253
515.208;  522.882; -498.134; -443.758
515.491;  366.793; -276.133; -182.761
515.773;  201.820; -410.143; -337.742
516.056; 1452.367;  249.864;  409.246
516.339; 1597.770; -754.136; -652.755
516.622; 1252.475; -518.150; -488.730
516.904; 1217.225;  882.857;  975.257
517.187;  390.259; -730.138; -523.752
517.470;  261.524; -568.143; -510.743
517.752;  246.172; -624.136; -470.756
518.035;  138.649; -708.139; -725.749
518.318;  107.070; -799.136; -744.755
518.600; 1363.996; -300.132; -325.762
518.883; 1902.930;  310.858;   88.256
519.165;  862.053; -585.138; -426.751
519.448;  317.395;  -61.132;  -19.762
519.730;   56.037; -573.126; -415.773
520.013;  361.590;  588.867;  664.240
520.295;  579.186;  -94.134;  -15.759
520.578; 1237.706; -335.131; -305.764
520.860; 1408.596; -254.132;   56.238
521.143;  695.774; -763.135; -584.756
521.425;  345.747; -251.125; -279.775
521.707;  464.932; -622.127; -380.771
521.990; 1187.932; -199.127;  167.229
522.272; 1288.242; -116.140;   -4.748
522.554;  630.720; -237.143; -157.742
522.836;  284.885;  -24.134;   99.241
523.119;   75.791; -496.148; -189.734
523.401;   43.311; -448.130; -314.766
523.683;  -69.437; -865.137; -693.753
523.965;  281.257;  408.862;  260.248
524.247;  211.064;   54.878;  170.220
524.529;  117.686; -451.134; -367.759
524.812;  262.612;   -3.130;  191.234
525.094;  513.457; -773.138; -631.751
525.376;  932.454; -143.124;   78.223
525.658;  503.968; -441.136; -339.754
525.940;  -97.197; -805.131; -671.764
526.222;   12.471; -188.136;  -88.755
526.504;   55.401; -190.131;   32.237
526.786;   13.888; -960.133; -647.760
527.068;  184.859; -124.123;  -67.778
527.349;  -32.835; -865.137; -774.754
527.631;  128.395; -137.132;   22.238
527.913;    9.531; -664.127; -450.771
528.195;   12.342; -761.125; -639.774
528.477;  206.782;  -93.134;  -30.758
528.759;  -17.688; -648.130; -522.766
529.040;  -27.542; -569.123; -293.778
529.322;  -20.956; -235.125;  -10.774
529.604;  130.114;  -47.130;   93.233
529.886;   25.537; -546.126; -302.773
530.167;  145.808;  232.870;  192.235
530.449;   44.196;    1.853;   63.265
530.731;  -77.837; -572.122; -459.779
531.012;  -16.021; -513.120; -216.784
531.294;   74.610; -118.116;  -43.792
531.575;  214.547;  290.875;  538.225
531.857;  -58.222; -548.135; -266.757
532.138;   80.237; -113.141;   40.254
532.420;  209.275;  294.865;  403.244
532.701;   43.190; -722.133; -751.760
532.983;  310.292;  232.867;  182.239
533.264;  105.935; -243.126;  175.228
533.546;  -44.829; -491.136; -508.755
533.827;   48.487;  173.867;   -1.759
534.109;    7.078; -352.135;  -80.757
534.390;  -39.102; -725.132; -582.762
534.671;  189.375; -270.135;  -82.756
534.953;    8.260; -751.123; -611.779
535.234;  -45.002; -426.117; -255.789
535.515; -170.114; -891.119; -735.785
535.796;  -40.772; -431.128; -193.770
536.078; -241.446;-1050.124; -904.777
536.359;  -21.540;  -22.123;    3.221
536.640;  -44.157; -480.125; -197.774
536.921;  159.818;  225.871;  143.232
537.202;  222.254;  -87.138;  -16.751
537.483;  400.205;  251.869;  377.236
537.764;  112.608;   17.870;   98.235
538.045;  -96.718; -543.134; -371.758
538.326; -101.181; -596.129; -447.768
538.607;  -88.768; -686.127; -476.771
538.888;  117.872;   98.879;    5.218
539.169;   66.068; -704.122; -535.781
539.450;  277.217;  236.871;   16.233
539.731;  116.475; -361.121; -182.783
540.012;   93.279;  199.880;  412.216
540.293;   77.450;   82.876;  158.224
540.574; -128.374; -895.113; -717.796
540.855;  388.374;  435.879;  377.218
541.136;  408.766;   47.878;  139.220
541.416;  151.213; -161.130; -220.766
541.697;   89.202; -274.131; -170.763
541.978;  615.977; -270.135; -315.757
542.259;  737.432; -211.127; -236.771
542.539;  354.905; -191.116; -186.790
542.820;  223.447;  461.875;  480.225
543.101;   78.808;  -52.145;  -77.738
543.381; -114.068; -638.127; -591.771
543.662;  230.630;  159.873; -254.771
543.942;  232.629; -751.127; -830.770
544.223;  729.467;  193.878;  161.219
544.504;  376.454; -275.124; -182.777
544.784;  281.037; -592.126; -408.773
545.065;  907.608;  104.884; -254.791
545.345; 1131.886;  227.881;   14.215
545.626;  831.925;  -14.113; -108.796
545.906;  612.407;   77.869;   98.235
546.186;  238.240;   92.874;  -95.773
546.467;  128.456;   99.877;  -95.778
546.747;  272.605;  264.884;  327.210
547.027;  249.753;   91.876;  111.223
547.308;  112.128; -376.127; -530.770
547.588;  299.120;  299.871;  371.232
547.868;  267.708;  458.870;  588.235
548.149;  238.614;  609.885;  593.207
548.429;   47.631; -347.127; -299.771
548.709;   37.279; -645.120; -461.784
548.989;  332.693;   84.882;   88.213
549.269; 1333.094;   10.868;  139.239
549.550; 2877.759;  215.877;  117.222
549.830; 2444.139; -758.111; -556.799
550.110;  490.045; -468.110; -320.801
550.390;  573.163; -128.122;  -56.779
550.670;  565.722; -868.114; -783.795
550.950;  450.074; -509.121; -471.782
551.230;  230.171;  549.879;  460.218
551.510;  -73.127; -381.121; -326.782
551.790;   25.351; -173.109; -127.803
552.070;  402.156;  940.877; 1181.223
552.350;  174.489; -492.119; -377.786
552.630;  371.669;   -2.121;   77.219
552.909;  271.208;  181.884;   73.209
553.189;  175.899;  -49.132;   33.237
553.469;   74.789; -703.119; -514.786
553.749;   57.233; -469.127; -357.772
554.029;  106.901;   33.883;  -24.790
554.308;   82.117; -154.115;  -37.794
554.588;    0.527; -196.128; -204.770
554.868;   12.374; -366.121;  -47.782
555.147;   67.215; -114.115;  -46.793
555.427;  287.610; -260.116; -250.792
555.707; 2344.413; -284.115; -200.793
555.986; 2452.142; -719.111; -538.800
556.266; 1504.504;   23.884;   72.210
556.546;  -47.527; -888.121; -675.782
556.825;   38.120; -657.114; -556.794
557.105; 1059.725; -125.128;   17.230
557.384; 1200.707;  122.884;  187.209
557.664;  403.709; -717.116; -508.792
557.943;  -24.126; -557.121; -411.782
558.222;   90.896; -345.118; -344.788
558.502;  154.516; -116.115;  -76.793
558.781;  361.712;  194.885;  499.208
559.061;  198.896; -232.118; -227.788
559.340;  267.799;  302.883;  353.211
559.619;  530.404;   93.884;  148.210
559.899;  680.601; -239.117; -266.789
560.178;  565.415; -778.115; -593.793
560.457; 1943.602; -623.117; -562.790
560.736; 2528.443; -472.111; -482.800
561.015; 1736.724; -500.128; -502.769
561.295;  283.667;  180.893;  215.193
561.574;  244.113;  119.885;  116.207
561.853;  394.354;  274.891;  303.197
562.132;  332.417;  -45.114;  182.206
562.411;  390.169;  396.879;  553.219
562.690;  -18.588; -592.115; -458.792
562.969;  202.931;  472.888;  630.203
563.248;  856.368; 2966.878; 2487.219
563.527;  146.942; -290.111; -408.800
563.806;  194.631; -650.127; -521.771
564.085;  199.478; -297.105; -206.810
564.364;   90.303; -594.117; -405.790
564.643;  289.670; -276.121; -223.781
564.922; 1070.150;  221.890;  397.198
565.201;  833.953; -640.109; -700.803
565.479;  374.811; -297.115; -219.792
565.758;   76.926; -810.128; -712.770
566.037;  234.453; -155.109; -100.803
566.316;  101.308; -286.116;  -28.791
566.595;    5.113;  -17.115;  -12.793
566.873;  179.544; -166.111;  -79.801
567.152; -134.070; -490.113; -590.797
567.431;   47.904; -113.116;    6.210
567.709;    3.867; -344.107; -212.807
567.988;   57.420; -810.114; -769.794
568.266;  247.913; -160.115;  -68.793
568.545;  158.315; -644.100; -514.819
568.824;  506.610;  160.885;  356.208
569.102;  312.820; -351.114; -235.794
569.381;   92.710; -492.116; -407.792
569.659; -128.973; -553.113; -553.796
569.938;  -75.934; -743.122; -465.780
570.216;   29.355; -225.109; -225.804
570.494; -116.678; -632.114; -572.795
570.773;   50.273;  202.879;  114.218
571.051;  -40.642; -373.123; -357.778
571.330;  -17.074; -221.113; -174.796
571.608;    1.329; -181.098; -173.823
571.886; -185.362; -671.111; -581.799
572.164; -184.626; -739.121; -621.782
572.443; -127.119; -562.105; -512.811
572.721; -109.398; -399.117; -289.790
572.999;  -79.603; -280.117; -168.788
573.277;  201.576;  379.894;  620.191
573.555;  198.178;   94.894;   37.190
573.834;  776.397;  -86.117; -114.788
574.112; 1068.669;  880.893;  811.193
574.390;  279.143; -143.111;  -96.801
574.668;  -34.869;  -91.112;  -61.797
574.946;  -49.822; -165.106; -187.810
575.224;   15.652;   71.891;  -16.803
575.502;  -45.794; -200.116; -204.791
575.780; -197.668; -767.112; -829.798
576.058;  475.642; 1589.889; 1004.200
576.336;  -47.053; -210.110; -129.801
576.614; -113.768; -511.112; -340.798
576.891; -100.083; -711.115; -823.794
577.169;  244.062; -158.108; -285.805
577.447;  377.768;  169.893;  202.193
577.725;  327.236;  629.888;  854.201
578.003;  -68.866;  -71.112; -371.798
578.280;    6.088; -208.104; -242.812
578.558;  -48.884; -450.115; -422.793
578.836;   70.122; -210.114; -145.795
579.114;  -82.669; -630.112; -670.797
579.391;   90.598;   -6.117;  -18.789
579.669; -179.983; -595.114; -704.794
579.947;   61.766; -326.107; -127.806
580.224;   75.465; -692.107; -524.806
580.502;  190.369;  127.893;   76.193
580.779;   39.203;  -42.117;   75.210
581.057; -135.144; -584.109; -470.804
581.334; -181.100; -726.102; -695.815
581.612;   71.479;   54.895;  511.190
581.889;  -87.590;  -83.101; -129.818
582.167;  -42.779; -298.099; -190.821
582.444; -217.094; -845.102; -814.817
582.721;  192.506;  657.899;  715.183
582.999;    1.519; -326.100; -167.821
583.276;  158.161; -812.123; -713.779
583.553;  336.902; -364.102; -294.816
583.831;   -0.914; -607.104; -631.812
584.108;   84.060;  349.892;  174.195
584.385;  -20.301; -122.102;  -98.815
584.662; -195.556; -651.111; -828.801
584.940;   12.943;  204.889;  204.199
585.217;  -96.973;  -73.113; -303.796
585.494;   68.050;   71.890;  118.198
585.771;   64.656; -250.109; -354.804
586.048;  241.927; -196.113;  -76.796
586.325;   40.146; -721.110; -773.801
586.602;   72.689;  230.896;  213.188
586.879; -123.684; -499.100; -580.820
587.156;   -5.221; -156.105; -331.810
587.433; -143.096; -701.102; -667.817
587.710;   22.733;  152.888;  234.202
587.987;  116.483; -264.105; -236.811
588.264;  472.634;  315.888;  387.202
588.541;  750.990;  -61.104;   26.187
588.818; 1520.458;   72.892;  171.196
589.095; 1216.087; -163.104; -174.812
589.371;  150.155; -459.109; -414.804
589.648;  -90.031; -581.107; -437.807
589.925;  -70.277; -517.114; -621.795
590.202; -116.068; -741.112; -607.798
590.478;   20.785; -166.105;  -73.811
590.755;  161.363; -241.108; -132.806
591.032; 1447.248; -741.110; -699.802
591.308; 1840.660; -732.094; -790.831
591.585; 1008.747; -573.110; -560.802
591.862;  -70.295;-1056.102; -950.817
592.138;  -49.939; -475.108; -474.805
592.415;   13.889; -486.104; -495.813
592.691; 1029.987;  460.896;  518.188
592.968; 1073.530; -208.098; -123.824
593.244;  463.705; -695.116; -595.790
593.521;   41.806; -105.102;  -42.817
593.797; -165.636; -810.122; -720.780
594.074;   59.540; -611.096; -588.826
594.350;  520.049;  828.905;  729.172
594.626;  127.944; -303.111; -283.801
594.903;  -39.394; -643.101; -645.817
595.179;  184.792;  243.896;  418.187
595.455;  -20.030; -136.107; -150.807
595.731;   12.493;  -19.103;  -38.814
596.008; -117.160; -464.111; -434.800
596.284;  -21.982; -187.100; -242.820
596.560;  -40.735; -501.093; -493.833
596.836;   74.981; -173.105;  -70.810
597.112;  102.661; -582.108; -437.805
597.388;  136.638;  -49.097;  -48.826
597.665;  146.329;  437.887;  530.203
597.941; -171.312; -572.089; -658.839
598.217;  -44.950; -323.110; -293.802
598.493;  133.657;   61.891; -204.804
598.769;  238.914; -175.100;  -50.819
599.045;   58.364; -490.108; -562.806
599.321;  -13.483; -193.100; -261.820
599.597;   24.757; -355.109; -476.804
599.872;  364.790;  409.896;  429.187
600.148;  237.740;  -61.097; -172.826
600.424;  269.967;   91.893;  202.193
600.700;  148.469; -170.107; -280.807
600.976;  -10.265; -442.097; -464.825
601.252;  106.554; -226.109; -272.803
601.527;  -19.809; -833.104; -840.813
601.803;   21.485; -453.105; -404.812
602.079;   91.114; -124.100; -118.819
602.354;  282.273; -620.092; -531.835
602.630;  447.827; -140.113; -482.796
602.906; 1371.110; -910.101; -863.818
603.181; 3602.189; -627.119; -534.786
603.457; 3183.638;   98.903; -278.826
603.733;  373.476; -605.120; -626.783
604.008;  611.478; -245.106; -164.810
604.284; 1681.507; -636.101; -580.817
604.559; 1543.436;   -3.112;  -42.799
604.835;  266.481; -163.105; -225.810
605.110;   83.322; -732.099; -892.821
605.385;  456.667;  224.907;  267.167
605.661;  245.951; -625.095; -729.829
605.936;  528.564; -664.108; -737.806
606.211;  528.798;  -17.103; -170.815
606.487;   59.519; -329.114; -376.794
606.762; -134.811; -791.119; -745.786
607.037;  -83.619; -501.105; -433.810
607.313; -139.954; -589.096; -574.828
607.588;  -26.122; -375.106; -137.810
607.863;  -14.590;  -28.101; -143.818
608.138;  232.049;  513.890;  516.198
608.413;  -79.175; -576.099; -592.822
608.688;  -50.839; -203.108; -267.805
608.964;   55.774; -509.106; -218.809
609.239;  124.079; -107.105; -212.810
609.514;  204.485;  281.895;  240.188
609.789;  280.888; -187.104; -716.812
610.064;  419.445; -435.096; -609.827
610.339;  388.655; -855.109; -799.804
610.614;  615.918; -131.100; -315.820
610.889;  397.985;  215.895;  107.188
611.163;  -81.814; -407.104; -591.812
611.438;   -7.380;   81.886; -167.794
611.713; -117.593; -467.101; -499.817
611.988;  -24.291; -144.101; -328.818
612.263; -165.000; -771.102; -717.815
612.538;  211.827;  385.887;  251.204
612.812;  -53.481; -832.100; -911.820
613.087;    4.429; -358.098; -338.823
613.362; -140.031; -497.107; -557.807
613.637;   64.195;  261.897;  138.186
613.911;  -62.527; -256.092; -345.835
614.186;   27.068; -249.107; -292.807
614.460;  226.446; -842.081; -758.854
614.735;  440.306;  -55.087;  -17.843
615.010;   71.198;   43.912;  -82.841
615.284;  244.061;  360.892;  246.195
615.559;   52.572; -792.092; -955.835
615.833;  172.723;  -76.099;  -87.822
616.108;  -57.219; -225.090; -390.837
616.382;  153.307;  274.913;  402.156
616.656;   33.882; -241.090; -232.837
616.931;  145.623; -785.099; -700.822
617.205;  417.891; -973.104; -979.813
617.480;  635.446;  -91.125;    6.225
617.754;   44.444; -396.125; -128.774
618.028;  -72.479; -369.129; -382.768
618.302;   77.059;   73.892;  -25.805
618.577; -136.104; -371.103; -518.815
618.851; -142.648; -399.109; -600.803
619.125;  -91.214; -335.134; -378.759
619.399;  -78.908; -244.104; -374.813
619.673; -108.389; -330.115; -515.792
619.947; -112.678; -333.114; -448.795
620.222;  -44.355; -198.110; -204.801
620.496;  -29.426;  -47.121;  -96.782
620.770;   14.868; -187.122;  -93.781
621.044;  209.579;  323.895;  346.190
621.318;  315.276; -653.120; -614.783
621.592;  332.375; -430.121; -409.783
621.866;   95.736; -476.112; -572.799
622.140;  -42.094; -207.116; -356.791
622.413;   77.440;  138.889;  112.200
622.687; -148.093; -746.101; -492.817
622.961;   -1.340; -130.108; -143.805
623.235; -158.160; -633.111; -661.800
623.509; -210.815; -816.105; -848.811
623.783;    5.966;  -12.107;   48.193
624.056;  -56.323; -254.120; -280.783
624.330;   42.831;   63.888;   -3.797
624.604;   -0.797; -271.116; -355.790
624.877;   47.248;  180.890;   26.198
625.151;  -14.982; -249.114; -238.794
625.425;  -60.007; -150.103; -283.814
625.698; -134.415; -367.119; -374.785
625.972; -174.050; -799.110; -765.802
626.245;  153.105;  685.884;  484.210
626.519; -105.120; -426.120; -340.784
626.792;  -68.231; -192.107; -380.807
627.066; -150.638; -485.122; -662.779
627.339; -202.953; -736.110; -663.802
627.613;   60.779;  351.880;  148.216
627.886;  101.752;  187.891; -612.803
628.160;  -66.524;  312.880; -161.783
628.433; -178.152; -695.125; -703.775
628.706; -154.220; -517.120; -615.784
628.979;   42.353;  296.876;  117.223
629.253; -227.912; -785.119; -833.786
629.526;  172.136; -334.126; -253.772
629.799;   38.158; -641.123; -479.778
630.072;  -20.878; -497.128; -516.769
630.346; -269.795;-1115.116;-1080.790
630.619;  149.270; -467.107; -545.808
630.892;  457.441;  709.889;  593.200
631.165;  331.592;  790.896;  679.187
631.438; -249.766;-1092.112;-1055.798
631.711;   93.061;  453.877;  257.221
631.984; -146.999; -523.117; -624.789
632.257; -171.902; -636.117; -681.789
632.530; -126.415; -412.119; -433.785
632.803;   62.316; -109.115;    7.207
633.076; -111.244; -360.123; -422.777
633.349;   74.725;  173.872;  121.231
633.622;  -80.216; -187.119; -240.785
633.895; -241.623; -903.120; -823.783
634.167; -115.063; -496.126; -525.773
634.440;  -14.190;  -19.116; -137.792
634.713;   18.187;  -22.119; -120.786
634.986;  177.517;  593.871;  453.233
635.258; -151.685; -507.115; -597.793
635.531;  190.695;  742.882; -343.788
635.804;  -91.100; -303.117; -318.789
636.077; -215.593; -830.116; -852.791
636.349; -118.686; -586.115; -474.793
636.622;  588.635; 1695.874; 1392.228
636.894;   28.281; -474.120; -909.784
637.167;  -53.270; -836.127; -789.771
637.439;  -36.372; -278.128; -213.770
637.712;  -94.264; -312.126; -293.772
637.984; -165.193; -635.116; -707.791
638.257;  341.156;  515.877;  488.222
638.529;  132.348; -881.125; -924.776
638.802;   40.722; -508.128; -449.769
639.074; -267.833; -927.122; -952.781
639.346; -255.220; -942.135; -930.757
639.619;   -3.171;  -79.142; -319.744
639.891;  -29.738;  -83.122; -168.779
640.163; -173.936; -689.122; -756.780
640.435;   70.065;  273.878;  103.220
640.708;   14.267;  -72.122; -132.780
640.980;  -88.332; -366.122; -362.781
641.252;  132.769;  -25.121;  -71.781
641.524; 1114.571;  580.879;  573.219
641.796;  773.172;-1094.121; -907.782
642.068;  130.774; -191.121; -300.782
642.340; -131.525; -486.121; -566.783
642.613;   62.677;  294.880;  323.217
642.885; -214.022; -787.120; -878.783
643.157; -160.821; -810.120; -658.784
643.428;   75.481;  170.880;  218.216
643.700; -114.418; -498.120; -425.784
643.972;  -44.116;  -16.119; -133.785
644.244; -172.415; -474.119; -559.785
644.516;  -51.114; -250.119; -114.786
644.788;  140.488;  662.881;  548.214
645.060;  -11.511;  -12.119; -124.786
645.332; -146.609; -525.118; -535.787
645.603;   79.492;  479.882;  342.213
645.875; -124.406; -334.118; -369.787
646.147;  372.695; 1487.882; 1242.212
646.418; -199.204; -931.117; -918.788
646.690;  -26.702; -714.117; -715.789
646.962;  -29.501; -413.117; -451.789
647.233;   17.601;   15.883;   11.211
647.505; -182.998; -595.117; -475.790
647.776;  100.604;  328.884;  229.210
648.048;  -42.095; -248.116; -418.790
648.320; -184.194; -752.116; -679.791
648.591; -261.192;-1055.116; -958.791
648.862; -160.891; -505.116; -577.792
649.134;   52.211;  115.885;  198.208
649.405; -136.888; -661.115; -618.792
649.677; -137.887; -475.115; -598.793
649.948;  -61.985; -181.115; -296.793
650.219;   -6.784;  -37.115; -147.793
650.491; -133.582; -431.114; -520.794
650.762; -211.881; -705.114; -731.794
651.033; -147.979; -437.114; -424.795
651.304; -236.978; -743.114; -728.795
651.576; -181.277; -680.114; -645.795
651.847;  -57.575; -250.113; -140.796
652.118;  -13.374;  -32.113; -189.796
652.389; -158.172; -639.113; -722.796
652.660;  -36.971; -147.113;  -89.797
652.931; -258.069; -897.112; -871.797
653.202; -141.868; -382.112; -541.798
653.473; -128.767; -633.112; -533.798
653.744;  -31.965; -595.112; -590.798
654.015;  -14.164; -356.112; -303.799
654.286; -177.862; -642.111; -663.799
654.557; -123.461; -586.111; -521.799
654.828; -292.659;-1114.111;-1088.800
655.099;  -93.658; -404.111; -291.800
655.370; -158.957; -427.111; -543.801
655.641; -208.255; -656.110; -714.801
655.911; -190.054; -618.110; -638.801
656.182;  140.848;  437.890;  387.198
656.453;  197.849;  830.890;  746.198
656.724;  -99.550; -466.110; -426.802
656.994; -155.048; -553.109; -568.803
657.265; -229.447; -862.109; -873.803
657.536; -141.845; -500.109; -377.804
657.806; -158.044; -561.109; -593.804
658.077; -234.242; -866.109; -950.804
658.347; -130.141; -523.108; -598.805
658.618; -194.840; -646.108; -694.805
658.888;  -31.938;  -41.108;  112.195
659.159; -148.337; -432.108; -548.806
659.429;  -77.835; -292.108; -349.806
659.700;  -54.534; -435.107; -390.807
659.970;  -83.532; -370.107; -359.807
660.241; -153.931; -754.107; -921.807
660.511;  247.270; -147.107; -174.808
660.781; -110.528; -793.106; -748.808
661.052; -124.227; -222.106; -381.808
661.322;   -2.925;   21.894;   -9.809
661.592;   76.176;  257.894;  148.191
661.862; -124.823; -369.106; -382.810
662.133; -164.621; -551.105; -502.810
662.403; -218.120; -770.105; -676.810
662.673;  -63.718; -256.105; -213.811
662.943; -134.517; -612.105; -551.811
663.213;  -43.515;  -85.105;  -81.811
663.483; -136.914; -593.104; -568.812
663.753;  -47.213; -194.104; -152.812
664.023;  -12.411;   68.896;  -32.813
664.293;  -79.310; -319.104; -126.813
664.563; -211.808; -694.104; -648.813
664.833; -206.707; -743.103; -608.814
665.103; -196.605; -730.103; -793.814
665.373; -216.804; -766.103; -806.814
665.643; -188.403; -863.103; -918.815
665.913;  -96.001; -534.103; -714.815
666.182;  -70.100; -685.102; -719.816
666.452;   82.802;  -22.102;  -89.816
666.722; -160.197; -724.102; -784.816
666.992; -270.095; -948.102; -921.817
667.261; -234.194; -824.102; -808.817
667.531;  120.307;  134.899;   45.183
667.801;  147.009; -440.101; -412.818
668.070;  276.110;  714.899;  697.182
668.340; -250.288; -883.101; -840.819
668.609;  133.513;  588.900;  301.181
668.879; -157.086; -490.100; -558.819
669.149; -145.784; -539.100; -516.820
669.418; -191.783; -698.100; -726.820
669.688; -106.681; -482.100; -666.820
669.957;  -99.680; -423.099; -546.821
670.226;  -55.978; -268.099; -331.821
670.496; -161.177; -431.099; -635.822
670.765; -129.276; -418.099; -501.822
671.034; -247.474; -872.099; -828.822
671.304;    4.627;   55.902; -111.823
671.573; -324.271;-1085.098; -957.823
671.842;   19.630; -380.098; -294.823
672.112; -108.068; -692.098; -586.824
672.381;  -14.967; -239.098; -214.824
672.650; -286.166;-1005.097;-1021.825
672.919; -156.164; -631.097; -507.825
673.188; -200.563; -681.097; -878.825
673.457; -291.861;-1101.097;-1143.826
673.726; -178.860; -579.096; -646.826
673.995; -119.459; -533.096; -479.826
674.265;  -97.357; -263.096; -333.827
674.534;  -19.256; -183.096; -235.827
674.802; -101.354; -618.096; -703.828
675.071;  412.347; -886.095; -801.828
675.340; 1881.949; -464.095; -339.828
675.609;  732.650;  103.905;   82.171
675.878; -167.249; -949.095; -893.829
676.147;   37.453;  -26.095;   -8.829
676.416;    1.754; -210.094; -294.830
676.685;  626.056; 1000.906; -622.830
676.953;  -51.043; -603.094; -452.831
677.222;  -35.541; -193.094; -273.831
677.491;  -46.340;  -24.094; -127.831
677.759;   -2.839;   11.907;  172.168
678.028;  -81.037; -279.093; -222.832
678.297;   13.564;   71.907;  197.168
678.565; -286.134; -898.093; -944.833
678.834; -103.033; -311.093; -268.833
679.102; -129.531; -411.092; -391.834
679.371; -258.030; -898.092; -727.834
679.639; -228.429; -797.092; -786.834
679.908; -221.227; -794.092; -724.835
680.176; -293.626; -895.091; -941.835
680.445; -111.724; -346.091; -352.835
680.713;   -3.623;  -58.091;  -23.836
680.982; -159.222; -523.091; -525.836
681.250; -187.920; -578.091; -507.837
681.518; -159.119; -534.090; -751.837
681.787;  -48.117; -204.090; -167.837
682.055; -121.216; -490.090; -422.838
682.323; -295.814; -993.090; -992.838
682.591;   -2.613; -216.090; -538.838
682.859;   23.388;    9.911;  -35.839
683.128;   18.990;  232.911;  497.161
683.396; -307.509;-1102.089;-1122.840
683.664;  -34.707; -241.089;   21.160
683.932;   39.794;  144.911;  -76.840
684.200; -145.204; -576.088; -320.841
684.468;  -35.603;  -73.088; -124.841
684.736;  -56.302; -214.088; -175.841
685.004; -286.200;-1024.088; -982.842
685.272; -183.799; -880.088; -774.842
685.540; -159.097; -499.087; -557.843
685.808; -156.596; -651.087; -682.843
686.076; -223.094; -894.087; -969.843
686.343; -185.193; -601.087; -815.844
686.611;   15.708; -195.087; -224.844
686.879;  219.110; -530.086; -553.844
687.147; 1802.911; -483.086; -480.845
687.414;  506.213;  -12.086; -169.845
687.682; -144.386; -658.086; -757.846
687.950;  219.215;  259.915;  263.154
688.217; -161.783; -792.085; -760.846
688.485; -129.582; -632.085; -636.847
688.753;  230.520;  -11.085; -102.847
689.020; -100.679; -820.085; -851.847
689.288; -220.377; -853.084; -787.848
689.555;  -42.376; -195.084; -148.848
689.823;  -55.075; -241.084; -345.849
690.090; -145.173; -546.084; -651.849
690.358; -293.772; -877.084; -897.849
690.625;   23.230;  120.917;   45.150
690.892; -161.869; -403.083; -369.850
691.160;    0.133;   72.917;  -35.850
691.427;   14.334;  141.917;  130.149
691.694; -276.065; -855.083; -929.851
691.962; -257.963;-1177.082;-1060.852
692.229;   40.838;  127.918;   56.148
692.496;   59.640;  130.918;  -49.852
692.763;  -15.259; -164.082; -201.853
693.031; -156.358; -739.082; -716.853
693.298; -145.356; -509.081; -368.853
693.565;  127.845; -155.081; -163.854
693.832;  624.247;   -5.081;   -9.854
694.099;  -50.052; -643.081; -642.855
694.366; -203.250; -882.081; -896.855
694.633; -195.949; -920.080; -633.855
694.900; 1381.252; 4367.920; -114.856
695.167;  197.354; -214.080; -380.856
695.434;  -54.945; -646.080; -623.856
695.701;  186.757;  121.921;  -61.857
695.968;  197.358; -365.079; -361.857
696.234;  597.960; -415.079; -646.858
696.501; 6849.861; -776.079; -614.858
696.768; 3280.462; -554.079; -617.858
697.035;   84.864; -632.078; -667.859
697.302;  -70.335; -448.078; -552.859
697.568;  -73.633; -458.078; -497.859
697.835; -140.332; -683.078; -624.860
698.102;  -73.730; -498.078; -407.860
698.368;  125.871;  384.923;  396.139
698.635;  -79.528;  -47.077; -424.861
698.901;  -58.026; -240.077; -348.861
699.168;  -21.825; -534.077; -456.862
699.435;   41.677;  -72.077;  -13.862
699.701; -238.822; -868.076; -764.862
699.968; -112.321;  144.924; -441.863
700.234; -216.119; -783.076; -822.863
700.500; -141.418; -448.076; -539.864
700.767;   11.684;   -1.075;   26.136
701.033; -257.215;-1015.075; -963.864
701.299; -145.413; -450.075; -483.865
701.566;  232.088;  950.925;  763.135
701.832;   35.589;  -31.075;  -76.865
702.098; -258.709;-1054.074;-1034.866
702.365; -269.508;-1098.074;-1030.866
702.631; -207.706;-1038.074;-1063.867
702.897;  668.295; -765.074; -676.867
703.163; 1243.197;  348.926;  254.133
703.429;   25.898; -256.073; -273.868
703.695; -178.801; -796.073; -792.868
703.961;   -4.999; -214.073; -210.868
704.227; -167.898; -630.073; -725.869
704.493;  238.204;  613.927;  510.131
704.759; -100.695; -565.072; -540.870
705.025;  -22.694; -203.072; -194.870
705.291; -123.992; -666.072; -562.870
705.557;  258.209;  719.928;   34.129
705.823;  -78.889; -742.072; -694.871
706.089;   51.812; -307.071; -326.871
706.355;  234.214; -315.071; -244.872
706.620; 3694.215; -776.071; -729.872
706.886; 4728.316; -309.071; -362.873
707.152;  301.818; -818.070; -973.873
707.418; -240.581;-1153.070;-1186.873
707.683;  -89.179; -550.070; -530.874
707.949; -126.878; -547.070; -578.874
708.215;  -35.176; -129.070; -207.874
708.480;  -97.475; -520.069; -420.875
708.746;   70.426;   68.931;   28.125
709.011; -141.272; -578.069; -612.876
709.277; -139.171; -538.069; -543.876
709.542;  -89.269; -428.069; -387.876
709.808;   -0.568;  -59.068;   89.123
710.073; -182.566; -577.068; -695.877
710.339;  -56.565; -242.068; -228.877
710.604; -163.264; -780.068; -845.878
710.869;  124.238; -277.068; -366.878
711.135; -165.161; -715.067; -628.879
711.400; -137.659; -507.067; -608.879
711.665; -148.558; -404.067; -479.879
711.931; -161.957; -661.067; -677.880
712.196; -238.955; -876.067; -954.880
712.461;  -25.854; -402.066; -490.880
712.726;  -89.852; -727.066; -771.881
712.991; -177.951; -647.066; -664.881
713.256; -121.949; -350.066; -332.882
713.521; -110.248; -417.065; -381.882
713.787; -140.247; -454.065; -472.882
714.052;  -87.945; -214.065; -400.883
714.317; -282.044;-1045.065; -981.883
714.581;  540.158; -374.065; -268.883
714.846;  572.559; -822.064; -888.884
715.111;  104.361;  261.936;  257.116
715.376;  -37.238;  -86.064; -223.885
715.641;  -78.837; -365.064; -367.885
715.906;   50.465;   15.936; -551.885
716.171;  134.766;  221.937;  209.114
716.436;  -15.032;  -78.063; -104.886
716.700; -210.331; -818.063; -692.886
716.965; -236.330; -794.063; -807.887
717.230;  -97.928; -339.063; -392.887
717.494;  -40.927;  -40.062; -134.888
717.759; -170.125; -784.062; -640.888
718.024;   40.576;  269.938;  250.112
718.288;  194.378;  685.938;  395.111
718.553; -269.821; -803.062; -977.889
718.817; -258.720; -883.061; -899.889
719.082;  -22.218; -115.061; -125.890
719.346; -265.317;-1000.061; -947.890
719.611;  -72.815; -300.061; -255.891
719.875; -175.714; -568.060; -537.891
720.140; -159.912; -453.060; -603.891
720.404;   10.889; -136.060; -249.892
720.668;  380.390; -475.060; -411.892
720.933;  210.492;  146.940;  137.108
721.197; -194.507; -667.059; -600.893
721.461; -239.705; -851.059; -826.893
721.725;   14.596;  -21.059; -250.894
721.990;  -76.702; -284.059; -204.894
722.254;  -54.101;  -26.059; -108.894
722.518; -130.700; -286.058; -442.895
722.782; -186.998; -743.058; -594.895
723.046;  192.203;  614.942;  570.105
723.310;   88.105;  374.942;  210.104
723.574; -158.894; -654.058; -614.896
723.838; -166.793; -576.057; -642.897
724.102;  -64.991; -226.057; -239.897
724.366; -287.390;-1032.057; -978.897
724.630; -156.188; -749.057; -571.898
724.894; -164.287; -722.057; -514.898
725.158;  -20.585;   38.944; -295.898
725.422;  -98.184; -394.056; -327.899
725.685; -116.983; -441.056; -349.899
725.949; -168.281; -566.056; -519.900
726.213; -186.580; -732.056; -811.900
726.477;  -84.578;-1020.055; -933.900
726.740;   31.323; -274.055; -104.901
727.004;  126.325; -384.055; -510.901
727.268; 1800.826; -442.055; -400.901
727.531;  332.427; -961.055; -775.902
727.795; -139.071; -713.054; -673.902
728.059; -187.070; -552.054; -557.903
728.322; -167.168; -841.054; -669.903
728.586;  -91.567; -692.054; -701.903
728.849; -157.566; -695.053; -756.904
729.112; -249.664; -812.053; -912.904
729.376; -257.963; -959.053; -905.904
729.639; -129.861; -536.053; -536.905
729.903; -220.960; -733.053; -699.905
730.166; -108.958; -437.052; -399.906
730.429;  -24.857; -317.052; -468.906
730.693; -134.356; -355.052; -894.906
730.956;  300.346;  810.948;  651.093
731.219;  350.947; -310.052; -103.907
731.482;  -63.151;-1003.051; -894.907
731.745; -129.150; -794.051; -935.908
732.009;    7.152;  -30.051;   50.092
732.272; -196.847; -904.051; -771.909
732.535;  -80.846; -300.051; -310.909
732.798; -299.944;-1083.050;-1166.909
733.061; -121.643; -430.050; -456.910
733.324;    9.859;   31.950; -180.910
733.587;  141.360;  290.950;  365.090
733.850; -158.938; -973.049;-1050.911
734.113;   48.763;   33.951;   32.089
734.376;  -62.736; -328.049; -447.912
734.639;  333.466; 1188.951; 1011.088
734.901;    3.867; -180.049; -402.912
735.164;  162.569; -883.048; -837.913
735.427;  694.670; -166.048; -355.913
735.690;   42.071; -205.048; -234.913
735.952; -192.227; -923.048; -925.914
736.215; -222.626;-1113.048;-1009.914
736.478; -121.024; -771.047; -774.915
736.740;  111.277;   33.953;  129.085
737.003;  291.379; -658.047; -672.915
737.266; 2384.180;  -94.047;   46.084
737.528;  123.081; -682.047; -660.916
737.791;  130.183; -316.046; -327.916
738.053;  616.684;  465.954;  649.083
738.316; 6888.886; -162.046; -136.917
738.578; 4274.887; -770.046; -736.918
738.841;  208.589; -382.046; -446.918
739.103;  -43.910; -875.045; -777.918
739.365;  310.891;   79.955;  -69.919
739.628; -163.307; -884.045; -805.919
739.890; -142.706; -758.045; -710.919
740.152; -153.304; -692.044; -754.920
740.414;  -88.203; -408.044; -359.920
740.677; -156.102; -785.044; -634.921
740.939; -161.500; -587.044; -487.921
741.201;   48.001; -432.044; -572.921
741.463; -107.597; -689.043; -745.922
741.725;  -20.196;  -21.043; -199.922
741.987;   70.506;  220.957;  116.078
742.249; -152.493; -751.043; -859.923
742.511;    2.508; -703.043; -794.923
742.773;  -90.990; -546.042; -546.924
743.035;  185.211;  796.958;  533.076
743.297; -211.587; -963.042;-1013.924
743.559;  414.014; -278.042; -262.925
743.821; -116.884; -735.042; -744.925
744.083;   -9.783;  -44.041; -149.925
744.345; -206.482; -869.041; -892.926
744.607;   42.520;   75.959;  122.074
744.868; -137.379; -490.041; -554.927
745.130; -237.577; -994.041;-1008.927
745.392;   33.724;   -1.040;  -44.927
745.653;  -80.974; -411.040; -378.928
745.915;  230.027;  896.960;  631.072
746.177;   14.728;   35.960;  -43.928
746.438; -131.570; -428.040; -543.929
746.700; -200.769; -947.039; -988.929
746.961; -133.767; -659.039; -740.930
747.223;   39.534; -190.039;  -74.930
747.484;  -56.665; -391.039; -471.930
747.746;   85.337;  -23.038; -106.931
748.007;  -81.062; -647.038; -689.931
748.269;  124.140; -468.038; -440.931
748.530;  162.341; -852.038; -638.932
748.791;   66.143; -354.038; -420.932
749.053;  314.944;  286.963;  163.067
749.314;  224.645; -236.037; -169.933
749.575;  116.347; -945.037; -905.933
749.836;  510.048; -217.037;   86.066
750.098; 1565.750;  -60.037;  -21.934
750.359;20754.251;  414.964;  555.066
750.620; 4988.653; -121.036; -220.935
750.881;  521.354; -585.036; -513.935
751.142;  725.055; -950.036; -938.936
751.403;10608.857; -789.036; -705.936
751.664; 4109.058;-1034.035; -999.936
751.925;  274.860; -175.035; -262.937
752.186;  186.461; -298.035; -278.937
752.447;  -12.338; -590.035; -445.937
752.708;  -56.436; -532.035; -648.938
752.969;  -88.635; -566.034; -576.938
753.230; -171.633; -777.034; -672.939
753.491; -115.432; -650.034; -631.939
753.751;   44.670;  109.966;   19.061
754.012;  114.671;  258.967;  181.060
754.273;   -1.328; -174.033;  -71.940
754.534;  -98.126; -487.033; -580.940
754.794; -224.725; -926.033; -911.941
755.055;  303.377; 1051.967;  881.059
755.316; -149.922; -700.032; -566.942
755.576; -121.620; -606.032; -576.942
755.837; -149.219; -527.032; -695.942
756.097;  -98.418; -530.032; -564.943
756.358; -172.916; -725.032; -770.943
756.618; -159.315; -705.031; -641.943
756.879;  -58.713; -254.031; -349.944
757.139; -276.312;-1098.031;-1116.944
757.400; -132.210; -538.031; -553.945
757.660;  -57.309; -365.031; -401.945
757.920;  -29.708; -266.030; -228.945
758.181;  -57.706; -468.030; -351.946
758.441; -211.205; -870.030; -809.946
758.701;  -45.603; -308.030; -215.946
758.961;  -59.002; -220.030; -278.947
759.222; -106.701; -574.029; -502.947
759.482; -171.199; -683.029; -723.948
759.742; -169.998; -706.029; -547.948
760.002;    9.404;  -83.029; -143.948
760.262;   41.705;   50.972;  182.051
760.522;  -83.293; -498.028; -574.949
760.782; -142.592; -738.028; -612.949
761.042; -108.491; -618.028; -573.950
761.302;   64.011;   55.972;  -18.950
761.562;   47.912; -164.027; -154.951
761.822;  -38.786; -710.027; -551.951
762.082; -176.985;-1104.027;-1093.951
762.342;   45.817; -328.027; -403.952
762.601;   76.018; -567.027; -506.952
762.861;  273.319; -281.026; -207.952
763.121;  430.421; -406.026; -411.953
763.381; 8736.322; -499.026; -485.953
763.640; 8451.724; -139.026; -307.954
763.900;  403.425; -242.026; -203.954
764.160;   91.226; -458.025; -491.954
764.419;  -65.572; -726.025; -782.955
764.679; -158.371; -795.025; -726.955
764.939;   -7.769; -124.025; -210.955
765.198; -154.268; -608.025; -563.956
765.458; -147.066; -710.024; -612.956
765.717; -152.765; -454.024; -590.957
765.976;  -88.764; -428.024; -411.957
766.236; -165.162; -475.024; -610.957
766.495;   46.539;  260.977;   73.042
766.755; -265.059;-1090.023; -987.958
767.014;  -84.158; -594.023; -665.958
767.273; -103.356; -373.023; -397.959
767.533;  -53.355; -228.023; -307.959
767.792;  -25.854; -151.022; -188.960
768.051;  -84.952; -228.022; -276.960
768.310; -144.251; -546.022; -650.960
768.569;    6.851; -161.022;    4.039
768.828;  -58.448; -285.022; -363.961
769.088; -234.746;-1050.021; -942.961
769.347; -144.645; -755.021; -599.962
769.606; -221.044; -876.021; -857.962
769.865; -249.942;-1016.021;-1033.963
770.124;  -19.941; -411.021; -336.963
770.383; -201.839; -778.020; -910.963
770.641;  -78.238; -398.020; -400.964
770.900; -204.537; -953.020; -846.964
771.159; -152.135; -851.020; -951.964
771.418; -181.434; -917.020; -779.965
771.677;   57.468; -224.019; -293.965
771.936;  -34.531; -794.019; -865.966
772.194; 1704.271; -465.019; -437.966
772.453; 7669.272; -213.019; -391.966
772.712;  648.573;  416.982;  329.033
772.970;   95.875;   32.982;   63.033
773.229;   80.876;  -22.018;  102.033
773.488; -234.722; -814.018; -770.968
773.746;   97.779;  296.982;  335.032
774.005;    5.081;  190.983;  -22.969
774.263;   45.882;  243.983;  177.031
774.522; -188.917; -422.017; -548.969
774.780; -133.515; -484.017; -417.970
775.039; -163.714; -551.017; -531.970
775.297;  -27.212; -135.016; -351.970
775.555; -190.611; -489.016; -612.971
775.814; -196.510; -618.016; -570.971
776.072; -218.208; -749.016; -740.971
776.330; -187.107; -630.016; -520.972
776.589; -204.805; -703.015; -721.972
776.847; -204.504; -645.015; -624.973
777.105; -306.202;-1016.015;-1032.973
777.363;  -95.201; -459.015; -454.973
777.621; -231.000; -660.015; -717.974
777.879;   -0.498;  -42.014;   32.026
778.138; -160.397; -554.014; -717.974
778.396; -180.495; -585.014; -526.975
778.654; -315.994;-1015.014; -970.975
778.912;  -93.192; -269.014; -371.976
779.170; -256.091; -880.013; -803.976
779.427; -254.490; -922.013; -897.976
779.685; -236.788; -880.013; -832.977
779.943; -181.787; -654.013; -593.977
780.201; -260.685; -964.012; -883.978
780.459; -162.984; -651.012; -610.978
780.717; -127.582; -440.012; -390.978
780.974; -168.081; -449.012; -490.979
781.232;  -99.680; -358.012; -338.979
781.490; -159.178; -551.011; -472.979
781.747; -157.177; -555.011; -476.980
782.005;   84.725;  462.989;  254.020
782.263; -288.874; -542.011;-1004.981
782.520; -106.873; -326.011; -501.981
782.778; -299.471;-1013.010;-1051.981
783.035; -305.370; -962.010; -938.982
783.293;  -78.668; -248.010; -206.982
783.550;  -47.467; -134.010; -198.982
783.808; -250.565; -764.010; -776.983
784.065; -279.664; -745.009; -874.983
784.322;  -38.463;   25.991;  -86.984
784.580; -220.561; -915.009; -771.984
784.837; -149.360; -392.009; -466.984
785.094; -249.458; -783.009; -762.985
785.352; -114.357; -304.008; -404.985
785.609; -188.855; -934.008; -839.985
785.866; -152.154; -345.008; -401.986
786.123; -173.753; -639.008; -583.986
786.380; -191.551; -665.008; -604.987
786.637;  -93.950; -225.007; -380.987
786.895; -122.048; -456.007; -543.987
787.152;  -58.547; -135.007; -267.988
787.409;  -49.446; -123.007; -225.988
787.666; -128.944; -299.006; -378.988
787.923; -186.243; -616.006; -695.989
788.179; -146.441; -551.006; -584.989
788.436; -156.740; -585.006; -585.990
788.693;  -51.438;  -92.006;  -87.990
788.950;   69.663; -125.005; -112.990
789.207;    2.864; -381.005; -372.991
789.464;  -76.534; -161.005; -301.991
789.720;   22.867;  150.995;  110.009
789.977; -303.531;-1003.005; -671.992
790.234;    0.070;   44.996;  -66.992
790.490; -281.228; -884.004;-1031.993
790.747;    8.073;  -85.004;   22.007
791.004;  -97.326; -426.004; -348.993
791.260; -107.824; -430.004; -560.994
791.517; -208.223; -843.003; -788.994
791.773; -111.321; -379.003; -342.994
792.030; -195.220; -596.003; -660.995
792.286; -159.918; -686.003; -636.995
792.543;  -30.617;  -74.002; -159.995
792.799;  -60.916; -584.002; -382.996
793.055; -356.614;-1179.002;-1210.996
793.312; -207.813; -827.002; -816.997
793.568; -150.611; -746.002; -599.997
793.824;  -13.510; -226.001; -284.997
794.081;  -20.909; -447.001; -508.998
794.337;   10.093; -664.001; -561.998
794.593; 1426.594; -319.001; -271.999
794.849; 5688.096; -746.001; -772.999
795.105;  236.597; -270.000; -261.999
795.361;  -10.101; -490.000; -457.000
795.617; -178.100; -875.000; -945.000
795.873; -144.300; -360.000; -407.000
796.129;  -76.400; -368.000; -306.000
796.385;  -37.500; -124.000; -156.000
796.641;  139.100;  412.000;  550.000
796.897; -153.300; -666.000; -635.000
797.153;  158.400;  453.000;  357.000
797.409; -215.100; -785.000; -868.000
797.665; -183.100; -625.000; -732.000
797.921; -201.000; -775.000; -762.000
798.176; -169.000; -744.000; -747.000
798.432; -174.400; -824.000; -596.000
798.688; -231.200;-1174.000;-1078.000
798.943;   16.100; -165.000; -147.000
799.199; -199.000;-1005.000; -959.000
799.455;  253.800;  369.000;  316.000
799.710;  -41.600; -813.000; -380.000
799.966;  189.000; -162.000; -160.000
800.221;  221.800; -638.000; -721.000
800.477; 6807.500; -743.000; -710.000
800.732; 5074.200; -773.000; -800.000
800.988;  520.400;  205.000;  -19.000
801.243; 1864.100; -454.000; -344.000
801.498; 6769.200; -814.000; -739.000
801.754;  348.200; -289.000; -163.000
802.009;   84.900; -257.000; -335.000
802.264; -186.500; -967.000;-1033.000
802.520;   35.800;  222.000;   -3.000
802.775; -108.200; -524.000; -359.000
803.030;  115.900;  395.000;  356.000
803.285; -235.900; -840.000; -903.000
803.540; -152.900; -686.000; -699.000
803.795; -127.200; -648.000; -583.000
804.051;  -67.600; -279.000; -346.000
804.306;   34.900;  168.000;  128.000
804.561;  166.200;  451.000;  362.000
804.816;  248.300;  714.000;  861.000
805.071;  -15.300; -185.000; -280.000
805.325;   59.600; -257.000; -427.000
805.580; -199.500; -841.000; -877.000
805.835;  -48.900; -204.000; -297.000
806.090; -147.400; -760.000; -676.000
806.345;  -85.900; -344.000; -264.000
806.600; -133.900; -549.000; -632.000
806.854; -135.700; -408.000; -538.000
807.109;  -55.100; -493.000; -577.000
807.364;  -28.900; -407.000; -328.000
807.618;  -52.700; -415.000; -381.000
807.873;  -34.200; -470.000; -494.000
808.128;   44.500; -257.000; -518.000
808.382;   52.400; -224.000; -332.000
808.637;    2.900; -440.000; -511.000
808.891;  148.800; -257.000; -180.000
809.146;  -39.200; -902.000; -794.000
809.400;  104.600; -848.000; -923.000
809.654;  217.000; -779.000; -551.000
809.909;  280.300; -841.000; -927.000
810.163; 5636.300; -813.000; -651.000
810.418;12047.400; -940.000; -861.000
810.672;  804.900; -685.000; -690.000
810.926;  600.900; -993.000; -973.000
811.180; 1589.900; -439.000; -372.000
811.434;36512.900;  240.000;  135.000
811.689;12143.500; -231.000; -365.000
811.943;  507.700; -936.000; -953.000
812.197;  279.700; -893.000; -671.000
812.451;   91.600; -379.000; -514.000
812.705; -136.500; -809.000; -619.000
812.959;   25.500; -263.000; -388.000
813.213;    5.500; -283.000; -209.000
813.467;  168.800;  470.000;  253.000
813.721; -174.700; -764.000; -792.000
813.975; -190.600; -826.000; -877.000
814.229;  104.400;  430.000;  353.000
814.482; -147.800; -517.000; -566.000
814.736; -213.500; -766.000; -744.000
814.990; -268.400; -779.000; -872.000
815.244;  -98.900; -228.000; -285.000
815.497; -156.400; -636.000; -601.000
815.751;   16.200; -141.000;   82.000
816.005; -132.700; -470.000; -586.000
816.258;  -73.500; -510.000; -363.000
816.512; -203.900; -693.000; -610.000
816.766;   26.200;  121.000;  157.000
817.019;   41.900;  148.000;  149.000
817.273; -240.300;-1000.000; -802.000
817.526;  -15.700; -206.000; -173.000
817.779; -173.300;-1049.000; -960.000
818.033; -206.200; -693.000; -807.000
818.286; -206.500; -725.000; -792.000
818.540; -136.100; -403.000; -403.000
818.793;  -94.800; -402.000; -489.000
819.046; -188.600; -582.000; -520.000
819.299;  -36.500; -157.000; -166.000
819.553; -163.600; -552.000; -592.000
819.806; -291.100;-1016.000; -838.000
820.059;  -72.000; -334.000; -354.000
820.312;   14.600;  152.000;  185.000
820.565;   -0.100;  110.000;  -27.000
820.818;  -56.800;  -59.000; -173.000
821.071; -273.000;-1041.000; -957.000
821.324; -158.100; -536.000; -540.000
821.577; -162.100; -457.000; -483.000
821.830;  -73.600; -270.000; -172.000
822.083; -206.800; -733.000; -288.000
822.336;  -63.600; -261.000; -167.000
822.589; -221.100; -805.000; -688.000
822.842; -285.300; -875.000; -770.000
823.094; -340.800;-1076.000;-1114.000
823.347; -243.500; -925.000; -729.000
823.600;   37.200;  402.000;  187.000
823.853;  -82.900; -311.000; -267.000
824.105; -121.700; -331.000; -575.000
824.358; -251.300; -617.000; -716.000
824.611;   42.600;  234.000;   40.000
824.863; -161.100; -612.000; -591.000
825.116;   50.100;  -33.000;   27.000
825.368;  -24.000; -366.000; -372.000
825.621;   37.000; -186.000; -240.000
825.873; -105.700; -704.000; -737.000
826.126;  290.300; -669.000; -641.000
826.378; 7466.500; -389.000; -505.000
826.630; 1301.300; -890.000; -898.000
826.883; -120.700; -754.000; -693.000
827.135;  -63.400; -279.000; -270.000
827.387; -231.300; -893.000; -839.000
827.639;  -25.200;  -86.000;   32.000
827.892; -238.600; -742.000; -582.000
828.144; -245.800; -848.000; -804.000
828.396;   -1.000;  104.000;  -80.000
828.648; -161.900; -440.000; -333.000
828.900; -247.300; -702.000; -795.000
829.152; -239.000; -684.000; -683.000
829.404; -106.000; -215.000; -267.000
829.656;   49.700;  321.000;  214.000
829.908;   22.800;  393.000;  229.000
830.160; -296.400;-1064.000;-1047.000
830.412; -131.700; -481.000; -430.000
830.664; -201.100; -557.000; -665.000
830.916;  -89.100; -268.000; -206.000
831.167; -290.800;-1073.000; -951.000
831.419; -178.100; -623.000; -566.000
831.671; -235.000; -764.000; -809.000
831.923; -123.000; -311.000; -447.000
832.174; -126.300; -273.000; -331.000
832.426; -193.100; -493.000; -582.000
832.678; -320.400;-1043.000;-1091.000
832.929; -289.100; -947.000; -935.000
833.181; -195.400; -575.000; -677.000
833.432;  -60.500;  -59.000; -186.000
833.684;   13.800;  112.000;  -27.000
833.935; -205.300; -610.000; -566.000
834.187; -218.000; -829.000; -823.000
834.438;  -54.800;  -58.000;  -25.000
834.689;  -85.300; -255.000; -123.000
834.941;  -76.400; -343.000; -244.000
835.192; -200.900; -590.000; -533.000
835.443; -145.100; -419.000; -506.000
835.695;   72.500;  138.000;  -16.000
835.946; -151.700; -608.000; -378.000
836.197; -203.200; -599.000; -622.000
836.448; -156.800; -528.000; -395.000
836.699; -102.000; -253.000; -341.000
836.950;   20.500;   72.000;    7.000
837.201; -308.600;-1003.000; -987.000
837.452;  -87.700; -356.000; -170.000
837.703; -257.500; -791.000; -737.000
837.954;  -67.400; -205.000; -365.000
838.205; -270.700;-1029.000;-1008.000
838.456;   43.100; -196.000; -282.000
838.707;  -91.600; -423.000; -519.000
838.958; -124.600; -634.000; -647.000
839.209;  218.200;   18.000;   40.000
839.460;   69.200; -439.000; -201.000
839.710;   68.400; -135.000; -297.000
839.961;  407.900;  730.000;  612.000
840.212;  148.500; -382.000; -497.000
840.462;  805.100; -328.000; -277.000
840.713;13072.000; -571.000; -536.000
840.964; 4351.900;  -62.000; -143.000
841.214;  317.200; -384.000; -624.000
841.465;  480.500; -214.000; -141.000
841.715;  359.200; -417.000; -380.000
841.966;  435.800; -746.000; -685.000
842.216; 8897.600; -330.000; -431.000
842.466;28008.600; -169.000; -313.000
842.717; 1173.700; -964.000; -952.000
842.967;  177.200; -635.000; -641.000
843.217;  233.900;   20.000;   28.000
843.468;   30.300; -104.000; -132.000
843.718; -131.500; -718.000; -726.000
843.968; -220.700; -837.000; -765.000
844.218;  -33.700; -315.000; -262.000
844.469; -107.600; -577.000; -561.000
844.719; -183.000; -537.000; -682.000
844.969; -167.100; -550.000; -580.000
845.219; -273.700; -814.000; -862.000
845.469; -123.000; -392.000; -342.000
845.719; -246.400; -792.000; -884.000
845.969;    7.200;  119.000;  174.000
846.219; -192.800; -738.000; -720.000
846.469;   99.700;  464.000;  432.000
846.718;  -68.000; -115.000;   31.000
846.968; -222.600; -827.000; -827.000
847.218; -103.800; -224.000; -371.000
847.468; -183.300; -586.000; -555.000
847.718; -273.600; -827.000; -798.000
847.967; -270.100; -826.000; -915.000
848.217; -133.400; -449.000; -569.000
848.467; -113.700; -405.000; -376.000
848.716; -232.400; -708.000; -725.000
848.966;  -81.100; -372.000; -358.000
849.215; -133.000; -428.000; -419.000
849.465; -196.500; -785.000; -615.000
849.714; -314.300;-1132.000;-1150.000
849.964; -138.600; -551.000; -613.000
850.213;  -85.600; -393.000; -355.000
850.463;  113.300;  137.000;  340.000
850.712; -132.000; -542.000; -567.000
850.961; -118.500; -739.000; -678.000
851.211;  -51.200; -513.000; -504.000
851.460;   -0.400; -635.000; -650.000
851.709;  353.900;  -25.000;   18.000
851.958; 6966.800; -912.000; -750.000
852.208; 7089.900; -859.000; -879.000
852.457;  261.300; -181.000;  -13.000
852.706; -135.400; -791.000; -823.000
852.955; -104.400; -507.000; -528.000
853.204; -162.700; -521.000; -461.000
853.453; -147.400; -418.000; -458.000
853.702; -235.400; -660.000; -750.000
853.951; -157.400; -532.000; -520.000
854.200; -178.400; -613.000; -562.000
854.449; -192.000; -695.000; -661.000
854.698; -125.200; -340.000; -279.000
854.946;  -97.600; -181.000; -284.000
855.195; -258.900; -843.000; -868.000
855.444; -146.100; -395.000; -420.000
855.693; -189.800; -345.000; -432.000
855.941; -171.500; -387.000; -516.000
856.190;  -69.500; -256.000; -382.000
856.439; -223.000; -652.000; -703.000
856.687;  -71.000;  -99.000;  -72.000
856.936; -201.500; -621.000; -323.000
857.184; -331.300;-1067.000;-1020.000
857.433; -155.500; -423.000; -512.000
857.681; -269.000; -989.000; -953.000
857.930;  -81.900; -282.000; -433.000
858.178; -290.300; -856.000; -929.000
858.427; -243.400; -802.000; -781.000
858.675; -205.100; -377.000; -544.000
858.923; -164.900; -527.000; -819.000
859.172; -323.100;-1094.000;-1070.000
859.420; -118.800; -339.000; -239.000
859.668; -194.500; -624.000; -628.000
859.916;   -8.300;  109.000;  115.000
860.164; -240.900; -699.000; -603.000
860.413;    8.900; -878.000; -696.000
860.661;  -63.800; -709.000; -577.000
860.909; -144.000; -339.000; -325.000
861.157; -142.100; -277.000; -444.000
861.405; -174.900; -534.000; -670.000
861.653;   59.100;  310.000;  310.000
861.901;    8.100; -543.000; -613.000
862.149; -204.600; -801.000; -824.000
862.396;  -80.900; -297.000; -187.000
862.644; -117.600; -368.000; -347.000
862.892;  -40.400;   98.000;  138.000
863.140; -170.400; -549.000; -530.000
863.388; -247.700; -815.000; -759.000
863.635; -218.500; -642.000; -601.000
863.883;   35.500;  231.000;  190.000
864.131; -134.500; -288.000; -357.000
864.378; -208.500; -675.000; -540.000
864.626; -141.200; -347.000; -415.000
864.873; -202.000; -556.000; -505.000
865.121; -251.300; -714.000; -799.000
865.368;  -24.900; -173.000;   75.000
865.616;   -7.600;  -33.000;  -40.000
865.863; -139.100; -462.000; -506.000
866.111; -240.200; -795.000; -824.000
866.358;  -54.000; -426.000; -420.000
866.605; 1682.900;  -64.000; -804.000
866.853; 1213.400; -621.000; -537.000
867.100; -190.000; -728.000; -775.000
867.347; -230.500; -672.000; -611.000
867.594; -178.200; -740.000; -714.000
867.841;   42.100;   97.000;   17.000
868.089; -245.000; -746.000; -698.000
868.336; -151.100; -477.000; -420.000
868.583; -213.200; -637.000; -741.000
868.830;  -36.600; -131.000; -170.000
869.077; -286.200; -859.000; -787.000
869.324; -178.400; -502.000; -458.000
869.571; -196.700; -398.000; -430.000
869.818; -174.300; -485.000; -439.000
870.065; -176.600; -439.000; -513.000
870.311; -143.400; -456.000; -542.000
870.558; -151.100; -332.000; -311.000
870.805; -104.400; -320.000; -384.000
871.052; -151.900; -494.000; -369.000
871.298;  -78.700; -204.000; -131.000
871.545;  -78.800; -151.000; -185.000
871.792; -121.100; -173.000; -222.000
872.038;  -63.900;   43.000; -126.000
872.285; -193.300; -496.000; -387.000
872.532; -153.300; -357.000; -387.000
872.778;   82.100;  556.000;  403.000
873.025; -144.300; -384.000; -359.000
873.271;  133.800;  501.000;  578.000
873.517;  -57.800; -133.000; -209.000
873.764;  -51.400; -193.000;  -80.000
874.010;  -66.200; -143.000; -230.000
874.257;   -5.100;  123.000;   90.000
874.503; -203.200; -579.000; -479.000
874.749;  -74.100;   31.000;  275.000
874.995;  -56.200;  -80.000;  -20.000
875.242; -176.800; -540.000; -478.000
875.488; -139.500; -414.000; -439.000
875.734;  -52.200; -106.000; -234.000
875.980;  -59.900; -872.000;-1032.000
876.226;  149.700; -157.000; -255.000
876.472;   49.600;  343.000;  237.000
876.718;  -30.900;  184.000;  158.000
876.964;  -48.900;   56.000;   55.000
877.210; -215.100; -547.000; -677.000
877.456; -215.900; -630.000; -557.000
877.702; -277.200; -821.000; -832.000
877.948; -164.500; -377.000; -497.000
878.193;   38.300;  361.000;  255.000
878.439; -179.900; -487.000; -472.000
878.685; -117.600; -272.000; -343.000
878.931; -206.400; -618.000; -676.000
879.176;  -91.600; -201.000; -201.000
879.422; -281.900; -933.000; -820.000
879.668;   39.200;   10.000;   79.000
879.913;   91.700;   53.000;  137.000
880.159;  -59.800; -112.000;  -17.000
880.404;  -35.600; -152.000; -162.000
880.650;  -18.500;   91.000;  141.000
880.895; -249.500; -670.000; -710.000
881.141; -182.900; -454.000; -428.000
881.386; -249.800; -503.000; -658.000
881.631; -159.900; -311.000; -166.000
881.877;  -22.100;  112.000;  -13.000
882.122; -213.300; -684.000; -600.000
882.367; -124.500; -136.000; -186.000
882.612;  -68.400;  -80.000; -176.000
882.858; -293.300; -877.000; -823.000
883.103; -123.000; -297.000; -267.000
883.348; -261.700; -759.000; -852.000
883.593; -218.900; -677.000; -602.000
883.838;  -84.000; -311.000;  -24.000
884.083;   24.400;  353.000;  288.000
884.328; -168.400; -564.000; -545.000
884.573;  -74.600; -196.000; -143.000
884.818;   36.200; -694.000; -531.000
885.063;    0.500; -348.000; -315.000
885.308; -172.000; -475.000; -398.000
885.553;   33.400;  245.000;  325.000
885.797; -226.300; -545.000; -615.000
886.042;  -27.300;    8.000;   58.000
886.287; -128.600; -253.000; -211.000
886.532;   -8.800;   26.000;  204.000
886.776; -128.200; -407.000; -525.000
887.021; -203.700; -621.000; -574.000
887.265; -236.100; -685.000; -689.000
887.510; -222.200; -557.000; -496.000
887.755; -137.500; -194.000; -164.000
887.999; -209.400; -552.000; -575.000
888.244;  -35.500;  -58.000;  161.000
888.488;   75.200;  371.000;  393.000
888.732; -192.600; -368.000; -520.000
888.977; -204.100; -622.000; -567.000
889.221; -240.500; -683.000; -659.000
889.465; -193.800; -422.000; -566.000
889.710;  -80.800;  -56.000; -299.000
889.954;  132.100;  579.000;  467.000
890.198; -229.900; -584.000; -707.000
890.442; -217.800; -716.000; -712.000
890.687; -247.100; -800.000; -753.000
890.931; -134.900; -273.000; -210.000
891.175; -192.100; -502.000; -500.000
891.419;  -74.200; -105.000; -110.000
891.663; -104.700; -239.000; -112.000
891.907; -255.800; -801.000; -545.000
892.151; -280.400; -920.000; -815.000
892.395; -146.000; -274.000; -387.000
892.638;   -0.200;  408.000;  291.000
892.882; -273.500; -780.000; -867.000
893.126;   94.100;  758.000;  558.000
893.370; -106.600; -167.000; -168.000
893.614; -243.800; -714.000; -715.000
893.857; -150.400; -183.000; -197.000
894.101; -167.300; -527.000; -631.000
894.345;  -41.900;  300.000;  150.000
894.588;  104.400;  569.000;  380.000
894.832;  -91.300; -178.000;  -84.000
895.075; -101.200;   15.000;  -92.000
895.319; -185.900; -552.000; -420.000
895.563; -156.800; -413.000; -353.000
895.806; -235.300; -628.000; -741.000
896.049; -131.900; -576.000; -368.000
896.293;  132.300;  527.000;  405.000
896.536; -156.800; -465.000; -468.000
896.779;  -62.800; -149.000;   -1.000
897.023; -247.100; -751.000; -714.000
897.266;   35.800;  325.000;  269.000
897.509; -304.700; -900.000; -901.000
897.752;  -39.000;  149.000;  171.000
897.996; -313.500; -972.000; -864.000
898.239;  -39.400;  168.000;  102.000
898.482; -184.200; -431.000; -453.000
898.725;  -57.500;  101.000;   53.000
898.968; -271.800; -609.000; -744.000
899.211; -173.600; -513.000; -361.000
899.454; -232.800; -633.000; -539.000
899.697;  -75.400;   90.000;  -43.000
899.940; -247.900; -761.000; -757.000
900.182; -155.700; -335.000; -405.000
900.425;  -92.800; -150.000; -298.000
900.668;    1.200;  491.000;  350.000
900.911; -156.200; -292.000; -345.000
901.154;  -43.000;  141.000;   -3.000
901.396; -205.900; -407.000; -412.000
901.639; -199.000; -430.000; -496.000
901.882; -302.200; -790.000; -809.000
902.124; -105.000;  -29.000; -143.000
902.367; -147.100; -315.000; -361.000
902.609; -199.100; -476.000; -453.000
902.852; -104.600; -108.000; -260.000
903.094; -167.200; -458.000; -337.000
903.337;  -16.200;  -26.000;   53.000
903.579; -132.800; -228.000; -441.000
903.821; -263.300; -597.000; -744.000
904.064;  -41.300;   85.000;  127.000
904.306; -113.900; -126.000; -166.000
904.548; -143.100; -152.000; -366.000
904.790; -153.200; -195.000; -340.000
905.033; -213.900; -625.000; -577.000
905.275; -220.800; -513.000; -524.000
905.517;   65.400;  468.000;  256.000
905.759; -217.500; -667.000; -761.000
906.001; -169.600; -322.000; -369.000
906.243; -132.400; -162.000; -224.000
906.485;   42.500; -265.000; -207.000
906.727;  -69.800; -499.000; -542.000
906.969;  -77.900;  -30.000; -135.000
907.211;   -8.900; -316.000; -382.000
907.453;  109.800; -188.000; -237.000
907.695;  -64.600; -158.000; -385.000
907.936;  142.000;  818.000;  706.000
908.178;  -67.700;   92.000; -135.000
908.420; -100.400; -111.000; -162.000
908.662; -210.800; -633.000; -682.000
908.903; -126.500; -208.000; -123.000
909.145;  -73.000; -240.000; -305.000
909.386;   34.400;  315.000;  280.000
909.628;  109.600;  363.000;  397.000
909.870;   16.100;   29.000;  264.000
910.111; -233.800; -809.000; -949.000
910.353;    2.500; -123.000; -161.000
910.594;  -72.800; -574.000; -606.000
910.835;   72.700; -265.000; -326.000
911.077;   80.900; -503.000; -604.000
911.318;  273.700; -505.000; -471.000
911.559;  446.900; -577.000; -880.000
911.801; 1601.700; -284.000; -280.000
912.042;14303.500;  -50.000; -159.000
912.283;31900.000;  404.000;  371.000
912.524; 4058.700; -396.000; -457.000
912.765;  586.500; -193.000;   79.000
913.006;  286.600; -307.000; -338.000
913.247;   14.400; -270.000; -290.000
913.488;  -10.200;  -43.000;   30.000
913.729; -114.700; -373.000; -373.000
913.970;  -67.900;  -96.000; -292.000
914.211;  -83.500; -160.000; -198.000
914.452;  -69.900; -118.000;  -11.000
914.693;   85.700;  510.000;  592.000
914.934;   62.600;  510.000;  440.000
915.175;  -54.200;   53.000;  -95.000
915.415; -128.100; -137.000;   27.000
915.656;  -63.000;  -28.000;  192.000
915.897; -126.800; -252.000;  -82.000
916.137;  -81.000;   74.000;   -9.000
916.378; -196.100; -573.000; -517.000
916.619; -104.400; -159.000;  -63.000
916.859;  -17.500;  303.000;  330.000
917.100;  368.500; 1655.000; 1070.000
917.340;  173.300;  930.000;  728.000
917.581;  148.200;  965.000;  789.000
917.821; -118.700; -171.000;  143.000
918.061;  -54.900; -199.000;  -72.000
918.302;  -72.900; -152.000; -211.000
918.542;  -50.800;  -22.000;    3.000
918.782;   74.600;  369.000;  377.000
919.023;   96.200;  360.000;  427.000
919.263; 1755.200; 8131.000;  202.000
919.503;  608.400; -137.000;  -54.000
919.743;  426.500;  390.000;  266.000
919.983;   67.100; -134.000;  -26.000
920.223;    2.600;  135.000;   14.000
920.463;  130.000;  631.000;  554.000
920.703;   94.900;   84.000;   39.000
920.943;   63.100; -110.000;   90.000
921.183;   51.700; -414.000; -405.000
921.423;  402.000;  307.000;  546.000
921.663;  382.400; -174.000; -257.000
921.903; 1141.100;  237.000;  173.000
922.143; 6819.000;  372.000;  389.000
922.383;24177.700;  158.000;  115.000
922.622; 6777.800; -120.000;  -15.000
922.862;  891.200;  796.000;  785.000
923.102;  274.700;  -51.000;   33.000
923.341;   80.900;   59.000;   74.000
923.581;  113.000;  450.000;  360.000
923.821;   42.400;  301.000;  398.000
924.060;   57.600;  351.000;  193.000
924.300;  -73.600;  -16.000; -128.000
924.539;   16.500;  584.000;  473.000
924.779;   93.300;  812.000;  597.000
925.018;  -51.400;  247.000;  353.000
925.257;   49.600;  595.000;  666.000
925.497;   -1.300;  447.000;  412.000
925.736;  -85.800;  -35.000;  102.000
925.975;   39.500;  687.000;  669.000
926.214;  126.600;  907.000;  850.000
926.454;   91.200;  706.000;  757.000
926.693;   16.400;  419.000;  543.000
926.932;  146.800; 1021.000;  825.000
927.171;  251.700; 1107.000; 1044.000
927.410;  174.700; 1144.000;  967.000
927.649;  170.800;  924.000;  742.000
927.888;   14.600;  590.000;  564.000
928.127;   51.500;  680.000;  678.000
928.366;   96.500;  842.000;  826.000
928.605;  125.000;  831.000;  737.000
928.844;  369.100; 1451.000; 1393.000
929.083;  445.800;  770.000;  613.000
929.321;  349.000; 1335.000; 1359.000
929.560;  211.700; 1158.000; 1122.000
929.799;  -25.400;  574.000;  475.000
930.038;  263.400; 1025.000; 1394.000
930.276;  -11.100;  334.000;  397.000
930.515;  103.600;  827.000;  681.000
930.753;   31.700;  614.000;  589.000
930.992;   43.300;  664.000;  717.000
931.230;   83.000;  847.000;  847.000
931.469;  439.400; 2162.000;  892.000
931.707;  215.100;  840.000;  751.000
931.946;  211.000; 1278.000; 1344.000
932.184;  170.900; 1437.000; 1175.000
932.423;  201.600; 1265.000;  963.000
932.661;  226.800; 1296.000; 1428.000
932.899;   95.100;  987.000;  821.000
933.137;   78.200;  754.000;  564.000
933.376;  284.300; 1664.000; 1335.000
933.614;  296.000; 1759.000; 1196.000
933.852;  154.500; 1357.000; 1171.000
934.090;  288.900; 1722.000; 1747.000
934.328;  244.400; 1252.000; 1457.000
934.566;  204.500; 1431.000; 1110.000
934.804;  235.500; 1263.000; 1309.000
935.042;  490.500; 1861.000; 1850.000
935.280; 1546.500; 2088.000; 2063.000
935.518; 1292.300; 2113.000; 2007.000
935.756;  534.500; 2481.000; 2316.000
935.994;  284.200; 1808.000; 1751.000
936.231;  667.100; 2890.000; 2950.000
936.469;  395.900; 2367.000; 2378.000
936.707;  378.200; 2220.000; 2167.000
936.945;  604.900; 2825.000; 2882.000
937.182;  471.500; 2679.000; 2741.000
937.420;  648.800; 3602.000; 3031.000
937.657;  796.000; 3365.000; 3478.000
937.895;  701.700; 3331.000; 3488.000
938.133;  681.700; 3540.000; 3528.000
938.370;  734.100; 3896.000; 4191.000
938.607;  912.800; 4488.000; 4205.000
938.845; 1153.800; 5587.000; 5549.000
939.082; 1056.400; 5387.000; 5177.000
939.320; 1174.100; 5799.000; 5728.000
939.557; 1356.700; 6549.000; 6491.000
939.794; 1519.700; 7285.000; 7097.000
940.031; 1801.100; 8421.000; 8368.000
940.269; 2077.400; 9552.000; 9107.000
940.506; 2302.100;10901.000;10507.000

